 LCModel (Version 6.3-1L) Copyright: S.W. Provencher.          Ref.: Magn. Reson. Med. 30:672-679 (1993).                
 Slice#2 Row#9 Col#10  PD_24_press_1_raw_act
 36 lines in following concentration table = NCONC+1
    Conc.  %SD /Cr+PCr  Metabolite                                         
  229.254  47%   0.147 Ala                                                 
    0.000 999%   0.000 Asp                                                 
  391.760  62%   0.251 Cr                                                  
 1.17E+03  21%   0.749 PCr                                                 
    0.000 999%   0.000 GABA                                                
    0.000 999%   0.000 Glc                                                 
  657.553  34%   0.421 Gln                                                 
 1.70E+03  15%   1.089 Glu                                                 
  819.611   3%   0.525 GPC                                                 
    0.000 999%   0.000 PCh                                                 
  405.773  17%   0.260 GSH                                                 
 1.54E+03  17%   0.987 Ins                                                 
    0.000 999%   0.000 Lac                                                 
 2.48E+03   5%   1.587 NAA                                                 
  447.763  28%   0.287 NAAG                                                
  201.860  15%   0.129 Scyllo                                              
    0.000 999%   0.000 Tau                                                 
  467.396  24%   0.300 -CrCH2                                              
  819.611   3%   0.525 GPC+PCh                                             
 2.92E+03   3%   1.874 NAA+NAAG                                            
 1.56E+03   4%   1.000 Cr+PCr                                              
 2.36E+03  15%   1.510 Glu+Gln                                             
 2.39E+03  26%   1.530 Lip13a                                              
   91.721 174% 5.9E-02 Lip13b                                              
  499.362  66%   0.320 Lip09                                               
 1.72E+03  21%   1.104 MM09                                                
  382.560  60%   0.245 Lip20                                               
 3.83E+03  12%   2.452 MM20                                                
  740.449  39%   0.475 MM12                                                
    0.000 999%   0.000 MM14                                                
 1.63E+03  18%   1.045 MM17                                                
 2.48E+03  23%   1.589 Lip13a+Lip13b                                       
 3.22E+03  15%   2.063 MM14+Lip13a+Lip13b+MM12                             
 2.22E+03  11%   1.424 MM09+Lip09                                          
 4.21E+03  11%   2.697 MM20+Lip20                                          
   6 lines in following misc. output table
  FWHM = 0.054 ppm    S/N =  15                                            
  Data shift = 0.000 ppm                                                   
  Ph: -42 deg     -16.0 deg/ppm                                            
  alphaB,S = 1.2E+00,   1.0E+02                                            
   14 spline knots.   Ns = 7(1)                                            
  (14) 4 infls.   (13) 1 extrs.                                            
  498 points on ppm-axis = NY
      4.000000     3.992357     3.984714     3.977070     3.969427     3.961784     3.954141     3.946497     3.938854     3.931211
      3.923568     3.915925     3.908281     3.900638     3.892995     3.885352     3.877708     3.870065     3.862422     3.854779
      3.847136     3.839492     3.831849     3.824206     3.816563     3.808919     3.801276     3.793633     3.785990     3.778347
      3.770703     3.763060     3.755417     3.747774     3.740130     3.732487     3.724844     3.717201     3.709558     3.701914
      3.694271     3.686628     3.678985     3.671341     3.663698     3.656055     3.648412     3.640769     3.633125     3.625482
      3.617839     3.610196     3.602552     3.594909     3.587266     3.579623     3.571980     3.564336     3.556693     3.549050
      3.541407     3.533763     3.526120     3.518477     3.510834     3.503191     3.495547     3.487904     3.480261     3.472618
      3.464974     3.457331     3.449688     3.442045     3.434402     3.426758     3.419115     3.411472     3.403829     3.396185
      3.388542     3.380899     3.373256     3.365613     3.357969     3.350326     3.342683     3.335040     3.327396     3.319753
      3.312110     3.304467     3.296824     3.289180     3.281537     3.273894     3.266251     3.258607     3.250964     3.243321
      3.235678     3.228034     3.220391     3.212748     3.205105     3.197462     3.189818     3.182175     3.174532     3.166889
      3.159245     3.151602     3.143959     3.136316     3.128673     3.121029     3.113386     3.105743     3.098100     3.090456
      3.082813     3.075170     3.067527     3.059884     3.052240     3.044597     3.036954     3.029311     3.021667     3.014024
      3.006381     2.998738     2.991095     2.983451     2.975808     2.968165     2.960522     2.952878     2.945235     2.937592
      2.929949     2.922306     2.914662     2.907019     2.899376     2.891733     2.884089     2.876446     2.868803     2.861160
      2.853517     2.845873     2.838230     2.830587     2.822944     2.815300     2.807657     2.800014     2.792371     2.784728
      2.777084     2.769441     2.761798     2.754155     2.746511     2.738868     2.731225     2.723582     2.715939     2.708295
      2.700652     2.693009     2.685366     2.677722     2.670079     2.662436     2.654793     2.647150     2.639506     2.631863
      2.624220     2.616577     2.608933     2.601290     2.593647     2.586004     2.578361     2.570717     2.563074     2.555431
      2.547788     2.540144     2.532501     2.524858     2.517215     2.509572     2.501928     2.494285     2.486642     2.478999
      2.471355     2.463712     2.456069     2.448426     2.440783     2.433139     2.425496     2.417853     2.410210     2.402566
      2.394923     2.387280     2.379637     2.371994     2.364350     2.356707     2.349064     2.341421     2.333777     2.326134
      2.318491     2.310848     2.303205     2.295561     2.287918     2.280275     2.272632     2.264988     2.257345     2.249702
      2.242059     2.234416     2.226772     2.219129     2.211486     2.203843     2.196199     2.188556     2.180913     2.173270
      2.165627     2.157983     2.150340     2.142697     2.135054     2.127410     2.119767     2.112124     2.104481     2.096838
      2.089194     2.081551     2.073908     2.066265     2.058621     2.050978     2.043335     2.035692     2.028049     2.020405
      2.012762     2.005119     1.997476     1.989833     1.982190     1.974546     1.966903     1.959260     1.951617     1.943974
      1.936331     1.928688     1.921045     1.913402     1.905759     1.898115     1.890472     1.882829     1.875186     1.867543
      1.859900     1.852257     1.844614     1.836971     1.829327     1.821684     1.814041     1.806398     1.798755     1.791112
      1.783469     1.775826     1.768183     1.760540     1.752896     1.745253     1.737610     1.729967     1.722324     1.714681
      1.707038     1.699395     1.691752     1.684108     1.676465     1.668822     1.661179     1.653536     1.645893     1.638250
      1.630607     1.622964     1.615321     1.607677     1.600034     1.592391     1.584748     1.577105     1.569462     1.561819
      1.554176     1.546533     1.538890     1.531246     1.523603     1.515960     1.508317     1.500674     1.493031     1.485388
      1.477745     1.470102     1.462458     1.454815     1.447172     1.439529     1.431886     1.424243     1.416600     1.408957
      1.401314     1.393671     1.386027     1.378384     1.370741     1.363098     1.355455     1.347812     1.340169     1.332526
      1.324883     1.317240     1.309596     1.301953     1.294310     1.286667     1.279024     1.271381     1.263738     1.256095
      1.248452     1.240808     1.233165     1.225522     1.217879     1.210236     1.202593     1.194950     1.187307     1.179664
      1.172021     1.164377     1.156734     1.149091     1.141448     1.133805     1.126162     1.118519     1.110876     1.103233
      1.095590     1.087946     1.080303     1.072660     1.065017     1.057374     1.049731     1.042088     1.034445     1.026802
      1.019158     1.011515     1.003872     0.996229     0.988586     0.980943     0.973300     0.965657     0.958014     0.950371
      0.942727     0.935084     0.927441     0.919798     0.912155     0.904512     0.896869     0.889226     0.881583     0.873940
      0.866296     0.858653     0.851010     0.843367     0.835724     0.828081     0.820438     0.812795     0.805152     0.797508
      0.789865     0.782222     0.774579     0.766936     0.759293     0.751650     0.744007     0.736364     0.728721     0.721077
      0.713434     0.705791     0.698148     0.690505     0.682862     0.675219     0.667576     0.659933     0.652290     0.644646
      0.637003     0.629360     0.621717     0.614074     0.606431     0.598788     0.591145     0.583502     0.575858     0.568215
      0.560572     0.552929     0.545286     0.537643     0.530000     0.522357     0.514714     0.507071     0.499427     0.491784
      0.484141     0.476498     0.468855     0.461212     0.453569     0.445925     0.438282     0.430639     0.422996     0.415353
      0.407710     0.400067     0.392424     0.384780     0.377137     0.369494     0.361851     0.354208     0.346565     0.338922
      0.331278     0.323635     0.315992     0.308349     0.300706     0.293063     0.285420     0.277777     0.270133     0.262490
      0.254847     0.247204     0.239561     0.231918     0.224275     0.216631     0.208988     0.201345
 NY phased data points follow
  -6.88078E+00 -9.66651E+00 -8.07563E+00 -1.22320E+01 -1.86767E+00  1.80902E+00  4.45642E+00  6.52936E+00  1.63222E+01  1.57501E+01
   1.95167E+01  1.73090E+01  1.74894E+01  1.04769E+01  8.80518E+00  1.33384E+00  3.14763E-01 -4.40310E+00 -3.35240E+00 -1.06274E+01
  -4.78707E+00 -1.41489E+01 -4.93460E+00 -4.01723E+00 -2.84699E+00 -4.36158E+00 -3.13329E-01  2.03523E+00  2.14645E+00 -4.93902E+00
  -1.08860E+00  9.24216E-01  3.00381E+00 -1.07993E+00 -1.92103E+00  8.52525E-01 -1.65152E+00 -3.81688E+00  2.70194E+00 -2.74743E+00
   1.23296E+00 -8.85957E-01  4.92619E+00  3.63970E-01  6.71000E+00  4.57090E+00  7.00807E+00  5.95456E+00  6.64700E+00  6.43679E+00
   5.29641E+00  7.21010E-01  3.53013E+00 -3.00340E+00  1.75389E+00 -4.63355E-01 -1.12723E+00  2.58782E+00 -2.71933E+00  1.02175E-01
  -4.45155E+00 -6.31192E+00 -8.06609E+00 -7.62271E+00 -1.03462E+01 -6.84248E+00 -1.14947E+01 -1.32927E+01 -6.67263E+00 -8.11963E+00
  -5.02919E+00 -6.03577E+00 -4.74211E+00 -2.42622E+00 -1.69384E+00 -4.76264E+00 -3.38104E+00 -5.42377E+00 -6.26194E+00 -5.22602E+00
  -3.36835E+00 -2.12290E+00  2.64123E+00  1.55780E+00  3.32707E+00  4.77837E+00  6.61697E-01 -8.18120E-02  3.60652E+00  2.33577E+00
   3.12194E+00  2.31892E+00  6.16804E+00  6.45167E+00  9.02746E+00  9.95864E+00  8.55708E+00  9.24818E+00  1.80151E+01  3.34131E+01
   4.77021E+01  5.78044E+01  6.16313E+01  6.40418E+01  6.16310E+01  4.71652E+01  3.75532E+01  2.75452E+01  1.92279E+01  1.02952E+01
   9.10274E+00  3.78450E+00  6.83984E-01 -2.43323E-01  1.24212E-01 -3.95678E+00 -4.87051E+00 -2.58179E+00 -1.39881E+00 -1.32590E+00
   1.62154E+00  5.46404E+00  8.23259E+00  1.21968E+01  2.37186E+01  3.69453E+01  4.58955E+01  5.08544E+01  4.61849E+01  3.85944E+01
   3.20573E+01  2.26437E+01  1.42551E+01  1.21692E+01  6.49111E+00  1.42169E+00 -1.37106E+00 -3.10128E+00 -5.32134E-01  1.39064E+00
  -1.19823E+00  7.04427E-02  3.26926E+00 -3.28189E+00 -8.83016E-02 -3.89757E+00 -3.53223E+00 -3.51072E+00 -5.00118E-01 -2.27407E+00
  -1.66964E+00 -1.04993E+00 -2.90559E+00 -3.54054E+00 -5.12258E+00 -3.03123E+00 -3.01602E+00 -1.77228E+00 -3.58464E+00 -3.96580E+00
  -1.48531E+00 -4.50516E+00 -8.63459E+00 -5.97120E+00 -4.74420E+00 -5.86159E+00 -6.83179E+00 -3.84175E+00 -5.64081E+00 -1.12625E+01
  -8.53733E+00 -9.86022E+00 -1.23536E+01 -1.21068E+01 -1.38017E+01 -1.31488E+01 -1.45066E+01 -1.38810E+01 -1.09650E+01 -1.15740E+01
  -1.06035E+01 -7.78843E+00 -1.32629E+01 -8.63653E+00 -1.01726E+01 -1.15395E+01 -1.04084E+01 -4.70002E+00 -9.36415E+00 -5.05277E+00
   6.45107E-01 -4.45562E+00  1.32159E+00  1.10011E+00  2.49471E+00  2.32793E+00 -1.84741E+00 -4.63897E+00  2.10448E+00 -3.40906E+00
  -1.52395E+00 -3.11284E+00  4.02479E+00  4.16478E+00  1.94868E+00  4.55598E+00  2.39255E+00  3.05532E+00  1.45971E-01  5.22260E-01
   2.49576E+00 -1.18904E+00  3.55356E+00  7.50149E+00  1.04111E+01  1.29606E+01  1.89382E+01  1.65514E+01  1.34011E+01  6.48416E+00
   7.35222E+00  2.75220E+00 -2.65723E+00  2.84564E+00 -1.21871E-01  6.21583E+00  7.12535E+00  9.90957E+00  1.11743E+01  1.01252E+01
   1.34018E+01  1.51883E+01  1.15593E+01  9.72462E+00  1.14651E+01  1.10590E+01  1.09469E+01  1.26234E+01  1.16902E+01  8.77154E+00
   5.99459E+00  5.79350E+00  4.92455E+00  9.35040E+00  5.25587E+00  1.21796E+01  1.32898E+01  1.35301E+01  1.60917E+01  1.57650E+01
   2.04362E+01  2.13333E+01  2.99841E+01  3.47206E+01  3.47910E+01  4.19653E+01  5.11432E+01  6.33787E+01  7.66806E+01  9.03086E+01
   9.96849E+01  1.02006E+02  9.09571E+01  8.01815E+01  6.24924E+01  4.77015E+01  3.84254E+01  2.89226E+01  2.28139E+01  2.03367E+01
   1.66659E+01  1.55368E+01  1.22449E+01  8.59194E+00  9.57883E+00  1.17968E+01  6.91932E+00  9.59274E+00  1.10050E+01  7.75682E+00
   8.65893E+00  6.16991E+00  9.77558E+00  8.11217E+00  7.30205E+00  7.37867E+00  7.32460E+00  8.51929E+00  8.11714E+00  9.02896E+00
   1.01843E+01  8.90738E+00  1.12628E+01  1.27224E+01  9.91141E+00  7.72362E+00  7.03453E+00  9.49674E+00  3.27096E+00  7.58250E+00
   5.34097E+00  8.18135E+00  5.27477E+00  1.06129E+01  9.39423E+00  1.23609E+01  1.04726E+01  1.39084E+01  1.59616E+01  2.06997E+01
   1.77090E+01  1.91606E+01  1.59818E+01  1.60962E+01  1.85955E+01  1.69791E+01  1.63569E+01  1.76338E+01  1.57942E+01  1.45358E+01
   1.37346E+01  1.66448E+01  1.37956E+01  1.68719E+01  1.27747E+01  1.66892E+01  1.33165E+01  1.36893E+01  8.12705E+00  1.16343E+01
   9.39515E+00  8.77496E+00  6.53560E+00  7.11114E+00  7.03391E+00  1.05336E+01  9.97655E+00  1.01877E+01  9.81715E+00  1.39034E+01
   1.33031E+01  1.14941E+01  1.20336E+01  1.02476E+01  1.12497E+01  1.50525E+01  1.53925E+01  1.15103E+01  1.85583E+01  1.80377E+01
   1.34359E+01  1.57669E+01  1.63431E+01  1.77331E+01  1.63739E+01  2.12500E+01  2.17189E+01  2.29726E+01  1.92111E+01  1.91580E+01
   1.33524E+01  1.93885E+01  1.84816E+01  1.82946E+01  1.56172E+01  1.74939E+01  1.21797E+01  1.77224E+01  1.81988E+01  1.92820E+01
   1.80878E+01  1.91829E+01  1.88857E+01  1.80137E+01  1.49886E+01  1.37658E+01  1.38304E+01  1.47423E+01  1.88823E+01  1.36609E+01
   1.41629E+01  1.31858E+01  1.46324E+01  1.53702E+01  1.02510E+01  1.56088E+01  1.45644E+01  1.62806E+01  1.52469E+01  1.59767E+01
   1.92446E+01  1.67120E+01  1.90024E+01  1.74169E+01  1.87108E+01  1.71221E+01  1.58273E+01  2.15986E+01  1.69021E+01  1.88716E+01
   1.90593E+01  1.95877E+01  1.94185E+01  1.89958E+01  1.80832E+01  1.90790E+01  2.20121E+01  2.37426E+01  2.04504E+01  2.21263E+01
   1.94911E+01  2.10607E+01  2.18446E+01  2.00369E+01  2.11509E+01  1.60392E+01  1.83331E+01  1.65689E+01  1.46232E+01  1.92052E+01
   1.40044E+01  1.50367E+01  1.56882E+01  1.59035E+01  1.01595E+01  1.24389E+01  8.85487E+00  1.17238E+01  1.35342E+01  9.92063E+00
   9.43370E+00  1.48418E+01  8.36182E+00  9.32771E+00  8.06058E+00  1.08322E+01  6.32144E+00  9.32666E+00  8.21994E+00  9.31961E+00
   6.92308E+00  1.14150E+01  9.67868E+00  6.51480E+00  4.78648E+00  1.34872E+01  8.85433E+00  1.16152E+01  8.71708E+00  9.29702E+00
   1.07654E+01  1.03807E+01  4.91161E+00  9.14326E+00  8.64242E+00  7.69782E+00  5.46368E+00  9.67126E+00  1.79503E+00  9.08717E+00
   1.00012E+01  7.65079E+00  3.31139E+00  1.13486E+01  6.43259E+00  9.37724E+00  6.29285E+00  8.61497E+00  5.50223E+00  1.07904E+01
   5.04866E+00  5.29269E+00  8.84160E+00  1.03516E+01  5.23376E+00  8.07051E+00  7.72326E+00  6.48560E+00  4.90182E+00  8.56320E+00
   7.18282E+00  8.58376E+00  8.58338E+00  7.87728E+00  7.59288E+00  7.77479E+00  4.44620E+00  5.60338E+00  2.52934E+00  5.73678E+00
   5.56362E+00  3.80882E+00  8.05073E+00  6.52976E+00  8.44992E+00  9.77059E+00  4.08070E+00  8.21779E+00
 NY points of the fit to the data follow
  -6.79576E+00 -6.88872E+00 -6.18940E+00 -4.63374E+00 -2.65379E+00  1.77796E-01  4.14233E+00  8.99695E+00  1.37681E+01  1.72955E+01
   1.87227E+01  1.77386E+01  1.48304E+01  1.09449E+01  7.11190E+00  3.97582E+00  1.49473E+00 -9.37095E-01 -3.16567E+00 -4.43732E+00
  -5.08070E+00 -5.33285E+00 -5.36554E+00 -5.21420E+00 -5.02426E+00 -4.46551E+00 -3.33844E+00 -1.77336E+00 -1.09377E-01  1.34872E+00
   2.45896E+00  3.09757E+00  3.09591E+00  2.52079E+00  1.58260E+00  3.59643E-01 -1.07382E+00 -2.69777E+00 -3.94745E+00 -4.22035E+00
  -3.72342E+00 -2.72869E+00 -1.32156E+00  6.49269E-01  2.98473E+00  5.06353E+00  6.37003E+00  6.63074E+00  5.68539E+00  3.70833E+00
   1.23738E+00 -1.03267E+00 -2.59071E+00 -3.59145E+00 -4.29387E+00 -4.61594E+00 -4.35044E+00 -3.63932E+00 -2.91724E+00 -2.48812E+00
  -2.50406E+00 -2.98415E+00 -3.78519E+00 -4.65719E+00 -5.27017E+00 -5.46651E+00 -5.36397E+00 -5.06661E+00 -4.58223E+00 -4.01889E+00
  -3.50087E+00 -3.12844E+00 -2.96927E+00 -3.00957E+00 -3.19867E+00 -3.45220E+00 -3.65931E+00 -3.77747E+00 -3.79450E+00 -3.71141E+00
  -3.25987E+00 -2.58297E+00 -1.70570E+00 -3.37309E-01  1.40909E+00  3.04556E+00  4.08896E+00  4.30307E+00  3.68690E+00  2.54480E+00
   1.29827E+00  3.55653E-01 -6.68870E-02 -5.21504E-02  3.04912E-01  1.85881E+00  5.90551E+00  1.14767E+01  1.96281E+01  3.15485E+01
   4.55607E+01  5.80076E+01  6.55248E+01  6.62770E+01  6.02618E+01  4.95825E+01  3.73538E+01  2.63330E+01  1.77334E+01  1.08078E+01
   4.25407E+00 -1.11643E+00 -3.25339E+00 -3.71845E+00 -3.75273E+00 -3.63526E+00 -3.43736E+00 -3.14872E+00 -2.70430E+00 -1.78176E+00
   7.25774E-01  4.48050E+00  9.16232E+00  1.63280E+01  2.60560E+01  3.62351E+01  4.41073E+01  4.76871E+01  4.62190E+01  4.04299E+01
   3.22471E+01  2.38419E+01  1.67586E+01  1.11255E+01  5.96633E+00  7.81062E-01 -2.40903E+00 -3.02528E+00 -2.77196E+00 -2.25862E+00
  -1.79258E+00 -1.50080E+00 -1.34795E+00 -1.33345E+00 -1.45430E+00 -1.63530E+00 -1.85049E+00 -2.11743E+00 -2.38763E+00 -2.66318E+00
  -2.89875E+00 -3.08927E+00 -3.22576E+00 -3.29823E+00 -3.34054E+00 -3.35759E+00 -3.36315E+00 -3.47516E+00 -3.73676E+00 -4.13175E+00
  -4.53872E+00 -4.72947E+00 -4.64510E+00 -4.43622E+00 -4.28780E+00 -4.34537E+00 -4.68449E+00 -5.21493E+00 -5.73542E+00 -6.11679E+00
  -6.43033E+00 -6.73703E+00 -7.14981E+00 -7.69538E+00 -8.16156E+00 -8.36517E+00 -8.27147E+00 -7.98911E+00 -7.70039E+00 -7.51165E+00
  -7.43931E+00 -7.38476E+00 -7.17589E+00 -6.79388E+00 -6.23583E+00 -5.49441E+00 -4.59530E+00 -3.38401E+00 -1.88927E+00 -3.84248E-01
   7.46476E-01  1.20835E+00  1.08391E+00  6.32801E-01  1.55968E-01 -1.08332E-01 -1.22573E-01  1.96958E-01  8.93611E-01  1.83692E+00
   2.95730E+00  4.08826E+00  4.96229E+00  5.32701E+00  5.07358E+00  4.03288E+00  2.24663E+00  1.40066E-01 -1.69683E+00 -2.81587E+00
  -2.89770E+00 -2.08342E+00 -3.29070E-01  2.32415E+00  5.29624E+00  7.72983E+00  8.97085E+00  8.74996E+00  7.07190E+00  4.14974E+00
   8.66391E-01 -1.67359E+00 -2.90528E+00 -2.76952E+00 -1.43432E+00  8.08057E-01  3.62339E+00  6.07742E+00  7.69908E+00  8.64472E+00
   9.35443E+00  9.93973E+00  1.02893E+01  1.06040E+01  1.11489E+01  1.18025E+01  1.23376E+01  1.26275E+01  1.26045E+01  1.22170E+01
   1.15231E+01  1.08477E+01  1.06305E+01  1.10421E+01  1.18936E+01  1.29918E+01  1.42442E+01  1.53895E+01  1.64022E+01  1.76704E+01
   1.91331E+01  2.11177E+01  2.41300E+01  2.91108E+01  3.65708E+01  4.40814E+01  5.29369E+01  6.49350E+01  7.88565E+01  9.11694E+01
   9.85215E+01  9.88727E+01  9.16992E+01  7.87849E+01  6.37761E+01  5.05730E+01  4.04626E+01  3.22542E+01  2.40124E+01  1.66981E+01
   1.34920E+01  1.22451E+01  1.15041E+01  1.09935E+01  1.06293E+01  1.02789E+01  9.90270E+00  9.50743E+00  9.10019E+00  8.71679E+00
   8.39117E+00  8.11330E+00  7.85308E+00  7.62077E+00  7.43800E+00  7.28873E+00  7.14518E+00  7.01336E+00  6.91955E+00  6.88215E+00
   6.89463E+00  6.95127E+00  7.05765E+00  7.21127E+00  7.40047E+00  7.62283E+00  7.88493E+00  8.19945E+00  8.57431E+00  9.00924E+00
   9.50463E+00  1.00639E+01  1.06779E+01  1.13318E+01  1.20097E+01  1.26971E+01  1.33802E+01  1.40423E+01  1.46616E+01  1.52238E+01
   1.57144E+01  1.61195E+01  1.64283E+01  1.66342E+01  1.67341E+01  1.67294E+01  1.66266E+01  1.64379E+01  1.61829E+01  1.58936E+01
   1.56262E+01  1.53699E+01  1.50719E+01  1.48214E+01  1.45773E+01  1.41638E+01  1.34289E+01  1.23384E+01  1.10163E+01  9.70895E+00
   8.54551E+00  7.73089E+00  7.47089E+00  7.78438E+00  8.49109E+00  9.38612E+00  1.03767E+01  1.13161E+01  1.19617E+01  1.23343E+01
   1.25675E+01  1.27942E+01  1.30518E+01  1.32634E+01  1.34169E+01  1.36905E+01  1.40790E+01  1.45394E+01  1.50513E+01  1.56001E+01
   1.61711E+01  1.67470E+01  1.73078E+01  1.78315E+01  1.82962E+01  1.86829E+01  1.89775E+01  1.91726E+01  1.92684E+01  1.92714E+01
   1.91933E+01  1.90481E+01  1.88503E+01  1.86128E+01  1.83458E+01  1.80566E+01  1.77501E+01  1.74297E+01  1.70982E+01  1.67582E+01
   1.64132E+01  1.60669E+01  1.57240E+01  1.53897E+01  1.50695E+01  1.47692E+01  1.44940E+01  1.42492E+01  1.40396E+01  1.38698E+01
   1.37438E+01  1.36653E+01  1.36372E+01  1.36622E+01  1.37422E+01  1.38788E+01  1.40727E+01  1.43237E+01  1.46308E+01  1.49917E+01
   1.54033E+01  1.58609E+01  1.63584E+01  1.68883E+01  1.74417E+01  1.80084E+01  1.85770E+01  1.91353E+01  1.96705E+01  2.01696E+01
   2.06199E+01  2.10096E+01  2.13281E+01  2.15666E+01  2.17180E+01  2.17778E+01  2.17441E+01  2.16173E+01  2.14007E+01  2.10995E+01
   2.07212E+01  2.02749E+01  1.97708E+01  1.92201E+01  1.86342E+01  1.80243E+01  1.74013E+01  1.67751E+01  1.61545E+01  1.55474E+01
   1.49600E+01  1.43973E+01  1.38631E+01  1.33598E+01  1.28891E+01  1.24513E+01  1.20463E+01  1.16732E+01  1.13305E+01  1.10168E+01
   1.07302E+01  1.04686E+01  1.02301E+01  1.00126E+01  9.81421E+00  9.63314E+00  9.46774E+00  9.31641E+00  9.17773E+00  9.05037E+00
   8.93323E+00  8.82528E+00  8.72562E+00  8.63338E+00  8.54783E+00  8.46830E+00  8.39427E+00  8.32520E+00  8.26068E+00  8.20022E+00
   8.14350E+00  8.09016E+00  8.03998E+00  7.99268E+00  7.94805E+00  7.90581E+00  7.86581E+00  7.82786E+00  7.79188E+00  7.75766E+00
   7.72510E+00  7.69402E+00  7.66439E+00  7.63606E+00  7.60903E+00  7.58314E+00  7.55834E+00  7.53450E+00  7.51164E+00  7.48966E+00
   7.46856E+00  7.44822E+00  7.42862E+00  7.40968E+00  7.39144E+00  7.37382E+00  7.35682E+00  7.34033E+00  7.32437E+00  7.30886E+00
   7.29386E+00  7.27929E+00  7.26516E+00  7.25137E+00  7.23795E+00  7.22486E+00  7.21214E+00  7.19970E+00  7.18757E+00  7.17564E+00
   7.16398E+00  7.15252E+00  7.14133E+00  7.13028E+00  7.11940E+00  7.10862E+00  7.09800E+00  7.08746E+00
 NY background values follow
    -1.395E+01   -1.388E+01   -1.381E+01   -1.374E+01   -1.367E+01   -1.360E+01   -1.352E+01   -1.345E+01   -1.338E+01   -1.331E+01
    -1.324E+01   -1.317E+01   -1.310E+01   -1.303E+01   -1.296E+01   -1.289E+01   -1.282E+01   -1.275E+01   -1.268E+01   -1.261E+01
    -1.254E+01   -1.247E+01   -1.240E+01   -1.233E+01   -1.227E+01   -1.220E+01   -1.213E+01   -1.206E+01   -1.199E+01   -1.192E+01
    -1.185E+01   -1.178E+01   -1.171E+01   -1.164E+01   -1.157E+01   -1.151E+01   -1.144E+01   -1.137E+01   -1.130E+01   -1.123E+01
    -1.116E+01   -1.110E+01   -1.103E+01   -1.096E+01   -1.089E+01   -1.083E+01   -1.076E+01   -1.069E+01   -1.063E+01   -1.056E+01
    -1.049E+01   -1.043E+01   -1.036E+01   -1.029E+01   -1.023E+01   -1.016E+01   -1.010E+01   -1.003E+01   -9.968E+00   -9.904E+00
    -9.839E+00   -9.775E+00   -9.711E+00   -9.647E+00   -9.583E+00   -9.520E+00   -9.457E+00   -9.394E+00   -9.331E+00   -9.268E+00
    -9.206E+00   -9.144E+00   -9.082E+00   -9.020E+00   -8.959E+00   -8.897E+00   -8.836E+00   -8.776E+00   -8.715E+00   -8.655E+00
    -8.595E+00   -8.535E+00   -8.475E+00   -8.416E+00   -8.357E+00   -8.298E+00   -8.240E+00   -8.182E+00   -8.124E+00   -8.066E+00
    -8.009E+00   -7.951E+00   -7.894E+00   -7.838E+00   -7.781E+00   -7.725E+00   -7.669E+00   -7.614E+00   -7.559E+00   -7.503E+00
    -7.448E+00   -7.394E+00   -7.339E+00   -7.285E+00   -7.231E+00   -7.177E+00   -7.124E+00   -7.071E+00   -7.017E+00   -6.964E+00
    -6.912E+00   -6.859E+00   -6.807E+00   -6.754E+00   -6.702E+00   -6.651E+00   -6.599E+00   -6.547E+00   -6.496E+00   -6.445E+00
    -6.394E+00   -6.343E+00   -6.292E+00   -6.241E+00   -6.191E+00   -6.140E+00   -6.090E+00   -6.040E+00   -5.990E+00   -5.940E+00
    -5.890E+00   -5.841E+00   -5.791E+00   -5.741E+00   -5.692E+00   -5.643E+00   -5.594E+00   -5.544E+00   -5.495E+00   -5.446E+00
    -5.397E+00   -5.348E+00   -5.299E+00   -5.250E+00   -5.202E+00   -5.153E+00   -5.104E+00   -5.055E+00   -5.006E+00   -4.957E+00
    -4.908E+00   -4.859E+00   -4.810E+00   -4.761E+00   -4.711E+00   -4.662E+00   -4.613E+00   -4.563E+00   -4.514E+00   -4.464E+00
    -4.414E+00   -4.364E+00   -4.314E+00   -4.264E+00   -4.213E+00   -4.162E+00   -4.112E+00   -4.061E+00   -4.009E+00   -3.958E+00
    -3.906E+00   -3.855E+00   -3.803E+00   -3.750E+00   -3.698E+00   -3.645E+00   -3.592E+00   -3.538E+00   -3.485E+00   -3.431E+00
    -3.376E+00   -3.322E+00   -3.267E+00   -3.212E+00   -3.156E+00   -3.101E+00   -3.045E+00   -2.988E+00   -2.932E+00   -2.875E+00
    -2.818E+00   -2.761E+00   -2.704E+00   -2.646E+00   -2.589E+00   -2.531E+00   -2.473E+00   -2.415E+00   -2.357E+00   -2.299E+00
    -2.240E+00   -2.182E+00   -2.123E+00   -2.065E+00   -2.007E+00   -1.948E+00   -1.890E+00   -1.831E+00   -1.773E+00   -1.714E+00
    -1.656E+00   -1.598E+00   -1.540E+00   -1.482E+00   -1.424E+00   -1.366E+00   -1.308E+00   -1.251E+00   -1.193E+00   -1.136E+00
    -1.079E+00   -1.022E+00   -9.657E-01   -9.093E-01   -8.532E-01   -7.973E-01   -7.418E-01   -6.865E-01   -6.314E-01   -5.767E-01
    -5.222E-01   -4.680E-01   -4.141E-01   -3.605E-01   -3.071E-01   -2.540E-01   -2.012E-01   -1.486E-01   -9.635E-02   -4.433E-02
     7.429E-03    5.892E-02    1.101E-01    1.611E-01    2.118E-01    2.623E-01    3.125E-01    3.624E-01    4.121E-01    4.615E-01
     5.107E-01    5.596E-01    6.083E-01    6.567E-01    7.049E-01    7.528E-01    8.005E-01    8.479E-01    8.951E-01    9.421E-01
     9.888E-01    1.035E+00    1.082E+00    1.128E+00    1.173E+00    1.219E+00    1.264E+00    1.309E+00    1.354E+00    1.399E+00
     1.443E+00    1.487E+00    1.531E+00    1.575E+00    1.619E+00    1.662E+00    1.705E+00    1.748E+00    1.790E+00    1.833E+00
     1.875E+00    1.917E+00    1.958E+00    2.000E+00    2.041E+00    2.082E+00    2.123E+00    2.163E+00    2.204E+00    2.244E+00
     2.284E+00    2.323E+00    2.362E+00    2.402E+00    2.440E+00    2.479E+00    2.517E+00    2.555E+00    2.593E+00    2.631E+00
     2.668E+00    2.705E+00    2.742E+00    2.779E+00    2.815E+00    2.852E+00    2.887E+00    2.923E+00    2.959E+00    2.994E+00
     3.029E+00    3.063E+00    3.098E+00    3.132E+00    3.166E+00    3.199E+00    3.233E+00    3.266E+00    3.298E+00    3.331E+00
     3.363E+00    3.395E+00    3.427E+00    3.459E+00    3.490E+00    3.521E+00    3.552E+00    3.582E+00    3.613E+00    3.643E+00
     3.672E+00    3.702E+00    3.731E+00    3.760E+00    3.789E+00    3.817E+00    3.845E+00    3.873E+00    3.901E+00    3.928E+00
     3.956E+00    3.982E+00    4.009E+00    4.036E+00    4.062E+00    4.088E+00    4.113E+00    4.139E+00    4.164E+00    4.189E+00
     4.213E+00    4.238E+00    4.262E+00    4.286E+00    4.309E+00    4.333E+00    4.356E+00    4.379E+00    4.401E+00    4.424E+00
     4.446E+00    4.468E+00    4.489E+00    4.511E+00    4.532E+00    4.553E+00    4.573E+00    4.594E+00    4.614E+00    4.634E+00
     4.653E+00    4.673E+00    4.692E+00    4.711E+00    4.729E+00    4.748E+00    4.766E+00    4.784E+00    4.802E+00    4.819E+00
     4.837E+00    4.854E+00    4.870E+00    4.887E+00    4.903E+00    4.920E+00    4.935E+00    4.951E+00    4.967E+00    4.982E+00
     4.997E+00    5.012E+00    5.026E+00    5.041E+00    5.055E+00    5.069E+00    5.083E+00    5.096E+00    5.110E+00    5.123E+00
     5.136E+00    5.149E+00    5.161E+00    5.173E+00    5.186E+00    5.198E+00    5.209E+00    5.221E+00    5.232E+00    5.243E+00
     5.254E+00    5.265E+00    5.276E+00    5.286E+00    5.296E+00    5.306E+00    5.316E+00    5.326E+00    5.335E+00    5.345E+00
     5.354E+00    5.363E+00    5.372E+00    5.381E+00    5.389E+00    5.398E+00    5.406E+00    5.414E+00    5.422E+00    5.430E+00
     5.437E+00    5.445E+00    5.452E+00    5.459E+00    5.466E+00    5.473E+00    5.480E+00    5.487E+00    5.493E+00    5.500E+00
     5.506E+00    5.512E+00    5.518E+00    5.524E+00    5.530E+00    5.536E+00    5.542E+00    5.547E+00    5.553E+00    5.558E+00
     5.563E+00    5.568E+00    5.573E+00    5.578E+00    5.583E+00    5.588E+00    5.593E+00    5.597E+00    5.602E+00    5.606E+00
     5.610E+00    5.615E+00    5.619E+00    5.623E+00    5.627E+00    5.631E+00    5.635E+00    5.639E+00    5.643E+00    5.647E+00
     5.650E+00    5.654E+00    5.658E+00    5.661E+00    5.665E+00    5.668E+00    5.672E+00    5.675E+00    5.679E+00    5.682E+00
     5.685E+00    5.689E+00    5.692E+00    5.695E+00    5.699E+00    5.702E+00    5.705E+00    5.708E+00    5.711E+00    5.715E+00
     5.718E+00    5.721E+00    5.724E+00    5.727E+00    5.730E+00    5.734E+00    5.737E+00    5.740E+00
 Ala      Conc. = 2.29E+02
