 LCModel (Version 6.3-1L) Copyright: S.W. Provencher.          Ref.: Magn. Reson. Med. 30:672-679 (1993).                
 Slice#1 Row#9 Col#8  PD_24_press_1_raw_act
 36 lines in following concentration table = NCONC+1
    Conc.  %SD /Cr+PCr  Metabolite                                         
    0.000 999%   0.000 Ala                                                 
   14.207 683% 4.1E-02 Asp                                                 
  345.411  18%   1.000 Cr                                                  
    0.000 999%   0.000 PCr                                                 
   21.435 279% 6.2E-02 GABA                                                
   29.709 199% 8.6E-02 Glc                                                 
   82.470 360%   0.239 Gln                                                 
  213.692 150%   0.619 Glu                                                 
  102.208 127%   0.296 GPC                                                 
   24.219 554% 7.0E-02 PCh                                                 
   80.857  94%   0.234 GSH                                                 
  955.940  28%   2.768 Ins                                                 
  517.809  51%   1.499 Lac                                                 
    0.000 999%   0.000 NAA                                                 
  605.873  13%   1.754 NAAG                                                
    0.000 999%   0.000 Scyllo                                              
   11.449 829% 3.3E-02 Tau                                                 
  101.946  90%   0.295 -CrCH2                                              
  126.427  17%   0.366 GPC+PCh                                             
  605.873  13%   1.754 NAA+NAAG                                            
  345.411  18%   1.000 Cr+PCr                                              
  296.162 168%   0.857 Glu+Gln                                             
    4.867 999% 1.4E-02 Lip13a                                              
 1.40E+03  16%   4.062 Lip13b                                              
  292.216  64%   0.846 Lip09                                               
  923.625  24%   2.674 MM09                                                
  219.940  59%   0.637 Lip20                                               
 1.48E+03  25%   4.283 MM20                                                
  319.322  44%   0.924 MM12                                                
  350.479  89%   1.015 MM14                                                
  391.228  52%   1.133 MM17                                                
 1.41E+03  36%   4.077 Lip13a+Lip13b                                       
 2.08E+03  22%   6.016 MM14+Lip13a+Lip13b+MM12                             
 1.22E+03  16%   3.520 MM09+Lip09                                          
 1.70E+03  22%   4.920 MM20+Lip20                                          
   6 lines in following misc. output table
  FWHM = 0.076 ppm    S/N =   3                                            
  Data shift = 0.008 ppm                                                   
  Ph:  72 deg      40.6 deg/ppm                                            
  alphaB,S = 8.5E+01,   5.1E+01                                            
   14 spline knots.   Ns = 9(1)                                            
  ( 9) 2 infls.   ( 5) 1 extrs.                                            
  498 points on ppm-axis = NY
      4.000000     3.992357     3.984714     3.977070     3.969427     3.961784     3.954141     3.946497     3.938854     3.931211
      3.923568     3.915925     3.908281     3.900638     3.892995     3.885352     3.877708     3.870065     3.862422     3.854779
      3.847136     3.839492     3.831849     3.824206     3.816563     3.808919     3.801276     3.793633     3.785990     3.778347
      3.770703     3.763060     3.755417     3.747774     3.740130     3.732487     3.724844     3.717201     3.709558     3.701914
      3.694271     3.686628     3.678985     3.671341     3.663698     3.656055     3.648412     3.640769     3.633125     3.625482
      3.617839     3.610196     3.602552     3.594909     3.587266     3.579623     3.571980     3.564336     3.556693     3.549050
      3.541407     3.533763     3.526120     3.518477     3.510834     3.503191     3.495547     3.487904     3.480261     3.472618
      3.464974     3.457331     3.449688     3.442045     3.434402     3.426758     3.419115     3.411472     3.403829     3.396185
      3.388542     3.380899     3.373256     3.365613     3.357969     3.350326     3.342683     3.335040     3.327396     3.319753
      3.312110     3.304467     3.296824     3.289180     3.281537     3.273894     3.266251     3.258607     3.250964     3.243321
      3.235678     3.228034     3.220391     3.212748     3.205105     3.197462     3.189818     3.182175     3.174532     3.166889
      3.159245     3.151602     3.143959     3.136316     3.128673     3.121029     3.113386     3.105743     3.098100     3.090456
      3.082813     3.075170     3.067527     3.059884     3.052240     3.044597     3.036954     3.029311     3.021667     3.014024
      3.006381     2.998738     2.991095     2.983451     2.975808     2.968165     2.960522     2.952878     2.945235     2.937592
      2.929949     2.922306     2.914662     2.907019     2.899376     2.891733     2.884089     2.876446     2.868803     2.861160
      2.853517     2.845873     2.838230     2.830587     2.822944     2.815300     2.807657     2.800014     2.792371     2.784728
      2.777084     2.769441     2.761798     2.754155     2.746511     2.738868     2.731225     2.723582     2.715939     2.708295
      2.700652     2.693009     2.685366     2.677722     2.670079     2.662436     2.654793     2.647150     2.639506     2.631863
      2.624220     2.616577     2.608933     2.601290     2.593647     2.586004     2.578361     2.570717     2.563074     2.555431
      2.547788     2.540144     2.532501     2.524858     2.517215     2.509572     2.501928     2.494285     2.486642     2.478999
      2.471355     2.463712     2.456069     2.448426     2.440783     2.433139     2.425496     2.417853     2.410210     2.402566
      2.394923     2.387280     2.379637     2.371994     2.364350     2.356707     2.349064     2.341421     2.333777     2.326134
      2.318491     2.310848     2.303205     2.295561     2.287918     2.280275     2.272632     2.264988     2.257345     2.249702
      2.242059     2.234416     2.226772     2.219129     2.211486     2.203843     2.196199     2.188556     2.180913     2.173270
      2.165627     2.157983     2.150340     2.142697     2.135054     2.127410     2.119767     2.112124     2.104481     2.096838
      2.089194     2.081551     2.073908     2.066265     2.058621     2.050978     2.043335     2.035692     2.028049     2.020405
      2.012762     2.005119     1.997476     1.989833     1.982190     1.974546     1.966903     1.959260     1.951617     1.943974
      1.936331     1.928688     1.921045     1.913402     1.905759     1.898115     1.890472     1.882829     1.875186     1.867543
      1.859900     1.852257     1.844614     1.836971     1.829327     1.821684     1.814041     1.806398     1.798755     1.791112
      1.783469     1.775826     1.768183     1.760540     1.752896     1.745253     1.737610     1.729967     1.722324     1.714681
      1.707038     1.699395     1.691752     1.684108     1.676465     1.668822     1.661179     1.653536     1.645893     1.638250
      1.630607     1.622964     1.615321     1.607677     1.600034     1.592391     1.584748     1.577105     1.569462     1.561819
      1.554176     1.546533     1.538890     1.531246     1.523603     1.515960     1.508317     1.500674     1.493031     1.485388
      1.477745     1.470102     1.462458     1.454815     1.447172     1.439529     1.431886     1.424243     1.416600     1.408957
      1.401314     1.393671     1.386027     1.378384     1.370741     1.363098     1.355455     1.347812     1.340169     1.332526
      1.324883     1.317240     1.309596     1.301953     1.294310     1.286667     1.279024     1.271381     1.263738     1.256095
      1.248452     1.240808     1.233165     1.225522     1.217879     1.210236     1.202593     1.194950     1.187307     1.179664
      1.172021     1.164377     1.156734     1.149091     1.141448     1.133805     1.126162     1.118519     1.110876     1.103233
      1.095590     1.087946     1.080303     1.072660     1.065017     1.057374     1.049731     1.042088     1.034445     1.026802
      1.019158     1.011515     1.003872     0.996229     0.988586     0.980943     0.973300     0.965657     0.958014     0.950371
      0.942727     0.935084     0.927441     0.919798     0.912155     0.904512     0.896869     0.889226     0.881583     0.873940
      0.866296     0.858653     0.851010     0.843367     0.835724     0.828081     0.820438     0.812795     0.805152     0.797508
      0.789865     0.782222     0.774579     0.766936     0.759293     0.751650     0.744007     0.736364     0.728721     0.721077
      0.713434     0.705791     0.698148     0.690505     0.682862     0.675219     0.667576     0.659933     0.652290     0.644646
      0.637003     0.629360     0.621717     0.614074     0.606431     0.598788     0.591145     0.583502     0.575858     0.568215
      0.560572     0.552929     0.545286     0.537643     0.530000     0.522357     0.514714     0.507071     0.499427     0.491784
      0.484141     0.476498     0.468855     0.461212     0.453569     0.445925     0.438282     0.430639     0.422996     0.415353
      0.407710     0.400067     0.392424     0.384780     0.377137     0.369494     0.361851     0.354208     0.346565     0.338922
      0.331278     0.323635     0.315992     0.308349     0.300706     0.293063     0.285420     0.277777     0.270133     0.262490
      0.254847     0.247204     0.239561     0.231918     0.224275     0.216631     0.208988     0.201345
 NY phased data points follow
  -2.77519E+00 -1.64075E+00  2.01941E+00  2.36708E+00 -5.98167E-01  1.11218E+01 -3.51418E+00  6.74914E+00  8.43547E+00  4.43715E+00
   8.23990E+00  5.38889E+00  5.09134E+00  9.91364E+00  8.82517E+00  2.65549E+00  3.80707E+00  7.04167E+00 -2.24408E+00  1.66743E+00
   3.53112E+00  6.69878E+00  1.87012E-01  9.94567E-01 -2.62675E+00  5.68807E+00  3.90285E+00 -9.20511E-01  3.07278E+00  7.39886E+00
   7.13073E-01  4.30904E+00  7.74942E+00  2.84582E+00  9.91068E+00  7.86557E+00  2.81797E+00 -2.57485E+00  6.82762E+00  4.11695E+00
   3.24620E+00  5.38798E+00 -1.53052E+00  7.33012E+00 -2.02097E+00  7.64183E+00  2.69601E+00  9.47755E+00  5.77406E+00  9.84632E+00
   6.38269E-01  4.30875E+00  3.63619E+00  1.23157E+00  5.67789E+00 -3.00590E-02  5.97678E+00  4.23851E+00 -1.13292E+00  8.36149E+00
   3.83177E-02  4.96529E+00  3.21208E+00 -4.29955E+00 -4.19449E+00  2.03857E+00  1.49060E+00 -1.10353E+00 -5.76809E+00 -1.06335E+00
  -2.55596E+00  5.66704E-01  9.96473E-01  4.95491E-01  2.41660E+00  1.05840E+00  5.24573E+00  8.50513E-01  1.63441E+00 -1.65592E-01
  -2.74346E+00  3.82483E-01  3.06981E-01  1.39161E+00  5.01345E-01 -2.16123E+00 -1.38884E+00  4.57705E-01 -5.04766E+00 -2.21749E-01
  -7.05236E+00 -9.79787E-01 -1.24499E+00 -2.98512E+00  3.07068E+00  2.92327E+00  3.72690E+00  9.03847E+00  4.90816E+00  7.65191E+00
   9.06326E+00  5.36021E+00  4.95638E+00  1.05858E+01  1.23914E+01  7.86344E+00  4.80067E+00  5.02008E+00  1.75097E+00  5.71248E+00
   2.26467E+00  1.91194E+00 -8.10701E-01  5.10567E-01 -1.93678E+00  3.06969E+00  8.83442E-01 -2.31803E+00  1.00103E+00  7.42095E+00
  -2.38164E+00  3.79980E+00  9.87712E-01 -1.28511E+00  2.80402E+00  3.45061E-01  7.72822E+00  1.27003E+01  1.31508E+01  3.72798E+00
   3.01013E+00  4.79444E+00  4.48894E+00  2.56264E+00  4.99828E+00  2.29539E+00  4.50023E+00  2.01007E+00 -5.30864E-01  2.23438E+00
  -9.56694E-01 -2.84122E+00 -7.41064E+00 -4.26507E-01 -4.59253E+00 -4.97313E+00 -2.95335E+00 -2.01685E+00 -9.29007E+00 -3.73436E+00
  -4.20654E+00 -5.16665E+00 -5.17333E+00 -7.51309E-01 -1.38949E+00 -2.02988E+00 -6.79666E+00 -4.76973E+00 -9.06038E-01 -8.42632E+00
  -7.42797E-01 -2.59155E+00 -4.59842E+00 -5.41176E+00  1.03751E-03 -5.86353E-02 -1.79476E-02 -8.03251E+00 -6.52314E+00 -2.09912E+00
  -7.89866E+00 -6.25542E+00 -6.19767E+00 -4.63770E+00 -3.71622E+00 -6.76934E+00 -6.61947E+00 -1.14684E+01 -9.00064E+00 -6.08032E+00
  -8.45420E+00 -1.17990E+01 -1.09310E+01 -8.33161E+00 -2.10293E+00 -4.33872E+00 -6.81011E+00 -2.94508E+00 -5.49291E+00 -8.52777E+00
  -1.19977E+01 -5.82488E-01 -3.47010E+00 -5.71602E+00 -5.45103E+00 -1.67399E+00  8.57479E-01 -7.48808E-01 -8.68948E+00 -8.49836E+00
  -5.88298E+00  7.24769E-01  2.99559E-01 -7.31069E+00 -4.77784E+00  8.72120E-01 -8.15043E+00 -8.04967E+00 -5.98578E+00 -2.11101E+00
  -3.71762E+00 -5.79353E+00 -5.32535E+00 -2.06573E+00 -2.59050E+00  4.70071E-01 -4.11768E+00 -5.03319E+00  2.09136E+00  2.04033E+00
  -6.13438E+00 -5.36118E+00 -2.80256E+00 -4.63013E+00 -5.13169E+00 -2.30036E+00  8.37668E-01 -5.98891E+00 -2.49730E+00 -3.04011E+00
  -2.58250E+00  1.22338E+00 -1.41052E+00 -4.68798E+00 -3.10296E+00 -3.45366E+00  3.27680E+00 -3.88044E+00 -2.86052E+00 -6.74356E+00
  -3.21155E+00 -3.35113E+00 -4.58978E+00 -2.54144E+00 -8.85508E-01  5.81951E+00  6.99928E-03 -1.46794E+00  2.40842E+00  9.01033E-02
  -4.49055E+00 -1.15256E+00 -1.45209E+00  4.88879E+00  5.30460E+00  1.26176E+01  1.85858E+01  6.53768E+00  1.23432E+01  1.66197E+01
   1.57014E+01  1.60718E+01  9.56976E+00  3.43653E+00  6.42969E+00  3.23738E+00  2.62240E+00 -3.84441E+00 -3.65987E+00 -7.63601E+00
  -5.89875E+00 -3.40403E+00 -9.93651E-01 -2.72739E+00 -8.76926E+00 -4.45242E+00 -8.73572E+00 -2.41501E+00 -7.48265E+00 -6.68630E+00
  -9.90326E+00 -4.12703E+00 -6.21407E+00 -6.96001E+00 -3.61396E+00 -1.47418E+01 -8.07458E+00 -6.43591E+00 -9.55466E+00 -6.78005E+00
  -1.09647E+01 -1.06997E+01 -1.28235E+01 -8.57123E+00 -8.26418E+00 -1.89790E+00 -1.04518E+01 -7.98311E+00 -4.96606E+00 -1.05222E+00
  -6.01788E+00 -1.01727E+00 -2.77013E+00 -8.57182E-01 -3.88839E+00 -3.70008E+00 -6.93659E+00 -3.54810E+00 -7.48557E+00 -3.99536E+00
  -9.35357E+00 -1.23407E+01 -1.38512E+01 -6.10875E-01 -1.08093E+01 -8.22039E+00 -1.03688E+01 -7.33164E+00 -6.69742E+00 -4.08269E+00
  -6.04748E+00 -7.89617E+00 -7.81167E+00 -4.29675E+00 -8.71503E+00 -1.02293E+01 -1.08072E+01 -8.31812E+00 -1.38846E+01 -9.57757E+00
  -1.49580E+01 -1.18401E+01 -9.49614E+00 -2.18575E+00 -1.19216E+01 -6.46953E+00 -9.28357E+00 -8.73914E+00 -1.32354E+01 -6.62439E+00
  -6.69788E+00 -1.29811E+01 -1.00234E+01 -3.80123E+00 -8.73723E+00 -1.33479E+00  1.14922E+00  3.26451E+00  2.09235E+00  7.07801E+00
   8.08131E+00  8.79197E+00  1.24740E+01  8.79593E+00  1.01268E+01  1.22791E+01  1.27479E+00  1.93206E+00  8.05006E+00  7.96137E+00
   4.19992E+00  2.65847E+00  3.99432E-01 -6.62312E-01 -3.77250E+00 -1.95824E+00  4.13333E+00 -6.58969E+00 -1.49228E+00 -3.69630E+00
  -2.85351E+00 -2.25863E+00 -4.33300E+00 -4.24138E+00 -7.43911E+00 -1.68185E+00 -2.85036E+00 -7.92972E+00 -5.71697E+00 -4.79964E+00
  -2.20147E+00 -7.84198E+00 -7.27560E+00  1.81972E+00  7.74201E-01  8.06370E-01 -5.72237E+00 -6.14618E+00 -8.28294E-01 -2.03901E+00
   1.31280E+00  3.41190E+00 -4.00842E-01 -1.96358E+00 -1.19688E+00  2.74599E+00  1.04404E+00 -3.52655E+00  1.38448E+00 -4.92680E+00
  -2.17272E+00 -3.10522E+00  7.82804E-01 -3.02987E+00  3.42178E-01  8.63109E-01  3.44395E+00  1.44246E+00  4.30645E+00 -2.91304E+00
  -4.59638E+00 -1.92844E+00 -9.30446E-01 -2.79509E+00 -6.89221E-01  1.99330E-01 -3.12593E+00  2.62328E+00 -1.54728E+00 -2.56362E+00
  -5.03206E+00 -4.97774E+00 -1.52055E+00 -4.52286E+00 -6.43953E-01  8.83697E-01 -2.14996E+00  1.18936E-01 -2.05970E+00  6.99789E-01
  -5.58954E+00 -4.90978E+00 -8.75442E+00  1.52374E+00 -3.22137E+00 -6.92086E+00 -7.95559E+00 -4.30376E+00 -4.11717E+00 -5.31034E+00
  -4.23116E+00 -1.40045E+00 -5.13737E+00 -5.85041E+00 -7.98204E+00 -2.94532E+00  1.55829E+00 -2.45797E+00 -2.99578E-01 -6.92470E+00
  -6.79267E+00 -6.65489E+00 -4.89204E+00 -8.11984E+00  1.55121E+00 -6.52750E+00  5.02448E-02 -2.13882E+00 -6.85257E+00 -7.62233E-01
  -6.71786E-01 -4.91495E+00 -1.02623E+01 -8.12779E+00 -4.20584E+00  7.63840E-01 -8.10717E+00 -3.57810E+00  2.77782E-01 -3.86109E+00
  -3.38819E+00 -5.63922E+00 -2.76554E+00 -3.72563E-01 -4.79162E+00  4.29193E-01 -9.14439E-01 -5.03009E+00 -7.28093E+00 -1.85251E+00
  -3.30166E+00 -4.58036E+00 -5.41160E+00 -2.45854E+00 -8.86654E+00 -2.43029E+00 -7.20767E+00 -2.85960E+00 -1.45271E+00 -8.52335E+00
  -5.59891E+00 -1.14642E+01 -4.44425E+00  1.82648E+00 -5.97983E+00 -5.65846E+00  1.68531E-01 -1.82481E+00
 NY points of the fit to the data follow
   3.47544E+00  2.97020E+00  2.81000E+00  2.91199E+00  3.02976E+00  3.09439E+00  3.42160E+00  4.16192E+00  5.16016E+00  6.20141E+00
   7.03113E+00  7.39589E+00  7.29678E+00  6.93729E+00  6.41140E+00  5.68235E+00  4.82496E+00  3.98715E+00  3.26222E+00  2.57621E+00
   1.89031E+00  1.43191E+00  1.46005E+00  1.81709E+00  2.12589E+00  2.42034E+00  2.76254E+00  3.17586E+00  3.62570E+00  4.01824E+00
   4.26360E+00  4.37663E+00  4.41418E+00  4.38681E+00  4.27583E+00  4.07541E+00  3.81598E+00  3.53111E+00  3.23563E+00  2.93628E+00
   2.70063E+00  2.67508E+00  2.94145E+00  3.58164E+00  4.51623E+00  5.49485E+00  6.18469E+00  6.36787E+00  6.07662E+00  5.48411E+00
   4.70081E+00  3.77938E+00  2.79224E+00  1.89092E+00  1.20514E+00  7.60054E-01  5.54407E-01  6.78070E-01  1.21429E+00  1.91767E+00
   2.40920E+00  2.55805E+00  2.45529E+00  2.22576E+00  1.94032E+00  1.65925E+00  1.45659E+00  1.37194E+00  1.36756E+00  1.42762E+00
   1.59340E+00  1.81250E+00  2.00248E+00  2.11779E+00  2.12406E+00  2.01937E+00  1.81148E+00  1.53482E+00  1.24829E+00  9.85954E-01
   7.67837E-01  5.60494E-01  3.56491E-01  1.39686E-01 -1.54778E-01 -5.12928E-01 -8.60568E-01 -1.10064E+00 -1.18394E+00 -1.10332E+00
  -8.55355E-01 -4.45160E-01  1.01182E-01  7.49871E-01  1.42716E+00  1.92457E+00  2.21270E+00  2.54113E+00  3.20570E+00  4.31710E+00
   5.73598E+00  7.16764E+00  8.19870E+00  8.52193E+00  8.23994E+00  7.60821E+00  6.64970E+00  5.40155E+00  3.98080E+00  2.54189E+00
   1.19580E+00 -7.76556E-02 -1.25243E+00 -1.94610E+00 -1.82766E+00 -1.45577E+00 -1.11857E+00 -7.97528E-01 -4.29941E-01 -5.62410E-02
   1.72340E-01  3.42487E-01  7.63165E-01  1.68819E+00  3.11705E+00  4.81438E+00  6.39546E+00  7.42977E+00  7.72844E+00  7.48720E+00
   6.87818E+00  5.86525E+00  4.48929E+00  2.91083E+00  1.30216E+00 -2.43303E-01 -1.73836E+00 -3.05661E+00 -3.70678E+00 -3.65477E+00
  -3.49009E+00 -3.34749E+00 -3.23709E+00 -3.15521E+00 -3.08419E+00 -3.02701E+00 -3.00716E+00 -3.01866E+00 -3.05880E+00 -3.13915E+00
  -3.25905E+00 -3.41315E+00 -3.58008E+00 -3.71476E+00 -3.79227E+00 -3.81044E+00 -3.79851E+00 -3.78722E+00 -3.79627E+00 -3.83477E+00
  -3.89418E+00 -3.96826E+00 -4.04861E+00 -4.12457E+00 -4.21092E+00 -4.34976E+00 -4.54015E+00 -4.72849E+00 -4.86161E+00 -4.89558E+00
  -4.83342E+00 -4.76093E+00 -4.72878E+00 -4.73362E+00 -4.74922E+00 -4.74420E+00 -4.72295E+00 -4.72309E+00 -4.75759E+00 -4.80487E+00
  -4.85428E+00 -4.90395E+00 -4.89205E+00 -4.78527E+00 -4.62667E+00 -4.45432E+00 -4.28337E+00 -4.10405E+00 -3.89384E+00 -3.67688E+00
  -3.48459E+00 -3.35226E+00 -3.33605E+00 -3.47731E+00 -3.74060E+00 -4.01278E+00 -4.24427E+00 -4.40137E+00 -4.46510E+00 -4.45765E+00
  -4.41987E+00 -4.35590E+00 -4.23961E+00 -4.07261E+00 -3.94246E+00 -3.94004E+00 -4.06924E+00 -4.29442E+00 -4.59021E+00 -4.91159E+00
  -5.14678E+00 -5.21397E+00 -5.12469E+00 -4.90601E+00 -4.59988E+00 -4.26672E+00 -3.97319E+00 -3.77334E+00 -3.68851E+00 -3.72677E+00
  -3.89351E+00 -4.13070E+00 -4.32970E+00 -4.42057E+00 -4.40728E+00 -4.31123E+00 -4.13276E+00 -3.86965E+00 -3.61227E+00 -3.41513E+00
  -3.26303E+00 -3.10624E+00 -2.92205E+00 -2.75526E+00 -2.61698E+00 -2.45764E+00 -2.26660E+00 -2.08726E+00 -1.96165E+00 -1.92105E+00
  -1.93414E+00 -1.94820E+00 -1.94516E+00 -1.89173E+00 -1.78385E+00 -1.63774E+00 -1.38560E+00 -9.12385E-01 -4.59717E-01 -3.32679E-01
  -3.48767E-01  6.99155E-02  1.42047E+00  3.76648E+00  6.81764E+00  1.00033E+01  1.25075E+01  1.39812E+01  1.46790E+01  1.46865E+01
   1.38678E+01  1.22789E+01  1.01789E+01  7.85650E+00  5.36325E+00  2.54981E+00 -2.23027E-01 -1.83751E+00 -2.55815E+00 -3.04549E+00
  -3.43337E+00 -3.74366E+00 -3.99829E+00 -4.22047E+00 -4.42968E+00 -4.64075E+00 -4.87328E+00 -5.11788E+00 -5.35476E+00 -5.58455E+00
  -5.80267E+00 -6.00071E+00 -6.16820E+00 -6.29788E+00 -6.39891E+00 -6.47441E+00 -6.51996E+00 -6.54563E+00 -6.57487E+00 -6.60442E+00
  -6.61800E+00 -6.60524E+00 -6.57140E+00 -6.52495E+00 -6.46113E+00 -6.37746E+00 -6.29227E+00 -6.21182E+00 -6.14002E+00 -6.07554E+00
  -6.01739E+00 -5.97582E+00 -5.96075E+00 -5.95949E+00 -5.96657E+00 -5.98579E+00 -6.02081E+00 -6.07277E+00 -6.13967E+00 -6.22171E+00
  -6.32622E+00 -6.45161E+00 -6.59106E+00 -6.74081E+00 -6.89641E+00 -7.05409E+00 -7.21062E+00 -7.36333E+00 -7.50986E+00 -7.64842E+00
  -7.77768E+00 -7.89694E+00 -8.00593E+00 -8.10478E+00 -8.19393E+00 -8.27465E+00 -8.34847E+00 -8.41724E+00 -8.48294E+00 -8.54789E+00
  -8.61450E+00 -8.68541E+00 -8.76305E+00 -8.84951E+00 -8.94557E+00 -9.04968E+00 -9.15506E+00 -9.24211E+00 -9.26023E+00 -9.21587E+00
  -9.19746E+00 -9.10211E+00 -8.63298E+00 -7.52550E+00 -5.72059E+00 -3.35922E+00 -6.38357E-01  2.14713E+00  4.61124E+00  6.57035E+00
   7.96949E+00  8.75894E+00  9.02923E+00  8.99331E+00  8.83861E+00  8.50750E+00  7.75458E+00  6.65498E+00  5.73502E+00  5.16450E+00
   4.49862E+00  3.68042E+00  2.82040E+00  2.00587E+00  1.13613E+00 -2.10490E-02 -1.24115E+00 -2.13394E+00 -2.77992E+00 -3.27127E+00
  -3.65912E+00 -3.97451E+00 -4.23679E+00 -4.45803E+00 -4.64536E+00 -4.80284E+00 -4.93226E+00 -5.03403E+00 -5.10747E+00 -5.15129E+00
  -5.16373E+00 -5.14299E+00 -5.08721E+00 -4.99488E+00 -4.86481E+00 -4.69646E+00 -4.48998E+00 -4.24651E+00 -3.96811E+00 -3.65800E+00
  -3.32036E+00 -2.96048E+00 -2.58446E+00 -2.19928E+00 -1.81237E+00 -1.43150E+00 -1.06434E+00 -7.18336E-01 -4.00262E-01 -1.16148E-01
   1.29129E-01  3.31810E-01  4.89558E-01  6.01261E-01  6.67174E-01  6.88621E-01  6.68061E-01  6.08704E-01  5.14516E-01  3.89787E-01
   2.39136E-01  6.71241E-02 -1.21681E-01 -3.23041E-01 -5.32925E-01 -7.47817E-01 -9.64526E-01 -1.18041E+00 -1.39315E+00 -1.60094E+00
  -1.80224E+00 -1.99598E+00 -2.18131E+00 -2.35772E+00 -2.52484E+00 -2.68256E+00 -2.83085E+00 -2.96990E+00 -3.09990E+00 -3.22120E+00
  -3.33411E+00 -3.43906E+00 -3.53640E+00 -3.62662E+00 -3.71009E+00 -3.78725E+00 -3.85847E+00 -3.92415E+00 -3.98462E+00 -4.04026E+00
  -4.09134E+00 -4.13822E+00 -4.18109E+00 -4.22027E+00 -4.25594E+00 -4.28837E+00 -4.31770E+00 -4.34417E+00 -4.36787E+00 -4.38903E+00
  -4.40773E+00 -4.42415E+00 -4.43836E+00 -4.45052E+00 -4.46067E+00 -4.46896E+00 -4.47544E+00 -4.48022E+00 -4.48334E+00 -4.48491E+00
  -4.48494E+00 -4.48354E+00 -4.48073E+00 -4.47661E+00 -4.47116E+00 -4.46449E+00 -4.45659E+00 -4.44755E+00 -4.43738E+00 -4.42613E+00
  -4.41381E+00 -4.40048E+00 -4.38615E+00 -4.37088E+00 -4.35466E+00 -4.33755E+00 -4.31954E+00 -4.30070E+00 -4.28101E+00 -4.26055E+00
  -4.23928E+00 -4.21727E+00 -4.19450E+00 -4.17104E+00 -4.14688E+00 -4.12206E+00 -4.09658E+00 -4.07050E+00 -4.04379E+00 -4.01654E+00
  -3.98871E+00 -3.96039E+00 -3.93154E+00 -3.90225E+00 -3.87250E+00 -3.84238E+00 -3.81188E+00 -3.78108E+00
 NY background values follow
     3.442E-01    3.327E-01    3.209E-01    3.088E-01    2.965E-01    2.838E-01    2.709E-01    2.577E-01    2.442E-01    2.305E-01
     2.165E-01    2.022E-01    1.876E-01    1.728E-01    1.577E-01    1.423E-01    1.267E-01    1.108E-01    9.463E-02    7.820E-02
     6.151E-02    4.456E-02    2.735E-02    9.874E-03   -7.858E-03   -2.585E-02   -4.409E-02   -6.259E-02   -8.135E-02   -1.004E-01
    -1.196E-01   -1.391E-01   -1.589E-01   -1.789E-01   -1.991E-01   -2.196E-01   -2.404E-01   -2.614E-01   -2.826E-01   -3.041E-01
    -3.258E-01   -3.477E-01   -3.699E-01   -3.923E-01   -4.150E-01   -4.378E-01   -4.610E-01   -4.843E-01   -5.079E-01   -5.317E-01
    -5.557E-01   -5.800E-01   -6.044E-01   -6.291E-01   -6.540E-01   -6.792E-01   -7.045E-01   -7.301E-01   -7.559E-01   -7.819E-01
    -8.081E-01   -8.345E-01   -8.611E-01   -8.880E-01   -9.150E-01   -9.422E-01   -9.697E-01   -9.973E-01   -1.025E+00   -1.053E+00
    -1.081E+00   -1.110E+00   -1.139E+00   -1.167E+00   -1.196E+00   -1.226E+00   -1.255E+00   -1.284E+00   -1.314E+00   -1.344E+00
    -1.374E+00   -1.405E+00   -1.435E+00   -1.466E+00   -1.497E+00   -1.527E+00   -1.559E+00   -1.590E+00   -1.621E+00   -1.653E+00
    -1.685E+00   -1.717E+00   -1.749E+00   -1.781E+00   -1.814E+00   -1.846E+00   -1.879E+00   -1.912E+00   -1.945E+00   -1.978E+00
    -2.012E+00   -2.045E+00   -2.079E+00   -2.113E+00   -2.147E+00   -2.181E+00   -2.215E+00   -2.249E+00   -2.284E+00   -2.318E+00
    -2.353E+00   -2.388E+00   -2.423E+00   -2.458E+00   -2.493E+00   -2.528E+00   -2.564E+00   -2.599E+00   -2.635E+00   -2.671E+00
    -2.707E+00   -2.743E+00   -2.779E+00   -2.815E+00   -2.851E+00   -2.887E+00   -2.924E+00   -2.960E+00   -2.997E+00   -3.034E+00
    -3.071E+00   -3.108E+00   -3.145E+00   -3.182E+00   -3.219E+00   -3.256E+00   -3.294E+00   -3.331E+00   -3.368E+00   -3.406E+00
    -3.444E+00   -3.481E+00   -3.519E+00   -3.557E+00   -3.595E+00   -3.633E+00   -3.671E+00   -3.709E+00   -3.747E+00   -3.785E+00
    -3.823E+00   -3.861E+00   -3.900E+00   -3.938E+00   -3.976E+00   -4.015E+00   -4.053E+00   -4.091E+00   -4.130E+00   -4.168E+00
    -4.207E+00   -4.246E+00   -4.284E+00   -4.323E+00   -4.361E+00   -4.400E+00   -4.439E+00   -4.477E+00   -4.516E+00   -4.555E+00
    -4.593E+00   -4.632E+00   -4.671E+00   -4.710E+00   -4.748E+00   -4.787E+00   -4.826E+00   -4.864E+00   -4.903E+00   -4.942E+00
    -4.980E+00   -5.019E+00   -5.057E+00   -5.096E+00   -5.134E+00   -5.173E+00   -5.211E+00   -5.250E+00   -5.288E+00   -5.327E+00
    -5.365E+00   -5.403E+00   -5.442E+00   -5.480E+00   -5.518E+00   -5.556E+00   -5.594E+00   -5.632E+00   -5.670E+00   -5.708E+00
    -5.746E+00   -5.784E+00   -5.821E+00   -5.859E+00   -5.897E+00   -5.934E+00   -5.972E+00   -6.009E+00   -6.046E+00   -6.083E+00
    -6.121E+00   -6.158E+00   -6.195E+00   -6.231E+00   -6.268E+00   -6.305E+00   -6.342E+00   -6.378E+00   -6.414E+00   -6.451E+00
    -6.487E+00   -6.523E+00   -6.559E+00   -6.595E+00   -6.631E+00   -6.666E+00   -6.702E+00   -6.737E+00   -6.773E+00   -6.808E+00
    -6.843E+00   -6.878E+00   -6.913E+00   -6.947E+00   -6.982E+00   -7.016E+00   -7.050E+00   -7.084E+00   -7.118E+00   -7.152E+00
    -7.186E+00   -7.219E+00   -7.253E+00   -7.286E+00   -7.319E+00   -7.352E+00   -7.385E+00   -7.418E+00   -7.450E+00   -7.482E+00
    -7.514E+00   -7.546E+00   -7.578E+00   -7.610E+00   -7.641E+00   -7.672E+00   -7.703E+00   -7.734E+00   -7.765E+00   -7.796E+00
    -7.826E+00   -7.856E+00   -7.886E+00   -7.916E+00   -7.945E+00   -7.975E+00   -8.004E+00   -8.033E+00   -8.062E+00   -8.090E+00
    -8.118E+00   -8.147E+00   -8.174E+00   -8.202E+00   -8.230E+00   -8.257E+00   -8.284E+00   -8.311E+00   -8.337E+00   -8.364E+00
    -8.390E+00   -8.416E+00   -8.442E+00   -8.467E+00   -8.492E+00   -8.517E+00   -8.542E+00   -8.567E+00   -8.591E+00   -8.615E+00
    -8.639E+00   -8.662E+00   -8.686E+00   -8.709E+00   -8.731E+00   -8.754E+00   -8.776E+00   -8.798E+00   -8.820E+00   -8.841E+00
    -8.863E+00   -8.884E+00   -8.904E+00   -8.925E+00   -8.945E+00   -8.965E+00   -8.984E+00   -9.004E+00   -9.023E+00   -9.041E+00
    -9.060E+00   -9.078E+00   -9.096E+00   -9.114E+00   -9.131E+00   -9.148E+00   -9.165E+00   -9.181E+00   -9.197E+00   -9.213E+00
    -9.229E+00   -9.244E+00   -9.259E+00   -9.274E+00   -9.288E+00   -9.302E+00   -9.316E+00   -9.329E+00   -9.342E+00   -9.355E+00
    -9.368E+00   -9.380E+00   -9.392E+00   -9.403E+00   -9.414E+00   -9.425E+00   -9.436E+00   -9.446E+00   -9.456E+00   -9.466E+00
    -9.475E+00   -9.484E+00   -9.492E+00   -9.501E+00   -9.508E+00   -9.516E+00   -9.523E+00   -9.530E+00   -9.537E+00   -9.543E+00
    -9.549E+00   -9.554E+00   -9.559E+00   -9.564E+00   -9.569E+00   -9.573E+00   -9.577E+00   -9.580E+00   -9.583E+00   -9.586E+00
    -9.588E+00   -9.590E+00   -9.592E+00   -9.593E+00   -9.594E+00   -9.594E+00   -9.595E+00   -9.594E+00   -9.594E+00   -9.593E+00
    -9.592E+00   -9.590E+00   -9.588E+00   -9.585E+00   -9.583E+00   -9.580E+00   -9.576E+00   -9.572E+00   -9.568E+00   -9.563E+00
    -9.558E+00   -9.553E+00   -9.547E+00   -9.541E+00   -9.534E+00   -9.527E+00   -9.520E+00   -9.512E+00   -9.504E+00   -9.495E+00
    -9.486E+00   -9.477E+00   -9.467E+00   -9.457E+00   -9.447E+00   -9.436E+00   -9.425E+00   -9.413E+00   -9.401E+00   -9.388E+00
    -9.375E+00   -9.362E+00   -9.349E+00   -9.334E+00   -9.320E+00   -9.305E+00   -9.290E+00   -9.274E+00   -9.258E+00   -9.242E+00
    -9.225E+00   -9.207E+00   -9.190E+00   -9.172E+00   -9.153E+00   -9.134E+00   -9.115E+00   -9.095E+00   -9.075E+00   -9.054E+00
    -9.033E+00   -9.012E+00   -8.990E+00   -8.968E+00   -8.945E+00   -8.922E+00   -8.899E+00   -8.875E+00   -8.850E+00   -8.826E+00
    -8.801E+00   -8.775E+00   -8.749E+00   -8.723E+00   -8.696E+00   -8.669E+00   -8.641E+00   -8.613E+00   -8.584E+00   -8.555E+00
    -8.526E+00   -8.496E+00   -8.466E+00   -8.436E+00   -8.405E+00   -8.373E+00   -8.341E+00   -8.309E+00   -8.276E+00   -8.243E+00
    -8.210E+00   -8.176E+00   -8.141E+00   -8.107E+00   -8.071E+00   -8.036E+00   -8.000E+00   -7.963E+00   -7.926E+00   -7.889E+00
    -7.851E+00   -7.813E+00   -7.774E+00   -7.735E+00   -7.696E+00   -7.656E+00   -7.616E+00   -7.575E+00   -7.534E+00   -7.492E+00
    -7.450E+00   -7.408E+00   -7.365E+00   -7.322E+00   -7.278E+00   -7.234E+00   -7.190E+00   -7.145E+00   -7.100E+00   -7.054E+00
    -7.008E+00   -6.961E+00   -6.914E+00   -6.867E+00   -6.819E+00   -6.771E+00   -6.722E+00   -6.673E+00   -6.623E+00   -6.573E+00
    -6.523E+00   -6.472E+00   -6.421E+00   -6.369E+00   -6.317E+00   -6.265E+00   -6.212E+00   -6.159E+00
 Asp      Conc. = 1.42E+01
