 LCModel (Version 6.3-1L) Copyright: S.W. Provencher.          Ref.: Magn. Reson. Med. 30:672-679 (1993).                
 Slice#2 Row#3 Col#11  PD_24_press_1_raw_act
 36 lines in following concentration table = NCONC+1
    Conc.  %SD /Cr+PCr  Metabolite                                         
 3.80E+03  15%   7.857 Ala                                                 
   63.023 161%   0.130 Asp                                                 
    0.000 999%   0.000 Cr                                                  
  483.888  16%   1.000 PCr                                                 
   48.487 129%   0.100 GABA                                                
   44.526 139% 9.2E-02 Glc                                                 
 3.85E+03  23%   7.962 Gln                                                 
 3.20E+03  33%   6.621 Glu                                                 
  205.885  13%   0.425 GPC                                                 
    0.000 999%   0.000 PCh                                                 
   28.844 466% 6.0E-02 GSH                                                 
  585.535  57%   1.210 Ins                                                 
    0.000 999%   0.000 Lac                                                 
  715.772  24%   1.479 NAA                                                 
   18.253 999% 3.8E-02 NAAG                                                
   40.451  47% 8.4E-02 Scyllo                                              
   87.763 113%   0.181 Tau                                                 
    0.000 999%   0.000 -CrCH2                                              
  205.885  13%   0.425 GPC+PCh                                             
  734.025  17%   1.517 NAA+NAAG                                            
  483.888  16%   1.000 Cr+PCr                                              
 7.06E+03  26%  14.583 Glu+Gln                                             
 2.55E+04  10%  52.600 Lip13a                                              
  742.359  22%   1.534 Lip13b                                              
    0.000 999%   0.000 Lip09                                               
 2.18E+03  19%   4.512 MM09                                                
  229.404 263%   0.474 Lip20                                               
 3.29E+03  20%   6.808 MM20                                                
  701.299  42%   1.449 MM12                                                
 2.44E+03  31%   5.042 MM14                                                
 3.65E+03  15%   7.543+MM17                                                
 2.62E+04  10%  54.134 Lip13a+Lip13b                                       
 2.93E+04   7%  60.626 MM14+Lip13a+Lip13b+MM12                             
 2.18E+03  19%   4.512 MM09+Lip09                                          
 3.52E+03  14%   7.282 MM20+Lip20                                          
   6 lines in following misc. output table
  FWHM = 0.122 ppm    S/N =  16                                            
  Data shift = 0.069 ppm                                                   
  Ph: -13 deg     -18.1 deg/ppm                                            
  alphaB,S = 7.9E-01,   1.7E+02                                            
   14 spline knots.   Ns = 7(2)                                            
  ( 7) 2 infls.   ( 3) 1 extrs.                                            
  498 points on ppm-axis = NY
      4.000000     3.992357     3.984714     3.977070     3.969427     3.961784     3.954141     3.946497     3.938854     3.931211
      3.923568     3.915925     3.908281     3.900638     3.892995     3.885352     3.877708     3.870065     3.862422     3.854779
      3.847136     3.839492     3.831849     3.824206     3.816563     3.808919     3.801276     3.793633     3.785990     3.778347
      3.770703     3.763060     3.755417     3.747774     3.740130     3.732487     3.724844     3.717201     3.709558     3.701914
      3.694271     3.686628     3.678985     3.671341     3.663698     3.656055     3.648412     3.640769     3.633125     3.625482
      3.617839     3.610196     3.602552     3.594909     3.587266     3.579623     3.571980     3.564336     3.556693     3.549050
      3.541407     3.533763     3.526120     3.518477     3.510834     3.503191     3.495547     3.487904     3.480261     3.472618
      3.464974     3.457331     3.449688     3.442045     3.434402     3.426758     3.419115     3.411472     3.403829     3.396185
      3.388542     3.380899     3.373256     3.365613     3.357969     3.350326     3.342683     3.335040     3.327396     3.319753
      3.312110     3.304467     3.296824     3.289180     3.281537     3.273894     3.266251     3.258607     3.250964     3.243321
      3.235678     3.228034     3.220391     3.212748     3.205105     3.197462     3.189818     3.182175     3.174532     3.166889
      3.159245     3.151602     3.143959     3.136316     3.128673     3.121029     3.113386     3.105743     3.098100     3.090456
      3.082813     3.075170     3.067527     3.059884     3.052240     3.044597     3.036954     3.029311     3.021667     3.014024
      3.006381     2.998738     2.991095     2.983451     2.975808     2.968165     2.960522     2.952878     2.945235     2.937592
      2.929949     2.922306     2.914662     2.907019     2.899376     2.891733     2.884089     2.876446     2.868803     2.861160
      2.853517     2.845873     2.838230     2.830587     2.822944     2.815300     2.807657     2.800014     2.792371     2.784728
      2.777084     2.769441     2.761798     2.754155     2.746511     2.738868     2.731225     2.723582     2.715939     2.708295
      2.700652     2.693009     2.685366     2.677722     2.670079     2.662436     2.654793     2.647150     2.639506     2.631863
      2.624220     2.616577     2.608933     2.601290     2.593647     2.586004     2.578361     2.570717     2.563074     2.555431
      2.547788     2.540144     2.532501     2.524858     2.517215     2.509572     2.501928     2.494285     2.486642     2.478999
      2.471355     2.463712     2.456069     2.448426     2.440783     2.433139     2.425496     2.417853     2.410210     2.402566
      2.394923     2.387280     2.379637     2.371994     2.364350     2.356707     2.349064     2.341421     2.333777     2.326134
      2.318491     2.310848     2.303205     2.295561     2.287918     2.280275     2.272632     2.264988     2.257345     2.249702
      2.242059     2.234416     2.226772     2.219129     2.211486     2.203843     2.196199     2.188556     2.180913     2.173270
      2.165627     2.157983     2.150340     2.142697     2.135054     2.127410     2.119767     2.112124     2.104481     2.096838
      2.089194     2.081551     2.073908     2.066265     2.058621     2.050978     2.043335     2.035692     2.028049     2.020405
      2.012762     2.005119     1.997476     1.989833     1.982190     1.974546     1.966903     1.959260     1.951617     1.943974
      1.936331     1.928688     1.921045     1.913402     1.905759     1.898115     1.890472     1.882829     1.875186     1.867543
      1.859900     1.852257     1.844614     1.836971     1.829327     1.821684     1.814041     1.806398     1.798755     1.791112
      1.783469     1.775826     1.768183     1.760540     1.752896     1.745253     1.737610     1.729967     1.722324     1.714681
      1.707038     1.699395     1.691752     1.684108     1.676465     1.668822     1.661179     1.653536     1.645893     1.638250
      1.630607     1.622964     1.615321     1.607677     1.600034     1.592391     1.584748     1.577105     1.569462     1.561819
      1.554176     1.546533     1.538890     1.531246     1.523603     1.515960     1.508317     1.500674     1.493031     1.485388
      1.477745     1.470102     1.462458     1.454815     1.447172     1.439529     1.431886     1.424243     1.416600     1.408957
      1.401314     1.393671     1.386027     1.378384     1.370741     1.363098     1.355455     1.347812     1.340169     1.332526
      1.324883     1.317240     1.309596     1.301953     1.294310     1.286667     1.279024     1.271381     1.263738     1.256095
      1.248452     1.240808     1.233165     1.225522     1.217879     1.210236     1.202593     1.194950     1.187307     1.179664
      1.172021     1.164377     1.156734     1.149091     1.141448     1.133805     1.126162     1.118519     1.110876     1.103233
      1.095590     1.087946     1.080303     1.072660     1.065017     1.057374     1.049731     1.042088     1.034445     1.026802
      1.019158     1.011515     1.003872     0.996229     0.988586     0.980943     0.973300     0.965657     0.958014     0.950371
      0.942727     0.935084     0.927441     0.919798     0.912155     0.904512     0.896869     0.889226     0.881583     0.873940
      0.866296     0.858653     0.851010     0.843367     0.835724     0.828081     0.820438     0.812795     0.805152     0.797508
      0.789865     0.782222     0.774579     0.766936     0.759293     0.751650     0.744007     0.736364     0.728721     0.721077
      0.713434     0.705791     0.698148     0.690505     0.682862     0.675219     0.667576     0.659933     0.652290     0.644646
      0.637003     0.629360     0.621717     0.614074     0.606431     0.598788     0.591145     0.583502     0.575858     0.568215
      0.560572     0.552929     0.545286     0.537643     0.530000     0.522357     0.514714     0.507071     0.499427     0.491784
      0.484141     0.476498     0.468855     0.461212     0.453569     0.445925     0.438282     0.430639     0.422996     0.415353
      0.407710     0.400067     0.392424     0.384780     0.377137     0.369494     0.361851     0.354208     0.346565     0.338922
      0.331278     0.323635     0.315992     0.308349     0.300706     0.293063     0.285420     0.277777     0.270133     0.262490
      0.254847     0.247204     0.239561     0.231918     0.224275     0.216631     0.208988     0.201345
 NY phased data points follow
   1.44784E+01  1.41854E+01  1.25917E+01  1.53488E+01  1.27214E+01  1.76714E+01  1.20966E+01  1.57110E+01  1.69684E+01  1.48000E+01
   1.74922E+01  1.95727E+01  1.40970E+01  1.29160E+01  1.26459E+01  1.38360E+01  8.81942E+00  1.53653E+01  1.41772E+01  1.39149E+01
   1.25613E+01  1.37625E+01  1.42644E+01  1.34038E+01  1.01670E+01  1.09627E+01  1.36635E+01  1.44268E+01  1.62082E+01  1.40085E+01
   1.25959E+01  1.26803E+01  1.30832E+01  1.07230E+01  1.17634E+01  1.02297E+01  1.16803E+01  1.20638E+01  1.44062E+01  1.17494E+01
   1.44528E+01  1.39809E+01  1.32105E+01  1.56054E+01  1.30170E+01  1.75121E+01  1.26333E+01  1.48731E+01  1.03216E+01  1.68095E+01
   1.24426E+01  1.19324E+01  1.45904E+01  1.22142E+01  8.44902E+00  1.04504E+01  1.01297E+01  9.46828E+00  1.18822E+01  6.59469E+00
   4.56757E+00  1.14130E+01  8.89195E+00  1.28831E+01  7.63709E+00  9.19734E+00  1.27566E+01  9.23435E+00  3.56483E+00  1.00573E+01
   7.69356E+00  9.43729E+00  9.29018E+00  1.11532E+01  5.94540E+00  9.27436E+00  9.57466E+00  4.98141E+00  9.78111E+00  8.70765E+00
   8.57216E+00  9.19787E+00  7.72299E+00  9.15645E+00  1.02503E+01  1.20723E+01  8.75744E+00  1.04111E+01  7.56531E+00  5.99954E+00
   9.80921E+00  1.19406E+01  1.27816E+01  1.34861E+01  1.77424E+01  1.72246E+01  1.57494E+01  1.43535E+01  1.49541E+01  1.41737E+01
   1.73784E+01  1.37533E+01  1.52475E+01  1.60659E+01  1.42150E+01  1.65017E+01  1.72027E+01  1.55530E+01  1.82453E+01  1.19119E+01
   1.26105E+01  1.01425E+01  1.00997E+01  1.25225E+01  1.04133E+01  1.12927E+01  1.35657E+01  1.71232E+01  1.14718E+01  1.71619E+01
   1.56973E+01  1.78589E+01  1.58576E+01  1.45637E+01  1.90623E+01  1.53834E+01  1.47915E+01  1.54799E+01  1.69351E+01  1.94322E+01
   1.52402E+01  1.80852E+01  1.46064E+01  1.51353E+01  1.09670E+01  1.58797E+01  1.26848E+01  1.29266E+01  1.24854E+01  1.21035E+01
   1.04316E+01  1.29547E+01  1.13192E+01  6.33613E+00  1.17983E+01  1.13974E+01  8.99914E+00  1.25622E+01  7.78075E+00  1.12472E+01
   9.57591E+00  1.17386E+01  9.01962E+00  9.36458E+00  8.92548E+00  8.60165E+00  9.33005E+00  8.18873E+00  7.11517E+00  9.54999E+00
   8.08488E+00  9.02122E+00  1.12248E+01  9.36384E+00  1.04386E+01  1.13354E+01  8.29685E+00  8.28890E+00  6.59264E+00  6.35989E+00
   8.72381E+00  1.00200E+01  5.55026E+00  7.91168E+00  5.17364E+00  6.65926E+00  4.83579E+00  6.35452E+00  8.06961E+00  6.49067E+00
   6.95820E+00  1.01911E+01  7.65712E+00  7.83766E+00  6.23632E+00  8.21348E+00  3.52788E+00  9.94300E+00  6.23190E+00  5.08778E+00
   6.60621E+00  7.00007E+00  7.09859E+00  1.15511E+01  8.91034E+00  1.23450E+01  1.09087E+01  9.90746E+00  1.17599E+01  1.23209E+01
   1.00614E+01  1.24749E+01  1.01416E+01  1.21205E+01  8.56810E+00  1.12004E+01  1.21098E+01  1.26656E+01  1.20663E+01  1.23762E+01
   1.35229E+01  1.32362E+01  1.25234E+01  1.34732E+01  1.50270E+01  1.73438E+01  1.55573E+01  1.72876E+01  1.88629E+01  1.65366E+01
   1.85444E+01  1.79584E+01  1.56795E+01  1.58069E+01  1.76969E+01  1.86526E+01  1.49502E+01  1.92008E+01  1.90386E+01  2.25217E+01
   2.02843E+01  1.83333E+01  1.91643E+01  2.02384E+01  1.74559E+01  2.19137E+01  2.18107E+01  1.84039E+01  1.80951E+01  2.23759E+01
   2.27815E+01  2.31604E+01  2.20476E+01  2.69227E+01  2.70806E+01  2.48799E+01  2.65534E+01  2.98424E+01  2.98188E+01  3.37995E+01
   3.66306E+01  3.77966E+01  3.68006E+01  3.56521E+01  3.78924E+01  4.07692E+01  4.26865E+01  4.06372E+01  4.38880E+01  4.42568E+01
   4.17747E+01  4.21062E+01  4.35975E+01  4.09279E+01  3.86659E+01  4.05929E+01  3.87290E+01  3.90533E+01  3.78993E+01  3.56677E+01
   3.58979E+01  4.06679E+01  3.51908E+01  4.08393E+01  4.12540E+01  3.77231E+01  3.58331E+01  3.39461E+01  3.81199E+01  3.75493E+01
   3.76879E+01  3.74340E+01  3.67641E+01  3.90604E+01  3.83269E+01  3.45969E+01  3.40394E+01  3.49733E+01  3.76183E+01  3.49994E+01
   3.87228E+01  3.92431E+01  3.74567E+01  4.15299E+01  3.99318E+01  3.73745E+01  4.04515E+01  4.17324E+01  4.24267E+01  4.04228E+01
   4.36612E+01  4.43272E+01  4.20931E+01  4.32358E+01  4.08269E+01  4.17418E+01  3.97888E+01  3.91553E+01  3.82621E+01  4.09499E+01
   3.97439E+01  4.40832E+01  4.28902E+01  4.66310E+01  4.66712E+01  4.71844E+01  4.78080E+01  4.85751E+01  5.09183E+01  5.23114E+01
   5.11089E+01  5.12449E+01  4.90415E+01  4.97732E+01  4.88672E+01  4.66995E+01  4.56144E+01  4.93672E+01  4.96187E+01  5.17829E+01
   5.15934E+01  5.27442E+01  5.73692E+01  5.71153E+01  6.48967E+01  6.65139E+01  7.06294E+01  7.40603E+01  7.50261E+01  7.85048E+01
   7.96132E+01  8.39866E+01  8.02542E+01  8.70613E+01  8.91528E+01  8.67834E+01  9.07852E+01  9.56559E+01  9.49456E+01  9.70020E+01
   9.18868E+01  9.27488E+01  9.61650E+01  9.53135E+01  9.41953E+01  9.13735E+01  9.13965E+01  8.99552E+01  9.09006E+01  8.23256E+01
   8.10906E+01  8.32627E+01  7.96275E+01  7.97516E+01  7.51965E+01  7.36615E+01  7.60394E+01  7.41220E+01  7.09186E+01  7.13363E+01
   7.25824E+01  6.98639E+01  7.00789E+01  6.46168E+01  6.98108E+01  6.55308E+01  6.06159E+01  6.22849E+01  6.29288E+01  6.29753E+01
   5.88992E+01  6.02610E+01  5.60759E+01  5.58393E+01  5.56791E+01  5.09633E+01  5.07923E+01  4.84279E+01  5.00019E+01  4.64742E+01
   4.78077E+01  4.32165E+01  4.63088E+01  4.54526E+01  4.33479E+01  4.24418E+01  4.43356E+01  4.26265E+01  4.04834E+01  4.44116E+01
   3.83671E+01  3.70673E+01  3.97405E+01  3.42211E+01  3.28988E+01  3.27293E+01  3.45808E+01  2.78769E+01  2.97013E+01  3.07606E+01
   2.94184E+01  2.90058E+01  2.70322E+01  2.44158E+01  2.88012E+01  2.60597E+01  2.39279E+01  2.35602E+01  2.43997E+01  2.10254E+01
   2.20018E+01  1.83281E+01  2.14742E+01  2.14489E+01  2.11083E+01  2.05700E+01  1.86380E+01  1.87357E+01  1.71922E+01  1.73466E+01
   1.51455E+01  1.44280E+01  1.73625E+01  1.20016E+01  1.58439E+01  1.79661E+01  1.61552E+01  1.35842E+01  1.24001E+01  1.63885E+01
   1.23070E+01  1.27542E+01  1.52852E+01  1.43372E+01  1.31229E+01  1.13146E+01  1.36317E+01  1.11683E+01  1.17362E+01  9.24198E+00
   1.29401E+01  1.32897E+01  1.20555E+01  9.66072E+00  9.92635E+00  1.14251E+01  1.25056E+01  1.11356E+01  1.31777E+01  1.13111E+01
   1.27748E+01  1.24934E+01  9.21640E+00  1.06914E+01  1.28644E+01  7.59788E+00  1.03990E+01  6.12245E+00  1.08645E+01  9.34753E+00
   7.53139E+00  8.17564E+00  7.31492E+00  6.90689E+00  8.69426E+00  5.59787E+00  6.29346E+00  9.63027E+00  9.79795E+00  8.71095E+00
   1.01696E+01  7.86585E+00  9.06955E+00  5.67801E+00  1.05358E+01  1.07103E+01  6.80517E+00  6.31065E+00  7.42646E+00  8.13853E+00
   8.87396E+00  6.22090E+00  8.51505E+00  8.69851E+00  1.08823E+01  1.07341E+01  9.46202E+00  8.04550E+00
 NY points of the fit to the data follow
   1.21383E+01  1.32798E+01  1.29637E+01  1.42334E+01  1.35089E+01  1.48328E+01  1.38242E+01  1.51549E+01  1.40472E+01  1.54563E+01
   1.45938E+01  1.62794E+01  1.50594E+01  1.65277E+01  1.47337E+01  1.59241E+01  1.37205E+01  1.51019E+01  1.28758E+01  1.45315E+01
   1.25406E+01  1.41187E+01  1.22411E+01  1.34015E+01  1.20143E+01  1.29395E+01  1.22916E+01  1.28754E+01  1.26997E+01  1.26579E+01
   1.29753E+01  1.24383E+01  1.33981E+01  1.26875E+01  1.41009E+01  1.30847E+01  1.43875E+01  1.30404E+01  1.40655E+01  1.26948E+01
   1.37409E+01  1.27366E+01  1.39576E+01  1.32375E+01  1.40493E+01  1.32349E+01  1.34627E+01  1.26504E+01  1.25275E+01  1.20067E+01
   1.19174E+01  1.16482E+01  1.16340E+01  1.13907E+01  1.12372E+01  1.09557E+01  1.07458E+01  1.05400E+01  1.03535E+01  1.01570E+01
   9.99800E+00  9.84055E+00  9.72145E+00  9.58638E+00  9.52538E+00  9.44415E+00  9.43324E+00  9.35704E+00  9.36242E+00  9.28503E+00
   9.29618E+00  9.21635E+00  9.28827E+00  9.19276E+00  9.25318E+00  9.12765E+00  9.16711E+00  9.05311E+00  9.09467E+00  8.98688E+00
   9.00721E+00  8.88090E+00  8.87045E+00  8.72526E+00  8.68496E+00  8.54393E+00  8.47431E+00  8.36567E+00  8.41821E+00  8.96087E+00
   9.26179E+00  1.00685E+01  1.05068E+01  1.14642E+01  1.20338E+01  1.30822E+01  1.37173E+01  1.46625E+01  1.52444E+01  1.58568E+01
   1.62821E+01  1.64554E+01  1.67017E+01  1.64956E+01  1.66026E+01  1.60928E+01  1.59999E+01  1.51124E+01  1.48353E+01  1.37771E+01
   1.34472E+01  1.25886E+01  1.26714E+01  1.24914E+01  1.26402E+01  1.29326E+01  1.29705E+01  1.36482E+01  1.35258E+01  1.47115E+01
   1.43992E+01  1.61792E+01  1.55564E+01  1.73662E+01  1.63257E+01  1.79704E+01  1.66304E+01  1.80234E+01  1.65127E+01  1.75984E+01
   1.59444E+01  1.66090E+01  1.50115E+01  1.53139E+01  1.39945E+01  1.41063E+01  1.30783E+01  1.30689E+01  1.22410E+01  1.20982E+01
   1.14151E+01  1.11344E+01  1.06760E+01  1.03816E+01  1.02472E+01  1.01127E+01  1.00007E+01  9.85986E+00  9.75299E+00  9.61496E+00
   9.52551E+00  9.40837E+00  9.31944E+00  9.20892E+00  9.12111E+00  9.02124E+00  8.93427E+00  8.85740E+00  8.77263E+00  8.71852E+00
   8.62830E+00  8.58213E+00  8.46893E+00  8.43005E+00  8.33103E+00  8.30628E+00  8.21882E+00  8.18086E+00  8.10966E+00  8.06083E+00
   8.03070E+00  7.97491E+00  7.98851E+00  7.92637E+00  8.00430E+00  7.96505E+00  8.10276E+00  8.09253E+00  8.26785E+00  8.19240E+00
   8.33120E+00  8.18973E+00  8.11296E+00  7.99715E+00  7.67955E+00  7.65763E+00  7.24587E+00  7.68080E+00  7.31555E+00  8.18815E+00
   7.98429E+00  9.38452E+00  9.23558E+00  1.08501E+01  1.04379E+01  1.14854E+01  1.03693E+01  1.15380E+01  9.88980E+00  1.11902E+01
   9.22517E+00  1.08532E+01  9.12246E+00  1.10537E+01  9.40730E+00  1.15837E+01  1.01328E+01  1.23329E+01  1.08962E+01  1.27537E+01
   1.16895E+01  1.33424E+01  1.25879E+01  1.41870E+01  1.36532E+01  1.49860E+01  1.46226E+01  1.55398E+01  1.52694E+01  1.61624E+01
   1.59011E+01  1.66061E+01  1.63859E+01  1.74210E+01  1.74454E+01  1.86800E+01  1.89263E+01  2.01851E+01  1.98004E+01  2.12347E+01
   2.03406E+01  2.18668E+01  2.07401E+01  2.24732E+01  2.14224E+01  2.31225E+01  2.20378E+01  2.35360E+01  2.24797E+01  2.38224E+01
   2.29489E+01  2.41344E+01  2.36909E+01  2.48268E+01  2.45617E+01  2.58519E+01  2.66698E+01  2.84903E+01  2.98487E+01  3.20009E+01
   3.34853E+01  3.56325E+01  3.68923E+01  3.87670E+01  3.95675E+01  4.13173E+01  4.16266E+01  4.31292E+01  4.28081E+01  4.39594E+01
   4.28987E+01  4.36193E+01  4.21585E+01  4.25229E+01  4.06482E+01  4.06889E+01  3.87004E+01  3.85655E+01  3.69005E+01  3.68120E+01
   3.56060E+01  3.56236E+01  3.48026E+01  3.48443E+01  3.42349E+01  3.43080E+01  3.39913E+01  3.42203E+01  3.44964E+01  3.49210E+01
   3.53358E+01  3.58021E+01  3.63170E+01  3.67871E+01  3.73232E+01  3.77978E+01  3.83085E+01  3.87343E+01  3.91630E+01  3.95022E+01
   3.98181E+01  4.00632E+01  4.02768E+01  4.04196E+01  4.05205E+01  4.05603E+01  4.05538E+01  4.05034E+01  4.04118E+01  4.02962E+01
   4.01638E+01  4.00308E+01  3.99072E+01  3.98100E+01  3.97514E+01  3.97496E+01  3.98195E+01  3.99845E+01  4.02693E+01  4.07104E+01
   4.13674E+01  4.23539E+01  4.39516E+01  4.62606E+01  4.72860E+01  4.94543E+01  4.96074E+01  5.13799E+01  5.04541E+01  5.14483E+01
   4.89853E+01  5.04277E+01  4.79654E+01  4.93756E+01  4.72434E+01  4.85914E+01  4.73729E+01  4.90861E+01  4.93181E+01  5.13964E+01
   5.30252E+01  5.49340E+01  5.79888E+01  5.97773E+01  6.39536E+01  6.58178E+01  7.03786E+01  7.20692E+01  7.64338E+01  7.72462E+01
   8.08279E+01  8.08895E+01  8.39245E+01  8.43187E+01  8.73734E+01  8.85932E+01  9.11004E+01  9.21176E+01  9.40517E+01  9.45265E+01
   9.54158E+01  9.51727E+01  9.48921E+01  9.44397E+01  9.36446E+01  9.24927E+01  9.10446E+01  8.93962E+01  8.76523E+01  8.59053E+01
   8.42226E+01  8.26412E+01  8.11695E+01  7.97944E+01  7.84896E+01  7.72247E+01  7.59709E+01  7.47058E+01  7.34147E+01  7.20905E+01
   7.07328E+01  6.93462E+01  6.79389E+01  6.65209E+01  6.51037E+01  6.36986E+01  6.23167E+01  6.09681E+01  5.96618E+01  5.84052E+01
   5.72040E+01  5.60619E+01  5.49808E+01  5.39605E+01  5.29988E+01  5.20917E+01  5.12334E+01  5.04165E+01  4.96325E+01  4.88719E+01
   4.81248E+01  4.73810E+01  4.66307E+01  4.58649E+01  4.50754E+01  4.42558E+01  4.34010E+01  4.25080E+01  4.15756E+01  4.06046E+01
   3.95977E+01  3.85592E+01  3.74946E+01  3.64109E+01  3.53154E+01  3.42160E+01  3.31209E+01  3.20375E+01  3.09733E+01  2.99345E+01
   2.89269E+01  2.79549E+01  2.70221E+01  2.61311E+01  2.52833E+01  2.44795E+01  2.37196E+01  2.30028E+01  2.23278E+01  2.16929E+01
   2.10960E+01  2.05351E+01  2.00078E+01  1.95117E+01  1.90447E+01  1.86044E+01  1.81888E+01  1.77958E+01  1.74236E+01  1.70706E+01
   1.67350E+01  1.64155E+01  1.61109E+01  1.58198E+01  1.55413E+01  1.52744E+01  1.50182E+01  1.47720E+01  1.45349E+01  1.43065E+01
   1.40861E+01  1.38733E+01  1.36674E+01  1.34681E+01  1.32750E+01  1.30878E+01  1.29061E+01  1.27296E+01  1.25581E+01  1.23912E+01
   1.22288E+01  1.20706E+01  1.19165E+01  1.17663E+01  1.16197E+01  1.14767E+01  1.13370E+01  1.12005E+01  1.10670E+01  1.09365E+01
   1.08088E+01  1.06837E+01  1.05613E+01  1.04413E+01  1.03237E+01  1.02084E+01  1.00952E+01  9.98422E+00  9.87525E+00  9.76826E+00
   9.66316E+00  9.55990E+00  9.45841E+00  9.35864E+00  9.26054E+00  9.16405E+00  9.06913E+00  8.97573E+00  8.88380E+00  8.79331E+00
   8.70423E+00  8.61651E+00  8.53013E+00  8.44506E+00  8.36127E+00  8.27875E+00  8.19747E+00  8.11742E+00  8.03858E+00  7.96096E+00
   7.88454E+00  7.80933E+00  7.73535E+00  7.66262E+00  7.59115E+00  7.52099E+00  7.45221E+00  7.38489E+00
 NY background values follow
     9.207E+00    9.187E+00    9.166E+00    9.146E+00    9.126E+00    9.106E+00    9.087E+00    9.067E+00    9.047E+00    9.027E+00
     9.008E+00    8.988E+00    8.969E+00    8.949E+00    8.930E+00    8.911E+00    8.892E+00    8.873E+00    8.855E+00    8.836E+00
     8.818E+00    8.799E+00    8.781E+00    8.763E+00    8.745E+00    8.728E+00    8.710E+00    8.693E+00    8.676E+00    8.659E+00
     8.642E+00    8.625E+00    8.609E+00    8.593E+00    8.577E+00    8.561E+00    8.546E+00    8.531E+00    8.516E+00    8.501E+00
     8.487E+00    8.473E+00    8.459E+00    8.445E+00    8.432E+00    8.419E+00    8.406E+00    8.393E+00    8.381E+00    8.369E+00
     8.358E+00    8.346E+00    8.335E+00    8.324E+00    8.314E+00    8.304E+00    8.294E+00    8.284E+00    8.274E+00    8.265E+00
     8.256E+00    8.248E+00    8.239E+00    8.231E+00    8.223E+00    8.215E+00    8.208E+00    8.200E+00    8.193E+00    8.186E+00
     8.180E+00    8.174E+00    8.167E+00    8.161E+00    8.156E+00    8.150E+00    8.145E+00    8.140E+00    8.135E+00    8.130E+00
     8.126E+00    8.121E+00    8.117E+00    8.113E+00    8.110E+00    8.106E+00    8.103E+00    8.100E+00    8.097E+00    8.094E+00
     8.091E+00    8.088E+00    8.086E+00    8.084E+00    8.082E+00    8.080E+00    8.079E+00    8.077E+00    8.076E+00    8.075E+00
     8.074E+00    8.074E+00    8.073E+00    8.073E+00    8.074E+00    8.074E+00    8.075E+00    8.076E+00    8.077E+00    8.078E+00
     8.080E+00    8.082E+00    8.085E+00    8.088E+00    8.091E+00    8.094E+00    8.098E+00    8.102E+00    8.106E+00    8.111E+00
     8.116E+00    8.121E+00    8.127E+00    8.133E+00    8.140E+00    8.147E+00    8.154E+00    8.162E+00    8.170E+00    8.179E+00
     8.188E+00    8.197E+00    8.207E+00    8.217E+00    8.228E+00    8.239E+00    8.251E+00    8.263E+00    8.275E+00    8.288E+00
     8.302E+00    8.316E+00    8.330E+00    8.345E+00    8.361E+00    8.377E+00    8.393E+00    8.410E+00    8.428E+00    8.446E+00
     8.465E+00    8.484E+00    8.503E+00    8.524E+00    8.544E+00    8.566E+00    8.587E+00    8.610E+00    8.633E+00    8.656E+00
     8.680E+00    8.705E+00    8.730E+00    8.756E+00    8.782E+00    8.809E+00    8.837E+00    8.865E+00    8.894E+00    8.923E+00
     8.953E+00    8.984E+00    9.015E+00    9.047E+00    9.080E+00    9.113E+00    9.147E+00    9.181E+00    9.216E+00    9.252E+00
     9.289E+00    9.326E+00    9.363E+00    9.402E+00    9.441E+00    9.481E+00    9.521E+00    9.562E+00    9.603E+00    9.646E+00
     9.688E+00    9.732E+00    9.776E+00    9.820E+00    9.866E+00    9.911E+00    9.958E+00    1.000E+01    1.005E+01    1.010E+01
     1.015E+01    1.020E+01    1.025E+01    1.030E+01    1.035E+01    1.040E+01    1.045E+01    1.050E+01    1.055E+01    1.061E+01
     1.066E+01    1.071E+01    1.077E+01    1.082E+01    1.088E+01    1.093E+01    1.099E+01    1.104E+01    1.110E+01    1.116E+01
     1.121E+01    1.127E+01    1.133E+01    1.139E+01    1.145E+01    1.151E+01    1.157E+01    1.163E+01    1.169E+01    1.175E+01
     1.181E+01    1.187E+01    1.193E+01    1.199E+01    1.205E+01    1.211E+01    1.217E+01    1.223E+01    1.229E+01    1.235E+01
     1.242E+01    1.248E+01    1.254E+01    1.260E+01    1.266E+01    1.272E+01    1.278E+01    1.284E+01    1.290E+01    1.296E+01
     1.302E+01    1.308E+01    1.313E+01    1.319E+01    1.325E+01    1.331E+01    1.336E+01    1.342E+01    1.347E+01    1.353E+01
     1.358E+01    1.363E+01    1.369E+01    1.374E+01    1.379E+01    1.384E+01    1.389E+01    1.394E+01    1.399E+01    1.403E+01
     1.408E+01    1.412E+01    1.417E+01    1.421E+01    1.425E+01    1.430E+01    1.434E+01    1.438E+01    1.441E+01    1.445E+01
     1.449E+01    1.452E+01    1.456E+01    1.459E+01    1.462E+01    1.465E+01    1.469E+01    1.472E+01    1.474E+01    1.477E+01
     1.480E+01    1.482E+01    1.485E+01    1.487E+01    1.490E+01    1.492E+01    1.494E+01    1.496E+01    1.498E+01    1.500E+01
     1.502E+01    1.503E+01    1.505E+01    1.506E+01    1.508E+01    1.509E+01    1.510E+01    1.511E+01    1.512E+01    1.513E+01
     1.514E+01    1.515E+01    1.515E+01    1.516E+01    1.516E+01    1.517E+01    1.517E+01    1.517E+01    1.517E+01    1.517E+01
     1.517E+01    1.517E+01    1.517E+01    1.516E+01    1.516E+01    1.515E+01    1.515E+01    1.514E+01    1.513E+01    1.512E+01
     1.511E+01    1.510E+01    1.509E+01    1.508E+01    1.507E+01    1.505E+01    1.504E+01    1.502E+01    1.501E+01    1.499E+01
     1.497E+01    1.495E+01    1.493E+01    1.491E+01    1.489E+01    1.487E+01    1.485E+01    1.483E+01    1.480E+01    1.478E+01
     1.475E+01    1.473E+01    1.470E+01    1.467E+01    1.464E+01    1.461E+01    1.458E+01    1.455E+01    1.452E+01    1.449E+01
     1.446E+01    1.443E+01    1.439E+01    1.436E+01    1.432E+01    1.429E+01    1.425E+01    1.421E+01    1.417E+01    1.414E+01
     1.410E+01    1.406E+01    1.402E+01    1.397E+01    1.393E+01    1.389E+01    1.385E+01    1.380E+01    1.376E+01    1.372E+01
     1.367E+01    1.363E+01    1.358E+01    1.353E+01    1.349E+01    1.344E+01    1.339E+01    1.334E+01    1.329E+01    1.324E+01
     1.319E+01    1.314E+01    1.309E+01    1.304E+01    1.298E+01    1.293E+01    1.288E+01    1.282E+01    1.277E+01    1.272E+01
     1.266E+01    1.260E+01    1.255E+01    1.249E+01    1.244E+01    1.238E+01    1.232E+01    1.226E+01    1.220E+01    1.215E+01
     1.209E+01    1.203E+01    1.197E+01    1.191E+01    1.185E+01    1.179E+01    1.173E+01    1.167E+01    1.160E+01    1.154E+01
     1.148E+01    1.142E+01    1.136E+01    1.130E+01    1.123E+01    1.117E+01    1.111E+01    1.104E+01    1.098E+01    1.092E+01
     1.086E+01    1.079E+01    1.073E+01    1.067E+01    1.060E+01    1.054E+01    1.048E+01    1.042E+01    1.035E+01    1.029E+01
     1.023E+01    1.017E+01    1.010E+01    1.004E+01    9.979E+00    9.917E+00    9.856E+00    9.794E+00    9.733E+00    9.672E+00
     9.611E+00    9.551E+00    9.490E+00    9.430E+00    9.371E+00    9.311E+00    9.252E+00    9.193E+00    9.135E+00    9.077E+00
     9.019E+00    8.961E+00    8.903E+00    8.846E+00    8.789E+00    8.732E+00    8.676E+00    8.619E+00    8.563E+00    8.508E+00
     8.452E+00    8.397E+00    8.342E+00    8.287E+00    8.232E+00    8.178E+00    8.124E+00    8.070E+00    8.016E+00    7.962E+00
     7.909E+00    7.856E+00    7.803E+00    7.750E+00    7.698E+00    7.645E+00    7.593E+00    7.541E+00    7.489E+00    7.438E+00
     7.386E+00    7.335E+00    7.284E+00    7.233E+00    7.182E+00    7.132E+00    7.081E+00    7.031E+00
 Ala      Conc. = 3.80E+03
