 LCModel (Version 6.3-1L) Copyright: S.W. Provencher.          Ref.: Magn. Reson. Med. 30:672-679 (1993).                
 Slice#1 Row#2 Col#9  PD_24_press_1_raw_act
 36 lines in following concentration table = NCONC+1
    Conc.  %SD /Cr+PCr  Metabolite                                         
    0.000 999%   0.000 Ala                                                 
   14.501 411% 6.3E-02 Asp                                                 
  229.200  21%   1.000 Cr                                                  
    0.000 999%   0.000 PCr                                                 
   31.015 118%   0.135 GABA                                                
   25.696 141%   0.112 Glc                                                 
  357.139  91%   1.558 Gln                                                 
    0.000 999%   0.000 Glu                                                 
   72.403  23%   0.316 GPC                                                 
    0.000 999%   0.000 PCh                                                 
    0.000 999%   0.000 GSH                                                 
   66.981 279%   0.292 Ins                                                 
 1.40E+03  23%   6.099 Lac                                                 
  419.329  24%   1.830 NAA                                                 
    7.193 999% 3.1E-02 NAAG                                                
   16.313  67% 7.1E-02 Scyllo                                              
   77.216  74%   0.337 Tau                                                 
  298.887  20%   1.304 -CrCH2                                              
   72.403  23%   0.316 GPC+PCh                                             
  426.522  22%   1.861 NAA+NAAG                                            
  229.200  21%   1.000 Cr+PCr                                              
  357.139  91%   1.558 Glu+Gln                                             
    0.000 999%   0.000 Lip13a                                              
    0.000 999%   0.000 Lip13b                                              
   52.748 209%   0.230 Lip09                                               
 1.31E+03  11%   5.722 MM09                                                
    0.000 999%   0.000 Lip20                                               
  984.820  29%   4.297 MM20                                                
  503.877  23%   2.198 MM12                                                
 1.33E+03  16%   5.819 MM14                                                
  487.194  32%   2.126 MM17                                                
    0.000 999%   0.000 Lip13a+Lip13b                                       
 1.84E+03  14%   8.018 MM14+Lip13a+Lip13b+MM12                             
 1.36E+03   9%   5.952 MM09+Lip09                                          
  984.820  29%   4.297 MM20+Lip20                                          
   6 lines in following misc. output table
  FWHM = 0.107 ppm    S/N =   3                                            
  Data shift = 0.092 ppm                                                   
  Ph:  28 deg       8.6 deg/ppm                                            
  alphaB,S = 8.5E+01,   1.0E+02                                            
   12 spline knots.   Ns = 9(2)                                            
   2 inflections.     1 extrema                                            
  498 points on ppm-axis = NY
      4.000000     3.992357     3.984714     3.977070     3.969427     3.961784     3.954141     3.946497     3.938854     3.931211
      3.923568     3.915925     3.908281     3.900638     3.892995     3.885352     3.877708     3.870065     3.862422     3.854779
      3.847136     3.839492     3.831849     3.824206     3.816563     3.808919     3.801276     3.793633     3.785990     3.778347
      3.770703     3.763060     3.755417     3.747774     3.740130     3.732487     3.724844     3.717201     3.709558     3.701914
      3.694271     3.686628     3.678985     3.671341     3.663698     3.656055     3.648412     3.640769     3.633125     3.625482
      3.617839     3.610196     3.602552     3.594909     3.587266     3.579623     3.571980     3.564336     3.556693     3.549050
      3.541407     3.533763     3.526120     3.518477     3.510834     3.503191     3.495547     3.487904     3.480261     3.472618
      3.464974     3.457331     3.449688     3.442045     3.434402     3.426758     3.419115     3.411472     3.403829     3.396185
      3.388542     3.380899     3.373256     3.365613     3.357969     3.350326     3.342683     3.335040     3.327396     3.319753
      3.312110     3.304467     3.296824     3.289180     3.281537     3.273894     3.266251     3.258607     3.250964     3.243321
      3.235678     3.228034     3.220391     3.212748     3.205105     3.197462     3.189818     3.182175     3.174532     3.166889
      3.159245     3.151602     3.143959     3.136316     3.128673     3.121029     3.113386     3.105743     3.098100     3.090456
      3.082813     3.075170     3.067527     3.059884     3.052240     3.044597     3.036954     3.029311     3.021667     3.014024
      3.006381     2.998738     2.991095     2.983451     2.975808     2.968165     2.960522     2.952878     2.945235     2.937592
      2.929949     2.922306     2.914662     2.907019     2.899376     2.891733     2.884089     2.876446     2.868803     2.861160
      2.853517     2.845873     2.838230     2.830587     2.822944     2.815300     2.807657     2.800014     2.792371     2.784728
      2.777084     2.769441     2.761798     2.754155     2.746511     2.738868     2.731225     2.723582     2.715939     2.708295
      2.700652     2.693009     2.685366     2.677722     2.670079     2.662436     2.654793     2.647150     2.639506     2.631863
      2.624220     2.616577     2.608933     2.601290     2.593647     2.586004     2.578361     2.570717     2.563074     2.555431
      2.547788     2.540144     2.532501     2.524858     2.517215     2.509572     2.501928     2.494285     2.486642     2.478999
      2.471355     2.463712     2.456069     2.448426     2.440783     2.433139     2.425496     2.417853     2.410210     2.402566
      2.394923     2.387280     2.379637     2.371994     2.364350     2.356707     2.349064     2.341421     2.333777     2.326134
      2.318491     2.310848     2.303205     2.295561     2.287918     2.280275     2.272632     2.264988     2.257345     2.249702
      2.242059     2.234416     2.226772     2.219129     2.211486     2.203843     2.196199     2.188556     2.180913     2.173270
      2.165627     2.157983     2.150340     2.142697     2.135054     2.127410     2.119767     2.112124     2.104481     2.096838
      2.089194     2.081551     2.073908     2.066265     2.058621     2.050978     2.043335     2.035692     2.028049     2.020405
      2.012762     2.005119     1.997476     1.989833     1.982190     1.974546     1.966903     1.959260     1.951617     1.943974
      1.936331     1.928688     1.921045     1.913402     1.905759     1.898115     1.890472     1.882829     1.875186     1.867543
      1.859900     1.852257     1.844614     1.836971     1.829327     1.821684     1.814041     1.806398     1.798755     1.791112
      1.783469     1.775826     1.768183     1.760540     1.752896     1.745253     1.737610     1.729967     1.722324     1.714681
      1.707038     1.699395     1.691752     1.684108     1.676465     1.668822     1.661179     1.653536     1.645893     1.638250
      1.630607     1.622964     1.615321     1.607677     1.600034     1.592391     1.584748     1.577105     1.569462     1.561819
      1.554176     1.546533     1.538890     1.531246     1.523603     1.515960     1.508317     1.500674     1.493031     1.485388
      1.477745     1.470102     1.462458     1.454815     1.447172     1.439529     1.431886     1.424243     1.416600     1.408957
      1.401314     1.393671     1.386027     1.378384     1.370741     1.363098     1.355455     1.347812     1.340169     1.332526
      1.324883     1.317240     1.309596     1.301953     1.294310     1.286667     1.279024     1.271381     1.263738     1.256095
      1.248452     1.240808     1.233165     1.225522     1.217879     1.210236     1.202593     1.194950     1.187307     1.179664
      1.172021     1.164377     1.156734     1.149091     1.141448     1.133805     1.126162     1.118519     1.110876     1.103233
      1.095590     1.087946     1.080303     1.072660     1.065017     1.057374     1.049731     1.042088     1.034445     1.026802
      1.019158     1.011515     1.003872     0.996229     0.988586     0.980943     0.973300     0.965657     0.958014     0.950371
      0.942727     0.935084     0.927441     0.919798     0.912155     0.904512     0.896869     0.889226     0.881583     0.873940
      0.866296     0.858653     0.851010     0.843367     0.835724     0.828081     0.820438     0.812795     0.805152     0.797508
      0.789865     0.782222     0.774579     0.766936     0.759293     0.751650     0.744007     0.736364     0.728721     0.721077
      0.713434     0.705791     0.698148     0.690505     0.682862     0.675219     0.667576     0.659933     0.652290     0.644646
      0.637003     0.629360     0.621717     0.614074     0.606431     0.598788     0.591145     0.583502     0.575858     0.568215
      0.560572     0.552929     0.545286     0.537643     0.530000     0.522357     0.514714     0.507071     0.499427     0.491784
      0.484141     0.476498     0.468855     0.461212     0.453569     0.445925     0.438282     0.430639     0.422996     0.415353
      0.407710     0.400067     0.392424     0.384780     0.377137     0.369494     0.361851     0.354208     0.346565     0.338922
      0.331278     0.323635     0.315992     0.308349     0.300706     0.293063     0.285420     0.277777     0.270133     0.262490
      0.254847     0.247204     0.239561     0.231918     0.224275     0.216631     0.208988     0.201345
 NY phased data points follow
  -7.40559E+00 -4.90379E+00 -4.70996E+00 -6.67004E+00 -6.64419E+00 -4.38920E+00 -7.78652E+00 -6.97108E+00 -9.31117E+00 -1.81102E+00
  -3.50650E+00 -5.26720E+00 -5.91020E+00 -4.67359E+00 -5.09057E+00  5.39332E-01 -3.92096E+00 -3.89515E+00 -5.67828E+00 -4.97014E+00
  -6.82371E+00 -3.06659E+00 -4.24373E+00 -1.14465E+00 -5.06924E+00 -3.85962E+00 -7.41816E+00 -2.49631E+00 -4.43503E+00 -3.04686E+00
  -3.98635E+00 -1.07025E+00 -5.13081E+00 -7.61717E+00 -3.65742E+00 -3.54360E+00 -2.43391E+00 -2.70428E+00 -5.47619E+00 -1.56487E+00
  -3.02755E+00  1.16397E+00 -4.23476E+00 -2.82022E-01 -4.27659E+00 -2.94336E+00 -5.63782E+00 -2.28204E+00 -6.02033E+00 -3.22042E+00
  -3.66122E+00 -2.94277E+00 -6.04446E+00 -5.75434E+00 -6.26692E+00 -2.04814E+00 -1.18483E+00 -5.64747E+00 -2.49153E+00 -7.47631E-02
  -2.64797E+00 -8.31542E-01 -8.53030E-01 -3.41490E+00 -5.07108E+00 -4.18126E+00 -4.47788E+00 -1.37821E+00 -4.16039E+00 -1.77715E+00
  -5.23006E+00  5.85144E-02 -4.17086E+00 -3.26539E+00 -2.85528E+00 -4.99217E+00 -4.34070E+00 -2.53238E+00 -3.90821E+00 -3.38221E+00
  -3.70752E+00 -4.33525E+00 -4.84503E+00 -6.25609E-01 -4.18420E+00  3.52866E-02 -2.04555E-01  5.35659E+00 -3.87983E+00 -1.10234E+00
  -6.44146E+00 -3.04739E+00 -4.48005E+00  8.05660E-01 -3.28447E+00 -3.10012E+00 -3.48147E+00  4.30441E+00 -1.75319E+00  2.79549E+00
  -2.14651E+00  1.90045E+00  7.96266E-01 -3.22261E-01  1.14375E+00  5.08136E-01 -3.50523E+00 -2.83449E-01 -5.81839E+00 -7.61357E-01
  -1.77285E+00  6.70819E-01 -1.07723E+00 -6.69919E-01  3.24731E-01  6.70931E-01 -4.75208E+00 -3.68024E+00 -2.48050E+00 -3.58368E-01
   1.86367E+00  1.14059E+00  2.80618E+00  2.32153E+00  5.43603E-01  3.48389E+00  1.26243E+00  1.44126E+00 -5.00366E-01  9.04025E-01
   2.85712E+00  9.81026E-01 -8.70600E-01  1.94713E+00 -3.39354E+00 -1.84302E+00 -1.54929E+00 -8.98930E-01 -1.48204E+00  1.04038E+00
  -3.70867E+00 -1.15202E+00 -5.75838E+00 -3.27761E+00 -2.76061E-01 -2.34369E+00 -2.12844E+00  1.03387E+00 -1.83143E+00 -2.79958E+00
  -1.88149E+00 -2.63826E+00 -5.38391E+00 -3.04368E+00 -1.57392E+00 -2.69613E-01 -4.98178E+00 -1.23243E+00  2.05140E+00 -2.07731E+00
  -4.53953E+00 -4.54719E-01 -1.97855E+00  5.95196E-01 -6.24607E+00 -9.00189E-01 -2.91458E+00 -2.92986E+00 -2.47486E+00 -5.42052E+00
  -7.17525E+00 -4.06654E+00 -9.51046E+00 -4.68965E+00 -7.17294E+00 -4.71013E+00 -4.53682E+00 -2.06805E+00 -2.46517E+00  4.17261E-01
  -6.04474E+00 -2.67143E-01 -3.92667E+00 -3.17748E+00 -3.99116E+00 -3.02403E+00 -8.28790E+00 -4.26198E+00 -1.41201E+00 -2.33186E+00
  -3.53839E+00 -2.84665E+00 -7.16950E+00 -1.32119E+00 -6.38282E+00 -4.69859E+00 -4.34508E+00  1.10713E+00 -6.87950E+00 -2.70859E+00
  -3.82585E+00 -1.30373E+00 -6.57565E-01 -3.55841E+00 -5.79657E+00 -3.97407E+00 -2.40480E+00 -9.65948E-01 -3.08682E+00 -3.44394E+00
  -4.82236E+00 -2.05282E+00 -2.05930E+00 -2.41785E-01 -2.64452E+00 -2.09682E+00 -3.79529E+00  8.62797E-01 -6.01412E+00 -3.22195E-01
  -1.74446E+00 -3.78283E-01 -5.62648E-01 -2.44722E+00 -1.01893E+00  7.97398E-01 -4.16050E+00 -1.27062E+00 -1.66476E+00  2.93903E-01
  -4.77000E+00  2.18406E+00 -1.16867E+00  9.97148E-03  2.04218E+00 -1.47089E-01 -2.99839E+00  1.28314E+00 -2.49175E+00 -1.14442E+00
  -1.51604E-01  7.73958E-01  1.03960E+00  2.14357E+00  1.24570E-01  3.01510E+00  3.62052E+00  5.95868E-02  4.28819E+00  1.42783E+00
   2.76298E+00  5.88401E+00  6.81199E+00  7.92893E+00  6.86618E+00  1.28336E+01  9.22834E+00  1.27827E+01  7.09563E+00  8.14220E+00
   6.39510E+00  6.28426E+00  3.51128E+00  4.57633E+00  3.27999E+00  4.00171E+00  1.56857E-01  8.11134E-01 -4.58683E+00  1.00266E+00
  -3.96494E-01 -2.37291E+00 -3.82846E+00  4.67822E-01 -2.84000E+00 -2.97667E+00 -6.91244E+00 -1.26737E+00 -8.83815E-01 -3.28426E+00
  -2.39953E+00 -3.19418E+00 -6.26739E+00 -5.34597E+00 -1.35370E+00 -3.40424E+00 -4.66362E+00 -2.83745E+00 -2.67524E+00 -1.35412E+00
  -1.34939E-02 -2.01576E+00 -1.56680E+00  1.31908E+00  1.50333E+00  4.37144E-03  5.13681E-01  6.62058E-01  5.76452E-01  2.01528E+00
  -5.09430E-01 -1.68759E+00  1.46598E+00 -1.57011E-01  1.47977E+00  5.02447E+00  1.17727E+00 -4.20835E-01  3.27704E+00  1.40523E+00
   4.65315E+00  2.24984E+00  4.88784E+00  1.53711E+00  2.15761E+00  3.66234E+00  6.96844E+00  2.59289E+00  7.30680E+00  3.62047E+00
   2.54338E+00  4.69794E+00  5.12569E+00  7.75802E+00  9.57963E+00  7.03764E+00  6.85860E+00  1.39859E+01  7.96135E+00  9.49090E+00
   7.34154E+00  1.12185E+01  1.08715E+01  9.79928E+00  1.43790E+01  1.26295E+01  1.14416E+01  1.06173E+01  1.08379E+01  1.18839E+01
   9.76188E+00  8.76696E+00  6.32077E+00  6.58511E+00  3.15777E+00  1.10679E+00 -2.47611E+00 -9.90050E-01 -1.88198E+00 -1.69480E+00
   1.36369E+00  1.91080E+00 -6.08518E-01  4.83386E+00  3.35810E+00  4.67034E+00  2.64122E+00  4.71398E+00  4.81974E+00  7.56537E-01
   5.41124E+00  6.69922E+00  5.71975E+00  5.25040E+00  5.06091E+00 -5.17897E-02  3.31428E+00  1.88324E+00  1.93011E+00  4.46465E+00
   1.68799E+00  7.54031E+00  7.03650E+00  7.22401E+00  5.52351E+00  5.35446E+00  2.78619E+00  4.81599E+00  3.52897E+00  4.70036E+00
   4.67688E+00  1.82542E+00  6.51904E+00  7.21399E+00  7.37226E+00  8.07020E+00  7.60913E+00  6.37406E+00  6.92671E+00  5.79740E+00
   5.31014E+00  5.27074E+00  5.90493E+00  7.55172E+00  5.09691E+00  6.58194E+00  6.81706E+00  7.97710E+00  3.53997E+00  7.46186E+00
   7.20093E+00  6.27775E+00  3.14362E+00  7.34459E+00  9.26818E+00  4.61548E+00  2.97000E+00  5.38889E+00  4.43249E-01  4.24547E+00
   3.19970E+00  6.21588E+00  2.13688E+00  2.84007E+00  2.77326E+00 -3.34924E-01  3.82148E+00  4.28887E+00  1.51402E+00  2.66457E+00
   2.91283E+00  1.35874E+00  2.76413E+00  2.09923E+00  1.51929E+00  2.07862E-01 -1.95620E+00  2.40632E+00 -3.67827E-01  1.07558E+00
   3.38410E-01  1.43986E+00 -9.82206E-01  4.56183E+00 -2.19441E+00  3.67051E+00 -1.83623E+00 -3.07763E+00  4.08389E-01 -6.35237E-01
   4.25779E-01 -3.66946E+00  1.20768E+00  5.56366E-01 -9.05427E-01 -1.28489E+00 -1.00930E+00  1.14684E+00 -2.73254E+00 -2.16106E+00
   2.11101E-01  1.89371E-01 -1.22505E-02  1.08198E+00 -2.01433E+00  1.71164E+00  5.43093E-01  5.04846E-01 -2.62610E+00 -1.88036E+00
  -2.03848E-01 -9.67800E-01 -3.02868E+00 -1.50385E+00 -3.73504E-01 -1.41957E+00 -7.07156E-01 -8.77394E-01 -1.43282E+00 -2.37120E-01
   2.27674E-02 -1.95420E+00 -8.23412E-01 -1.28127E+00 -2.43913E+00 -2.24454E+00 -5.10477E+00 -3.47109E+00  6.97780E-01  1.24920E+00
   2.12784E+00 -1.30528E+00 -2.81690E+00  4.50148E-01 -4.58959E+00 -5.09817E+00 -2.12144E+00  5.26812E-02 -9.69357E-01 -1.90578E+00
  -1.93428E+00 -2.96990E+00 -1.98552E+00 -3.04864E-01 -3.63011E-01  1.23018E+00 -2.96672E-01 -2.48562E+00
 NY points of the fit to the data follow
  -4.90143E+00 -5.14082E+00 -5.26901E+00 -5.23249E+00 -5.40884E+00 -4.91964E+00 -5.16447E+00 -4.35211E+00 -4.69669E+00 -3.84387E+00
  -4.29383E+00 -3.57896E+00 -4.09517E+00 -3.46392E+00 -3.96073E+00 -3.41364E+00 -3.84961E+00 -3.41844E+00 -3.80296E+00 -3.51565E+00
  -3.82807E+00 -3.64258E+00 -3.84835E+00 -3.74772E+00 -3.84289E+00 -3.75192E+00 -3.76905E+00 -3.63388E+00 -3.63192E+00 -3.57068E+00
  -3.60202E+00 -3.57453E+00 -3.63940E+00 -3.56075E+00 -3.62900E+00 -3.51324E+00 -3.58073E+00 -3.44609E+00 -3.51233E+00 -3.38553E+00
  -3.45639E+00 -3.34882E+00 -3.41943E+00 -3.34047E+00 -3.39734E+00 -3.34403E+00 -3.39170E+00 -3.36602E+00 -3.41888E+00 -3.41608E+00
  -3.49280E+00 -3.48575E+00 -3.56884E+00 -3.53887E+00 -3.61243E+00 -3.56326E+00 -3.63638E+00 -3.57338E+00 -3.64674E+00 -3.57083E+00
  -3.64719E+00 -3.55932E+00 -3.63867E+00 -3.54028E+00 -3.61479E+00 -3.51480E+00 -3.57931E+00 -3.48591E+00 -3.52548E+00 -3.44291E+00
  -3.47165E+00 -3.41059E+00 -3.43815E+00 -3.39327E+00 -3.40494E+00 -3.35989E+00 -3.35623E+00 -3.29837E+00 -3.28968E+00 -3.21789E+00
  -3.22722E+00 -3.14950E+00 -3.20813E+00 -3.13474E+00 -3.18964E+00 -3.01236E+00 -3.09165E+00 -2.81759E+00 -2.92498E+00 -2.53463E+00
  -2.63066E+00 -2.01860E+00 -2.12696E+00 -1.24069E+00 -1.43283E+00 -2.86772E-01 -6.79289E-01  5.50454E-01 -1.24585E-01  9.28409E-01
   2.31590E-02  7.42238E-01 -2.55397E-01  1.09969E-01 -8.13317E-01 -6.85362E-01 -1.44320E+00 -1.45566E+00 -1.97910E+00 -1.94420E+00
  -2.27919E+00 -2.17320E+00 -2.35645E+00 -2.12110E+00 -2.16312E+00 -1.65626E+00 -1.60769E+00 -7.47592E-01 -7.28249E-01  4.16196E-01
   2.23379E-01  1.35884E+00  9.00284E-01  1.79671E+00  1.11536E+00  1.66140E+00  8.49837E-01  1.03747E+00  2.52607E-01  2.29528E-01
  -4.42103E-01 -5.81260E-01 -1.11287E+00 -1.30927E+00 -1.70114E+00 -1.91150E+00 -2.16870E+00 -2.33888E+00 -2.48112E+00 -2.57754E+00
  -2.63267E+00 -2.62683E+00 -2.65767E+00 -2.61590E+00 -2.68966E+00 -2.72034E+00 -2.80170E+00 -2.84594E+00 -2.90913E+00 -2.93574E+00
  -2.99477E+00 -3.02773E+00 -3.08559E+00 -3.11912E+00 -3.17731E+00 -3.20196E+00 -3.26043E+00 -3.26972E+00 -3.33537E+00 -3.33650E+00
  -3.40214E+00 -3.40669E+00 -3.47102E+00 -3.49745E+00 -3.56146E+00 -3.60643E+00 -3.65629E+00 -3.71017E+00 -3.73818E+00 -3.80587E+00
  -3.79899E+00 -3.86775E+00 -3.82364E+00 -3.88314E+00 -3.81740E+00 -3.86179E+00 -3.79542E+00 -3.80699E+00 -3.75716E+00 -3.71750E+00
  -3.68845E+00 -3.60440E+00 -3.60164E+00 -3.47548E+00 -3.50140E+00 -3.33302E+00 -3.39526E+00 -3.19072E+00 -3.29728E+00 -3.06877E+00
  -3.20141E+00 -2.97066E+00 -3.11113E+00 -2.85006E+00 -2.96072E+00 -2.69680E+00 -2.80765E+00 -2.59466E+00 -2.77491E+00 -2.63130E+00
  -2.91332E+00 -2.83318E+00 -3.19162E+00 -3.09941E+00 -3.44216E+00 -3.26597E+00 -3.50728E+00 -3.24567E+00 -3.36605E+00 -3.05776E+00
  -3.08338E+00 -2.77729E+00 -2.75121E+00 -2.47106E+00 -2.40832E+00 -2.16389E+00 -2.07930E+00 -1.88868E+00 -1.82636E+00 -1.69504E+00
  -1.68113E+00 -1.59520E+00 -1.62743E+00 -1.56557E+00 -1.65395E+00 -1.57937E+00 -1.69331E+00 -1.56472E+00 -1.66913E+00 -1.47246E+00
  -1.56605E+00 -1.29701E+00 -1.36381E+00 -1.05287E+00 -1.09430E+00 -8.11959E-01 -8.39679E-01 -6.34660E-01 -6.38797E-01 -4.90221E-01
  -4.32996E-01 -2.65970E-01  5.33696E-02  4.25464E-01  8.55840E-01  1.40303E+00  1.83307E+00  2.53497E+00  3.02385E+00  3.98473E+00
   4.46823E+00  5.75743E+00  6.08246E+00  7.68068E+00  7.52405E+00  9.17298E+00  8.24082E+00  9.58553E+00  7.94216E+00  8.78468E+00
   6.78109E+00  7.14212E+00  5.22866E+00  5.28295E+00  3.65800E+00  3.51812E+00  2.23945E+00  1.98378E+00  1.04665E+00  7.36347E-01
   1.41014E-01 -1.44556E-01 -4.48637E-01 -6.48037E-01 -7.20614E-01 -7.91340E-01 -8.06253E-01 -8.15405E-01 -9.58315E-01 -1.02405E+00
  -1.15816E+00 -1.22347E+00 -1.27724E+00 -1.29684E+00 -1.32304E+00 -1.31527E+00 -1.31409E+00 -1.27541E+00 -1.24219E+00 -1.16916E+00
  -1.09985E+00 -9.89520E-01 -8.81895E-01 -7.33182E-01 -5.87411E-01 -4.02614E-01 -2.22201E-01 -7.25324E-03  1.99113E-01  4.33583E-01
   6.52858E-01  8.92113E-01  1.10905E+00  1.33793E+00  1.53848E+00  1.74595E+00  1.92264E+00  2.10586E+00  2.26095E+00  2.42793E+00
   2.57464E+00  2.74345E+00  2.90398E+00  3.09918E+00  3.29918E+00  3.54566E+00  3.80718E+00  4.12249E+00  4.45695E+00  4.84522E+00
   5.24884E+00  5.69826E+00  6.15180E+00  6.63714E+00  7.11194E+00  7.60527E+00  8.08104E+00  8.58412E+00  9.12840E+00  9.81151E+00
   1.01727E+01  1.07368E+01  1.08398E+01  1.12304E+01  1.11243E+01  1.14495E+01  1.09874E+01  1.15163E+01  1.06045E+01  1.10511E+01
   9.37807E+00  9.20965E+00  6.73033E+00  6.04905E+00  3.28732E+00  2.75100E+00  3.74801E-01  7.76389E-01 -7.05064E-01  8.59929E-01
   1.89295E-01  2.20742E+00  1.98281E+00  3.72076E+00  3.62912E+00  4.71678E+00  4.62733E+00  5.27182E+00  5.19303E+00  5.53380E+00
   5.44219E+00  5.53902E+00  5.29687E+00  5.02843E+00  4.58692E+00  3.99613E+00  3.63438E+00  3.18212E+00  2.99255E+00  2.93519E+00
   2.89633E+00  3.08441E+00  3.14965E+00  3.21845E+00  3.25324E+00  3.26089E+00  3.30440E+00  3.39927E+00  3.50931E+00  3.66218E+00
   3.82785E+00  4.03455E+00  4.25170E+00  4.50598E+00  4.76524E+00  5.05410E+00  5.33874E+00  5.64189E+00  5.92844E+00  6.21985E+00
   6.48049E+00  6.73142E+00  6.93747E+00  7.12045E+00  7.24682E+00  7.34014E+00  7.36937E+00  7.36053E+00  7.28556E+00  7.17320E+00
   6.99836E+00  6.79219E+00  6.53197E+00  6.25049E+00  5.92653E+00  5.59356E+00  5.23088E+00  4.87165E+00  4.49476E+00  4.13231E+00
   3.76219E+00  3.41505E+00  3.06749E+00  2.74856E+00  2.43361E+00  2.15022E+00  1.87273E+00  1.62756E+00  1.38832E+00  1.18058E+00
   9.77554E-01  8.04260E-01  6.33789E-01  4.90855E-01  3.48606E-01  2.31588E-01  1.13133E-01  1.77362E-02 -8.10079E-02 -1.58614E-01
  -2.41220E-01 -3.04344E-01 -3.73846E-01 -4.25236E-01 -4.84101E-01 -5.25970E-01 -5.76194E-01 -6.10342E-01 -6.53533E-01 -6.81377E-01
  -7.18785E-01 -7.41443E-01 -7.74078E-01 -7.92458E-01 -8.21124E-01 -8.35930E-01 -8.61251E-01 -8.73049E-01 -8.95549E-01 -9.04813E-01
  -9.24907E-01 -9.31999E-01 -9.50016E-01 -9.55248E-01 -9.71480E-01 -9.75112E-01 -9.89784E-01 -9.92015E-01 -1.00532E+00 -1.00633E+00
  -1.01844E+00 -1.01839E+00 -1.02943E+00 -1.02843E+00 -1.03852E+00 -1.03670E+00 -1.04595E+00 -1.04338E+00 -1.05187E+00 -1.04865E+00
  -1.05645E+00 -1.05264E+00 -1.05984E+00 -1.05549E+00 -1.06212E+00 -1.05730E+00 -1.06342E+00 -1.05817E+00 -1.06382E+00 -1.05818E+00
  -1.06340E+00 -1.05740E+00 -1.06222E+00 -1.05590E+00 -1.06036E+00 -1.05373E+00 -1.05783E+00 -1.05093E+00 -1.05471E+00 -1.04755E+00
  -1.05102E+00 -1.04360E+00 -1.04676E+00 -1.03910E+00 -1.04196E+00 -1.03404E+00 -1.03658E+00 -1.02837E+00
 NY background values follow
    -4.214E+00   -4.208E+00   -4.202E+00   -4.196E+00   -4.190E+00   -4.184E+00   -4.178E+00   -4.172E+00   -4.166E+00   -4.160E+00
    -4.154E+00   -4.148E+00   -4.142E+00   -4.136E+00   -4.130E+00   -4.125E+00   -4.119E+00   -4.113E+00   -4.107E+00   -4.101E+00
    -4.095E+00   -4.089E+00   -4.083E+00   -4.077E+00   -4.071E+00   -4.065E+00   -4.059E+00   -4.053E+00   -4.047E+00   -4.041E+00
    -4.035E+00   -4.029E+00   -4.023E+00   -4.017E+00   -4.011E+00   -4.006E+00   -4.000E+00   -3.994E+00   -3.988E+00   -3.982E+00
    -3.976E+00   -3.970E+00   -3.964E+00   -3.958E+00   -3.952E+00   -3.946E+00   -3.940E+00   -3.934E+00   -3.928E+00   -3.922E+00
    -3.916E+00   -3.910E+00   -3.904E+00   -3.898E+00   -3.892E+00   -3.886E+00   -3.880E+00   -3.874E+00   -3.868E+00   -3.862E+00
    -3.856E+00   -3.850E+00   -3.844E+00   -3.838E+00   -3.833E+00   -3.827E+00   -3.821E+00   -3.815E+00   -3.809E+00   -3.803E+00
    -3.797E+00   -3.791E+00   -3.785E+00   -3.779E+00   -3.773E+00   -3.767E+00   -3.761E+00   -3.755E+00   -3.749E+00   -3.743E+00
    -3.737E+00   -3.731E+00   -3.725E+00   -3.719E+00   -3.713E+00   -3.707E+00   -3.701E+00   -3.695E+00   -3.689E+00   -3.683E+00
    -3.677E+00   -3.671E+00   -3.665E+00   -3.659E+00   -3.653E+00   -3.647E+00   -3.641E+00   -3.635E+00   -3.629E+00   -3.623E+00
    -3.617E+00   -3.611E+00   -3.605E+00   -3.599E+00   -3.593E+00   -3.587E+00   -3.581E+00   -3.575E+00   -3.569E+00   -3.563E+00
    -3.557E+00   -3.551E+00   -3.545E+00   -3.539E+00   -3.533E+00   -3.527E+00   -3.521E+00   -3.515E+00   -3.509E+00   -3.503E+00
    -3.497E+00   -3.491E+00   -3.485E+00   -3.479E+00   -3.473E+00   -3.467E+00   -3.461E+00   -3.455E+00   -3.449E+00   -3.443E+00
    -3.437E+00   -3.431E+00   -3.425E+00   -3.419E+00   -3.413E+00   -3.407E+00   -3.401E+00   -3.395E+00   -3.389E+00   -3.383E+00
    -3.377E+00   -3.370E+00   -3.364E+00   -3.358E+00   -3.352E+00   -3.346E+00   -3.340E+00   -3.334E+00   -3.328E+00   -3.322E+00
    -3.316E+00   -3.310E+00   -3.304E+00   -3.298E+00   -3.292E+00   -3.286E+00   -3.280E+00   -3.274E+00   -3.268E+00   -3.262E+00
    -3.256E+00   -3.250E+00   -3.244E+00   -3.238E+00   -3.232E+00   -3.226E+00   -3.220E+00   -3.214E+00   -3.208E+00   -3.202E+00
    -3.196E+00   -3.190E+00   -3.184E+00   -3.177E+00   -3.171E+00   -3.165E+00   -3.159E+00   -3.153E+00   -3.147E+00   -3.141E+00
    -3.135E+00   -3.129E+00   -3.123E+00   -3.117E+00   -3.111E+00   -3.105E+00   -3.099E+00   -3.093E+00   -3.087E+00   -3.081E+00
    -3.075E+00   -3.069E+00   -3.063E+00   -3.057E+00   -3.051E+00   -3.044E+00   -3.038E+00   -3.032E+00   -3.026E+00   -3.020E+00
    -3.014E+00   -3.008E+00   -3.002E+00   -2.996E+00   -2.990E+00   -2.984E+00   -2.978E+00   -2.972E+00   -2.966E+00   -2.960E+00
    -2.954E+00   -2.948E+00   -2.942E+00   -2.935E+00   -2.929E+00   -2.923E+00   -2.917E+00   -2.911E+00   -2.905E+00   -2.899E+00
    -2.893E+00   -2.887E+00   -2.881E+00   -2.875E+00   -2.869E+00   -2.863E+00   -2.857E+00   -2.851E+00   -2.845E+00   -2.838E+00
    -2.832E+00   -2.826E+00   -2.820E+00   -2.814E+00   -2.808E+00   -2.802E+00   -2.796E+00   -2.790E+00   -2.784E+00   -2.778E+00
    -2.772E+00   -2.766E+00   -2.760E+00   -2.753E+00   -2.747E+00   -2.741E+00   -2.735E+00   -2.729E+00   -2.723E+00   -2.717E+00
    -2.711E+00   -2.705E+00   -2.699E+00   -2.693E+00   -2.687E+00   -2.681E+00   -2.674E+00   -2.668E+00   -2.662E+00   -2.656E+00
    -2.650E+00   -2.644E+00   -2.638E+00   -2.632E+00   -2.626E+00   -2.620E+00   -2.614E+00   -2.608E+00   -2.602E+00   -2.595E+00
    -2.589E+00   -2.583E+00   -2.577E+00   -2.571E+00   -2.565E+00   -2.559E+00   -2.553E+00   -2.547E+00   -2.541E+00   -2.535E+00
    -2.528E+00   -2.522E+00   -2.516E+00   -2.510E+00   -2.504E+00   -2.498E+00   -2.492E+00   -2.486E+00   -2.480E+00   -2.474E+00
    -2.468E+00   -2.461E+00   -2.455E+00   -2.449E+00   -2.443E+00   -2.437E+00   -2.431E+00   -2.425E+00   -2.419E+00   -2.413E+00
    -2.407E+00   -2.401E+00   -2.394E+00   -2.388E+00   -2.382E+00   -2.376E+00   -2.370E+00   -2.364E+00   -2.358E+00   -2.352E+00
    -2.346E+00   -2.340E+00   -2.333E+00   -2.327E+00   -2.321E+00   -2.315E+00   -2.309E+00   -2.303E+00   -2.297E+00   -2.291E+00
    -2.285E+00   -2.279E+00   -2.272E+00   -2.266E+00   -2.260E+00   -2.254E+00   -2.248E+00   -2.242E+00   -2.236E+00   -2.230E+00
    -2.224E+00   -2.217E+00   -2.211E+00   -2.205E+00   -2.199E+00   -2.193E+00   -2.187E+00   -2.181E+00   -2.175E+00   -2.169E+00
    -2.162E+00   -2.156E+00   -2.150E+00   -2.144E+00   -2.138E+00   -2.132E+00   -2.126E+00   -2.120E+00   -2.114E+00   -2.107E+00
    -2.101E+00   -2.095E+00   -2.089E+00   -2.083E+00   -2.077E+00   -2.071E+00   -2.065E+00   -2.059E+00   -2.052E+00   -2.046E+00
    -2.040E+00   -2.034E+00   -2.028E+00   -2.022E+00   -2.016E+00   -2.010E+00   -2.004E+00   -1.997E+00   -1.991E+00   -1.985E+00
    -1.979E+00   -1.973E+00   -1.967E+00   -1.961E+00   -1.955E+00   -1.948E+00   -1.942E+00   -1.936E+00   -1.930E+00   -1.924E+00
    -1.918E+00   -1.912E+00   -1.906E+00   -1.899E+00   -1.893E+00   -1.887E+00   -1.881E+00   -1.875E+00   -1.869E+00   -1.863E+00
    -1.857E+00   -1.850E+00   -1.844E+00   -1.838E+00   -1.832E+00   -1.826E+00   -1.820E+00   -1.814E+00   -1.808E+00   -1.801E+00
    -1.795E+00   -1.789E+00   -1.783E+00   -1.777E+00   -1.771E+00   -1.765E+00   -1.759E+00   -1.752E+00   -1.746E+00   -1.740E+00
    -1.734E+00   -1.728E+00   -1.722E+00   -1.716E+00   -1.710E+00   -1.703E+00   -1.697E+00   -1.691E+00   -1.685E+00   -1.679E+00
    -1.673E+00   -1.667E+00   -1.661E+00   -1.654E+00   -1.648E+00   -1.642E+00   -1.636E+00   -1.630E+00   -1.624E+00   -1.618E+00
    -1.611E+00   -1.605E+00   -1.599E+00   -1.593E+00   -1.587E+00   -1.581E+00   -1.575E+00   -1.569E+00   -1.562E+00   -1.556E+00
    -1.550E+00   -1.544E+00   -1.538E+00   -1.532E+00   -1.526E+00   -1.519E+00   -1.513E+00   -1.507E+00   -1.501E+00   -1.495E+00
    -1.489E+00   -1.483E+00   -1.477E+00   -1.470E+00   -1.464E+00   -1.458E+00   -1.452E+00   -1.446E+00   -1.440E+00   -1.434E+00
    -1.427E+00   -1.421E+00   -1.415E+00   -1.409E+00   -1.403E+00   -1.397E+00   -1.391E+00   -1.384E+00   -1.378E+00   -1.372E+00
    -1.366E+00   -1.360E+00   -1.354E+00   -1.348E+00   -1.341E+00   -1.335E+00   -1.329E+00   -1.323E+00   -1.317E+00   -1.311E+00
    -1.305E+00   -1.298E+00   -1.292E+00   -1.286E+00   -1.280E+00   -1.274E+00   -1.268E+00   -1.262E+00   -1.256E+00   -1.249E+00
    -1.243E+00   -1.237E+00   -1.231E+00   -1.225E+00   -1.219E+00   -1.213E+00   -1.206E+00   -1.200E+00
 Asp      Conc. = 1.45E+01
