 LCModel (Version 6.3-1L) Copyright: S.W. Provencher.          Ref.: Magn. Reson. Med. 30:672-679 (1993).                
 Slice#1 Row#4 Col#6  PD_24_press_1_raw_act
 36 lines in following concentration table = NCONC+1
    Conc.  %SD /Cr+PCr  Metabolite                                         
    0.000 999%   0.000 Ala                                                 
  117.246 208%   0.106 Asp                                                 
 1.01E+03  30%   0.913 Cr                                                  
   96.223 319% 8.7E-02 PCr                                                 
    0.000 999%   0.000 GABA                                                
    0.000 999%   0.000 Glc                                                 
 1.39E+03  30%   1.251 Gln                                                 
  639.344  74%   0.576 Glu                                                 
  635.920   5%   0.573 GPC                                                 
    0.000 999%   0.000 PCh                                                 
  435.218  23%   0.392 GSH                                                 
 1.75E+03  20%   1.575 Ins                                                 
    0.000 999%   0.000 Lac                                                 
 1.85E+03   5%   1.662 NAA                                                 
    0.000 999%   0.000 NAAG                                                
  183.078  19%   0.165 Scyllo                                              
  273.144  79%   0.246 Tau                                                 
  327.827  42%   0.295 -CrCH2                                              
  635.920   5%   0.573 GPC+PCh                                             
 1.85E+03   5%   1.662 NAA+NAAG                                            
 1.11E+03   6%   1.000 Cr+PCr                                              
 2.03E+03  38%   1.827 Glu+Gln                                             
    0.000 999%   0.000 Lip13a                                              
  492.203  18%   0.443 Lip13b                                              
    0.000 999%   0.000 Lip09                                               
 1.47E+03  12%   1.321 MM09                                                
  160.248  74%   0.144 Lip20                                               
 3.57E+03  10%   3.213 MM20                                                
  629.945  20%   0.567 MM12                                                
    0.000 999%   0.000 MM14                                                
  589.153  30%   0.530 MM17                                                
  492.203  18%   0.443 Lip13a+Lip13b                                       
 1.12E+03  13%   1.010 MM14+Lip13a+Lip13b+MM12                             
 1.47E+03  12%   1.321 MM09+Lip09                                          
 3.73E+03   9%   3.357 MM20+Lip20                                          
   6 lines in following misc. output table
  FWHM = 0.092 ppm    S/N =   9                                            
  Data shift = 0.008 ppm                                                   
  Ph: -52 deg     -12.2 deg/ppm                                            
  alphaB,S = 1.2E+00,   2.0E+01                                            
   14 spline knots.   Ns =10(1)                                            
  (17)14 infls.   (19) 5 extrs.                                            
  498 points on ppm-axis = NY
      4.000000     3.992357     3.984714     3.977070     3.969427     3.961784     3.954141     3.946497     3.938854     3.931211
      3.923568     3.915925     3.908281     3.900638     3.892995     3.885352     3.877708     3.870065     3.862422     3.854779
      3.847136     3.839492     3.831849     3.824206     3.816563     3.808919     3.801276     3.793633     3.785990     3.778347
      3.770703     3.763060     3.755417     3.747774     3.740130     3.732487     3.724844     3.717201     3.709558     3.701914
      3.694271     3.686628     3.678985     3.671341     3.663698     3.656055     3.648412     3.640769     3.633125     3.625482
      3.617839     3.610196     3.602552     3.594909     3.587266     3.579623     3.571980     3.564336     3.556693     3.549050
      3.541407     3.533763     3.526120     3.518477     3.510834     3.503191     3.495547     3.487904     3.480261     3.472618
      3.464974     3.457331     3.449688     3.442045     3.434402     3.426758     3.419115     3.411472     3.403829     3.396185
      3.388542     3.380899     3.373256     3.365613     3.357969     3.350326     3.342683     3.335040     3.327396     3.319753
      3.312110     3.304467     3.296824     3.289180     3.281537     3.273894     3.266251     3.258607     3.250964     3.243321
      3.235678     3.228034     3.220391     3.212748     3.205105     3.197462     3.189818     3.182175     3.174532     3.166889
      3.159245     3.151602     3.143959     3.136316     3.128673     3.121029     3.113386     3.105743     3.098100     3.090456
      3.082813     3.075170     3.067527     3.059884     3.052240     3.044597     3.036954     3.029311     3.021667     3.014024
      3.006381     2.998738     2.991095     2.983451     2.975808     2.968165     2.960522     2.952878     2.945235     2.937592
      2.929949     2.922306     2.914662     2.907019     2.899376     2.891733     2.884089     2.876446     2.868803     2.861160
      2.853517     2.845873     2.838230     2.830587     2.822944     2.815300     2.807657     2.800014     2.792371     2.784728
      2.777084     2.769441     2.761798     2.754155     2.746511     2.738868     2.731225     2.723582     2.715939     2.708295
      2.700652     2.693009     2.685366     2.677722     2.670079     2.662436     2.654793     2.647150     2.639506     2.631863
      2.624220     2.616577     2.608933     2.601290     2.593647     2.586004     2.578361     2.570717     2.563074     2.555431
      2.547788     2.540144     2.532501     2.524858     2.517215     2.509572     2.501928     2.494285     2.486642     2.478999
      2.471355     2.463712     2.456069     2.448426     2.440783     2.433139     2.425496     2.417853     2.410210     2.402566
      2.394923     2.387280     2.379637     2.371994     2.364350     2.356707     2.349064     2.341421     2.333777     2.326134
      2.318491     2.310848     2.303205     2.295561     2.287918     2.280275     2.272632     2.264988     2.257345     2.249702
      2.242059     2.234416     2.226772     2.219129     2.211486     2.203843     2.196199     2.188556     2.180913     2.173270
      2.165627     2.157983     2.150340     2.142697     2.135054     2.127410     2.119767     2.112124     2.104481     2.096838
      2.089194     2.081551     2.073908     2.066265     2.058621     2.050978     2.043335     2.035692     2.028049     2.020405
      2.012762     2.005119     1.997476     1.989833     1.982190     1.974546     1.966903     1.959260     1.951617     1.943974
      1.936331     1.928688     1.921045     1.913402     1.905759     1.898115     1.890472     1.882829     1.875186     1.867543
      1.859900     1.852257     1.844614     1.836971     1.829327     1.821684     1.814041     1.806398     1.798755     1.791112
      1.783469     1.775826     1.768183     1.760540     1.752896     1.745253     1.737610     1.729967     1.722324     1.714681
      1.707038     1.699395     1.691752     1.684108     1.676465     1.668822     1.661179     1.653536     1.645893     1.638250
      1.630607     1.622964     1.615321     1.607677     1.600034     1.592391     1.584748     1.577105     1.569462     1.561819
      1.554176     1.546533     1.538890     1.531246     1.523603     1.515960     1.508317     1.500674     1.493031     1.485388
      1.477745     1.470102     1.462458     1.454815     1.447172     1.439529     1.431886     1.424243     1.416600     1.408957
      1.401314     1.393671     1.386027     1.378384     1.370741     1.363098     1.355455     1.347812     1.340169     1.332526
      1.324883     1.317240     1.309596     1.301953     1.294310     1.286667     1.279024     1.271381     1.263738     1.256095
      1.248452     1.240808     1.233165     1.225522     1.217879     1.210236     1.202593     1.194950     1.187307     1.179664
      1.172021     1.164377     1.156734     1.149091     1.141448     1.133805     1.126162     1.118519     1.110876     1.103233
      1.095590     1.087946     1.080303     1.072660     1.065017     1.057374     1.049731     1.042088     1.034445     1.026802
      1.019158     1.011515     1.003872     0.996229     0.988586     0.980943     0.973300     0.965657     0.958014     0.950371
      0.942727     0.935084     0.927441     0.919798     0.912155     0.904512     0.896869     0.889226     0.881583     0.873940
      0.866296     0.858653     0.851010     0.843367     0.835724     0.828081     0.820438     0.812795     0.805152     0.797508
      0.789865     0.782222     0.774579     0.766936     0.759293     0.751650     0.744007     0.736364     0.728721     0.721077
      0.713434     0.705791     0.698148     0.690505     0.682862     0.675219     0.667576     0.659933     0.652290     0.644646
      0.637003     0.629360     0.621717     0.614074     0.606431     0.598788     0.591145     0.583502     0.575858     0.568215
      0.560572     0.552929     0.545286     0.537643     0.530000     0.522357     0.514714     0.507071     0.499427     0.491784
      0.484141     0.476498     0.468855     0.461212     0.453569     0.445925     0.438282     0.430639     0.422996     0.415353
      0.407710     0.400067     0.392424     0.384780     0.377137     0.369494     0.361851     0.354208     0.346565     0.338922
      0.331278     0.323635     0.315992     0.308349     0.300706     0.293063     0.285420     0.277777     0.270133     0.262490
      0.254847     0.247204     0.239561     0.231918     0.224275     0.216631     0.208988     0.201345
 NY phased data points follow
  -2.14033E+01 -1.64563E+01 -1.61500E+01 -1.84043E+01 -9.55097E+00 -1.17809E+01 -7.72060E+00 -6.68971E+00 -5.98857E+00 -4.62349E+00
   2.03080E-01  1.34104E+00 -7.14261E-01 -6.55646E+00  1.52714E+00 -6.02804E+00 -9.10576E+00 -1.21675E+01 -1.05480E+01 -1.34845E+01
  -1.26995E+01 -1.42978E+01 -9.89718E+00 -1.55539E+01 -1.47001E+01 -1.02055E+01 -7.89963E+00 -1.14588E+01 -7.87429E+00 -1.18876E+01
  -7.53086E+00 -6.58459E+00 -4.31972E+00 -6.44169E+00 -7.04860E+00 -9.32521E+00 -6.33711E+00 -1.10774E+01 -6.05849E+00 -5.92680E+00
  -8.17111E+00 -5.92110E+00 -4.57664E+00 -3.42692E+00 -2.26240E+00 -5.14399E+00 -7.08683E-01 -6.84328E+00  8.04522E-01 -5.34723E+00
  -7.71335E+00 -1.78499E+00 -6.07298E+00 -1.10943E+01 -5.70695E+00 -1.24481E+01 -8.64513E+00 -8.96040E+00 -8.85144E+00 -9.74292E+00
  -1.23338E+01 -8.56470E+00 -9.46738E+00 -8.92849E+00 -9.55294E+00 -1.40545E+01 -1.15067E+01 -1.15069E+01 -1.51932E+01 -1.02290E+01
  -7.05571E+00 -1.45533E+01 -6.38553E+00 -7.60949E+00 -1.05531E+01 -1.03355E+01 -3.88293E+00 -1.43659E+01 -4.25255E+00 -8.86687E+00
  -6.10820E+00 -8.49728E+00 -6.22920E+00 -6.50973E+00 -7.97520E+00 -4.15918E+00 -9.77588E+00  5.69884E-01 -6.06769E+00 -8.05905E+00
   5.20721E-01 -6.15971E+00 -3.30697E+00 -4.62225E+00  7.74095E+00 -3.29281E-01  7.78574E+00  1.25737E+01  1.37596E+01  2.14503E+01
   2.58617E+01  2.82843E+01  3.65491E+01  2.74260E+01  2.40169E+01  2.14044E+01  1.56111E+01  1.39198E+01  1.37096E+01  5.44133E+00
   5.31924E-01 -3.51159E+00 -5.56530E+00 -4.29115E+00 -6.01386E+00 -6.25691E+00 -4.00987E+00 -2.50642E+00 -3.44040E+00  1.35337E-01
   1.20105E+00 -6.29452E-02  7.73697E+00  4.41770E+00  1.29717E+01  1.74220E+01  2.01409E+01  1.74351E+01  2.29663E+01  1.57523E+01
   1.04736E+01 -4.12439E-01  1.40315E+01  7.47348E+00 -2.32607E+00  5.95587E-01 -7.48823E+00 -6.06752E+00 -2.78111E+00 -3.89782E+00
  -6.86856E+00 -5.95984E+00 -5.11209E+00 -3.57681E+00 -4.73818E+00 -1.27705E+01 -5.21633E+00 -5.56642E+00 -2.90221E+00 -9.63387E+00
  -8.19407E+00 -6.20490E+00 -8.93944E+00 -1.03553E+01 -1.08408E+01 -8.23493E+00 -1.06502E+01 -4.17098E+00 -8.13137E+00 -8.80690E+00
  -9.37068E+00 -8.08839E+00 -6.16401E+00 -9.13999E+00 -6.15781E+00 -5.59160E+00 -6.56784E+00 -1.15599E+01 -8.33439E+00 -1.17307E+01
  -6.29364E+00 -1.15530E+01 -1.14898E+01 -1.24235E+01 -1.54823E+01 -1.29987E+01 -1.13213E+01 -1.20162E+01 -1.45451E+01 -1.46953E+01
  -1.16391E+01 -1.29863E+01 -9.69533E+00 -9.84721E+00 -5.82201E+00 -1.22719E+01 -8.50408E+00 -8.17680E+00 -1.06591E+01 -5.36791E+00
  -6.44845E+00 -8.19105E+00 -6.12560E+00 -9.74518E+00 -5.27829E+00 -1.01111E+01 -6.21503E+00 -4.92753E+00 -3.11517E+00 -7.09513E+00
  -7.81152E+00 -2.55833E+00 -3.55787E+00 -5.95676E+00 -5.55155E+00  7.40333E-01 -4.61054E+00 -3.96504E+00 -3.06483E+00 -6.04677E+00
  -4.50784E+00  4.08109E+00 -1.04899E+00  2.07434E+00  1.49152E+00  4.48326E-01  4.82221E+00  1.27561E+00  4.99754E+00  6.37094E+00
   2.22739E+00 -3.67727E-02 -3.24283E-01 -7.58981E-01  2.07553E+00  2.34502E+00  4.28979E+00  2.97425E+00  5.82508E+00  1.02587E-01
   4.67579E+00  4.02328E-01  3.78712E+00  1.59384E+00  4.99167E+00  2.42301E+00  2.32061E+00  3.43827E+00  1.10710E+00  3.04076E+00
   2.98118E+00 -1.31842E+00  4.46011E-01 -3.87797E-01  5.48673E+00  1.02683E+01  4.08616E+00  9.44880E+00  8.04966E+00  1.06522E+01
   1.49704E+01  1.23527E+01  1.12828E+01  1.98521E+01  2.81524E+01  3.34332E+01  3.56516E+01  3.72985E+01  4.29196E+01  4.27254E+01
   5.30077E+01  4.91064E+01  4.77384E+01  4.06064E+01  3.48969E+01  2.61601E+01  2.56627E+01  1.81636E+01  1.40530E+01  1.29000E+01
   6.46554E+00  1.00277E+01  6.45134E+00  7.59638E+00  6.71737E+00  6.37199E+00  3.67284E+00  5.96063E+00  1.16358E+00  1.98590E+00
   2.56467E+00  1.39537E+00  1.35783E+00 -2.57126E-01 -4.88095E-02 -2.20577E+00 -2.92364E+00 -2.26423E+00  3.79249E-01  2.57164E+00
  -1.19199E+00  1.45045E+00  1.54498E+00 -1.83414E+00 -1.53998E+00 -5.15299E+00 -9.33211E-01  4.10648E+00 -3.35393E+00  3.14963E+00
   7.07391E+00  2.28862E+00  8.84895E-01  6.44667E-01  7.70073E-01 -2.60275E-01 -5.83117E-01  6.85055E-01  3.71308E+00  2.45518E+00
  -2.34975E+00  3.43106E+00 -1.26575E+00  2.58778E+00 -2.24123E+00  2.00910E-01 -2.19098E+00 -1.93241E+00  5.05714E-01 -2.72014E+00
  -3.13163E+00 -5.88078E+00 -6.14096E+00 -5.88600E+00 -6.83867E+00 -6.27068E+00 -5.57511E+00 -7.15268E+00 -4.95136E+00 -8.32780E+00
  -3.28477E+00 -1.02610E+01 -7.37474E+00 -7.30853E+00 -5.50352E+00 -4.37520E+00 -3.97965E+00 -5.42029E+00 -5.09795E+00 -7.55958E+00
   7.07284E-02 -2.56943E+00 -8.21324E+00 -3.63633E+00  1.61058E+00 -2.85965E+00 -1.20330E+00  4.16918E-01 -1.24789E+00  8.14174E+00
   3.37525E+00  6.46299E+00  4.17252E+00  9.15100E+00  5.42395E+00  7.28919E+00  8.05174E+00  8.83041E+00  3.86756E+00  3.11815E+00
   7.50794E+00  1.40910E+00  3.94683E+00  2.00943E+00  1.69674E+00  5.59586E+00  5.08279E+00  5.66414E+00  4.52654E+00  2.50185E+00
   9.32758E+00  6.61773E+00  3.11474E+00  4.60536E+00  2.12952E+00  4.45899E+00  3.43961E+00  2.93175E+00  2.77194E+00  8.80518E-01
   2.43713E+00  1.80600E+00  4.44446E-01  4.66326E+00  2.87973E+00  1.81603E+00  2.75789E+00  6.27406E+00  1.82319E+00  3.29454E+00
   8.32969E-01  3.18982E+00  2.13246E+00  3.10652E+00 -5.03277E-01  2.55882E+00  7.79609E+00  6.98451E+00  9.98041E+00  4.58928E+00
   8.36020E+00  1.15123E+01  9.26711E+00  1.03887E+01  1.08399E+01  9.03755E+00  8.45562E+00  1.18074E+01  1.14379E+01  1.08958E+01
   1.11434E+01  9.28779E+00  6.34829E+00  8.49517E+00  6.87352E+00  1.02541E+01  9.09899E+00  8.27607E+00  3.60254E+00  6.28650E+00
   3.58930E+00  3.90013E+00  7.05263E+00  4.26644E+00 -5.62738E-01  2.10900E+00  1.58324E+00  1.99385E+00  4.72357E+00  3.26021E+00
   3.13080E+00  3.48565E+00  4.37589E-01 -3.91172E+00  3.15510E+00  2.75216E+00  4.35786E+00  1.76886E+00  4.92166E+00  1.60781E+00
  -1.13803E+00  1.83721E+00 -9.85645E-01  4.77555E+00 -1.25395E+00  4.38589E+00  6.22469E+00  1.32202E+00  1.04827E+00 -1.75879E-01
   4.53325E+00  2.16057E+00 -5.88482E-02  4.61290E+00  2.92970E+00  7.17942E+00  4.78029E+00 -6.38489E-01  6.00837E+00  4.26225E+00
   1.60489E+00  1.33854E+00  4.74499E+00 -2.85507E-01 -6.36449E-01  2.78041E+00  5.12937E+00  7.43700E+00  4.78591E+00  8.24722E-01
   5.20926E+00  6.03989E+00  3.10874E+00  4.77843E+00  5.07916E+00  4.63336E+00  3.13573E+00  7.61317E+00  2.43600E+00  4.47632E+00
   5.28001E+00  2.39543E+00  4.22584E+00  3.29842E+00  4.31403E+00  3.40168E+00  5.55933E+00  2.63179E+00  3.90929E+00  6.78974E+00
   4.68993E+00  1.54362E+00  7.44814E+00  2.01044E+00  3.15871E-01  3.15246E+00  8.45835E-03  4.65517E+00
 NY points of the fit to the data follow
  -1.52445E+01 -1.47395E+01 -1.41566E+01 -1.34155E+01 -1.21329E+01 -1.00912E+01 -8.67776E+00 -7.80837E+00 -6.25707E+00 -4.40928E+00
  -1.87698E+00 -4.16628E-01 -1.03646E+00 -2.40695E+00 -4.30530E+00 -5.84873E+00 -6.02882E+00 -7.23975E+00 -9.52688E+00 -1.14517E+01
  -1.26070E+01 -1.19073E+01 -1.19752E+01 -1.24340E+01 -1.17819E+01 -1.10802E+01 -1.05198E+01 -9.66366E+00 -8.28706E+00 -6.59693E+00
  -5.14109E+00 -4.76050E+00 -5.11798E+00 -6.13211E+00 -7.49558E+00 -8.21835E+00 -8.40587E+00 -8.57855E+00 -8.89489E+00 -9.02039E+00
  -8.42173E+00 -7.39056E+00 -6.80053E+00 -6.24365E+00 -5.51424E+00 -4.68354E+00 -3.91064E+00 -3.54646E+00 -3.84170E+00 -5.09482E+00
  -6.57260E+00 -7.65371E+00 -8.17085E+00 -8.46512E+00 -9.15743E+00 -9.77569E+00 -1.00209E+01 -9.93064E+00 -9.67150E+00 -9.50639E+00
  -9.54256E+00 -9.59733E+00 -9.81063E+00 -1.01473E+01 -1.02138E+01 -1.01449E+01 -9.85967E+00 -9.70192E+00 -9.65864E+00 -9.34283E+00
  -9.11988E+00 -8.95473E+00 -8.76913E+00 -8.84815E+00 -8.85493E+00 -8.88723E+00 -8.84712E+00 -8.44757E+00 -8.40689E+00 -8.26332E+00
  -7.79882E+00 -7.13135E+00 -6.84590E+00 -6.58004E+00 -5.99799E+00 -5.54540E+00 -4.89216E+00 -5.14288E+00 -6.02638E+00 -6.71427E+00
  -7.25771E+00 -7.19263E+00 -5.01392E+00 -2.41242E+00 -3.31670E-01  3.10800E+00  8.34963E+00  1.33583E+01  1.58137E+01  1.97845E+01
   2.46191E+01  2.93821E+01  3.33198E+01  3.15417E+01  2.67634E+01  2.14468E+01  1.56566E+01  1.26282E+01  1.04981E+01  4.73054E+00
   2.77793E-01 -3.32636E+00 -4.66051E+00 -4.58234E+00 -7.30584E+00 -8.10473E+00 -7.62088E+00 -5.82387E+00 -3.91161E+00 -1.93630E+00
   1.03722E+00  4.70160E+00  7.07075E+00  9.21006E+00  1.26516E+01  1.56052E+01  1.90127E+01  2.00623E+01  1.78451E+01  1.47265E+01
   1.12342E+01  8.08094E+00  7.36343E+00  4.65545E+00  1.10789E+00 -1.52080E+00 -3.84150E+00 -3.64305E+00 -4.89339E+00 -5.85326E+00
  -5.93500E+00 -5.95290E+00 -5.92606E+00 -5.98878E+00 -6.02721E+00 -6.10243E+00 -6.34371E+00 -6.44448E+00 -6.63216E+00 -6.88621E+00
  -7.02893E+00 -7.28699E+00 -7.48483E+00 -7.72568E+00 -7.92970E+00 -8.09337E+00 -8.19452E+00 -8.26359E+00 -8.36314E+00 -8.45371E+00
  -8.63292E+00 -8.84923E+00 -8.82264E+00 -8.72610E+00 -8.63646E+00 -8.61818E+00 -8.89222E+00 -9.22831E+00 -9.38864E+00 -9.56746E+00
  -9.69179E+00 -9.91184E+00 -1.01756E+01 -1.02863E+01 -1.04905E+01 -1.06313E+01 -1.07693E+01 -1.07400E+01 -1.05819E+01 -1.04770E+01
  -1.04162E+01 -1.03725E+01 -1.01443E+01 -9.57187E+00 -9.09511E+00 -8.74303E+00 -8.49921E+00 -8.31157E+00 -7.71018E+00 -7.16015E+00
  -6.76378E+00 -6.48890E+00 -6.50499E+00 -6.50815E+00 -6.06385E+00 -5.66990E+00 -5.24624E+00 -4.74905E+00 -4.21467E+00 -3.59596E+00
  -3.19787E+00 -2.88422E+00 -2.88368E+00 -3.49213E+00 -4.09949E+00 -4.49055E+00 -5.32069E+00 -6.22753E+00 -7.13402E+00 -7.28547E+00
  -6.31083E+00 -5.21960E+00 -4.40320E+00 -3.62538E+00 -2.85428E+00 -2.12659E+00 -1.17894E+00 -7.94625E-01 -7.44970E-01 -9.23186E-01
  -1.16958E+00 -7.69983E-01 -7.20801E-01 -7.14934E-01 -3.06931E-01  4.85737E-03  3.40477E-01  6.44105E-01  7.93623E-01  1.00320E+00
   1.42884E+00  1.90831E+00  2.17296E+00  2.45206E+00  2.79608E+00  3.21639E+00  3.73367E+00  4.33744E+00  4.90674E+00  5.11242E+00
   4.91320E+00  4.40969E+00  4.12666E+00  4.31382E+00  4.70526E+00  5.14519E+00  5.88917E+00  6.66551E+00  7.51213E+00  8.60198E+00
   1.07445E+01  1.46751E+01  1.77556E+01  2.13312E+01  2.65333E+01  3.17543E+01  3.46618E+01  3.78863E+01  4.25651E+01  4.65820E+01
   5.09925E+01  5.03126E+01  4.53594E+01  3.96104E+01  3.32276E+01  2.84383E+01  2.64474E+01  2.06091E+01  1.50119E+01  1.08441E+01
   7.88434E+00  7.96005E+00  4.91217E+00  3.03217E+00  2.34656E+00  1.88028E+00  1.45875E+00  1.11428E+00  7.95539E-01  5.16873E-01
   2.60827E-01  3.67099E-02 -1.59586E-01 -3.14198E-01 -4.23075E-01 -5.03744E-01 -5.56360E-01 -5.65693E-01 -5.38371E-01 -4.76609E-01
  -3.84305E-01 -2.68379E-01 -1.22955E-01  3.98746E-02  2.14219E-01  3.95135E-01  5.74657E-01  7.46247E-01  9.01238E-01  1.03281E+00
   1.13556E+00  1.20272E+00  1.23174E+00  1.21983E+00  1.16577E+00  1.07061E+00  9.36586E-01  7.68310E-01  5.71399E-01  3.51405E-01
   1.14754E-01 -1.31716E-01 -3.81553E-01 -6.28084E-01 -8.66343E-01 -1.09216E+00 -1.30208E+00 -1.49366E+00 -1.66495E+00 -1.81534E+00
  -1.94518E+00 -2.05532E+00 -2.14681E+00 -2.22087E+00 -2.27896E+00 -2.32283E+00 -2.35433E+00 -2.37504E+00 -2.38621E+00 -2.38883E+00
  -2.38389E+00 -2.37239E+00 -2.35507E+00 -2.33227E+00 -2.30392E+00 -2.26961E+00 -2.22866E+00 -2.17964E+00 -2.11984E+00 -2.04449E+00
  -1.94618E+00 -1.81426E+00 -1.63432E+00 -1.38791E+00 -1.05340E+00 -6.08311E-01 -3.34772E-02  6.81508E-01  1.53252E+00  2.49624E+00
   3.52793E+00  4.56324E+00  5.52466E+00  6.33241E+00  6.91755E+00  7.23453E+00  7.26952E+00  7.04256E+00  6.60296E+00  6.01935E+00
   5.36708E+00  4.71582E+00  4.11996E+00  3.61365E+00  3.21043E+00  2.90697E+00  2.68858E+00  2.53512E+00  2.42579E+00  2.34230E+00
   2.27070E+00  2.20192E+00  2.13144E+00  2.05837E+00  1.98430E+00  1.91232E+00  1.84640E+00  1.79106E+00  1.75097E+00  1.73071E+00
   1.73441E+00  1.76575E+00  1.82802E+00  1.92429E+00  2.05727E+00  2.22928E+00  2.44202E+00  2.69665E+00  2.99382E+00  3.33363E+00
   3.71537E+00  4.13726E+00  4.59625E+00  5.08804E+00  5.60706E+00  6.14644E+00  6.69787E+00  7.25166E+00  7.79692E+00  8.32209E+00
   8.81531E+00  9.26484E+00  9.65938E+00  9.98863E+00  1.02438E+01  1.04182E+01  1.05076E+01  1.05102E+01  1.04271E+01  1.02614E+01
   1.00191E+01  9.70819E+00  9.33834E+00  8.92047E+00  8.46594E+00  7.98629E+00  7.49279E+00  6.99607E+00  6.50567E+00  6.02973E+00
   5.57480E+00  5.14600E+00  4.74708E+00  4.38048E+00  4.04738E+00  3.74779E+00  3.48085E+00  3.24515E+00  3.03887E+00  2.85996E+00
   2.70608E+00  2.57477E+00  2.46362E+00  2.37045E+00  2.29326E+00  2.23023E+00  2.17958E+00  2.13972E+00  2.10922E+00  2.08701E+00
   2.07213E+00  2.06371E+00  2.06088E+00  2.06291E+00  2.06923E+00  2.07945E+00  2.09317E+00  2.11002E+00  2.12955E+00  2.15147E+00
   2.17555E+00  2.20169E+00  2.22972E+00  2.25940E+00  2.29048E+00  2.32287E+00  2.35651E+00  2.39138E+00  2.42735E+00  2.46426E+00
   2.50198E+00  2.54048E+00  2.57979E+00  2.61991E+00  2.66068E+00  2.70202E+00  2.74384E+00  2.78620E+00  2.82911E+00  2.87257E+00
   2.91642E+00  2.96061E+00  3.00512E+00  3.05004E+00  3.09536E+00  3.14103E+00  3.18694E+00  3.23306E+00  3.27942E+00  3.32611E+00
   3.37308E+00  3.42028E+00  3.46761E+00  3.51509E+00  3.56278E+00  3.61074E+00  3.65889E+00  3.70719E+00  3.75555E+00  3.80406E+00
   3.85276E+00  3.90169E+00  3.95076E+00  3.99992E+00  4.04915E+00  4.09855E+00  4.14817E+00  4.19802E+00
 NY background values follow
    -2.091E+01   -2.082E+01   -2.073E+01   -2.065E+01   -2.056E+01   -2.047E+01   -2.038E+01   -2.029E+01   -2.021E+01   -2.012E+01
    -2.003E+01   -1.994E+01   -1.986E+01   -1.977E+01   -1.968E+01   -1.959E+01   -1.951E+01   -1.942E+01   -1.933E+01   -1.924E+01
    -1.916E+01   -1.907E+01   -1.898E+01   -1.889E+01   -1.881E+01   -1.872E+01   -1.863E+01   -1.855E+01   -1.846E+01   -1.837E+01
    -1.829E+01   -1.820E+01   -1.811E+01   -1.803E+01   -1.794E+01   -1.785E+01   -1.777E+01   -1.768E+01   -1.760E+01   -1.751E+01
    -1.742E+01   -1.734E+01   -1.725E+01   -1.717E+01   -1.708E+01   -1.700E+01   -1.691E+01   -1.683E+01   -1.674E+01   -1.666E+01
    -1.658E+01   -1.649E+01   -1.641E+01   -1.632E+01   -1.624E+01   -1.616E+01   -1.607E+01   -1.599E+01   -1.591E+01   -1.582E+01
    -1.574E+01   -1.566E+01   -1.558E+01   -1.550E+01   -1.541E+01   -1.533E+01   -1.525E+01   -1.517E+01   -1.509E+01   -1.501E+01
    -1.493E+01   -1.485E+01   -1.477E+01   -1.469E+01   -1.461E+01   -1.453E+01   -1.445E+01   -1.437E+01   -1.429E+01   -1.421E+01
    -1.413E+01   -1.406E+01   -1.398E+01   -1.390E+01   -1.382E+01   -1.375E+01   -1.367E+01   -1.359E+01   -1.352E+01   -1.344E+01
    -1.336E+01   -1.329E+01   -1.321E+01   -1.314E+01   -1.306E+01   -1.299E+01   -1.291E+01   -1.284E+01   -1.277E+01   -1.269E+01
    -1.262E+01   -1.255E+01   -1.247E+01   -1.240E+01   -1.233E+01   -1.226E+01   -1.219E+01   -1.212E+01   -1.204E+01   -1.197E+01
    -1.190E+01   -1.183E+01   -1.176E+01   -1.169E+01   -1.162E+01   -1.155E+01   -1.149E+01   -1.142E+01   -1.135E+01   -1.128E+01
    -1.121E+01   -1.115E+01   -1.108E+01   -1.101E+01   -1.095E+01   -1.088E+01   -1.081E+01   -1.075E+01   -1.068E+01   -1.062E+01
    -1.055E+01   -1.049E+01   -1.042E+01   -1.036E+01   -1.030E+01   -1.023E+01   -1.017E+01   -1.011E+01   -1.004E+01   -9.981E+00
    -9.919E+00   -9.858E+00   -9.796E+00   -9.735E+00   -9.674E+00   -9.614E+00   -9.553E+00   -9.494E+00   -9.434E+00   -9.374E+00
    -9.315E+00   -9.257E+00   -9.198E+00   -9.140E+00   -9.082E+00   -9.024E+00   -8.967E+00   -8.910E+00   -8.853E+00   -8.797E+00
    -8.741E+00   -8.685E+00   -8.629E+00   -8.574E+00   -8.519E+00   -8.464E+00   -8.410E+00   -8.356E+00   -8.302E+00   -8.248E+00
    -8.195E+00   -8.142E+00   -8.090E+00   -8.037E+00   -7.985E+00   -7.934E+00   -7.882E+00   -7.831E+00   -7.781E+00   -7.730E+00
    -7.680E+00   -7.630E+00   -7.580E+00   -7.531E+00   -7.482E+00   -7.434E+00   -7.385E+00   -7.337E+00   -7.290E+00   -7.242E+00
    -7.195E+00   -7.148E+00   -7.102E+00   -7.056E+00   -7.010E+00   -6.965E+00   -6.920E+00   -6.875E+00   -6.831E+00   -6.787E+00
    -6.743E+00   -6.700E+00   -6.657E+00   -6.615E+00   -6.573E+00   -6.531E+00   -6.490E+00   -6.449E+00   -6.408E+00   -6.368E+00
    -6.328E+00   -6.288E+00   -6.249E+00   -6.211E+00   -6.172E+00   -6.135E+00   -6.097E+00   -6.060E+00   -6.023E+00   -5.987E+00
    -5.951E+00   -5.916E+00   -5.881E+00   -5.846E+00   -5.812E+00   -5.779E+00   -5.745E+00   -5.712E+00   -5.680E+00   -5.648E+00
    -5.617E+00   -5.585E+00   -5.555E+00   -5.524E+00   -5.494E+00   -5.465E+00   -5.436E+00   -5.407E+00   -5.379E+00   -5.351E+00
    -5.323E+00   -5.296E+00   -5.269E+00   -5.242E+00   -5.216E+00   -5.190E+00   -5.164E+00   -5.139E+00   -5.114E+00   -5.089E+00
    -5.065E+00   -5.041E+00   -5.017E+00   -4.993E+00   -4.970E+00   -4.947E+00   -4.924E+00   -4.902E+00   -4.880E+00   -4.858E+00
    -4.836E+00   -4.815E+00   -4.793E+00   -4.772E+00   -4.752E+00   -4.731E+00   -4.711E+00   -4.691E+00   -4.671E+00   -4.651E+00
    -4.631E+00   -4.612E+00   -4.593E+00   -4.574E+00   -4.555E+00   -4.536E+00   -4.517E+00   -4.499E+00   -4.480E+00   -4.462E+00
    -4.444E+00   -4.426E+00   -4.408E+00   -4.390E+00   -4.372E+00   -4.354E+00   -4.336E+00   -4.318E+00   -4.300E+00   -4.282E+00
    -4.264E+00   -4.247E+00   -4.229E+00   -4.211E+00   -4.193E+00   -4.175E+00   -4.156E+00   -4.138E+00   -4.120E+00   -4.101E+00
    -4.083E+00   -4.064E+00   -4.045E+00   -4.026E+00   -4.007E+00   -3.988E+00   -3.968E+00   -3.949E+00   -3.929E+00   -3.909E+00
    -3.889E+00   -3.868E+00   -3.847E+00   -3.826E+00   -3.805E+00   -3.783E+00   -3.762E+00   -3.740E+00   -3.717E+00   -3.694E+00
    -3.672E+00   -3.648E+00   -3.625E+00   -3.601E+00   -3.577E+00   -3.552E+00   -3.527E+00   -3.502E+00   -3.477E+00   -3.452E+00
    -3.426E+00   -3.399E+00   -3.373E+00   -3.346E+00   -3.319E+00   -3.292E+00   -3.264E+00   -3.236E+00   -3.208E+00   -3.179E+00
    -3.151E+00   -3.121E+00   -3.092E+00   -3.062E+00   -3.032E+00   -3.002E+00   -2.972E+00   -2.941E+00   -2.910E+00   -2.878E+00
    -2.846E+00   -2.814E+00   -2.782E+00   -2.750E+00   -2.717E+00   -2.684E+00   -2.650E+00   -2.616E+00   -2.582E+00   -2.548E+00
    -2.513E+00   -2.479E+00   -2.443E+00   -2.408E+00   -2.372E+00   -2.336E+00   -2.300E+00   -2.263E+00   -2.226E+00   -2.189E+00
    -2.152E+00   -2.114E+00   -2.076E+00   -2.038E+00   -2.000E+00   -1.961E+00   -1.922E+00   -1.883E+00   -1.843E+00   -1.803E+00
    -1.763E+00   -1.723E+00   -1.682E+00   -1.641E+00   -1.600E+00   -1.559E+00   -1.518E+00   -1.476E+00   -1.434E+00   -1.391E+00
    -1.349E+00   -1.306E+00   -1.263E+00   -1.220E+00   -1.176E+00   -1.133E+00   -1.089E+00   -1.045E+00   -1.000E+00   -9.557E-01
    -9.109E-01   -8.659E-01   -8.206E-01   -7.751E-01   -7.295E-01   -6.836E-01   -6.374E-01   -5.911E-01   -5.446E-01   -4.978E-01
    -4.509E-01   -4.038E-01   -3.565E-01   -3.089E-01   -2.612E-01   -2.134E-01   -1.653E-01   -1.171E-01   -6.865E-02   -2.007E-02
     2.867E-02    7.757E-02    1.266E-01    1.758E-01    2.252E-01    2.747E-01    3.244E-01    3.742E-01    4.241E-01    4.741E-01
     5.243E-01    5.746E-01    6.251E-01    6.756E-01    7.263E-01    7.770E-01    8.279E-01    8.789E-01    9.300E-01    9.812E-01
     1.032E+00    1.084E+00    1.135E+00    1.187E+00    1.238E+00    1.290E+00    1.342E+00    1.394E+00    1.446E+00    1.497E+00
     1.549E+00    1.601E+00    1.654E+00    1.706E+00    1.758E+00    1.810E+00    1.862E+00    1.915E+00    1.967E+00    2.019E+00
     2.072E+00    2.124E+00    2.177E+00    2.229E+00    2.282E+00    2.334E+00    2.387E+00    2.440E+00    2.492E+00    2.545E+00
     2.597E+00    2.650E+00    2.703E+00    2.756E+00    2.808E+00    2.861E+00    2.914E+00    2.966E+00    3.019E+00    3.072E+00
     3.124E+00    3.177E+00    3.230E+00    3.283E+00    3.335E+00    3.388E+00    3.441E+00    3.493E+00    3.546E+00    3.598E+00
     3.651E+00    3.704E+00    3.756E+00    3.809E+00    3.861E+00    3.913E+00    3.966E+00    4.018E+00
 Asp      Conc. = 1.17E+02
