 LCModel (Version 6.3-1L) Copyright: S.W. Provencher.          Ref.: Magn. Reson. Med. 30:672-679 (1993).                
 Slice#1 Row#6 Col#9  PD_24_press_1_raw_act
 36 lines in following concentration table = NCONC+1
    Conc.  %SD /Cr+PCr  Metabolite                                         
    0.000 999%   0.000 Ala                                                 
   66.910 134%   0.185 Asp                                                 
    2.018 999% 5.6E-03 Cr                                                  
  358.940  50%   0.994 PCr                                                 
   81.551  68%   0.226 GABA                                                
   67.867  81%   0.188 Glc                                                 
  399.065  64%   1.106 Gln                                                 
  544.370  52%   1.508 Glu                                                 
  242.945   8%   0.673 GPC                                                 
    0.000 999%   0.000 PCh                                                 
   44.500 154%   0.123 GSH                                                 
  116.734 177%   0.323 Ins                                                 
  572.088  27%   1.585 Lac                                                 
  840.407  10%   2.328 NAA                                                 
   39.821 225%   0.110 NAAG                                                
   22.344  68% 6.2E-02 Scyllo                                              
   55.540 155%   0.154 Tau                                                 
  103.832  61%   0.288 -CrCH2                                              
  242.945   8%   0.673 GPC+PCh                                             
  880.228   7%   2.439 NAA+NAAG                                            
  360.958  13%   1.000 Cr+PCr                                              
  943.435  46%   2.614 Glu+Gln                                             
    0.000 999%   0.000 Lip13a                                              
 1.58E+03   7%   4.385 Lip13b                                              
  386.609  35%   1.071 Lip09                                               
  442.852  34%   1.227 MM09                                                
  171.993  60%   0.476 Lip20                                               
  673.643  35%   1.866 MM20                                                
  121.123  69%   0.336 MM12                                                
  637.056  32%   1.765 MM14                                                
  233.255  56%   0.646 MM17                                                
 1.58E+03   7%   4.385 Lip13a+Lip13b                                       
 2.34E+03   8%   6.486 MM14+Lip13a+Lip13b+MM12                             
  829.461  13%   2.298 MM09+Lip09                                          
  845.636  28%   2.343 MM20+Lip20                                          
   6 lines in following misc. output table
  FWHM = 0.076 ppm    S/N =   4                                            
  Data shift = 0.000 ppm                                                   
  Ph: -55 deg     -11.6 deg/ppm                                            
  alphaB,S = 8.5E+01,   5.1E+01                                            
   14 spline knots.   Ns = 8(1)                                            
   2 inflections.     1 extrema                                            
  498 points on ppm-axis = NY
      4.000000     3.992357     3.984714     3.977070     3.969427     3.961784     3.954141     3.946497     3.938854     3.931211
      3.923568     3.915925     3.908281     3.900638     3.892995     3.885352     3.877708     3.870065     3.862422     3.854779
      3.847136     3.839492     3.831849     3.824206     3.816563     3.808919     3.801276     3.793633     3.785990     3.778347
      3.770703     3.763060     3.755417     3.747774     3.740130     3.732487     3.724844     3.717201     3.709558     3.701914
      3.694271     3.686628     3.678985     3.671341     3.663698     3.656055     3.648412     3.640769     3.633125     3.625482
      3.617839     3.610196     3.602552     3.594909     3.587266     3.579623     3.571980     3.564336     3.556693     3.549050
      3.541407     3.533763     3.526120     3.518477     3.510834     3.503191     3.495547     3.487904     3.480261     3.472618
      3.464974     3.457331     3.449688     3.442045     3.434402     3.426758     3.419115     3.411472     3.403829     3.396185
      3.388542     3.380899     3.373256     3.365613     3.357969     3.350326     3.342683     3.335040     3.327396     3.319753
      3.312110     3.304467     3.296824     3.289180     3.281537     3.273894     3.266251     3.258607     3.250964     3.243321
      3.235678     3.228034     3.220391     3.212748     3.205105     3.197462     3.189818     3.182175     3.174532     3.166889
      3.159245     3.151602     3.143959     3.136316     3.128673     3.121029     3.113386     3.105743     3.098100     3.090456
      3.082813     3.075170     3.067527     3.059884     3.052240     3.044597     3.036954     3.029311     3.021667     3.014024
      3.006381     2.998738     2.991095     2.983451     2.975808     2.968165     2.960522     2.952878     2.945235     2.937592
      2.929949     2.922306     2.914662     2.907019     2.899376     2.891733     2.884089     2.876446     2.868803     2.861160
      2.853517     2.845873     2.838230     2.830587     2.822944     2.815300     2.807657     2.800014     2.792371     2.784728
      2.777084     2.769441     2.761798     2.754155     2.746511     2.738868     2.731225     2.723582     2.715939     2.708295
      2.700652     2.693009     2.685366     2.677722     2.670079     2.662436     2.654793     2.647150     2.639506     2.631863
      2.624220     2.616577     2.608933     2.601290     2.593647     2.586004     2.578361     2.570717     2.563074     2.555431
      2.547788     2.540144     2.532501     2.524858     2.517215     2.509572     2.501928     2.494285     2.486642     2.478999
      2.471355     2.463712     2.456069     2.448426     2.440783     2.433139     2.425496     2.417853     2.410210     2.402566
      2.394923     2.387280     2.379637     2.371994     2.364350     2.356707     2.349064     2.341421     2.333777     2.326134
      2.318491     2.310848     2.303205     2.295561     2.287918     2.280275     2.272632     2.264988     2.257345     2.249702
      2.242059     2.234416     2.226772     2.219129     2.211486     2.203843     2.196199     2.188556     2.180913     2.173270
      2.165627     2.157983     2.150340     2.142697     2.135054     2.127410     2.119767     2.112124     2.104481     2.096838
      2.089194     2.081551     2.073908     2.066265     2.058621     2.050978     2.043335     2.035692     2.028049     2.020405
      2.012762     2.005119     1.997476     1.989833     1.982190     1.974546     1.966903     1.959260     1.951617     1.943974
      1.936331     1.928688     1.921045     1.913402     1.905759     1.898115     1.890472     1.882829     1.875186     1.867543
      1.859900     1.852257     1.844614     1.836971     1.829327     1.821684     1.814041     1.806398     1.798755     1.791112
      1.783469     1.775826     1.768183     1.760540     1.752896     1.745253     1.737610     1.729967     1.722324     1.714681
      1.707038     1.699395     1.691752     1.684108     1.676465     1.668822     1.661179     1.653536     1.645893     1.638250
      1.630607     1.622964     1.615321     1.607677     1.600034     1.592391     1.584748     1.577105     1.569462     1.561819
      1.554176     1.546533     1.538890     1.531246     1.523603     1.515960     1.508317     1.500674     1.493031     1.485388
      1.477745     1.470102     1.462458     1.454815     1.447172     1.439529     1.431886     1.424243     1.416600     1.408957
      1.401314     1.393671     1.386027     1.378384     1.370741     1.363098     1.355455     1.347812     1.340169     1.332526
      1.324883     1.317240     1.309596     1.301953     1.294310     1.286667     1.279024     1.271381     1.263738     1.256095
      1.248452     1.240808     1.233165     1.225522     1.217879     1.210236     1.202593     1.194950     1.187307     1.179664
      1.172021     1.164377     1.156734     1.149091     1.141448     1.133805     1.126162     1.118519     1.110876     1.103233
      1.095590     1.087946     1.080303     1.072660     1.065017     1.057374     1.049731     1.042088     1.034445     1.026802
      1.019158     1.011515     1.003872     0.996229     0.988586     0.980943     0.973300     0.965657     0.958014     0.950371
      0.942727     0.935084     0.927441     0.919798     0.912155     0.904512     0.896869     0.889226     0.881583     0.873940
      0.866296     0.858653     0.851010     0.843367     0.835724     0.828081     0.820438     0.812795     0.805152     0.797508
      0.789865     0.782222     0.774579     0.766936     0.759293     0.751650     0.744007     0.736364     0.728721     0.721077
      0.713434     0.705791     0.698148     0.690505     0.682862     0.675219     0.667576     0.659933     0.652290     0.644646
      0.637003     0.629360     0.621717     0.614074     0.606431     0.598788     0.591145     0.583502     0.575858     0.568215
      0.560572     0.552929     0.545286     0.537643     0.530000     0.522357     0.514714     0.507071     0.499427     0.491784
      0.484141     0.476498     0.468855     0.461212     0.453569     0.445925     0.438282     0.430639     0.422996     0.415353
      0.407710     0.400067     0.392424     0.384780     0.377137     0.369494     0.361851     0.354208     0.346565     0.338922
      0.331278     0.323635     0.315992     0.308349     0.300706     0.293063     0.285420     0.277777     0.270133     0.262490
      0.254847     0.247204     0.239561     0.231918     0.224275     0.216631     0.208988     0.201345
 NY phased data points follow
  -2.40461E+00 -1.72730E+01 -4.03895E-01 -4.87229E+00  2.13923E+00 -3.24363E+00  2.06716E+00 -1.66901E+00  4.81491E+00 -1.71128E+00
   2.42850E+00  7.65042E-01  1.66590E+00 -2.89035E+00  2.47057E+00 -6.91571E+00  3.49003E+00 -3.94543E+00  2.98681E+00 -4.01948E+00
   3.86779E+00 -6.21816E+00  2.91165E+00 -6.51007E+00  3.47755E+00 -2.39435E+00  3.89650E+00 -5.45535E+00  1.85952E+00 -3.75855E+00
  -2.25394E+00 -9.95590E+00 -6.27122E-01 -4.18912E+00 -1.68954E-01 -3.09552E+00  1.87734E+00 -1.52789E+00  3.11703E+00 -2.74642E+00
  -8.73505E-01 -5.00331E+00 -2.54292E-01 -4.51172E+00 -6.13761E-01 -3.15426E-01 -5.72643E-01 -5.40719E+00 -7.10887E-02 -6.11476E+00
  -1.23367E+00 -3.31705E-01 -1.18695E+00 -1.16790E+00  4.60157E-01 -2.81997E+00  1.08570E+00 -3.55206E+00 -3.23031E+00 -5.60012E+00
  -6.03473E+00 -2.75451E+00  9.90005E-01 -9.01822E+00 -5.62185E+00 -7.40778E+00 -3.52878E+00 -6.30931E+00 -5.41513E-01 -7.18143E+00
   1.47973E+00 -5.66216E+00 -6.50925E-01 -6.82356E+00 -2.86395E+00 -6.15197E+00 -2.90952E+00 -5.10107E+00 -2.00255E-01 -5.77991E+00
  -1.17199E+00 -1.60927E+00 -3.29436E+00 -2.56787E+00  1.95193E+00 -7.33013E+00 -7.09906E-01 -7.14384E+00  1.06232E+00 -8.86337E+00
   1.84014E+00 -6.61240E+00  2.25803E+00 -6.83859E+00 -4.32181E+00 -1.00921E+01  2.73525E+00  1.62277E+00  7.03041E+00  1.37971E+01
   1.74771E+01  1.27203E+01  1.48401E+01  9.63001E+00  1.84946E+01  1.15030E+01  1.01334E+01  7.04708E+00  3.72314E+00  1.10441E+00
  -2.09013E+00 -5.21805E+00 -2.36698E+00 -2.27742E+00 -4.10095E+00 -7.79091E+00 -7.18922E+00 -5.26185E+00 -3.36280E+00 -1.18911E+01
  -2.14602E+00 -6.70459E+00 -8.13129E-01 -3.88330E+00  6.03706E+00  2.56287E+00  6.62758E+00  7.83374E+00  6.57423E+00  6.00268E+00
   5.73889E+00  6.19324E+00  6.03262E+00  2.29587E+00 -3.10466E+00 -2.04426E-01 -6.58792E+00 -9.24584E+00  1.00640E+00 -4.30343E+00
  -3.31387E+00 -5.90858E+00 -3.55464E+00 -5.70075E+00 -2.95039E+00 -5.21967E+00 -1.63116E+00 -2.87425E+00 -6.96639E+00 -1.11296E+01
  -3.27784E+00 -8.44417E+00 -3.05662E+00 -6.19191E+00 -3.77716E+00 -5.69940E+00 -4.60593E+00 -6.66503E+00 -3.44540E+00 -7.90839E+00
   3.65836E+00 -6.71906E+00 -3.91472E+00 -7.26282E+00 -3.28113E-01 -4.15222E+00 -3.56239E+00 -1.03118E+01 -8.63847E+00 -1.03640E+01
  -8.13575E+00 -6.94428E+00 -5.86828E+00 -8.11545E+00 -1.06530E+01 -8.02016E+00 -5.88877E+00 -1.21553E+01 -4.50803E+00 -1.20755E+01
  -8.93542E+00 -1.22924E+01 -6.79652E+00 -8.64926E+00 -6.34340E+00 -3.69736E+00 -3.41849E+00 -4.29925E+00 -3.52573E+00 -5.74720E+00
  -2.86471E+00 -2.31439E+00 -1.82150E+00  6.39850E-01 -8.53326E-01 -1.56292E+00 -3.39440E-01 -6.80437E+00 -1.27050E+00 -1.77177E+00
  -2.23005E+00 -2.92348E+00  1.20624E+00 -1.80504E+00 -1.19806E+00 -2.87346E+00 -5.25840E+00 -7.59459E+00 -4.77135E+00 -9.63167E+00
  -4.07001E+00 -3.59512E+00 -5.99737E-01 -4.33035E+00 -3.49167E+00 -1.67277E+00 -2.49055E+00 -8.52606E+00  5.05978E-01 -1.64802E+00
  -5.99943E+00 -3.44691E+00  1.69485E+00 -2.82756E+00 -3.27987E+00 -4.44622E+00 -3.79795E+00 -1.34253E+00 -1.46105E+00 -2.23707E+00
  -3.96579E+00 -5.82319E+00 -5.90754E+00 -3.45746E+00  1.87547E+00  1.78533E+00 -2.46383E+00 -4.89402E+00 -2.01787E+00 -2.10956E+00
   2.82591E+00 -4.64151E+00  8.63997E-01 -3.79980E+00  2.50691E+00 -2.69011E+00 -2.28569E+00 -5.22390E+00  5.96369E-01  2.98299E+00
   3.69129E+00 -5.90370E-01  4.37528E+00 -1.15469E+00 -5.67942E-01  6.41856E+00  9.44044E+00  1.29632E+01  2.07088E+01  1.87701E+01
   2.13687E+01  2.33241E+01  2.44209E+01  2.07536E+01  1.49921E+01  1.35960E+01  1.03734E+01  4.16590E+00  8.55510E-01 -2.47363E+00
   2.80767E+00 -3.36308E+00  3.64462E+00  1.27597E+00  2.95726E+00  2.94169E+00  1.47440E+00 -1.77372E-02  4.60695E+00 -1.26272E+00
  -1.92623E+00  7.97094E-01 -3.91268E-01 -1.82030E+00 -2.62337E+00 -1.70748E+00  3.21692E+00 -3.30507E+00  1.07238E+00 -1.90327E+00
  -1.72246E+00 -1.00462E+00 -2.76029E-01 -3.89168E+00 -1.80683E+00 -2.92572E+00  4.54222E-01 -2.60120E+00 -4.79140E-01 -6.15102E+00
  -2.69605E+00 -5.42813E+00 -3.70671E-01 -4.44062E+00  1.37097E+00 -5.82396E+00  1.52993E+00  4.11021E-01 -2.40533E+00 -3.30066E+00
  -3.14114E+00 -3.86747E+00  1.75286E+00 -3.75002E+00 -3.01936E+00 -5.90052E+00 -6.90969E-01 -4.70105E+00 -1.86585E+00 -3.47170E+00
  -3.10742E+00 -6.29593E-01 -6.39410E+00 -5.12582E+00 -7.31355E+00 -5.82234E+00 -9.91013E-01 -6.10979E+00 -1.06682E+00 -3.33991E+00
  -1.78541E+00  3.41144E+00  3.00371E+00  3.09157E+00  1.66893E+00  7.19003E+00  1.59689E+00  7.22521E+00  2.50849E+00  4.37928E+00
   5.36822E+00  4.16121E+00  9.42026E+00  8.46772E+00  1.25381E+01  2.00328E+01  1.69364E+01  2.09415E+01  1.67460E+01  1.57448E+01
   1.63107E+01  2.04423E+01  2.09021E+01  1.69375E+01  1.32575E+01  1.61020E+01  7.37439E+00  7.85898E+00  7.02710E+00  6.76628E+00
   1.62329E+00  5.84309E+00 -5.55845E-03  3.75651E+00  8.76800E-02 -1.29001E+00 -7.31907E-01 -2.48522E+00 -2.29077E-01 -3.95739E+00
   2.61242E-01 -7.04740E+00  4.09708E+00 -2.55004E+00 -1.48309E-01 -4.96658E+00 -3.43213E+00 -7.18175E+00 -4.42578E+00 -4.07034E+00
  -3.58916E+00 -2.16629E+00 -2.40562E+00  1.26200E+00 -6.08599E+00  6.42938E-01 -5.01449E+00 -3.86316E+00 -8.73444E-01 -5.08504E+00
  -1.93677E+00 -2.09738E+00 -5.12607E-01 -4.52730E+00 -7.40460E-02 -1.43136E+00  3.34767E+00  1.25365E+00  1.31463E+00 -1.86385E+00
  -8.34012E-01  1.92956E+00  9.64605E+00  1.21205E+00  3.99061E+00 -1.96288E+00  2.74616E+00  2.45091E+00  9.49268E+00  3.92403E+00
   1.00178E+00 -3.71342E-01  1.43471E+00  8.59688E-01  3.11781E+00 -6.19397E-01 -8.34556E-02  3.54626E+00  1.83302E+00  4.99823E+00
  -2.00393E+00  1.38562E-01 -5.00688E+00 -5.79940E+00 -6.10917E+00  4.38068E-01 -1.55728E+00  7.19146E-01 -3.10284E+00 -6.39179E+00
  -1.33766E+00 -1.92574E-01 -9.37033E-01 -6.37179E+00 -5.40366E+00 -6.46230E+00 -3.18775E+00 -4.73182E+00 -3.43331E+00 -1.94598E+00
  -7.04532E+00 -1.61388E+00 -4.87605E+00 -4.31170E+00 -5.01378E+00 -8.43502E+00 -4.40738E+00 -2.79995E+00 -5.55878E+00 -4.67086E+00
  -1.63695E+00 -4.29835E+00 -4.23837E+00 -1.38099E+00 -2.98216E+00 -5.41102E+00 -2.70806E+00 -8.22309E-01 -2.15589E+00 -4.28315E+00
  -8.16627E+00 -5.87441E+00 -1.82192E+00 -3.81764E+00 -6.34100E+00 -4.32889E+00 -4.80941E+00 -2.95864E+00 -1.61785E+00 -8.01707E-01
  -2.07637E+00 -5.26681E+00 -1.39297E+00  5.22010E-01 -4.05791E+00 -4.58162E+00 -4.37824E+00 -4.13399E+00 -2.89660E+00 -4.14102E+00
  -2.61486E+00 -8.09639E+00 -2.69267E+00 -2.71146E+00 -3.55991E+00 -1.68030E+00 -2.89666E+00 -8.26607E+00 -3.92235E+00 -6.73704E-01
  -2.48588E+00  1.50768E+00 -2.00871E+00 -9.18310E+00  1.97910E+00 -2.02715E+00 -6.82081E+00 -1.14580E+00
 NY points of the fit to the data follow
  -3.90044E+00 -4.02453E+00 -3.88514E+00 -3.20685E+00 -2.10613E+00 -8.42204E-01  3.38551E-01  1.18934E+00  1.63938E+00  1.84385E+00
   1.94104E+00  1.91580E+00  1.66832E+00  1.17248E+00  4.77278E-01 -3.49222E-01 -1.18101E+00 -1.87914E+00 -2.30642E+00 -2.46591E+00
  -2.49449E+00 -2.57761E+00 -2.82397E+00 -3.17664E+00 -3.52659E+00 -3.68865E+00 -3.53408E+00 -3.10864E+00 -2.55212E+00 -2.03666E+00
  -1.71389E+00 -1.60805E+00 -1.63553E+00 -1.71993E+00 -1.82072E+00 -1.89880E+00 -1.96780E+00 -2.14159E+00 -2.41653E+00 -2.66114E+00
  -2.82016E+00 -2.86953E+00 -2.73624E+00 -2.44763E+00 -2.12390E+00 -1.86898E+00 -1.73222E+00 -1.72327E+00 -1.81887E+00 -1.96271E+00
  -2.10691E+00 -2.25895E+00 -2.44516E+00 -2.65719E+00 -2.86357E+00 -3.03861E+00 -3.18128E+00 -3.29788E+00 -3.38750E+00 -3.46101E+00
  -3.52473E+00 -3.58192E+00 -3.62826E+00 -3.66257E+00 -3.69997E+00 -3.74185E+00 -3.77745E+00 -3.81263E+00 -3.83498E+00 -3.80742E+00
  -3.72792E+00 -3.62477E+00 -3.52617E+00 -3.45641E+00 -3.43346E+00 -3.44837E+00 -3.47371E+00 -3.50425E+00 -3.56736E+00 -3.59882E+00
  -3.51585E+00 -3.35202E+00 -3.17852E+00 -3.04190E+00 -2.97485E+00 -2.96258E+00 -2.96388E+00 -2.96714E+00 -2.99841E+00 -3.08828E+00
  -3.23160E+00 -3.40235E+00 -3.57861E+00 -3.90688E+00 -4.66307E+00 -4.33869E+00 -1.70507E+00  2.48065E+00  7.04174E+00  1.10264E+01
   1.35794E+01  1.47110E+01  1.50611E+01  1.50459E+01  1.44955E+01  1.30352E+01  1.07756E+01  7.93488E+00  4.66079E+00  1.39961E+00
  -1.25369E+00 -2.81709E+00 -3.38385E+00 -3.53413E+00 -3.60125E+00 -3.63703E+00 -3.65964E+00 -3.69096E+00 -3.81304E+00 -4.15938E+00
  -3.99586E+00 -2.69790E+00 -6.09691E-01  1.69343E+00  3.73516E+00  5.08607E+00  5.74361E+00  6.02405E+00  6.10935E+00  5.89688E+00
   5.19263E+00  4.03075E+00  2.52337E+00  7.75531E-01 -9.60975E-01 -2.36822E+00 -3.21002E+00 -3.54347E+00 -3.65328E+00 -3.69592E+00
  -3.69145E+00 -3.65200E+00 -3.59730E+00 -3.54461E+00 -3.51189E+00 -3.50730E+00 -3.52628E+00 -3.56574E+00 -3.62037E+00 -3.67988E+00
  -3.73507E+00 -3.78013E+00 -3.80660E+00 -3.80087E+00 -3.80238E+00 -3.87401E+00 -4.01863E+00 -4.20746E+00 -4.35874E+00 -4.40362E+00
  -4.37080E+00 -4.32429E+00 -4.30964E+00 -4.34724E+00 -4.41304E+00 -4.46922E+00 -4.50044E+00 -4.51232E+00 -4.52362E+00 -4.57933E+00
  -4.75912E+00 -5.02940E+00 -5.27547E+00 -5.41291E+00 -5.44413E+00 -5.44597E+00 -5.47907E+00 -5.53515E+00 -5.56301E+00 -5.51178E+00
  -5.42290E+00 -5.38367E+00 -5.36955E+00 -5.32001E+00 -5.19903E+00 -4.98781E+00 -4.71535E+00 -4.44300E+00 -4.19569E+00 -4.00909E+00
  -3.86931E+00 -3.76111E+00 -3.69747E+00 -3.68720E+00 -3.70520E+00 -3.71406E+00 -3.69142E+00 -3.58058E+00 -3.30315E+00 -2.86308E+00
  -2.37086E+00 -1.91449E+00 -1.58490E+00 -1.64951E+00 -2.14292E+00 -2.82102E+00 -3.54628E+00 -4.26099E+00 -4.85993E+00 -5.13315E+00
  -5.01059E+00 -4.60188E+00 -4.00920E+00 -3.32481E+00 -2.69445E+00 -2.26478E+00 -2.15485E+00 -2.35481E+00 -2.72940E+00 -3.18167E+00
  -3.56005E+00 -3.76736E+00 -3.85845E+00 -3.85758E+00 -3.72524E+00 -3.43717E+00 -3.02240E+00 -2.54400E+00 -2.05838E+00 -1.70138E+00
  -1.55412E+00 -1.59097E+00 -1.71995E+00 -1.79981E+00 -1.67441E+00 -1.36616E+00 -1.08616E+00 -9.31784E-01 -8.66883E-01 -8.67725E-01
  -9.27022E-01 -9.75155E-01 -9.86334E-01 -1.01466E+00 -1.10126E+00 -1.22331E+00 -1.30175E+00 -1.27730E+00 -1.12141E+00 -7.67541E-01
  -2.22168E-01  2.94868E-01  2.59962E-01  7.18979E-02  1.82248E+00  5.85692E+00  1.09290E+01  1.58923E+01  1.96546E+01  2.15375E+01
   2.20229E+01  2.18623E+01  2.12545E+01  1.98251E+01  1.73811E+01  1.42019E+01  1.04310E+01  6.35025E+00  2.62237E+00 -7.08572E-02
  -1.42055E+00 -1.87282E+00 -2.03844E+00 -2.11524E+00 -2.15608E+00 -2.18759E+00 -2.21649E+00 -2.24910E+00 -2.29467E+00 -2.35520E+00
  -2.42614E+00 -2.50078E+00 -2.56933E+00 -2.61839E+00 -2.64198E+00 -2.64079E+00 -2.61416E+00 -2.56673E+00 -2.50780E+00 -2.44456E+00
  -2.38166E+00 -2.32183E+00 -2.26630E+00 -2.21535E+00 -2.16779E+00 -2.12299E+00 -2.08124E+00 -2.04316E+00 -2.00969E+00 -1.98168E+00
  -1.96006E+00 -1.94572E+00 -1.93873E+00 -1.93934E+00 -1.94736E+00 -1.96179E+00 -1.98151E+00 -2.00524E+00 -2.03135E+00 -2.05785E+00
  -2.08239E+00 -2.10276E+00 -2.11677E+00 -2.12238E+00 -2.11764E+00 -2.10084E+00 -2.07051E+00 -2.02553E+00 -1.96496E+00 -1.88804E+00
  -1.79421E+00 -1.68330E+00 -1.55555E+00 -1.41167E+00 -1.25259E+00 -1.07952E+00 -8.93904E-01 -6.97631E-01 -4.92847E-01 -2.81805E-01
  -6.63765E-02  1.52178E-01  3.73814E-01  6.00415E-01  8.37356E-01  1.09550E+00  1.39370E+00  1.76038E+00  2.23045E+00  2.83126E+00
   3.80008E+00  5.72115E+00  8.36228E+00  1.10595E+01  1.34614E+01  1.54011E+01  1.68403E+01  1.77633E+01  1.80728E+01  1.81716E+01
   1.82194E+01  1.80463E+01  1.75834E+01  1.66382E+01  1.50599E+01  1.31277E+01  1.12864E+01  9.78466E+00  8.44207E+00  7.02454E+00
   5.58345E+00  4.12951E+00  2.62187E+00  1.12535E+00 -1.88525E-01 -1.12147E+00 -1.67629E+00 -2.00969E+00 -2.22149E+00 -2.36130E+00
  -2.45667E+00 -2.52348E+00 -2.57077E+00 -2.60368E+00 -2.62501E+00 -2.63619E+00 -2.63770E+00 -2.62950E+00 -2.61115E+00 -2.58208E+00
  -2.54142E+00 -2.48820E+00 -2.42114E+00 -2.33890E+00 -2.24004E+00 -2.12315E+00 -1.98679E+00 -1.82964E+00 -1.65045E+00 -1.44836E+00
  -1.22295E+00 -9.74457E-01 -7.03758E-01 -4.12607E-01 -1.03646E-01  2.19356E-01  5.51587E-01  8.87152E-01  1.21934E+00  1.54070E+00
   1.84335E+00  2.11915E+00  2.36021E+00  2.55915E+00  2.70967E+00  2.80672E+00  2.84685E+00  2.82833E+00  2.75134E+00  2.61793E+00
   2.43199E+00  2.19893E+00  1.92542E+00  1.61897E+00  1.28767E+00  9.39730E-01  5.83222E-01  2.25599E-01 -1.26452E-01 -4.67278E-01
  -7.92225E-01 -1.09778E+00 -1.38144E+00 -1.64180E+00 -1.87832E+00 -2.09124E+00 -2.28132E+00 -2.44978E+00 -2.59813E+00 -2.72812E+00
  -2.84157E+00 -2.94031E+00 -3.02602E+00 -3.10033E+00 -3.16469E+00 -3.22050E+00 -3.26893E+00 -3.31106E+00 -3.34771E+00 -3.37969E+00
  -3.40762E+00 -3.43214E+00 -3.45369E+00 -3.47270E+00 -3.48945E+00 -3.50425E+00 -3.51734E+00 -3.52898E+00 -3.53932E+00 -3.54852E+00
  -3.55665E+00 -3.56387E+00 -3.57027E+00 -3.57598E+00 -3.58103E+00 -3.58548E+00 -3.58936E+00 -3.59277E+00 -3.59574E+00 -3.59834E+00
  -3.60055E+00 -3.60243E+00 -3.60396E+00 -3.60523E+00 -3.60624E+00 -3.60704E+00 -3.60760E+00 -3.60794E+00 -3.60806E+00 -3.60804E+00
  -3.60785E+00 -3.60753E+00 -3.60703E+00 -3.60638E+00 -3.60560E+00 -3.60474E+00 -3.60376E+00 -3.60267E+00 -3.60145E+00 -3.60013E+00
  -3.59872E+00 -3.59726E+00 -3.59570E+00 -3.59405E+00 -3.59229E+00 -3.59047E+00 -3.58858E+00 -3.58664E+00 -3.58460E+00 -3.58249E+00
  -3.58027E+00 -3.57800E+00 -3.57566E+00 -3.57326E+00 -3.57075E+00 -3.56814E+00 -3.56543E+00 -3.56265E+00
 NY background values follow
    -4.620E+00   -4.618E+00   -4.615E+00   -4.613E+00   -4.611E+00   -4.608E+00   -4.606E+00   -4.604E+00   -4.601E+00   -4.599E+00
    -4.597E+00   -4.595E+00   -4.592E+00   -4.590E+00   -4.588E+00   -4.585E+00   -4.583E+00   -4.581E+00   -4.579E+00   -4.576E+00
    -4.574E+00   -4.572E+00   -4.569E+00   -4.567E+00   -4.565E+00   -4.562E+00   -4.560E+00   -4.558E+00   -4.556E+00   -4.553E+00
    -4.551E+00   -4.549E+00   -4.546E+00   -4.544E+00   -4.542E+00   -4.539E+00   -4.537E+00   -4.535E+00   -4.533E+00   -4.530E+00
    -4.528E+00   -4.526E+00   -4.523E+00   -4.521E+00   -4.519E+00   -4.516E+00   -4.514E+00   -4.512E+00   -4.510E+00   -4.507E+00
    -4.505E+00   -4.503E+00   -4.500E+00   -4.498E+00   -4.496E+00   -4.493E+00   -4.491E+00   -4.489E+00   -4.487E+00   -4.484E+00
    -4.482E+00   -4.480E+00   -4.477E+00   -4.475E+00   -4.473E+00   -4.470E+00   -4.468E+00   -4.466E+00   -4.464E+00   -4.461E+00
    -4.459E+00   -4.457E+00   -4.454E+00   -4.452E+00   -4.450E+00   -4.447E+00   -4.445E+00   -4.443E+00   -4.440E+00   -4.438E+00
    -4.436E+00   -4.434E+00   -4.431E+00   -4.429E+00   -4.427E+00   -4.424E+00   -4.422E+00   -4.420E+00   -4.417E+00   -4.415E+00
    -4.413E+00   -4.410E+00   -4.408E+00   -4.406E+00   -4.403E+00   -4.401E+00   -4.399E+00   -4.397E+00   -4.394E+00   -4.392E+00
    -4.390E+00   -4.387E+00   -4.385E+00   -4.383E+00   -4.380E+00   -4.378E+00   -4.376E+00   -4.373E+00   -4.371E+00   -4.369E+00
    -4.366E+00   -4.364E+00   -4.362E+00   -4.360E+00   -4.357E+00   -4.355E+00   -4.353E+00   -4.350E+00   -4.348E+00   -4.346E+00
    -4.343E+00   -4.341E+00   -4.339E+00   -4.336E+00   -4.334E+00   -4.332E+00   -4.329E+00   -4.327E+00   -4.325E+00   -4.322E+00
    -4.320E+00   -4.318E+00   -4.315E+00   -4.313E+00   -4.311E+00   -4.309E+00   -4.306E+00   -4.304E+00   -4.302E+00   -4.299E+00
    -4.297E+00   -4.295E+00   -4.292E+00   -4.290E+00   -4.288E+00   -4.285E+00   -4.283E+00   -4.281E+00   -4.278E+00   -4.276E+00
    -4.274E+00   -4.271E+00   -4.269E+00   -4.267E+00   -4.264E+00   -4.262E+00   -4.260E+00   -4.257E+00   -4.255E+00   -4.253E+00
    -4.250E+00   -4.248E+00   -4.246E+00   -4.243E+00   -4.241E+00   -4.239E+00   -4.236E+00   -4.234E+00   -4.232E+00   -4.229E+00
    -4.227E+00   -4.225E+00   -4.223E+00   -4.220E+00   -4.218E+00   -4.216E+00   -4.213E+00   -4.211E+00   -4.209E+00   -4.206E+00
    -4.204E+00   -4.202E+00   -4.199E+00   -4.197E+00   -4.195E+00   -4.192E+00   -4.190E+00   -4.188E+00   -4.185E+00   -4.183E+00
    -4.181E+00   -4.178E+00   -4.176E+00   -4.174E+00   -4.171E+00   -4.169E+00   -4.167E+00   -4.164E+00   -4.162E+00   -4.160E+00
    -4.157E+00   -4.155E+00   -4.153E+00   -4.150E+00   -4.148E+00   -4.146E+00   -4.143E+00   -4.141E+00   -4.139E+00   -4.136E+00
    -4.134E+00   -4.132E+00   -4.129E+00   -4.127E+00   -4.125E+00   -4.122E+00   -4.120E+00   -4.118E+00   -4.115E+00   -4.113E+00
    -4.111E+00   -4.108E+00   -4.106E+00   -4.104E+00   -4.101E+00   -4.099E+00   -4.097E+00   -4.094E+00   -4.092E+00   -4.089E+00
    -4.087E+00   -4.085E+00   -4.082E+00   -4.080E+00   -4.078E+00   -4.075E+00   -4.073E+00   -4.071E+00   -4.068E+00   -4.066E+00
    -4.064E+00   -4.061E+00   -4.059E+00   -4.057E+00   -4.054E+00   -4.052E+00   -4.050E+00   -4.047E+00   -4.045E+00   -4.043E+00
    -4.040E+00   -4.038E+00   -4.036E+00   -4.033E+00   -4.031E+00   -4.029E+00   -4.026E+00   -4.024E+00   -4.022E+00   -4.019E+00
    -4.017E+00   -4.015E+00   -4.012E+00   -4.010E+00   -4.008E+00   -4.005E+00   -4.003E+00   -4.000E+00   -3.998E+00   -3.996E+00
    -3.993E+00   -3.991E+00   -3.989E+00   -3.986E+00   -3.984E+00   -3.982E+00   -3.979E+00   -3.977E+00   -3.975E+00   -3.972E+00
    -3.970E+00   -3.968E+00   -3.965E+00   -3.963E+00   -3.961E+00   -3.958E+00   -3.956E+00   -3.954E+00   -3.951E+00   -3.949E+00
    -3.947E+00   -3.944E+00   -3.942E+00   -3.939E+00   -3.937E+00   -3.935E+00   -3.932E+00   -3.930E+00   -3.928E+00   -3.925E+00
    -3.923E+00   -3.921E+00   -3.918E+00   -3.916E+00   -3.914E+00   -3.911E+00   -3.909E+00   -3.907E+00   -3.904E+00   -3.902E+00
    -3.900E+00   -3.897E+00   -3.895E+00   -3.892E+00   -3.890E+00   -3.888E+00   -3.885E+00   -3.883E+00   -3.881E+00   -3.878E+00
    -3.876E+00   -3.874E+00   -3.871E+00   -3.869E+00   -3.867E+00   -3.864E+00   -3.862E+00   -3.860E+00   -3.857E+00   -3.855E+00
    -3.852E+00   -3.850E+00   -3.848E+00   -3.845E+00   -3.843E+00   -3.841E+00   -3.838E+00   -3.836E+00   -3.834E+00   -3.831E+00
    -3.829E+00   -3.827E+00   -3.824E+00   -3.822E+00   -3.820E+00   -3.817E+00   -3.815E+00   -3.812E+00   -3.810E+00   -3.808E+00
    -3.805E+00   -3.803E+00   -3.801E+00   -3.798E+00   -3.796E+00   -3.794E+00   -3.791E+00   -3.789E+00   -3.787E+00   -3.784E+00
    -3.782E+00   -3.779E+00   -3.777E+00   -3.775E+00   -3.772E+00   -3.770E+00   -3.768E+00   -3.765E+00   -3.763E+00   -3.761E+00
    -3.758E+00   -3.756E+00   -3.754E+00   -3.751E+00   -3.749E+00   -3.746E+00   -3.744E+00   -3.742E+00   -3.739E+00   -3.737E+00
    -3.735E+00   -3.732E+00   -3.730E+00   -3.728E+00   -3.725E+00   -3.723E+00   -3.720E+00   -3.718E+00   -3.716E+00   -3.713E+00
    -3.711E+00   -3.709E+00   -3.706E+00   -3.704E+00   -3.702E+00   -3.699E+00   -3.697E+00   -3.694E+00   -3.692E+00   -3.690E+00
    -3.687E+00   -3.685E+00   -3.683E+00   -3.680E+00   -3.678E+00   -3.676E+00   -3.673E+00   -3.671E+00   -3.668E+00   -3.666E+00
    -3.664E+00   -3.661E+00   -3.659E+00   -3.657E+00   -3.654E+00   -3.652E+00   -3.650E+00   -3.647E+00   -3.645E+00   -3.642E+00
    -3.640E+00   -3.638E+00   -3.635E+00   -3.633E+00   -3.631E+00   -3.628E+00   -3.626E+00   -3.624E+00   -3.621E+00   -3.619E+00
    -3.616E+00   -3.614E+00   -3.612E+00   -3.609E+00   -3.607E+00   -3.605E+00   -3.602E+00   -3.600E+00   -3.598E+00   -3.595E+00
    -3.593E+00   -3.590E+00   -3.588E+00   -3.586E+00   -3.583E+00   -3.581E+00   -3.579E+00   -3.576E+00   -3.574E+00   -3.572E+00
    -3.569E+00   -3.567E+00   -3.564E+00   -3.562E+00   -3.560E+00   -3.557E+00   -3.555E+00   -3.553E+00   -3.550E+00   -3.548E+00
    -3.545E+00   -3.543E+00   -3.541E+00   -3.538E+00   -3.536E+00   -3.534E+00   -3.531E+00   -3.529E+00   -3.527E+00   -3.524E+00
    -3.522E+00   -3.519E+00   -3.517E+00   -3.515E+00   -3.512E+00   -3.510E+00   -3.508E+00   -3.505E+00   -3.503E+00   -3.500E+00
    -3.498E+00   -3.496E+00   -3.493E+00   -3.491E+00   -3.489E+00   -3.486E+00   -3.484E+00   -3.482E+00   -3.479E+00   -3.477E+00
    -3.474E+00   -3.472E+00   -3.470E+00   -3.467E+00   -3.465E+00   -3.463E+00   -3.460E+00   -3.458E+00
 Asp      Conc. = 6.69E+01
