 LCModel (Version 6.3-1L) Copyright: S.W. Provencher.          Ref.: Magn. Reson. Med. 30:672-679 (1993).                
 Slice#1 Row#6 Col#2  PD_24_press_1_raw_act
 36 lines in following concentration table = NCONC+1
    Conc.  %SD /Cr+PCr  Metabolite                                         
   15.715 256%   0.120 Ala                                                 
   21.261 100%   0.162 Asp                                                 
    0.000 999%   0.000 Cr                                                  
  131.301  51%   1.000 PCr                                                 
   13.819  92%   0.105 GABA                                                
   15.043  85%   0.115 Glc                                                 
   21.203 365%   0.161 Gln                                                 
  124.620  70%   0.949 Glu                                                 
    0.000 999%   0.000 GPC                                                 
   49.697  18%   0.378 PCh                                                 
   17.761 167%   0.135 GSH                                                 
    0.000 999%   0.000 Ins                                                 
   75.559  62%   0.575 Lac                                                 
  192.045  14%   1.463 NAA                                                 
    0.000 999%   0.000 NAAG                                                
    6.812  60% 5.2E-02 Scyllo                                              
   38.973  54%   0.297 Tau                                                 
   89.165  35%   0.679 -CrCH2                                              
   49.697  18%   0.378 GPC+PCh                                             
  192.045  14%   1.463 NAA+NAAG                                            
  131.301  18%   1.000 Cr+PCr                                              
  145.823  74%   1.111 Glu+Gln                                             
    0.000 999%   0.000 Lip13a                                              
  458.846  23%   3.495 Lip13b                                              
    0.000 999%   0.000 Lip09                                               
    0.000 999%   0.000 MM09                                                
  129.907  49%   0.989 Lip20                                               
 3.34E-02 999% 2.5E-04 MM20                                                
    0.000 999%   0.000 MM12                                                
    0.000 999%   0.000 MM14                                                
 1.40E-02 999% 1.1E-04 MM17                                                
  458.846  23%   3.495 Lip13a+Lip13b                                       
  458.846  23%   3.495 MM14+Lip13a+Lip13b+MM12                             
    0.000 999%   0.000 MM09+Lip09                                          
  129.941  49%   0.990 MM20+Lip20                                          
   6 lines in following misc. output table
  FWHM = 0.038 ppm    S/N =   2                                            
  Data shift = 0.015 ppm                                                   
  Ph:-108 deg     -40.1 deg/ppm                                            
  alphaB,S = 1.0E+00,   2.2E+01                                            
   14 spline knots.   Ns = 5(1)                                            
  ( 9) 4 infls.   ( 8) 2 extrs.                                            
  498 points on ppm-axis = NY
      4.000000     3.992357     3.984714     3.977070     3.969427     3.961784     3.954141     3.946497     3.938854     3.931211
      3.923568     3.915925     3.908281     3.900638     3.892995     3.885352     3.877708     3.870065     3.862422     3.854779
      3.847136     3.839492     3.831849     3.824206     3.816563     3.808919     3.801276     3.793633     3.785990     3.778347
      3.770703     3.763060     3.755417     3.747774     3.740130     3.732487     3.724844     3.717201     3.709558     3.701914
      3.694271     3.686628     3.678985     3.671341     3.663698     3.656055     3.648412     3.640769     3.633125     3.625482
      3.617839     3.610196     3.602552     3.594909     3.587266     3.579623     3.571980     3.564336     3.556693     3.549050
      3.541407     3.533763     3.526120     3.518477     3.510834     3.503191     3.495547     3.487904     3.480261     3.472618
      3.464974     3.457331     3.449688     3.442045     3.434402     3.426758     3.419115     3.411472     3.403829     3.396185
      3.388542     3.380899     3.373256     3.365613     3.357969     3.350326     3.342683     3.335040     3.327396     3.319753
      3.312110     3.304467     3.296824     3.289180     3.281537     3.273894     3.266251     3.258607     3.250964     3.243321
      3.235678     3.228034     3.220391     3.212748     3.205105     3.197462     3.189818     3.182175     3.174532     3.166889
      3.159245     3.151602     3.143959     3.136316     3.128673     3.121029     3.113386     3.105743     3.098100     3.090456
      3.082813     3.075170     3.067527     3.059884     3.052240     3.044597     3.036954     3.029311     3.021667     3.014024
      3.006381     2.998738     2.991095     2.983451     2.975808     2.968165     2.960522     2.952878     2.945235     2.937592
      2.929949     2.922306     2.914662     2.907019     2.899376     2.891733     2.884089     2.876446     2.868803     2.861160
      2.853517     2.845873     2.838230     2.830587     2.822944     2.815300     2.807657     2.800014     2.792371     2.784728
      2.777084     2.769441     2.761798     2.754155     2.746511     2.738868     2.731225     2.723582     2.715939     2.708295
      2.700652     2.693009     2.685366     2.677722     2.670079     2.662436     2.654793     2.647150     2.639506     2.631863
      2.624220     2.616577     2.608933     2.601290     2.593647     2.586004     2.578361     2.570717     2.563074     2.555431
      2.547788     2.540144     2.532501     2.524858     2.517215     2.509572     2.501928     2.494285     2.486642     2.478999
      2.471355     2.463712     2.456069     2.448426     2.440783     2.433139     2.425496     2.417853     2.410210     2.402566
      2.394923     2.387280     2.379637     2.371994     2.364350     2.356707     2.349064     2.341421     2.333777     2.326134
      2.318491     2.310848     2.303205     2.295561     2.287918     2.280275     2.272632     2.264988     2.257345     2.249702
      2.242059     2.234416     2.226772     2.219129     2.211486     2.203843     2.196199     2.188556     2.180913     2.173270
      2.165627     2.157983     2.150340     2.142697     2.135054     2.127410     2.119767     2.112124     2.104481     2.096838
      2.089194     2.081551     2.073908     2.066265     2.058621     2.050978     2.043335     2.035692     2.028049     2.020405
      2.012762     2.005119     1.997476     1.989833     1.982190     1.974546     1.966903     1.959260     1.951617     1.943974
      1.936331     1.928688     1.921045     1.913402     1.905759     1.898115     1.890472     1.882829     1.875186     1.867543
      1.859900     1.852257     1.844614     1.836971     1.829327     1.821684     1.814041     1.806398     1.798755     1.791112
      1.783469     1.775826     1.768183     1.760540     1.752896     1.745253     1.737610     1.729967     1.722324     1.714681
      1.707038     1.699395     1.691752     1.684108     1.676465     1.668822     1.661179     1.653536     1.645893     1.638250
      1.630607     1.622964     1.615321     1.607677     1.600034     1.592391     1.584748     1.577105     1.569462     1.561819
      1.554176     1.546533     1.538890     1.531246     1.523603     1.515960     1.508317     1.500674     1.493031     1.485388
      1.477745     1.470102     1.462458     1.454815     1.447172     1.439529     1.431886     1.424243     1.416600     1.408957
      1.401314     1.393671     1.386027     1.378384     1.370741     1.363098     1.355455     1.347812     1.340169     1.332526
      1.324883     1.317240     1.309596     1.301953     1.294310     1.286667     1.279024     1.271381     1.263738     1.256095
      1.248452     1.240808     1.233165     1.225522     1.217879     1.210236     1.202593     1.194950     1.187307     1.179664
      1.172021     1.164377     1.156734     1.149091     1.141448     1.133805     1.126162     1.118519     1.110876     1.103233
      1.095590     1.087946     1.080303     1.072660     1.065017     1.057374     1.049731     1.042088     1.034445     1.026802
      1.019158     1.011515     1.003872     0.996229     0.988586     0.980943     0.973300     0.965657     0.958014     0.950371
      0.942727     0.935084     0.927441     0.919798     0.912155     0.904512     0.896869     0.889226     0.881583     0.873940
      0.866296     0.858653     0.851010     0.843367     0.835724     0.828081     0.820438     0.812795     0.805152     0.797508
      0.789865     0.782222     0.774579     0.766936     0.759293     0.751650     0.744007     0.736364     0.728721     0.721077
      0.713434     0.705791     0.698148     0.690505     0.682862     0.675219     0.667576     0.659933     0.652290     0.644646
      0.637003     0.629360     0.621717     0.614074     0.606431     0.598788     0.591145     0.583502     0.575858     0.568215
      0.560572     0.552929     0.545286     0.537643     0.530000     0.522357     0.514714     0.507071     0.499427     0.491784
      0.484141     0.476498     0.468855     0.461212     0.453569     0.445925     0.438282     0.430639     0.422996     0.415353
      0.407710     0.400067     0.392424     0.384780     0.377137     0.369494     0.361851     0.354208     0.346565     0.338922
      0.331278     0.323635     0.315992     0.308349     0.300706     0.293063     0.285420     0.277777     0.270133     0.262490
      0.254847     0.247204     0.239561     0.231918     0.224275     0.216631     0.208988     0.201345
 NY phased data points follow
  -2.54971E+01 -2.54830E+01 -2.77132E+01 -2.39692E+01 -2.61340E+01 -2.54719E+01 -2.68759E+01 -2.19090E+01 -2.26724E+01 -2.02183E+01
  -2.30932E+01 -2.05931E+01 -1.85792E+01 -2.16899E+01 -2.24236E+01 -2.11550E+01 -2.23330E+01 -2.17120E+01 -2.10987E+01 -2.13260E+01
  -2.15355E+01 -2.13737E+01 -2.24702E+01 -1.63052E+01 -1.90061E+01 -1.74793E+01 -1.74877E+01 -1.65676E+01 -1.74930E+01 -1.62601E+01
  -1.76492E+01 -1.74485E+01 -1.92548E+01 -1.84366E+01 -2.05755E+01 -1.95136E+01 -1.77821E+01 -2.13256E+01 -1.76698E+01 -1.96856E+01
  -1.48279E+01 -1.77197E+01 -1.84022E+01 -1.93190E+01 -1.89355E+01 -1.53193E+01 -1.54798E+01 -1.43777E+01 -1.94350E+01 -1.82962E+01
  -1.49539E+01 -1.71988E+01 -1.56165E+01 -1.83499E+01 -2.08831E+01 -1.62857E+01 -1.88987E+01 -1.57379E+01 -1.30774E+01 -1.56598E+01
  -1.49927E+01 -1.40131E+01 -1.08945E+01 -1.32292E+01 -1.33831E+01 -1.30281E+01 -1.23612E+01 -1.22508E+01 -1.42385E+01 -1.38075E+01
  -1.47548E+01 -1.11618E+01 -1.57223E+01 -1.36545E+01 -1.10181E+01 -1.28517E+01 -1.17180E+01 -1.47732E+01 -1.33972E+01 -1.18649E+01
  -1.29103E+01 -1.14839E+01 -1.23948E+01 -1.00371E+01 -1.25470E+01 -8.16370E+00 -9.88652E+00 -1.15010E+01 -1.38365E+01 -8.64092E+00
  -1.22671E+01 -9.33078E+00 -6.43869E+00 -9.33407E+00 -8.36215E+00 -1.47627E+01 -1.25487E+01 -1.17478E+01 -8.93558E+00 -1.23484E+01
  -8.52044E+00 -5.97481E+00 -2.93126E+00 -5.81746E+00 -4.76933E+00 -4.19039E+00 -8.21426E+00 -6.76649E+00 -6.14723E+00 -1.18150E+01
  -9.50406E+00 -9.99718E+00 -7.59049E+00 -7.16452E+00 -9.88351E+00 -7.55953E+00 -7.62079E+00 -7.62214E+00 -6.24689E+00 -9.90597E+00
  -7.74108E+00 -1.10995E+01 -8.32600E+00 -8.32665E+00 -8.84100E+00 -7.20865E+00 -3.64730E+00 -2.17192E-01 -2.70107E+00 -2.15445E+00
  -3.02249E+00 -4.66573E+00 -4.52568E+00 -8.23645E+00 -8.87180E+00 -4.85275E+00 -7.66467E+00 -3.45951E+00 -6.07966E+00 -9.77555E+00
  -5.57679E+00 -8.52366E+00 -7.37572E+00 -5.70388E+00 -9.92102E+00 -8.73652E+00 -6.49362E+00 -6.49758E+00 -5.77810E+00 -6.76778E+00
  -6.14357E+00 -9.25103E+00 -5.80776E+00 -7.55654E+00 -6.39003E+00 -6.85127E+00 -5.49504E+00 -8.57877E+00 -7.06151E+00 -8.85342E-01
  -5.62493E+00 -5.24166E+00 -5.57511E+00 -6.06543E+00 -3.81874E+00 -4.77708E+00 -2.25315E+00 -1.81183E+00 -6.48639E+00 -2.46116E+00
  -4.61057E+00 -2.69415E+00 -6.90848E+00 -7.31364E+00 -5.81498E+00 -3.46604E+00 -7.78434E+00 -8.65087E+00 -3.69749E+00 -5.92692E+00
  -6.41279E+00 -8.40566E+00 -7.70199E+00 -4.96068E+00 -5.73150E+00 -6.43460E+00  2.51463E-01 -1.98591E+00 -7.12116E+00 -5.20131E+00
  -6.67574E+00 -4.63627E+00 -2.99391E+00 -5.08499E-01 -4.76918E+00 -2.18191E+00 -2.90909E+00 -3.35292E+00 -7.19728E+00 -5.13844E+00
  -4.88982E+00 -4.45257E+00 -3.66140E+00  1.24459E+00 -3.45377E+00  1.00346E+00 -3.19848E+00 -1.55291E+00 -2.95510E+00 -1.20315E+00
  -5.50481E+00 -1.07564E+00 -4.03430E+00 -5.46118E+00 -9.91856E-01  8.31335E-01 -5.34111E-01  2.13358E+00  6.66984E-01 -4.30379E+00
  -2.21004E+00 -3.41187E+00 -2.64254E+00  1.11211E+00 -1.38820E+00 -1.81646E+00 -2.53105E+00  1.10474E-01 -3.57018E+00  2.85235E+00
  -7.83023E-01 -2.55018E+00 -1.12709E+00  2.27296E+00  1.13520E+00 -3.62310E+00 -1.95279E-01  1.72039E+00  5.05548E-01 -8.85240E-01
   6.55128E-01  2.15442E+00 -1.23093E+00 -2.92549E+00  1.12069E-01  9.66814E-02  6.99777E-01 -4.89945E-01  2.91022E+00  3.98960E-02
   2.25122E+00  3.89596E-01 -1.91143E+00  2.71903E-01 -3.09077E+00 -2.14355E+00  5.16141E-01 -2.45948E-01 -2.36404E+00 -3.92015E-01
   5.99410E+00  1.09089E+01  1.01207E+01  6.48836E+00  6.55073E+00  3.16539E+00  5.48609E+00  3.02111E+00  4.20647E+00  2.19300E+00
   5.31755E+00  2.05839E+00  7.53841E-01  4.62856E+00  2.51672E+00  1.72911E+00  1.95296E+00 -2.11221E-01  8.98001E-01  9.88707E-01
   2.48898E+00  3.72233E+00 -1.22637E-01  5.53379E-01  1.41836E+00  3.09312E+00  2.73935E+00  8.21322E-02  3.71316E+00  7.97011E-01
   5.23118E+00  2.58234E+00  2.71581E+00  2.95507E+00 -1.17336E+00  8.15603E-01  3.66660E-01  3.88955E+00  2.41368E+00  8.25776E-01
   6.29241E-01  3.08302E+00 -4.58933E-01 -3.12883E-01  5.84406E+00  9.22482E-01  2.04047E+00  6.59881E-01  3.42228E+00  3.94288E+00
   2.24484E+00 -1.14474E-01  2.14644E+00  2.00621E+00  2.29765E+00  3.28627E+00 -1.63183E-01  7.25814E-01 -4.87585E-01 -1.97671E+00
   1.50845E+00 -3.97749E+00 -1.23810E+00  2.21561E+00 -2.55872E+00  1.98960E+00  2.83688E+00  2.89385E+00  2.52440E+00  7.93748E-01
   7.20973E-01 -1.32525E-01 -1.33031E+00  4.31115E+00 -7.37012E-01  1.74932E+00  3.58866E-01  1.37938E+00 -2.51095E+00  3.80729E-01
   3.65857E+00  2.80611E+00  4.90752E+00  2.74540E+00  3.33387E+00  8.66062E-01  8.38121E+00  2.38629E+00  2.28621E+00  5.89828E+00
   3.27035E+00  5.06312E+00  2.57027E+00  4.47419E+00  5.62742E+00  5.67049E+00  6.90043E+00  1.19196E+01  6.69429E+00  6.66429E+00
   5.76239E+00  9.54574E+00  7.59703E+00  7.34854E+00  8.32097E+00  6.08911E+00  9.10252E+00  3.19274E+00  3.79021E+00  1.63449E+00
  -3.39254E-01  6.20104E+00 -9.31591E-01 -8.34980E-01  3.83281E+00  1.15494E+00  3.78864E+00  3.68452E+00  4.41617E+00  2.56303E+00
   1.72680E+00  6.48475E+00  2.18897E+00  2.19870E+00  1.05802E+00  3.47295E+00  3.79953E+00  3.56894E+00  1.41783E+00  3.07877E+00
   1.38036E+00  2.15833E+00  7.30552E-01  3.68323E+00 -3.22393E-01  6.11406E-01  3.03019E-01  1.72429E+00  1.71397E+00  2.78018E-01
   2.84872E+00  3.32825E+00  3.36139E+00  4.36209E+00 -9.50249E-01  6.05008E-01  2.65769E+00  2.96192E+00  3.10190E+00  4.30166E+00
   1.32621E+00  7.48907E-01 -5.15637E-01  6.48724E-01  5.49941E+00  6.57719E-01  4.40292E-01 -3.03364E-01  1.66356E+00  6.96530E+00
   6.02874E-01  3.96931E+00  3.12844E+00  3.25935E-01  3.20694E+00  3.21249E+00  3.59037E+00  4.62877E+00  4.16285E+00  1.70375E+00
   5.94556E+00  2.73643E+00  3.00067E+00  5.94424E+00  3.38659E+00  2.53000E-01  5.87877E+00  1.39030E+00  9.02463E-01  2.76853E+00
   3.35676E+00  3.66694E+00  5.35945E+00  1.69058E+00  4.06750E+00  3.96819E+00  4.01027E+00  4.53248E+00  5.32812E+00  5.21102E+00
   4.86939E+00  4.65793E+00  2.92753E+00  4.99025E+00  3.01637E+00  3.23973E+00  5.38405E+00  4.87331E+00  3.53983E+00  5.32118E+00
   6.52936E+00  1.01024E+00  3.63936E+00  2.71810E+00 -9.48741E-02  4.64235E+00  3.04714E+00  5.82783E+00  6.10143E+00  1.41769E+00
   2.54307E+00  5.27783E+00  4.93382E+00  1.44072E+00  4.76875E+00  4.10923E+00  4.59299E+00  6.74089E+00  2.96420E+00  5.65014E-01
   3.94088E+00  3.75598E+00  2.63654E+00  5.12812E+00  4.79545E+00  3.60097E+00  4.66395E+00  3.86037E+00  3.25038E+00  2.07022E+00
   6.18721E+00  4.13023E+00  5.25595E+00  4.66273E+00  6.33757E+00  5.61360E+00  3.32261E+00  7.56670E-01
 NY points of the fit to the data follow
  -2.21604E+01 -2.20295E+01 -2.18866E+01 -2.17266E+01 -2.15977E+01 -2.15362E+01 -2.14261E+01 -2.11168E+01 -2.05737E+01 -1.99905E+01
  -1.96035E+01 -1.94908E+01 -1.95659E+01 -1.97081E+01 -1.98470E+01 -2.00206E+01 -2.01197E+01 -2.00850E+01 -2.00232E+01 -1.99273E+01
  -1.97935E+01 -1.96285E+01 -1.94426E+01 -1.92308E+01 -1.90256E+01 -1.88982E+01 -1.88707E+01 -1.88778E+01 -1.88099E+01 -1.86154E+01
  -1.83258E+01 -1.79907E+01 -1.76559E+01 -1.73844E+01 -1.72574E+01 -1.73377E+01 -1.75503E+01 -1.77253E+01 -1.77862E+01 -1.77197E+01
  -1.75609E+01 -1.73703E+01 -1.71976E+01 -1.70580E+01 -1.69379E+01 -1.68385E+01 -1.67628E+01 -1.66835E+01 -1.65936E+01 -1.64997E+01
  -1.63870E+01 -1.62508E+01 -1.61083E+01 -1.59659E+01 -1.58328E+01 -1.57196E+01 -1.56189E+01 -1.55294E+01 -1.54472E+01 -1.53546E+01
  -1.52524E+01 -1.51462E+01 -1.50363E+01 -1.49139E+01 -1.47787E+01 -1.46364E+01 -1.44989E+01 -1.43788E+01 -1.42823E+01 -1.42072E+01
  -1.41471E+01 -1.40867E+01 -1.39943E+01 -1.38344E+01 -1.36080E+01 -1.33772E+01 -1.32019E+01 -1.31216E+01 -1.31205E+01 -1.31378E+01
  -1.31251E+01 -1.30834E+01 -1.29901E+01 -1.28002E+01 -1.25127E+01 -1.21726E+01 -1.18784E+01 -1.17116E+01 -1.16633E+01 -1.16605E+01
  -1.16566E+01 -1.16631E+01 -1.17032E+01 -1.17399E+01 -1.17505E+01 -1.17182E+01 -1.16163E+01 -1.15290E+01 -1.15530E+01 -1.12901E+01
  -1.01567E+01 -8.01710E+00 -5.62178E+00 -4.07307E+00 -3.84919E+00 -4.62988E+00 -5.83388E+00 -7.11815E+00 -8.41578E+00 -9.45201E+00
  -9.78958E+00 -9.82685E+00 -9.80029E+00 -9.75172E+00 -9.69367E+00 -9.61893E+00 -9.53515E+00 -9.45132E+00 -9.37132E+00 -9.29456E+00
  -9.22357E+00 -9.20838E+00 -9.34948E+00 -9.34365E+00 -8.61034E+00 -6.85909E+00 -4.60654E+00 -2.89149E+00 -2.34047E+00 -2.81360E+00
  -3.81133E+00 -4.93552E+00 -6.08353E+00 -7.12442E+00 -7.59465E+00 -7.71690E+00 -7.77350E+00 -7.78378E+00 -7.73273E+00 -7.62689E+00
  -7.48538E+00 -7.33442E+00 -7.20078E+00 -7.08252E+00 -6.97544E+00 -6.88461E+00 -6.80839E+00 -6.74221E+00 -6.67941E+00 -6.61412E+00
  -6.54900E+00 -6.48327E+00 -6.41629E+00 -6.34349E+00 -6.26464E+00 -6.18048E+00 -6.08690E+00 -5.99083E+00 -5.91871E+00 -5.89544E+00
  -5.92119E+00 -5.95143E+00 -5.92355E+00 -5.81148E+00 -5.64510E+00 -5.48485E+00 -5.36981E+00 -5.29809E+00 -5.26114E+00 -5.24912E+00
  -5.23879E+00 -5.21987E+00 -5.17762E+00 -5.13685E+00 -5.13636E+00 -5.16150E+00 -5.15500E+00 -5.07346E+00 -4.94547E+00 -4.83568E+00
  -4.77448E+00 -4.73003E+00 -4.65152E+00 -4.54673E+00 -4.47903E+00 -4.45310E+00 -4.43355E+00 -4.35782E+00 -4.19914E+00 -3.99169E+00
  -3.77794E+00 -3.59942E+00 -3.47342E+00 -3.38813E+00 -3.33440E+00 -3.30383E+00 -3.27130E+00 -3.24297E+00 -3.21697E+00 -3.18513E+00
  -3.13640E+00 -3.04675E+00 -2.89176E+00 -2.68409E+00 -2.47162E+00 -2.31846E+00 -2.27009E+00 -2.33296E+00 -2.48296E+00 -2.67514E+00
  -2.85785E+00 -2.97739E+00 -2.95892E+00 -2.72530E+00 -2.28632E+00 -1.77293E+00 -1.37686E+00 -1.22787E+00 -1.30982E+00 -1.58676E+00
  -2.03715E+00 -2.54098E+00 -2.87577E+00 -2.84996E+00 -2.53616E+00 -2.10314E+00 -1.66665E+00 -1.29231E+00 -1.03280E+00 -9.47164E-01
  -1.01170E+00 -1.10151E+00 -1.13038E+00 -1.10542E+00 -1.03512E+00 -9.24121E-01 -7.83465E-01 -6.48735E-01 -5.68588E-01 -5.66563E-01
  -6.25091E-01 -7.13898E-01 -7.84676E-01 -7.94922E-01 -7.19507E-01 -5.73490E-01 -4.03156E-01 -2.60536E-01 -1.77412E-01 -1.56688E-01
  -1.89277E-01 -2.09595E-01 -1.69694E-01 -7.25162E-02  2.54811E-02 -1.35203E-02 -2.96186E-01 -2.55927E-01  9.53371E-01  3.58889E+00
   6.70055E+00  8.80626E+00  9.20356E+00  8.22970E+00  6.59886E+00  4.79553E+00  2.95038E+00  1.41803E+00  8.06212E-01  6.10489E-01
   5.03728E-01  4.53701E-01  4.51225E-01  4.82830E-01  5.41295E-01  6.09570E-01  6.71094E-01  7.13921E-01  7.35078E-01  7.34688E-01
   7.22374E-01  7.10946E-01  7.05733E-01  7.10713E-01  7.28632E-01  7.56440E-01  7.89524E-01  8.23965E-01  8.56255E-01  8.86680E-01
   9.15073E-01  9.40392E-01  9.63238E-01  9.85369E-01  1.00755E+00  1.02969E+00  1.05241E+00  1.07633E+00  1.10085E+00  1.12548E+00
   1.15057E+00  1.17579E+00  1.20115E+00  1.22654E+00  1.25174E+00  1.27664E+00  1.30129E+00  1.32580E+00  1.35023E+00  1.37458E+00
   1.39893E+00  1.42335E+00  1.44787E+00  1.47252E+00  1.49733E+00  1.52234E+00  1.54761E+00  1.57325E+00  1.59942E+00  1.62625E+00
   1.65373E+00  1.68129E+00  1.70838E+00  1.74961E+00  1.82545E+00  1.92880E+00  2.01541E+00  2.03379E+00  1.97539E+00  1.87752E+00
   1.77368E+00  1.67396E+00  1.59649E+00  1.58445E+00  1.68610E+00  1.87017E+00  2.05709E+00  2.20539E+00  2.30772E+00  2.37769E+00
   2.42820E+00  2.45833E+00  2.48702E+00  2.61114E+00  2.94160E+00  3.47080E+00  4.00775E+00  4.29477E+00  4.26187E+00  4.07323E+00
   3.88921E+00  3.79988E+00  3.91939E+00  4.42089E+00  5.43561E+00  6.71835E+00  7.80982E+00  8.50259E+00  8.77069E+00  8.67886E+00
   8.28105E+00  7.60963E+00  6.84969E+00  6.13740E+00  5.47082E+00  4.86464E+00  4.33661E+00  3.89662E+00  3.54533E+00  3.27597E+00
   3.07713E+00  2.93549E+00  2.83803E+00  2.77324E+00  2.73175E+00  2.70638E+00  2.69197E+00  2.68498E+00  2.68303E+00  2.68455E+00
   2.68851E+00  2.69421E+00  2.70119E+00  2.70919E+00  2.71802E+00  2.72752E+00  2.73755E+00  2.74800E+00  2.75881E+00  2.76995E+00
   2.78140E+00  2.79309E+00  2.80497E+00  2.81701E+00  2.82922E+00  2.84157E+00  2.85408E+00  2.86670E+00  2.87940E+00  2.89218E+00
   2.90505E+00  2.91802E+00  2.93108E+00  2.94419E+00  2.95734E+00  2.97055E+00  2.98383E+00  2.99718E+00  3.01059E+00  3.02403E+00
   3.03750E+00  3.05101E+00  3.06458E+00  3.07820E+00  3.09185E+00  3.10550E+00  3.11919E+00  3.13290E+00  3.14667E+00  3.16046E+00
   3.17426E+00  3.18807E+00  3.20190E+00  3.21576E+00  3.22965E+00  3.24355E+00  3.25746E+00  3.27136E+00  3.28530E+00  3.29925E+00
   3.31323E+00  3.32720E+00  3.34117E+00  3.35514E+00  3.36914E+00  3.38316E+00  3.39719E+00  3.41120E+00  3.42522E+00  3.43924E+00
   3.45329E+00  3.46734E+00  3.48139E+00  3.49543E+00  3.50947E+00  3.52352E+00  3.53759E+00  3.55166E+00  3.56572E+00  3.57977E+00
   3.59382E+00  3.60788E+00  3.62195E+00  3.63601E+00  3.65006E+00  3.66410E+00  3.67816E+00  3.69222E+00  3.70629E+00  3.72033E+00
   3.73438E+00  3.74842E+00  3.76247E+00  3.77652E+00  3.79058E+00  3.80462E+00  3.81866E+00  3.83270E+00  3.84675E+00  3.86080E+00
   3.87485E+00  3.88888E+00  3.90291E+00  3.91695E+00  3.93100E+00  3.94505E+00  3.95909E+00  3.97312E+00  3.98716E+00  4.00121E+00
   4.01526E+00  4.02931E+00  4.04335E+00  4.05738E+00  4.07143E+00  4.08548E+00  4.09954E+00  4.11359E+00  4.12764E+00  4.14169E+00
   4.15575E+00  4.16981E+00  4.18389E+00  4.19794E+00  4.21201E+00  4.22608E+00  4.24016E+00  4.25425E+00
 NY background values follow
    -2.211E+01   -2.199E+01   -2.188E+01   -2.176E+01   -2.165E+01   -2.154E+01   -2.142E+01   -2.131E+01   -2.119E+01   -2.108E+01
    -2.097E+01   -2.085E+01   -2.074E+01   -2.062E+01   -2.051E+01   -2.040E+01   -2.028E+01   -2.017E+01   -2.005E+01   -1.994E+01
    -1.983E+01   -1.971E+01   -1.960E+01   -1.949E+01   -1.937E+01   -1.926E+01   -1.915E+01   -1.903E+01   -1.892E+01   -1.881E+01
    -1.869E+01   -1.858E+01   -1.847E+01   -1.835E+01   -1.824E+01   -1.813E+01   -1.802E+01   -1.790E+01   -1.779E+01   -1.768E+01
    -1.757E+01   -1.746E+01   -1.734E+01   -1.723E+01   -1.712E+01   -1.701E+01   -1.690E+01   -1.679E+01   -1.668E+01   -1.657E+01
    -1.645E+01   -1.634E+01   -1.623E+01   -1.612E+01   -1.601E+01   -1.590E+01   -1.579E+01   -1.568E+01   -1.558E+01   -1.547E+01
    -1.536E+01   -1.525E+01   -1.514E+01   -1.503E+01   -1.492E+01   -1.482E+01   -1.471E+01   -1.460E+01   -1.449E+01   -1.439E+01
    -1.428E+01   -1.417E+01   -1.407E+01   -1.396E+01   -1.386E+01   -1.375E+01   -1.365E+01   -1.354E+01   -1.344E+01   -1.333E+01
    -1.323E+01   -1.312E+01   -1.302E+01   -1.292E+01   -1.281E+01   -1.271E+01   -1.261E+01   -1.251E+01   -1.241E+01   -1.230E+01
    -1.220E+01   -1.210E+01   -1.200E+01   -1.190E+01   -1.180E+01   -1.170E+01   -1.160E+01   -1.151E+01   -1.141E+01   -1.131E+01
    -1.121E+01   -1.111E+01   -1.102E+01   -1.092E+01   -1.082E+01   -1.073E+01   -1.063E+01   -1.054E+01   -1.044E+01   -1.035E+01
    -1.025E+01   -1.016E+01   -1.007E+01   -9.973E+00   -9.880E+00   -9.787E+00   -9.695E+00   -9.603E+00   -9.512E+00   -9.421E+00
    -9.330E+00   -9.240E+00   -9.150E+00   -9.060E+00   -8.971E+00   -8.882E+00   -8.793E+00   -8.705E+00   -8.617E+00   -8.530E+00
    -8.443E+00   -8.356E+00   -8.270E+00   -8.184E+00   -8.098E+00   -8.013E+00   -7.928E+00   -7.843E+00   -7.759E+00   -7.675E+00
    -7.592E+00   -7.509E+00   -7.426E+00   -7.344E+00   -7.262E+00   -7.181E+00   -7.100E+00   -7.019E+00   -6.938E+00   -6.858E+00
    -6.779E+00   -6.699E+00   -6.620E+00   -6.542E+00   -6.464E+00   -6.386E+00   -6.308E+00   -6.231E+00   -6.155E+00   -6.078E+00
    -6.002E+00   -5.927E+00   -5.851E+00   -5.776E+00   -5.702E+00   -5.628E+00   -5.554E+00   -5.480E+00   -5.407E+00   -5.335E+00
    -5.262E+00   -5.190E+00   -5.119E+00   -5.047E+00   -4.976E+00   -4.906E+00   -4.836E+00   -4.766E+00   -4.696E+00   -4.627E+00
    -4.558E+00   -4.490E+00   -4.422E+00   -4.354E+00   -4.287E+00   -4.220E+00   -4.153E+00   -4.087E+00   -4.021E+00   -3.955E+00
    -3.890E+00   -3.825E+00   -3.761E+00   -3.697E+00   -3.633E+00   -3.570E+00   -3.507E+00   -3.444E+00   -3.382E+00   -3.320E+00
    -3.258E+00   -3.197E+00   -3.136E+00   -3.076E+00   -3.016E+00   -2.956E+00   -2.897E+00   -2.838E+00   -2.779E+00   -2.721E+00
    -2.663E+00   -2.605E+00   -2.548E+00   -2.491E+00   -2.435E+00   -2.379E+00   -2.323E+00   -2.268E+00   -2.213E+00   -2.159E+00
    -2.104E+00   -2.051E+00   -1.997E+00   -1.944E+00   -1.891E+00   -1.839E+00   -1.787E+00   -1.736E+00   -1.685E+00   -1.634E+00
    -1.583E+00   -1.533E+00   -1.484E+00   -1.434E+00   -1.385E+00   -1.337E+00   -1.289E+00   -1.241E+00   -1.194E+00   -1.146E+00
    -1.100E+00   -1.054E+00   -1.008E+00   -9.620E-01   -9.168E-01   -8.720E-01   -8.275E-01   -7.834E-01   -7.397E-01   -6.963E-01
    -6.534E-01   -6.107E-01   -5.685E-01   -5.266E-01   -4.851E-01   -4.439E-01   -4.031E-01   -3.627E-01   -3.226E-01   -2.829E-01
    -2.436E-01   -2.046E-01   -1.660E-01   -1.277E-01   -8.979E-02   -5.225E-02   -1.508E-02    2.174E-02    5.820E-02    9.431E-02
     1.300E-01    1.654E-01    2.005E-01    2.351E-01    2.695E-01    3.034E-01    3.371E-01    3.704E-01    4.033E-01    4.359E-01
     4.682E-01    5.002E-01    5.318E-01    5.632E-01    5.942E-01    6.248E-01    6.552E-01    6.853E-01    7.151E-01    7.445E-01
     7.737E-01    8.026E-01    8.311E-01    8.594E-01    8.875E-01    9.152E-01    9.426E-01    9.698E-01    9.967E-01    1.023E+00
     1.050E+00    1.076E+00    1.102E+00    1.127E+00    1.153E+00    1.178E+00    1.203E+00    1.227E+00    1.252E+00    1.276E+00
     1.300E+00    1.323E+00    1.347E+00    1.370E+00    1.393E+00    1.416E+00    1.439E+00    1.461E+00    1.483E+00    1.505E+00
     1.527E+00    1.549E+00    1.570E+00    1.591E+00    1.612E+00    1.633E+00    1.654E+00    1.674E+00    1.695E+00    1.715E+00
     1.735E+00    1.755E+00    1.774E+00    1.794E+00    1.813E+00    1.832E+00    1.851E+00    1.870E+00    1.889E+00    1.907E+00
     1.926E+00    1.944E+00    1.962E+00    1.980E+00    1.998E+00    2.016E+00    2.033E+00    2.051E+00    2.068E+00    2.085E+00
     2.103E+00    2.120E+00    2.137E+00    2.153E+00    2.170E+00    2.187E+00    2.203E+00    2.219E+00    2.236E+00    2.252E+00
     2.268E+00    2.284E+00    2.300E+00    2.316E+00    2.332E+00    2.347E+00    2.363E+00    2.379E+00    2.394E+00    2.409E+00
     2.425E+00    2.440E+00    2.455E+00    2.470E+00    2.486E+00    2.501E+00    2.516E+00    2.531E+00    2.545E+00    2.560E+00
     2.575E+00    2.590E+00    2.604E+00    2.619E+00    2.634E+00    2.648E+00    2.663E+00    2.677E+00    2.692E+00    2.706E+00
     2.721E+00    2.735E+00    2.749E+00    2.764E+00    2.778E+00    2.792E+00    2.807E+00    2.821E+00    2.835E+00    2.849E+00
     2.864E+00    2.878E+00    2.892E+00    2.906E+00    2.921E+00    2.935E+00    2.949E+00    2.963E+00    2.977E+00    2.992E+00
     3.006E+00    3.020E+00    3.034E+00    3.049E+00    3.063E+00    3.077E+00    3.092E+00    3.106E+00    3.120E+00    3.134E+00
     3.149E+00    3.163E+00    3.177E+00    3.192E+00    3.206E+00    3.220E+00    3.234E+00    3.249E+00    3.263E+00    3.277E+00
     3.292E+00    3.306E+00    3.320E+00    3.335E+00    3.349E+00    3.363E+00    3.377E+00    3.392E+00    3.406E+00    3.420E+00
     3.435E+00    3.449E+00    3.463E+00    3.478E+00    3.492E+00    3.506E+00    3.520E+00    3.535E+00    3.549E+00    3.563E+00
     3.577E+00    3.592E+00    3.606E+00    3.620E+00    3.635E+00    3.649E+00    3.663E+00    3.677E+00    3.691E+00    3.706E+00
     3.720E+00    3.734E+00    3.748E+00    3.763E+00    3.777E+00    3.791E+00    3.805E+00    3.819E+00    3.834E+00    3.848E+00
     3.862E+00    3.876E+00    3.890E+00    3.904E+00    3.919E+00    3.933E+00    3.947E+00    3.961E+00    3.975E+00    3.989E+00
     4.004E+00    4.018E+00    4.032E+00    4.046E+00    4.060E+00    4.074E+00    4.089E+00    4.103E+00    4.117E+00    4.131E+00
     4.145E+00    4.159E+00    4.173E+00    4.188E+00    4.202E+00    4.216E+00    4.230E+00    4.244E+00
 Ala      Conc. = 1.57E+01
