 LCModel (Version 6.3-1L) Copyright: S.W. Provencher.          Ref.: Magn. Reson. Med. 30:672-679 (1993).                
 Slice#2 Row#7 Col#11  PD_24_press_1_raw_act
 36 lines in following concentration table = NCONC+1
    Conc.  %SD /Cr+PCr  Metabolite                                         
    0.000 999%   0.000 Ala                                                 
    0.000 999%   0.000 Asp                                                 
  642.995  49%   0.461 Cr                                                  
  750.936  42%   0.539 PCr                                                 
    0.000 999%   0.000 GABA                                                
    0.000 999%   0.000 Glc                                                 
  275.886  99%   0.198 Gln                                                 
 1.06E+03  28%   0.764 Glu                                                 
  527.384   5%   0.378 GPC                                                 
    0.000 999%   0.000 PCh                                                 
  377.777  21%   0.271 GSH                                                 
 1.44E+03  19%   1.034 Ins                                                 
    0.000 999%   0.000 Lac                                                 
 2.38E+03   7%   1.708 NAA                                                 
  164.381 106%   0.118 NAAG                                                
  171.696  17%   0.123 Scyllo                                              
   33.682 612% 2.4E-02 Tau                                                 
  806.613  15%   0.579 -CrCH2                                              
  527.384   5%   0.378 GPC+PCh                                             
 2.55E+03   4%   1.826 NAA+NAAG                                            
 1.39E+03   4%   1.000 Cr+PCr                                              
 1.34E+03  34%   0.962 Glu+Gln                                             
    0.000 999%   0.000 Lip13a                                              
    0.000 999%   0.000 Lip13b                                              
    0.000 999%   0.000 Lip09                                               
 2.70E+03   8%   1.935 MM09                                                
   84.800 156% 6.1E-02 Lip20                                               
 4.11E+03   9%   2.948 MM20                                                
 1.36E+03  14%   0.977 MM12                                                
    0.000 999%   0.000 MM14                                                
  311.952  38%   0.224 MM17                                                
    0.000 999%   0.000 Lip13a+Lip13b                                       
 1.36E+03  14%   0.977 MM14+Lip13a+Lip13b+MM12                             
 2.70E+03   8%   1.935 MM09+Lip09                                          
 4.19E+03   9%   3.009 MM20+Lip20                                          
   6 lines in following misc. output table
  FWHM = 0.069 ppm    S/N =  13                                            
  Data shift = 0.000 ppm                                                   
  Ph: -32 deg     -10.0 deg/ppm                                            
  alphaB,S = 1.2E+00,   2.1E+02                                            
   14 spline knots.   Ns = 8(1)                                            
  (12) 4 infls.   ( 9) 1 extrs.                                            
  498 points on ppm-axis = NY
      4.000000     3.992357     3.984714     3.977070     3.969427     3.961784     3.954141     3.946497     3.938854     3.931211
      3.923568     3.915925     3.908281     3.900638     3.892995     3.885352     3.877708     3.870065     3.862422     3.854779
      3.847136     3.839492     3.831849     3.824206     3.816563     3.808919     3.801276     3.793633     3.785990     3.778347
      3.770703     3.763060     3.755417     3.747774     3.740130     3.732487     3.724844     3.717201     3.709558     3.701914
      3.694271     3.686628     3.678985     3.671341     3.663698     3.656055     3.648412     3.640769     3.633125     3.625482
      3.617839     3.610196     3.602552     3.594909     3.587266     3.579623     3.571980     3.564336     3.556693     3.549050
      3.541407     3.533763     3.526120     3.518477     3.510834     3.503191     3.495547     3.487904     3.480261     3.472618
      3.464974     3.457331     3.449688     3.442045     3.434402     3.426758     3.419115     3.411472     3.403829     3.396185
      3.388542     3.380899     3.373256     3.365613     3.357969     3.350326     3.342683     3.335040     3.327396     3.319753
      3.312110     3.304467     3.296824     3.289180     3.281537     3.273894     3.266251     3.258607     3.250964     3.243321
      3.235678     3.228034     3.220391     3.212748     3.205105     3.197462     3.189818     3.182175     3.174532     3.166889
      3.159245     3.151602     3.143959     3.136316     3.128673     3.121029     3.113386     3.105743     3.098100     3.090456
      3.082813     3.075170     3.067527     3.059884     3.052240     3.044597     3.036954     3.029311     3.021667     3.014024
      3.006381     2.998738     2.991095     2.983451     2.975808     2.968165     2.960522     2.952878     2.945235     2.937592
      2.929949     2.922306     2.914662     2.907019     2.899376     2.891733     2.884089     2.876446     2.868803     2.861160
      2.853517     2.845873     2.838230     2.830587     2.822944     2.815300     2.807657     2.800014     2.792371     2.784728
      2.777084     2.769441     2.761798     2.754155     2.746511     2.738868     2.731225     2.723582     2.715939     2.708295
      2.700652     2.693009     2.685366     2.677722     2.670079     2.662436     2.654793     2.647150     2.639506     2.631863
      2.624220     2.616577     2.608933     2.601290     2.593647     2.586004     2.578361     2.570717     2.563074     2.555431
      2.547788     2.540144     2.532501     2.524858     2.517215     2.509572     2.501928     2.494285     2.486642     2.478999
      2.471355     2.463712     2.456069     2.448426     2.440783     2.433139     2.425496     2.417853     2.410210     2.402566
      2.394923     2.387280     2.379637     2.371994     2.364350     2.356707     2.349064     2.341421     2.333777     2.326134
      2.318491     2.310848     2.303205     2.295561     2.287918     2.280275     2.272632     2.264988     2.257345     2.249702
      2.242059     2.234416     2.226772     2.219129     2.211486     2.203843     2.196199     2.188556     2.180913     2.173270
      2.165627     2.157983     2.150340     2.142697     2.135054     2.127410     2.119767     2.112124     2.104481     2.096838
      2.089194     2.081551     2.073908     2.066265     2.058621     2.050978     2.043335     2.035692     2.028049     2.020405
      2.012762     2.005119     1.997476     1.989833     1.982190     1.974546     1.966903     1.959260     1.951617     1.943974
      1.936331     1.928688     1.921045     1.913402     1.905759     1.898115     1.890472     1.882829     1.875186     1.867543
      1.859900     1.852257     1.844614     1.836971     1.829327     1.821684     1.814041     1.806398     1.798755     1.791112
      1.783469     1.775826     1.768183     1.760540     1.752896     1.745253     1.737610     1.729967     1.722324     1.714681
      1.707038     1.699395     1.691752     1.684108     1.676465     1.668822     1.661179     1.653536     1.645893     1.638250
      1.630607     1.622964     1.615321     1.607677     1.600034     1.592391     1.584748     1.577105     1.569462     1.561819
      1.554176     1.546533     1.538890     1.531246     1.523603     1.515960     1.508317     1.500674     1.493031     1.485388
      1.477745     1.470102     1.462458     1.454815     1.447172     1.439529     1.431886     1.424243     1.416600     1.408957
      1.401314     1.393671     1.386027     1.378384     1.370741     1.363098     1.355455     1.347812     1.340169     1.332526
      1.324883     1.317240     1.309596     1.301953     1.294310     1.286667     1.279024     1.271381     1.263738     1.256095
      1.248452     1.240808     1.233165     1.225522     1.217879     1.210236     1.202593     1.194950     1.187307     1.179664
      1.172021     1.164377     1.156734     1.149091     1.141448     1.133805     1.126162     1.118519     1.110876     1.103233
      1.095590     1.087946     1.080303     1.072660     1.065017     1.057374     1.049731     1.042088     1.034445     1.026802
      1.019158     1.011515     1.003872     0.996229     0.988586     0.980943     0.973300     0.965657     0.958014     0.950371
      0.942727     0.935084     0.927441     0.919798     0.912155     0.904512     0.896869     0.889226     0.881583     0.873940
      0.866296     0.858653     0.851010     0.843367     0.835724     0.828081     0.820438     0.812795     0.805152     0.797508
      0.789865     0.782222     0.774579     0.766936     0.759293     0.751650     0.744007     0.736364     0.728721     0.721077
      0.713434     0.705791     0.698148     0.690505     0.682862     0.675219     0.667576     0.659933     0.652290     0.644646
      0.637003     0.629360     0.621717     0.614074     0.606431     0.598788     0.591145     0.583502     0.575858     0.568215
      0.560572     0.552929     0.545286     0.537643     0.530000     0.522357     0.514714     0.507071     0.499427     0.491784
      0.484141     0.476498     0.468855     0.461212     0.453569     0.445925     0.438282     0.430639     0.422996     0.415353
      0.407710     0.400067     0.392424     0.384780     0.377137     0.369494     0.361851     0.354208     0.346565     0.338922
      0.331278     0.323635     0.315992     0.308349     0.300706     0.293063     0.285420     0.277777     0.270133     0.262490
      0.254847     0.247204     0.239561     0.231918     0.224275     0.216631     0.208988     0.201345
 NY phased data points follow
   1.65992E+00  6.14476E+00 -2.34752E-01  5.07223E+00 -5.14556E-02  3.62292E+00  1.84428E+00  6.22579E+00  9.45155E+00  8.85853E+00
   1.27882E+01  1.31110E+01  1.32190E+01  1.48256E+01  1.46560E+01  1.34768E+01  1.20589E+01  6.38209E+00  6.14282E+00  4.16742E+00
   3.81511E+00  4.50249E+00  1.51241E-01  3.75985E+00  2.54010E+00  3.16905E+00  4.66190E+00  5.08686E+00  1.75651E+00  6.94143E+00
   8.88533E+00  7.73046E+00  4.72877E+00  4.99508E+00  6.87068E+00  7.84466E+00  8.44934E+00  7.84926E+00  5.16803E+00  7.98279E+00
   1.69122E+00  6.58467E+00  4.78566E+00  5.97505E+00  3.09473E+00  9.87170E+00  8.15017E+00  1.15272E+01  1.29565E+01  8.94790E+00
   1.34510E+01  1.13536E+01  8.84262E+00  7.19822E+00  9.10367E+00  5.52515E+00  5.88179E+00  4.88599E+00  9.36479E+00  4.55113E+00
   1.97673E+00  5.95446E-01 -7.63973E-02 -1.58476E+00 -3.20061E+00  1.39567E+00  1.05133E+00  3.33826E-01 -4.59475E+00 -1.56157E+00
  -2.46506E+00 -1.24890E+00 -3.39969E+00  2.82325E+00  3.43745E+00  3.79666E-01  3.94482E+00  1.84919E+00 -3.17107E+00 -1.29356E-01
  -2.05200E+00 -3.35638E-01  4.00539E+00  4.37608E+00  4.08469E+00  2.35936E+00  3.14191E+00  5.85082E+00  3.67403E+00  2.55702E+00
   5.11191E+00  3.70606E+00  4.33021E+00  5.69117E+00  3.24500E+00  3.70024E+00  3.58394E+00  4.41629E+00  7.35657E+00  1.53892E+01
   2.15946E+01  3.23744E+01  3.75166E+01  3.81921E+01  3.67823E+01  3.86302E+01  2.63101E+01  2.51068E+01  2.00478E+01  1.60076E+01
   1.31044E+01  8.24626E+00  3.14547E+00  5.08903E+00  4.85272E+00  5.88783E+00  2.73388E+00  1.23262E+00  3.78354E+00  4.63850E+00
   2.20023E-01  7.58905E+00  9.20545E+00  1.83515E+01  2.60164E+01  3.44950E+01  3.34225E+01  3.56773E+01  4.33477E+01  3.63085E+01
   3.23836E+01  2.80784E+01  2.01443E+01  1.68622E+01  1.21505E+01  8.00020E+00  4.28901E+00  3.46355E+00  5.19202E+00  3.73818E+00
   7.36000E-01  6.04147E+00  3.70966E+00  1.94308E+00 -5.70654E-01  1.63812E-01  1.94784E+00  6.04887E-01  1.38878E+00  3.72005E+00
  -5.01933E-01 -2.73582E+00  1.14477E+00  9.21605E-01  3.14726E-01  1.36317E+00 -2.11230E+00  1.26202E-01  2.72055E+00 -4.70539E-01
  -4.27289E-01 -1.70384E+00 -7.50582E-01 -1.80604E+00 -3.51651E+00 -8.22835E+00 -5.34504E+00 -9.41857E+00 -6.47627E+00 -9.06951E+00
  -9.21777E+00 -1.03266E+01 -1.11061E+01 -1.14326E+01 -1.24434E+01 -1.24528E+01 -1.43261E+01 -1.40485E+01 -1.21683E+01 -1.16453E+01
  -9.97248E+00 -1.02419E+01 -1.09478E+01 -6.82202E+00 -1.09562E+01 -1.54880E+01 -4.05175E+00 -9.07348E+00 -9.66408E+00 -6.82960E+00
  -7.06445E+00 -2.15169E+00 -3.92102E+00 -1.50721E+00 -5.13952E+00 -5.44272E+00 -1.02633E+01 -6.56265E+00 -7.49223E+00 -3.42272E+00
  -7.67020E+00 -2.22609E+00 -3.62243E+00 -3.71489E+00 -1.73830E+00  4.17472E-01 -2.53781E+00 -8.21264E+00 -4.47230E+00 -2.29912E+00
   3.26973E-01  2.54501E+00  2.42706E+00  3.39565E+00  7.34597E+00  7.54344E+00  4.36296E+00  6.11824E+00  2.67970E+00  4.06186E+00
  -1.60371E+00 -1.91563E+00 -4.29672E+00  1.19227E+00 -7.94517E-01 -3.38342E+00 -2.15853E+00  2.41812E+00  2.75869E-01  5.22314E+00
   1.40174E+00  4.63680E+00  5.98655E+00  5.08407E+00  6.60623E+00  5.47441E+00  5.84658E+00  5.71328E+00  1.82280E+00  1.59354E+00
   7.14367E-01  1.59236E+00  5.59437E+00  7.82834E+00  5.45881E+00  5.47910E+00  7.75411E+00  8.09537E+00  9.91636E+00  1.09617E+01
   1.68476E+01  1.44137E+01  1.88163E+01  1.95341E+01  2.77997E+01  3.88292E+01  4.94725E+01  6.50769E+01  7.53977E+01  7.65266E+01
   7.51145E+01  7.49218E+01  6.31642E+01  5.56653E+01  4.04595E+01  2.97383E+01  2.72522E+01  2.27993E+01  1.50857E+01  1.00652E+01
   4.33884E+00  4.18726E+00  5.25209E-01  4.61837E+00  3.54590E+00  2.69444E+00 -2.46701E-01 -5.39451E+00 -6.84126E+00 -5.17714E+00
  -1.73764E+00 -4.43463E+00 -9.95366E+00 -9.41801E+00 -2.20376E+00 -2.45007E+00 -3.45447E+00 -9.13704E+00 -6.23833E+00 -7.93910E+00
  -9.07368E+00 -8.79425E+00 -5.27237E+00 -1.12301E+01 -9.31716E+00 -9.75038E+00 -1.50456E+00 -5.94710E+00 -8.98143E+00 -3.57499E+00
  -5.44032E+00 -5.50407E+00 -7.57971E-01  2.57759E+00 -9.57001E-01 -3.97894E+00  1.77774E+00  2.73527E+00 -1.76969E+00  9.87525E-01
  -2.02337E+00 -5.57736E+00 -3.97344E+00 -2.98524E+00 -3.72579E+00 -3.19269E+00 -1.42021E+00 -2.79042E+00 -3.02632E+00 -1.97057E+00
  -7.07024E+00 -7.71843E+00 -4.27809E+00 -7.30706E+00 -5.29709E+00 -8.25956E+00 -7.21378E+00 -4.62251E+00 -9.31773E+00 -3.95328E+00
  -1.76776E+00 -5.92425E+00 -6.38148E+00 -3.23045E+00 -1.12196E+01 -4.71109E+00 -6.99461E+00 -5.43800E+00 -4.96079E+00 -3.69854E+00
  -4.59409E+00 -4.66489E+00 -4.29629E+00 -8.06748E+00 -6.98242E+00 -3.28637E+00 -5.03277E+00 -8.36362E+00 -6.14277E+00 -2.18763E+00
  -1.44971E+00 -3.18571E+00 -2.75538E+00  1.44503E+00  2.33192E+00  3.25961E+00  9.57907E-02  4.62339E+00  1.28172E+00  5.60239E+00
   8.41030E+00  6.12554E+00  7.37845E+00  9.82147E+00  1.01380E+01  6.70901E+00  8.97296E+00  9.01129E+00  8.29507E+00  8.73677E+00
   7.91732E+00  4.83594E+00  1.22277E+01  2.15051E+00  6.41384E+00  8.87537E+00  5.11981E+00  7.78279E+00  3.94240E-01  1.50108E+00
   5.78314E-01  1.75818E+00  4.52318E-02  3.09396E+00  1.66842E+00  5.85414E+00  7.62762E+00  6.25418E+00  5.07973E+00  7.79253E+00
   2.78519E+00  5.36141E+00  8.15491E+00  8.05259E+00  8.64413E+00  1.16432E+01  8.19131E+00  1.24575E+01  7.70942E+00  1.21547E+01
   9.91903E+00  1.44871E+01  1.16487E+01  1.06419E+01  1.23684E+01  1.47113E+01  1.32202E+01  1.60487E+01  1.44603E+01  1.23955E+01
   1.34269E+01  1.38127E+01  1.24608E+01  1.47118E+01  1.21260E+01  9.69522E+00  1.07933E+01  8.96335E+00  8.40436E+00  8.80872E+00
   6.09080E+00  9.73503E+00  6.08797E+00  5.08793E+00  3.74971E+00  3.67384E+00  4.40118E+00  4.27358E+00  6.60511E+00  9.94950E-01
   5.31098E+00  3.21525E+00  5.29625E+00  5.91522E+00  9.08350E-03  5.59396E+00  6.71239E+00  2.26898E+00  4.59031E+00 -3.84964E-01
   1.04520E+00  2.57818E+00 -8.94258E-01  3.65032E+00  2.71029E+00  2.42556E+00  2.06492E+00  2.97916E+00  5.46826E+00  4.80716E+00
   2.56234E+00  2.15306E+00  4.17630E-01  2.79546E-01  3.12918E+00  5.51576E+00 -2.74477E-01  6.50588E+00  1.42553E+00  2.62671E+00
   7.37758E-01  1.44452E+00  3.92491E+00 -6.16144E-01 -2.07041E+00 -5.98702E-01  1.37287E+00  1.75936E+00  3.05636E+00  4.41547E-01
   4.59400E+00  2.08917E+00  5.32762E+00  2.74384E+00  3.49854E+00  4.86095E+00 -2.06653E+00  2.84571E+00 -9.29056E-01  1.91814E+00
   1.10603E+00  9.82351E-01 -1.96089E+00  4.50028E+00  5.25476E+00  4.73743E+00  3.45384E+00  2.62634E+00  8.07076E-01  2.76173E+00
   1.65629E+00  1.58864E+00  3.49764E+00 -1.39190E+00 -1.20704E+00  2.22654E+00  1.05023E+00  5.12451E+00
 NY points of the fit to the data follow
   3.55668E+00  2.81313E+00  2.15642E+00  1.77094E+00  1.83199E+00  2.41841E+00  3.72964E+00  5.78521E+00  8.27441E+00  1.07243E+01
   1.27133E+01  1.40005E+01  1.45023E+01  1.42073E+01  1.32316E+01  1.18666E+01  1.04613E+01  9.18599E+00  7.93491E+00  6.48020E+00
   4.99069E+00  3.73412E+00  3.03058E+00  2.73082E+00  2.76805E+00  3.23388E+00  4.17193E+00  5.49548E+00  6.93291E+00  8.20621E+00
   9.14093E+00  9.61890E+00  9.56791E+00  9.03978E+00  8.17941E+00  7.20700E+00  6.26388E+00  5.34598E+00  4.39039E+00  3.55002E+00
   3.19671E+00  3.41002E+00  4.12184E+00  5.35065E+00  6.95618E+00  8.59557E+00  9.83257E+00  1.04368E+01  1.03774E+01  9.70493E+00
   8.52843E+00  7.05152E+00  5.57248E+00  4.38804E+00  3.59009E+00  3.05690E+00  2.71866E+00  2.63699E+00  2.82030E+00  3.07880E+00
   3.18492E+00  3.04154E+00  2.67226E+00  2.16233E+00  1.63273E+00  1.21939E+00  1.00249E+00  9.78292E-01  1.06662E+00  1.20816E+00
   1.38564E+00  1.54797E+00  1.66464E+00  1.70137E+00  1.62732E+00  1.44567E+00  1.18177E+00  8.90135E-01  6.55642E-01  6.08940E-01
   8.39305E-01  1.38272E+00  2.27278E+00  3.38247E+00  4.41835E+00  5.09300E+00  5.26925E+00  4.98622E+00  4.33536E+00  3.43078E+00
   2.44071E+00  1.55368E+00  8.74015E-01  3.55701E-01 -9.42693E-02 -1.39542E-01  1.02715E+00  4.13136E+00  9.40103E+00  1.64099E+01
   2.41632E+01  3.11902E+01  3.61771E+01  3.85392E+01  3.82420E+01  3.54846E+01  3.08869E+01  2.55068E+01  2.03363E+01  1.58702E+01
   1.18595E+01  7.82483E+00  3.94541E+00  1.33861E+00  3.74941E-01 -5.01698E-03 -2.03142E-01 -2.83740E-01 -1.65698E-01  5.94869E-01
   2.57407E+00  6.14924E+00  1.15424E+01  1.84321E+01  2.58150E+01  3.23044E+01  3.67824E+01  3.88266E+01  3.84534E+01  3.58521E+01
   3.15645E+01  2.64839E+01  2.14768E+01  1.69614E+01  1.27487E+01  8.53038E+00  4.65994E+00  2.26212E+00  1.46301E+00  1.24491E+00
   1.18245E+00  1.10937E+00  9.67526E-01  7.84562E-01  5.95918E-01  3.74729E-01  1.02663E-01 -2.14889E-01 -5.81936E-01 -9.80619E-01
  -1.36860E+00 -1.71166E+00 -1.97562E+00 -2.20524E+00 -2.44347E+00 -2.73110E+00 -3.08347E+00 -3.46207E+00 -3.80769E+00 -4.04950E+00
  -4.17144E+00 -4.21996E+00 -4.26102E+00 -4.35284E+00 -4.53695E+00 -4.83383E+00 -5.24087E+00 -5.71757E+00 -6.20200E+00 -6.64784E+00
  -7.08914E+00 -7.60024E+00 -8.12744E+00 -8.58004E+00 -8.85489E+00 -8.93666E+00 -8.95077E+00 -8.94787E+00 -8.92691E+00 -8.91650E+00
  -8.94490E+00 -9.00726E+00 -9.01955E+00 -8.84194E+00 -8.38439E+00 -7.67758E+00 -6.82933E+00 -5.85389E+00 -4.75815E+00 -3.67367E+00
  -2.81303E+00 -2.33113E+00 -2.20037E+00 -2.32217E+00 -2.57605E+00 -2.85305E+00 -3.06673E+00 -3.15278E+00 -2.99953E+00 -2.59412E+00
  -2.01304E+00 -1.38500E+00 -8.99228E-01 -7.22679E-01 -9.48683E-01 -1.55703E+00 -2.41894E+00 -3.38538E+00 -4.29558E+00 -4.86456E+00
  -4.91271E+00 -4.40161E+00 -3.44309E+00 -2.25884E+00 -1.16069E+00 -4.77835E-01 -3.75721E-01 -8.67537E-01 -1.85140E+00 -3.04085E+00
  -4.08026E+00 -4.62542E+00 -4.59154E+00 -4.13700E+00 -3.37443E+00 -2.39813E+00 -1.29784E+00 -2.46720E-01  5.66133E-01  1.21224E+00
   1.85279E+00  2.55796E+00  3.25723E+00  3.87498E+00  4.44392E+00  4.95706E+00  5.30278E+00  5.43869E+00  5.43324E+00  5.40080E+00
   5.47186E+00  5.72934E+00  6.20685E+00  6.91120E+00  7.75808E+00  8.61630E+00  9.39199E+00  1.01011E+01  1.08290E+01  1.16461E+01
   1.26720E+01  1.41908E+01  1.70836E+01  2.20214E+01  2.94394E+01  3.94792E+01  5.12599E+01  6.27559E+01  7.15657E+01  7.61698E+01
   7.63301E+01  7.23396E+01  6.47757E+01  5.49539E+01  4.46589E+01  3.54138E+01  2.76726E+01  2.05881E+01  1.34731E+01  7.21394E+00
   3.82699E+00  2.55882E+00  1.79934E+00  1.20543E+00  7.03243E-01  2.50112E-01 -1.98408E-01 -6.36289E-01 -1.05450E+00 -1.44448E+00
  -1.80121E+00 -2.12864E+00 -2.43760E+00 -2.72659E+00 -2.98382E+00 -3.20570E+00 -3.39881E+00 -3.56609E+00 -3.70312E+00 -3.80570E+00
  -3.87655E+00 -3.92192E+00 -3.94205E+00 -3.93519E+00 -3.90261E+00 -3.84636E+00 -3.76652E+00 -3.66287E+00 -3.53721E+00 -3.39334E+00
  -3.23658E+00 -3.07240E+00 -2.90633E+00 -2.74553E+00 -2.59788E+00 -2.47002E+00 -2.36770E+00 -2.29540E+00 -2.25736E+00 -2.25637E+00
  -2.29238E+00 -2.36331E+00 -2.46631E+00 -2.59666E+00 -2.74902E+00 -2.91723E+00 -3.09504E+00 -3.27596E+00 -3.45427E+00 -3.62471E+00
  -3.78320E+00 -3.92620E+00 -4.05150E+00 -4.15755E+00 -4.24419E+00 -4.31163E+00 -4.36098E+00 -4.39328E+00 -4.41018E+00 -4.41313E+00
  -4.40395E+00 -4.38397E+00 -4.35459E+00 -4.31650E+00 -4.27048E+00 -4.21666E+00 -4.15518E+00 -4.08538E+00 -4.00643E+00 -3.91666E+00
  -3.81429E+00 -3.69671E+00 -3.56109E+00 -3.40363E+00 -3.22028E+00 -3.00621E+00 -2.75664E+00 -2.46636E+00 -2.13059E+00 -1.74460E+00
  -1.30486E+00 -8.08831E-01 -2.56175E-01  3.51542E-01  1.00983E+00  1.71166E+00  2.44662E+00  3.20158E+00  3.96035E+00  4.70493E+00
   5.41565E+00  6.07271E+00  6.65660E+00  7.14983E+00  7.53741E+00  7.80855E+00  7.95677E+00  7.98098E+00  7.88493E+00  7.67768E+00
   7.37248E+00  6.98668E+00  6.54004E+00  6.05425E+00  5.55111E+00  5.05209E+00  4.57688E+00  4.14327E+00  3.76597E+00  3.45696E+00
   3.22479E+00  3.07541E+00  3.01185E+00  3.03522E+00  3.14445E+00  3.33727E+00  3.60999E+00  3.95840E+00  4.37735E+00  4.86151E+00
   5.40463E+00  6.00015E+00  6.64051E+00  7.31770E+00  8.02253E+00  8.74512E+00  9.47431E+00  1.01983E+01  1.09042E+01  1.15790E+01
   1.22092E+01  1.27817E+01  1.32840E+01  1.37047E+01  1.40339E+01  1.42638E+01  1.43889E+01  1.44066E+01  1.43164E+01  1.41212E+01
   1.38261E+01  1.34390E+01  1.29696E+01  1.24293E+01  1.18305E+01  1.11865E+01  1.05105E+01  9.81566E+00  9.11400E+00  8.41679E+00
   7.73366E+00  7.07306E+00  6.44161E+00  5.84464E+00  5.28564E+00  4.76703E+00  4.28971E+00  3.85388E+00  3.45860E+00  3.10254E+00
   2.78355E+00  2.49944E+00  2.24756E+00  2.02549E+00  1.83050E+00  1.66022E+00  1.51208E+00  1.38396E+00  1.27365E+00  1.17944E+00
   1.09945E+00  1.03229E+00  9.76399E-01  9.30693E-01  8.93962E-01  8.65410E-01  8.44034E-01  8.29203E-01  8.20091E-01  8.16267E-01
   8.17095E-01  8.22269E-01  8.31225E-01  8.43722E-01  8.59293E-01  8.77819E-01  8.98922E-01  9.22519E-01  9.48241E-01  9.76032E-01
   1.00559E+00  1.03694E+00  1.06981E+00  1.10422E+00  1.13989E+00  1.17685E+00  1.21489E+00  1.25410E+00  1.29425E+00  1.33541E+00
   1.37735E+00  1.42016E+00  1.46367E+00  1.50799E+00  1.55293E+00  1.59857E+00  1.64471E+00  1.69148E+00  1.73873E+00  1.78658E+00
   1.83485E+00  1.88363E+00  1.93277E+00  1.98240E+00  2.03239E+00  2.08286E+00  2.13363E+00  2.18482E+00  2.23631E+00  2.28822E+00
   2.34044E+00  2.39309E+00  2.44601E+00  2.49934E+00  2.55296E+00  2.60704E+00  2.66145E+00  2.71634E+00
 NY background values follow
     5.205E-03   -2.082E-02   -4.684E-02   -7.286E-02   -9.888E-02   -1.249E-01   -1.509E-01   -1.769E-01   -2.030E-01   -2.290E-01
    -2.550E-01   -2.810E-01   -3.071E-01   -3.331E-01   -3.591E-01   -3.852E-01   -4.112E-01   -4.373E-01   -4.634E-01   -4.895E-01
    -5.155E-01   -5.416E-01   -5.677E-01   -5.939E-01   -6.200E-01   -6.461E-01   -6.723E-01   -6.985E-01   -7.246E-01   -7.508E-01
    -7.770E-01   -8.033E-01   -8.295E-01   -8.558E-01   -8.820E-01   -9.083E-01   -9.346E-01   -9.610E-01   -9.873E-01   -1.014E+00
    -1.040E+00   -1.067E+00   -1.093E+00   -1.119E+00   -1.146E+00   -1.172E+00   -1.199E+00   -1.225E+00   -1.252E+00   -1.279E+00
    -1.305E+00   -1.332E+00   -1.359E+00   -1.385E+00   -1.412E+00   -1.439E+00   -1.466E+00   -1.493E+00   -1.519E+00   -1.546E+00
    -1.573E+00   -1.600E+00   -1.627E+00   -1.654E+00   -1.681E+00   -1.708E+00   -1.735E+00   -1.762E+00   -1.790E+00   -1.817E+00
    -1.844E+00   -1.871E+00   -1.899E+00   -1.926E+00   -1.953E+00   -1.981E+00   -2.008E+00   -2.036E+00   -2.063E+00   -2.091E+00
    -2.118E+00   -2.146E+00   -2.173E+00   -2.201E+00   -2.229E+00   -2.256E+00   -2.284E+00   -2.312E+00   -2.340E+00   -2.368E+00
    -2.396E+00   -2.424E+00   -2.452E+00   -2.480E+00   -2.508E+00   -2.536E+00   -2.564E+00   -2.592E+00   -2.621E+00   -2.649E+00
    -2.677E+00   -2.706E+00   -2.734E+00   -2.762E+00   -2.791E+00   -2.819E+00   -2.848E+00   -2.876E+00   -2.905E+00   -2.934E+00
    -2.962E+00   -2.991E+00   -3.020E+00   -3.048E+00   -3.077E+00   -3.106E+00   -3.135E+00   -3.164E+00   -3.193E+00   -3.222E+00
    -3.251E+00   -3.280E+00   -3.309E+00   -3.338E+00   -3.367E+00   -3.396E+00   -3.425E+00   -3.454E+00   -3.484E+00   -3.513E+00
    -3.542E+00   -3.572E+00   -3.601E+00   -3.630E+00   -3.660E+00   -3.689E+00   -3.719E+00   -3.748E+00   -3.778E+00   -3.807E+00
    -3.837E+00   -3.866E+00   -3.896E+00   -3.925E+00   -3.955E+00   -3.984E+00   -4.014E+00   -4.043E+00   -4.073E+00   -4.102E+00
    -4.131E+00   -4.161E+00   -4.190E+00   -4.219E+00   -4.248E+00   -4.277E+00   -4.306E+00   -4.335E+00   -4.364E+00   -4.393E+00
    -4.422E+00   -4.450E+00   -4.479E+00   -4.507E+00   -4.535E+00   -4.564E+00   -4.592E+00   -4.620E+00   -4.647E+00   -4.675E+00
    -4.703E+00   -4.730E+00   -4.757E+00   -4.784E+00   -4.811E+00   -4.838E+00   -4.865E+00   -4.891E+00   -4.917E+00   -4.943E+00
    -4.969E+00   -4.995E+00   -5.020E+00   -5.046E+00   -5.071E+00   -5.096E+00   -5.120E+00   -5.145E+00   -5.169E+00   -5.193E+00
    -5.217E+00   -5.241E+00   -5.264E+00   -5.288E+00   -5.311E+00   -5.334E+00   -5.356E+00   -5.379E+00   -5.401E+00   -5.423E+00
    -5.445E+00   -5.466E+00   -5.488E+00   -5.509E+00   -5.530E+00   -5.550E+00   -5.571E+00   -5.591E+00   -5.611E+00   -5.631E+00
    -5.650E+00   -5.670E+00   -5.689E+00   -5.708E+00   -5.726E+00   -5.745E+00   -5.763E+00   -5.781E+00   -5.798E+00   -5.816E+00
    -5.833E+00   -5.850E+00   -5.867E+00   -5.883E+00   -5.900E+00   -5.916E+00   -5.931E+00   -5.947E+00   -5.962E+00   -5.977E+00
    -5.992E+00   -6.006E+00   -6.021E+00   -6.034E+00   -6.048E+00   -6.061E+00   -6.075E+00   -6.087E+00   -6.100E+00   -6.112E+00
    -6.124E+00   -6.135E+00   -6.146E+00   -6.157E+00   -6.168E+00   -6.178E+00   -6.188E+00   -6.197E+00   -6.207E+00   -6.215E+00
    -6.224E+00   -6.232E+00   -6.240E+00   -6.247E+00   -6.254E+00   -6.261E+00   -6.267E+00   -6.273E+00   -6.278E+00   -6.283E+00
    -6.287E+00   -6.292E+00   -6.295E+00   -6.299E+00   -6.301E+00   -6.304E+00   -6.306E+00   -6.307E+00   -6.308E+00   -6.309E+00
    -6.309E+00   -6.309E+00   -6.308E+00   -6.307E+00   -6.305E+00   -6.303E+00   -6.300E+00   -6.297E+00   -6.294E+00   -6.290E+00
    -6.285E+00   -6.280E+00   -6.274E+00   -6.268E+00   -6.262E+00   -6.255E+00   -6.247E+00   -6.239E+00   -6.231E+00   -6.222E+00
    -6.213E+00   -6.203E+00   -6.192E+00   -6.181E+00   -6.170E+00   -6.158E+00   -6.146E+00   -6.133E+00   -6.119E+00   -6.106E+00
    -6.091E+00   -6.076E+00   -6.061E+00   -6.045E+00   -6.029E+00   -6.012E+00   -5.994E+00   -5.976E+00   -5.958E+00   -5.939E+00
    -5.920E+00   -5.900E+00   -5.879E+00   -5.858E+00   -5.837E+00   -5.815E+00   -5.792E+00   -5.769E+00   -5.746E+00   -5.722E+00
    -5.697E+00   -5.672E+00   -5.646E+00   -5.620E+00   -5.594E+00   -5.567E+00   -5.539E+00   -5.511E+00   -5.483E+00   -5.454E+00
    -5.424E+00   -5.394E+00   -5.364E+00   -5.333E+00   -5.302E+00   -5.270E+00   -5.238E+00   -5.205E+00   -5.172E+00   -5.138E+00
    -5.104E+00   -5.070E+00   -5.035E+00   -5.000E+00   -4.964E+00   -4.928E+00   -4.892E+00   -4.855E+00   -4.817E+00   -4.780E+00
    -4.741E+00   -4.703E+00   -4.664E+00   -4.625E+00   -4.585E+00   -4.545E+00   -4.504E+00   -4.463E+00   -4.422E+00   -4.381E+00
    -4.339E+00   -4.296E+00   -4.254E+00   -4.211E+00   -4.167E+00   -4.124E+00   -4.079E+00   -4.035E+00   -3.990E+00   -3.945E+00
    -3.900E+00   -3.854E+00   -3.808E+00   -3.762E+00   -3.715E+00   -3.668E+00   -3.621E+00   -3.573E+00   -3.526E+00   -3.478E+00
    -3.429E+00   -3.381E+00   -3.332E+00   -3.283E+00   -3.233E+00   -3.184E+00   -3.134E+00   -3.083E+00   -3.033E+00   -2.982E+00
    -2.932E+00   -2.880E+00   -2.829E+00   -2.778E+00   -2.726E+00   -2.674E+00   -2.622E+00   -2.570E+00   -2.517E+00   -2.464E+00
    -2.411E+00   -2.358E+00   -2.305E+00   -2.252E+00   -2.198E+00   -2.144E+00   -2.090E+00   -2.036E+00   -1.982E+00   -1.928E+00
    -1.873E+00   -1.819E+00   -1.764E+00   -1.709E+00   -1.654E+00   -1.599E+00   -1.544E+00   -1.488E+00   -1.433E+00   -1.377E+00
    -1.322E+00   -1.266E+00   -1.210E+00   -1.154E+00   -1.098E+00   -1.042E+00   -9.858E-01   -9.295E-01   -8.731E-01   -8.167E-01
    -7.602E-01   -7.037E-01   -6.471E-01   -5.904E-01   -5.337E-01   -4.769E-01   -4.201E-01   -3.633E-01   -3.064E-01   -2.495E-01
    -1.925E-01   -1.355E-01   -7.854E-02   -2.153E-02    3.549E-02    9.253E-02    1.496E-01    2.066E-01    2.637E-01    3.207E-01
     3.777E-01    4.348E-01    4.918E-01    5.488E-01    6.057E-01    6.627E-01    7.196E-01    7.766E-01    8.335E-01    8.903E-01
     9.472E-01    1.004E+00    1.061E+00    1.118E+00    1.175E+00    1.231E+00    1.288E+00    1.345E+00    1.402E+00    1.458E+00
     1.515E+00    1.572E+00    1.628E+00    1.685E+00    1.742E+00    1.798E+00    1.855E+00    1.912E+00    1.968E+00    2.025E+00
     2.081E+00    2.138E+00    2.194E+00    2.251E+00    2.307E+00    2.364E+00    2.420E+00    2.477E+00    2.533E+00    2.590E+00
     2.646E+00    2.703E+00    2.759E+00    2.815E+00    2.872E+00    2.928E+00    2.984E+00    3.041E+00
 Cr       Conc. = 6.43E+02
