 LCModel (Version 6.3-1L) Copyright: S.W. Provencher.          Ref.: Magn. Reson. Med. 30:672-679 (1993).                
 Slice#1 Row#4 Col#8  PD_24_press_1_raw_act
 36 lines in following concentration table = NCONC+1
    Conc.  %SD /Cr+PCr  Metabolite                                         
  164.025  69%   0.180 Ala                                                 
   40.558 417% 4.4E-02 Asp                                                 
  670.336  25%   0.735 Cr                                                  
  241.236  69%   0.265 PCr                                                 
   57.933 190% 6.4E-02 GABA                                                
  124.170  86%   0.136 Glc                                                 
  612.323  37%   0.672 Gln                                                 
 1.31E+03  20%   1.439 Glu                                                 
  468.592   4%   0.514 GPC                                                 
    0.000 999%   0.000 PCh                                                 
  302.159  22%   0.331 GSH                                                 
 1.65E+03  14%   1.808 Ins                                                 
  195.075  64%   0.214 Lac                                                 
 1.22E+03   7%   1.342 NAA                                                 
  226.044  42%   0.248 NAAG                                                
   87.129  25% 9.6E-02 Scyllo                                              
    0.000 999%   0.000 Tau                                                 
    0.000 999%   0.000 -CrCH2                                              
  468.592   4%   0.514 GPC+PCh                                             
 1.45E+03   5%   1.590 NAA+NAAG                                            
  911.571   5%   1.000 Cr+PCr                                              
 1.92E+03  20%   2.111 Glu+Gln                                             
 4.64E+03  13%   5.090 Lip13a                                              
    0.000 999%   0.000 Lip13b                                              
    0.000 999%   0.000 Lip09                                               
 1.34E+03  13%   1.472 MM09                                                
  408.132  75%   0.448 Lip20                                               
 2.52E+03  14%   2.766 MM20                                                
  404.485  37%   0.444 MM12                                                
 2.36E+03  19%   2.593 MM14                                                
 1.28E+03  20%   1.408 MM17                                                
 4.64E+03  13%   5.090 Lip13a+Lip13b                                       
 7.41E+03   6%   8.127 MM14+Lip13a+Lip13b+MM12                             
 1.34E+03  13%   1.472 MM09+Lip09                                          
 2.93E+03  11%   3.214 MM20+Lip20                                          
   6 lines in following misc. output table
  FWHM = 0.061 ppm    S/N =   8                                            
  Data shift =-0.031 ppm                                                   
  Ph: -29 deg      -3.4 deg/ppm                                            
  alphaB,S = 4.1E+00,   9.3E+01                                            
   14 spline knots.   Ns = 7(1)                                            
  (15) 4 infls.   (15) 1 extrs.                                            
  498 points on ppm-axis = NY
      4.000000     3.992357     3.984714     3.977070     3.969427     3.961784     3.954141     3.946497     3.938854     3.931211
      3.923568     3.915925     3.908281     3.900638     3.892995     3.885352     3.877708     3.870065     3.862422     3.854779
      3.847136     3.839492     3.831849     3.824206     3.816563     3.808919     3.801276     3.793633     3.785990     3.778347
      3.770703     3.763060     3.755417     3.747774     3.740130     3.732487     3.724844     3.717201     3.709558     3.701914
      3.694271     3.686628     3.678985     3.671341     3.663698     3.656055     3.648412     3.640769     3.633125     3.625482
      3.617839     3.610196     3.602552     3.594909     3.587266     3.579623     3.571980     3.564336     3.556693     3.549050
      3.541407     3.533763     3.526120     3.518477     3.510834     3.503191     3.495547     3.487904     3.480261     3.472618
      3.464974     3.457331     3.449688     3.442045     3.434402     3.426758     3.419115     3.411472     3.403829     3.396185
      3.388542     3.380899     3.373256     3.365613     3.357969     3.350326     3.342683     3.335040     3.327396     3.319753
      3.312110     3.304467     3.296824     3.289180     3.281537     3.273894     3.266251     3.258607     3.250964     3.243321
      3.235678     3.228034     3.220391     3.212748     3.205105     3.197462     3.189818     3.182175     3.174532     3.166889
      3.159245     3.151602     3.143959     3.136316     3.128673     3.121029     3.113386     3.105743     3.098100     3.090456
      3.082813     3.075170     3.067527     3.059884     3.052240     3.044597     3.036954     3.029311     3.021667     3.014024
      3.006381     2.998738     2.991095     2.983451     2.975808     2.968165     2.960522     2.952878     2.945235     2.937592
      2.929949     2.922306     2.914662     2.907019     2.899376     2.891733     2.884089     2.876446     2.868803     2.861160
      2.853517     2.845873     2.838230     2.830587     2.822944     2.815300     2.807657     2.800014     2.792371     2.784728
      2.777084     2.769441     2.761798     2.754155     2.746511     2.738868     2.731225     2.723582     2.715939     2.708295
      2.700652     2.693009     2.685366     2.677722     2.670079     2.662436     2.654793     2.647150     2.639506     2.631863
      2.624220     2.616577     2.608933     2.601290     2.593647     2.586004     2.578361     2.570717     2.563074     2.555431
      2.547788     2.540144     2.532501     2.524858     2.517215     2.509572     2.501928     2.494285     2.486642     2.478999
      2.471355     2.463712     2.456069     2.448426     2.440783     2.433139     2.425496     2.417853     2.410210     2.402566
      2.394923     2.387280     2.379637     2.371994     2.364350     2.356707     2.349064     2.341421     2.333777     2.326134
      2.318491     2.310848     2.303205     2.295561     2.287918     2.280275     2.272632     2.264988     2.257345     2.249702
      2.242059     2.234416     2.226772     2.219129     2.211486     2.203843     2.196199     2.188556     2.180913     2.173270
      2.165627     2.157983     2.150340     2.142697     2.135054     2.127410     2.119767     2.112124     2.104481     2.096838
      2.089194     2.081551     2.073908     2.066265     2.058621     2.050978     2.043335     2.035692     2.028049     2.020405
      2.012762     2.005119     1.997476     1.989833     1.982190     1.974546     1.966903     1.959260     1.951617     1.943974
      1.936331     1.928688     1.921045     1.913402     1.905759     1.898115     1.890472     1.882829     1.875186     1.867543
      1.859900     1.852257     1.844614     1.836971     1.829327     1.821684     1.814041     1.806398     1.798755     1.791112
      1.783469     1.775826     1.768183     1.760540     1.752896     1.745253     1.737610     1.729967     1.722324     1.714681
      1.707038     1.699395     1.691752     1.684108     1.676465     1.668822     1.661179     1.653536     1.645893     1.638250
      1.630607     1.622964     1.615321     1.607677     1.600034     1.592391     1.584748     1.577105     1.569462     1.561819
      1.554176     1.546533     1.538890     1.531246     1.523603     1.515960     1.508317     1.500674     1.493031     1.485388
      1.477745     1.470102     1.462458     1.454815     1.447172     1.439529     1.431886     1.424243     1.416600     1.408957
      1.401314     1.393671     1.386027     1.378384     1.370741     1.363098     1.355455     1.347812     1.340169     1.332526
      1.324883     1.317240     1.309596     1.301953     1.294310     1.286667     1.279024     1.271381     1.263738     1.256095
      1.248452     1.240808     1.233165     1.225522     1.217879     1.210236     1.202593     1.194950     1.187307     1.179664
      1.172021     1.164377     1.156734     1.149091     1.141448     1.133805     1.126162     1.118519     1.110876     1.103233
      1.095590     1.087946     1.080303     1.072660     1.065017     1.057374     1.049731     1.042088     1.034445     1.026802
      1.019158     1.011515     1.003872     0.996229     0.988586     0.980943     0.973300     0.965657     0.958014     0.950371
      0.942727     0.935084     0.927441     0.919798     0.912155     0.904512     0.896869     0.889226     0.881583     0.873940
      0.866296     0.858653     0.851010     0.843367     0.835724     0.828081     0.820438     0.812795     0.805152     0.797508
      0.789865     0.782222     0.774579     0.766936     0.759293     0.751650     0.744007     0.736364     0.728721     0.721077
      0.713434     0.705791     0.698148     0.690505     0.682862     0.675219     0.667576     0.659933     0.652290     0.644646
      0.637003     0.629360     0.621717     0.614074     0.606431     0.598788     0.591145     0.583502     0.575858     0.568215
      0.560572     0.552929     0.545286     0.537643     0.530000     0.522357     0.514714     0.507071     0.499427     0.491784
      0.484141     0.476498     0.468855     0.461212     0.453569     0.445925     0.438282     0.430639     0.422996     0.415353
      0.407710     0.400067     0.392424     0.384780     0.377137     0.369494     0.361851     0.354208     0.346565     0.338922
      0.331278     0.323635     0.315992     0.308349     0.300706     0.293063     0.285420     0.277777     0.270133     0.262490
      0.254847     0.247204     0.239561     0.231918     0.224275     0.216631     0.208988     0.201345
 NY phased data points follow
   1.40129E+01  1.24188E+01  1.78083E+01  1.17450E+01  1.66270E+01  1.57538E+01  1.66031E+01  2.46259E+01  2.45655E+01  2.61675E+01
   3.14229E+01  2.95643E+01  3.26147E+01  2.61752E+01  2.38658E+01  1.95730E+01  1.87804E+01  1.88716E+01  1.69925E+01  1.64314E+01
   1.86111E+01  1.57619E+01  1.55491E+01  1.69406E+01  9.43554E+00  1.06540E+01  1.11326E+01  1.19055E+01  1.77329E+01  1.31465E+01
   1.75732E+01  1.60983E+01  2.01440E+01  1.93200E+01  1.89371E+01  1.58286E+01  1.16813E+01  1.47874E+01  1.60167E+01  1.02808E+01
   1.24438E+01  1.58103E+01  1.30486E+01  1.59059E+01  2.13932E+01  1.82906E+01  2.01845E+01  1.77410E+01  1.69701E+01  1.85485E+01
   1.71208E+01  1.44856E+01  1.51990E+01  1.27080E+01  1.08878E+01  1.34550E+01  1.75885E+01  1.04556E+01  1.26246E+01  1.28915E+01
   1.00023E+01  8.16305E+00  9.76898E+00  1.08729E+01  8.23105E+00  7.23374E+00  7.61557E+00  5.39629E+00  1.80569E+00  5.12931E+00
   6.70000E+00  8.28614E+00  1.15737E+01  1.09652E+01  8.73491E+00  9.59899E+00  9.96343E+00  8.63643E+00  8.23582E+00  6.23368E+00
   9.22858E+00  5.54161E+00  6.27605E+00  1.01478E+01  7.87294E+00  6.15937E+00  1.04859E+01  8.30835E+00  4.68110E+00  7.10242E+00
   7.21480E+00  7.09373E+00  7.14979E+00  9.99415E+00  1.12771E+01  7.24175E+00  1.06039E+01  4.38131E+00  4.68878E+00  1.08609E+01
   3.17090E+01  3.81098E+01  4.55657E+01  4.24466E+01  4.53303E+01  3.46868E+01  2.94046E+01  2.30202E+01  2.48686E+01  1.88267E+01
   1.47774E+01  1.02365E+01  1.63692E+01  1.01815E+01  8.28638E+00  6.37715E+00  4.83360E+00  5.67283E+00  8.14497E+00 -5.14192E-01
   3.58649E+00  1.41598E+00  8.60646E+00  1.21782E+01  2.38028E+01  2.82245E+01  3.19638E+01  3.21990E+01  2.54533E+01  2.91788E+01
   2.59182E+01  2.02712E+01  1.26446E+01  1.37862E+01  1.45017E+01  1.47498E+01  9.66184E+00  9.84070E+00  1.15284E+01  4.17908E+00
   3.84755E+00  6.63332E+00  4.39410E+00  7.43339E+00  3.74460E+00  3.25423E+00  2.23115E+00  2.33465E+00  2.46079E+00  5.79187E+00
  -1.23143E+00  1.48537E+00 -4.53345E+00  1.94485E+00  4.71236E+00 -1.05389E-01  1.88521E+00  2.42013E+00  2.49267E+00  1.58537E+00
   1.89216E-01 -7.33293E-02  3.16098E+00  3.33351E+00  2.04900E+00  5.66233E+00 -1.62681E+00 -2.79394E+00  3.71297E-01  6.07152E-01
  -4.44422E+00 -8.50975E+00 -5.70716E+00 -6.54370E+00 -5.35397E+00 -7.46840E+00 -5.10303E+00 -5.51607E+00 -6.18422E+00 -4.19641E+00
  -1.73396E+00 -3.84706E+00 -7.26995E+00 -2.63753E+00 -2.76050E+00 -2.23595E+00 -2.78229E+00 -5.59069E+00 -1.56128E+00 -1.15032E+00
  -2.74081E+00  3.12734E-01 -7.07644E-01 -1.99969E+00 -4.27265E+00 -5.05335E+00 -4.45009E+00  1.10466E+00 -2.34823E+00 -4.71571E+00
  -4.98963E+00 -3.04221E+00  4.41520E-01 -1.50970E-01  3.12867E+00  2.88058E+00  2.37087E+00 -2.40828E-01  8.95418E-01 -3.23636E+00
   3.27719E+00  6.02073E-01  5.42997E-01  5.04569E+00  6.20938E+00  1.39136E+01  6.64407E+00  5.46014E-01  6.77158E+00 -1.82657E+00
  -1.93964E-01 -1.03483E+00  1.11938E+00 -2.46205E-01  4.93997E+00  4.59634E+00  3.85101E+00  2.68456E+00  9.42464E+00  6.50413E+00
   8.11921E+00  6.27284E+00  5.31678E+00  7.78250E+00  6.54888E+00  2.58423E+00  7.90680E+00  9.60204E+00  5.05713E+00  2.73923E+00
   9.02030E+00  4.04658E+00  4.29072E+00  3.46486E+00  7.73846E+00  5.47062E+00  8.34438E+00  1.10653E+01  1.23591E+01  1.25737E+01
   1.20049E+01  1.45118E+01  1.50103E+01  1.70544E+01  1.80561E+01  2.41244E+01  3.41917E+01  3.51923E+01  4.34588E+01  4.76667E+01
   5.24623E+01  4.57281E+01  4.00722E+01  3.67038E+01  2.71450E+01  1.71773E+01  2.41664E+01  1.69720E+01  1.02422E+01  6.66543E+00
   9.61122E-01  3.77484E+00  3.32697E+00  5.41344E-01  4.04451E+00  1.94123E+00  8.29534E+00  5.34405E-01  2.97631E+00  1.83366E+00
   3.70731E-01  5.00537E+00  3.25905E+00 -2.87507E+00  1.29948E-01 -1.69704E-01  8.15816E-02  3.50797E-01  2.32210E+00  1.10916E+00
   5.55318E+00  1.31696E+00  1.39081E-02 -2.56200E+00  5.47370E+00  4.63877E-01  6.13263E+00  6.24773E-01  3.37032E+00  2.47658E+00
   1.31761E+00  6.03309E+00  7.46926E+00  7.79626E+00  5.92742E+00  1.10381E+01  8.15852E+00  5.84582E+00  1.17524E+01  8.80345E+00
   7.04172E+00  5.75467E+00  9.59862E+00  7.05965E+00  1.18837E+01  7.70761E+00  1.25533E+01  8.01644E+00  1.27290E+01  9.08152E+00
   9.21703E+00  9.97206E+00  1.01905E+01  5.89279E+00  1.36647E+01  1.47003E+01  8.12321E+00  6.31736E+00  1.49691E+01  9.30431E+00
   8.27260E+00  1.35142E+01  1.78893E+01  1.31045E+01  1.64322E+01  1.75365E+01  1.15126E+01  2.09001E+01  1.92144E+01  1.99312E+01
   1.64818E+01  1.81157E+01  2.30987E+01  2.63320E+01  2.21630E+01  2.15010E+01  2.92684E+01  2.36142E+01  2.38915E+01  2.40542E+01
   2.37725E+01  2.60635E+01  2.57458E+01  2.48767E+01  2.47134E+01  2.56459E+01  2.75471E+01  2.41203E+01  2.40114E+01  2.40283E+01
   2.29048E+01  2.01357E+01  2.55055E+01  1.93568E+01  2.02542E+01  1.80574E+01  1.75620E+01  1.40896E+01  1.12960E+01  7.99560E+00
   9.22897E+00  7.83339E+00  4.88378E+00  6.00243E+00  4.01077E+00  4.17176E-01  3.24843E+00 -6.11702E-01  4.11046E+00  1.38560E+00
  -1.00654E+00  3.36623E+00 -7.13567E-01 -3.29677E+00  5.20148E+00 -3.49669E+00  3.18201E+00  2.05452E+00  4.81807E+00  5.92131E+00
   7.01390E+00  6.62824E+00  4.59127E+00 -2.73812E+00  1.33453E+00  3.78435E+00  2.25103E+00 -2.05849E-01  3.40719E+00  2.88389E+00
   1.61889E+00  5.17798E+00  4.05578E+00  1.13435E+00  8.22711E+00  8.03883E+00  6.32980E+00  4.12986E+00  1.55046E+00  3.22151E+00
   1.70246E+00  1.35340E+00  5.17745E+00  2.80155E+00  1.02275E+00 -3.62635E+00  3.06810E+00  2.48686E+00 -2.03602E-01 -2.36049E+00
   7.44744E-01 -2.15400E+00 -5.42873E+00 -7.20970E+00 -7.99500E-01 -4.78096E+00 -6.18014E+00 -2.72459E+00 -6.78785E+00 -5.07526E+00
   8.67724E-01 -8.15300E+00 -3.24714E+00 -4.64183E+00 -5.35242E+00 -6.97863E+00 -5.66638E+00 -4.48040E+00 -4.28992E+00 -6.14378E+00
  -6.22746E+00 -4.73318E+00 -5.63723E+00 -6.56964E+00 -7.66008E+00 -5.94815E+00 -5.69874E+00 -9.94993E+00 -1.96987E+00 -6.46818E+00
  -3.99334E+00 -5.93798E+00 -5.06410E+00 -7.15024E+00 -1.05795E+01 -5.37061E+00 -7.61888E+00 -5.88642E+00 -2.50837E+00 -5.32408E+00
  -2.75133E+00 -3.90344E+00 -1.00487E+00 -5.16444E+00 -2.33344E+00 -6.12835E+00 -6.37770E+00 -1.02531E+01 -7.14838E+00 -6.11726E+00
  -7.00012E+00 -7.09440E+00 -2.77431E+00 -3.30859E+00 -2.27849E+00 -6.32891E+00 -4.59688E+00 -7.31320E+00 -5.75863E+00 -2.36294E+00
  -4.86337E+00 -8.15649E+00 -7.12107E+00 -1.09605E+01 -6.84890E+00 -5.40758E+00 -5.93732E+00 -3.21066E+00  4.55898E-01 -6.53860E+00
  -4.12926E+00 -2.82243E+00 -5.92994E+00 -4.29223E+00 -3.01255E+00 -6.05370E+00 -2.40255E+00 -7.83808E+00
 NY points of the fit to the data follow
   1.28746E+01  1.22308E+01  1.21110E+01  1.23606E+01  1.31975E+01  1.48306E+01  1.73177E+01  2.06403E+01  2.42815E+01  2.73353E+01
   2.91043E+01  2.93558E+01  2.82575E+01  2.63029E+01  2.40699E+01  2.18894E+01  1.99330E+01  1.83043E+01  1.69877E+01  1.55178E+01
   1.38649E+01  1.30086E+01  1.26003E+01  1.19966E+01  1.12851E+01  1.09826E+01  1.14899E+01  1.28632E+01  1.48370E+01  1.69314E+01
   1.85634E+01  1.92967E+01  1.90077E+01  1.78301E+01  1.62740E+01  1.49204E+01  1.39092E+01  1.29103E+01  1.18760E+01  1.12097E+01
   1.09873E+01  1.12974E+01  1.27150E+01  1.51725E+01  1.78988E+01  1.99496E+01  2.08404E+01  2.04037E+01  1.87960E+01  1.67498E+01
   1.48001E+01  1.32084E+01  1.21876E+01  1.16290E+01  1.10319E+01  1.03767E+01  1.03591E+01  1.10773E+01  1.18034E+01  1.19702E+01
   1.15929E+01  1.08390E+01  9.94793E+00  9.16466E+00  8.69497E+00  8.61741E+00  8.76829E+00  8.95832E+00  9.19527E+00  9.45387E+00
   9.69985E+00  9.90459E+00  9.99144E+00  9.95592E+00  9.79803E+00  9.53746E+00  9.26466E+00  8.99687E+00  8.72529E+00  8.39082E+00
   8.12563E+00  8.17997E+00  8.48143E+00  8.74093E+00  8.68796E+00  8.25981E+00  7.55259E+00  6.75486E+00  6.10574E+00  5.76491E+00
   5.75967E+00  6.01071E+00  6.28393E+00  6.26783E+00  5.86447E+00  5.40357E+00  5.40679E+00  6.45385E+00  1.02810E+01  1.78792E+01
   2.77390E+01  3.69303E+01  4.30258E+01  4.48322E+01  4.25373E+01  3.76153E+01  3.18194E+01  2.64942E+01  2.25885E+01  1.99084E+01
   1.68432E+01  1.20772E+01  7.18200E+00  5.24419E+00  4.78792E+00  4.62391E+00  4.54536E+00  4.52055E+00  4.55179E+00  4.68745E+00
   5.09524E+00  6.37165E+00  9.58104E+00  1.50787E+01  2.17284E+01  2.76763E+01  3.14740E+01  3.25021E+01  3.10325E+01  2.79727E+01
   2.43421E+01  2.08970E+01  1.80721E+01  1.56261E+01  1.26890E+01  8.87133E+00  5.54688E+00  4.30911E+00  4.23208E+00  4.44350E+00
   4.62327E+00  4.62588E+00  4.49711E+00  4.38465E+00  4.30132E+00  4.20942E+00  4.09713E+00  3.91706E+00  3.64434E+00  3.31678E+00
   2.95142E+00  2.65137E+00  2.43320E+00  2.29593E+00  2.22694E+00  2.16163E+00  2.00060E+00  1.70687E+00  1.35052E+00  1.05086E+00
   9.02221E-01  9.11866E-01  9.93404E-01  1.02151E+00  9.04839E-01  6.32610E-01  2.66447E-01 -7.91233E-02 -2.93868E-01 -3.81749E-01
  -5.02551E-01 -7.99829E-01 -1.24231E+00 -1.67813E+00 -1.91151E+00 -1.94846E+00 -1.93309E+00 -1.93681E+00 -1.97603E+00 -2.03873E+00
  -2.10098E+00 -2.16613E+00 -2.22109E+00 -2.17849E+00 -1.96577E+00 -1.59944E+00 -1.09272E+00 -3.62298E-01  5.01764E-01  1.28202E+00
   1.72376E+00  1.71212E+00  1.33371E+00  7.77143E-01  2.50335E-01 -9.19829E-02 -1.83771E-01  3.17123E-02  6.10101E-01  1.46620E+00
   2.48305E+00  3.48684E+00  4.20136E+00  4.34931E+00  3.78828E+00  2.51910E+00  8.08866E-01 -9.50255E-01 -2.30249E+00 -2.84070E+00
  -2.27798E+00 -6.02648E-01  1.67614E+00  3.85246E+00  5.35215E+00  5.85041E+00  5.22784E+00  3.66929E+00  1.61413E+00 -5.45066E-01
  -2.06166E+00 -2.38378E+00 -1.78602E+00 -7.46240E-01  4.59692E-01  1.87971E+00  3.12384E+00  3.80099E+00  4.11113E+00  4.48392E+00
   5.07187E+00  5.54937E+00  5.73979E+00  5.95436E+00  6.40865E+00  6.89767E+00  7.28661E+00  7.44789E+00  7.32975E+00  7.05587E+00
   6.75251E+00  6.51775E+00  6.55612E+00  6.99155E+00  7.66593E+00  8.20159E+00  8.52796E+00  8.81809E+00  9.16181E+00  9.72103E+00
   1.09065E+01  1.29080E+01  1.51601E+01  1.72718E+01  1.96785E+01  2.38868E+01  3.05553E+01  3.84259E+01  4.52505E+01  4.91839E+01
   4.93869E+01  4.61188E+01  4.04946E+01  3.38620E+01  2.76319E+01  2.32021E+01  2.01024E+01  1.64686E+01  1.12995E+01  6.56590E+00
   4.71352E+00  4.03909E+00  3.63906E+00  3.37616E+00  3.14391E+00  2.84016E+00  2.50895E+00  2.17697E+00  1.87126E+00  1.60966E+00
   1.39233E+00  1.18785E+00  9.94341E-01  8.39731E-01  7.32801E-01  6.63985E-01  6.26058E-01  6.29066E-01  6.88358E-01  8.02731E-01
   9.55575E-01  1.14779E+00  1.38328E+00  1.65840E+00  1.96848E+00  2.31917E+00  2.71369E+00  3.15106E+00  3.62761E+00  4.13407E+00
   4.65687E+00  5.18857E+00  5.71847E+00  6.23120E+00  6.71377E+00  7.15681E+00  7.55337E+00  7.89611E+00  8.17668E+00  8.39422E+00
   8.55147E+00  8.65333E+00  8.70899E+00  8.73025E+00  8.73040E+00  8.72464E+00  8.72938E+00  8.76203E+00  8.84157E+00  8.99081E+00
   9.24574E+00  9.65965E+00  1.02110E+01  1.07511E+01  1.11129E+01  1.12291E+01  1.11339E+01  1.09171E+01  1.06887E+01  1.05985E+01
   1.08282E+01  1.14811E+01  1.24771E+01  1.36003E+01  1.46700E+01  1.56653E+01  1.66699E+01  1.75777E+01  1.83392E+01  1.90664E+01
   1.98884E+01  2.08803E+01  2.19628E+01  2.28980E+01  2.36017E+01  2.40605E+01  2.42170E+01  2.41215E+01  2.38860E+01  2.36955E+01
   2.37750E+01  2.42410E+01  2.49989E+01  2.57770E+01  2.63002E+01  2.64735E+01  2.64179E+01  2.61379E+01  2.54907E+01  2.45715E+01
   2.35144E+01  2.23588E+01  2.10129E+01  1.93885E+01  1.76777E+01  1.60611E+01  1.45073E+01  1.30081E+01  1.15722E+01  1.02114E+01
   8.93592E+00  7.75415E+00  6.67159E+00  5.69121E+00  4.81367E+00  4.03772E+00  3.36065E+00  2.77873E+00  2.28761E+00  1.88267E+00
   1.55921E+00  1.31271E+00  1.13885E+00  1.03363E+00  9.93301E-01  1.01427E+00  1.09294E+00  1.22552E+00  1.40788E+00  1.63535E+00
   1.90256E+00  2.20326E+00  2.53026E+00  2.87536E+00  3.22944E+00  3.58260E+00  3.92439E+00  4.24405E+00  4.53088E+00  4.77468E+00
   4.96612E+00  5.09724E+00  5.16175E+00  5.15531E+00  5.07579E+00  4.92330E+00  4.70026E+00  4.41122E+00  4.06255E+00  3.66218E+00
   3.21912E+00  2.74308E+00  2.24404E+00  1.73179E+00  1.21558E+00  7.03789E-01  2.03716E-01 -2.78540E-01 -7.38149E-01 -1.17155E+00
  -1.57642E+00 -1.95150E+00 -2.29651E+00 -2.61189E+00 -2.89871E+00 -3.15850E+00 -3.39311E+00 -3.60457E+00 -3.79496E+00 -3.96635E+00
  -4.12072E+00 -4.25996E+00 -4.38582E+00 -4.49990E+00 -4.60361E+00 -4.69820E+00 -4.78478E+00 -4.86431E+00 -4.93767E+00 -5.00559E+00
  -5.06870E+00 -5.12753E+00 -5.18257E+00 -5.23424E+00 -5.28291E+00 -5.32889E+00 -5.37244E+00 -5.41379E+00 -5.45316E+00 -5.49074E+00
  -5.52670E+00 -5.56118E+00 -5.59428E+00 -5.62612E+00 -5.65681E+00 -5.68645E+00 -5.71512E+00 -5.74288E+00 -5.76980E+00 -5.79594E+00
  -5.82135E+00 -5.84611E+00 -5.87024E+00 -5.89377E+00 -5.91674E+00 -5.93919E+00 -5.96117E+00 -5.98271E+00 -6.00382E+00 -6.02451E+00
  -6.04482E+00 -6.06476E+00 -6.08438E+00 -6.10367E+00 -6.12265E+00 -6.14133E+00 -6.15972E+00 -6.17786E+00 -6.19576E+00 -6.21341E+00
  -6.23083E+00 -6.24801E+00 -6.26498E+00 -6.28176E+00 -6.29834E+00 -6.31473E+00 -6.33092E+00 -6.34692E+00 -6.36275E+00 -6.37842E+00
  -6.39391E+00 -6.40922E+00 -6.42435E+00 -6.43931E+00 -6.45410E+00 -6.46872E+00 -6.48315E+00 -6.49738E+00
 NY background values follow
     8.103E+00    8.053E+00    8.004E+00    7.955E+00    7.906E+00    7.856E+00    7.807E+00    7.758E+00    7.708E+00    7.659E+00
     7.610E+00    7.560E+00    7.511E+00    7.462E+00    7.413E+00    7.363E+00    7.314E+00    7.265E+00    7.215E+00    7.166E+00
     7.117E+00    7.068E+00    7.018E+00    6.969E+00    6.920E+00    6.871E+00    6.821E+00    6.772E+00    6.723E+00    6.674E+00
     6.625E+00    6.576E+00    6.527E+00    6.477E+00    6.428E+00    6.379E+00    6.330E+00    6.281E+00    6.232E+00    6.183E+00
     6.134E+00    6.085E+00    6.036E+00    5.987E+00    5.939E+00    5.890E+00    5.841E+00    5.792E+00    5.743E+00    5.694E+00
     5.646E+00    5.597E+00    5.548E+00    5.500E+00    5.451E+00    5.403E+00    5.354E+00    5.306E+00    5.257E+00    5.209E+00
     5.160E+00    5.112E+00    5.064E+00    5.015E+00    4.967E+00    4.919E+00    4.871E+00    4.823E+00    4.775E+00    4.727E+00
     4.679E+00    4.631E+00    4.583E+00    4.535E+00    4.487E+00    4.440E+00    4.392E+00    4.344E+00    4.297E+00    4.249E+00
     4.202E+00    4.154E+00    4.107E+00    4.060E+00    4.013E+00    3.966E+00    3.919E+00    3.872E+00    3.825E+00    3.778E+00
     3.731E+00    3.684E+00    3.638E+00    3.591E+00    3.544E+00    3.498E+00    3.452E+00    3.405E+00    3.359E+00    3.313E+00
     3.267E+00    3.221E+00    3.175E+00    3.129E+00    3.084E+00    3.038E+00    2.992E+00    2.947E+00    2.901E+00    2.856E+00
     2.811E+00    2.766E+00    2.721E+00    2.676E+00    2.631E+00    2.586E+00    2.541E+00    2.497E+00    2.452E+00    2.408E+00
     2.363E+00    2.319E+00    2.275E+00    2.231E+00    2.187E+00    2.143E+00    2.100E+00    2.056E+00    2.012E+00    1.969E+00
     1.926E+00    1.883E+00    1.839E+00    1.796E+00    1.754E+00    1.711E+00    1.668E+00    1.626E+00    1.583E+00    1.541E+00
     1.499E+00    1.457E+00    1.415E+00    1.373E+00    1.331E+00    1.290E+00    1.248E+00    1.207E+00    1.166E+00    1.124E+00
     1.083E+00    1.043E+00    1.002E+00    9.614E-01    9.209E-01    8.806E-01    8.404E-01    8.004E-01    7.605E-01    7.208E-01
     6.812E-01    6.417E-01    6.024E-01    5.632E-01    5.241E-01    4.853E-01    4.465E-01    4.079E-01    3.695E-01    3.312E-01
     2.931E-01    2.551E-01    2.172E-01    1.796E-01    1.421E-01    1.047E-01    6.752E-02    3.049E-02   -6.379E-03   -4.308E-02
    -7.962E-02   -1.160E-01   -1.522E-01   -1.882E-01   -2.241E-01   -2.598E-01   -2.954E-01   -3.307E-01   -3.660E-01   -4.010E-01
    -4.359E-01   -4.707E-01   -5.052E-01   -5.397E-01   -5.739E-01   -6.080E-01   -6.420E-01   -6.758E-01   -7.094E-01   -7.429E-01
    -7.763E-01   -8.095E-01   -8.425E-01   -8.754E-01   -9.082E-01   -9.408E-01   -9.732E-01   -1.006E+00   -1.038E+00   -1.070E+00
    -1.102E+00   -1.133E+00   -1.165E+00   -1.196E+00   -1.228E+00   -1.259E+00   -1.290E+00   -1.321E+00   -1.352E+00   -1.382E+00
    -1.413E+00   -1.443E+00   -1.473E+00   -1.504E+00   -1.534E+00   -1.563E+00   -1.593E+00   -1.623E+00   -1.652E+00   -1.682E+00
    -1.711E+00   -1.740E+00   -1.769E+00   -1.798E+00   -1.826E+00   -1.855E+00   -1.884E+00   -1.912E+00   -1.940E+00   -1.968E+00
    -1.996E+00   -2.024E+00   -2.052E+00   -2.080E+00   -2.107E+00   -2.135E+00   -2.162E+00   -2.189E+00   -2.216E+00   -2.243E+00
    -2.270E+00   -2.297E+00   -2.323E+00   -2.350E+00   -2.376E+00   -2.402E+00   -2.429E+00   -2.455E+00   -2.481E+00   -2.506E+00
    -2.532E+00   -2.558E+00   -2.583E+00   -2.609E+00   -2.634E+00   -2.659E+00   -2.684E+00   -2.709E+00   -2.734E+00   -2.759E+00
    -2.784E+00   -2.808E+00   -2.833E+00   -2.857E+00   -2.881E+00   -2.905E+00   -2.929E+00   -2.953E+00   -2.977E+00   -3.001E+00
    -3.025E+00   -3.048E+00   -3.072E+00   -3.095E+00   -3.118E+00   -3.142E+00   -3.165E+00   -3.188E+00   -3.211E+00   -3.234E+00
    -3.256E+00   -3.279E+00   -3.301E+00   -3.324E+00   -3.346E+00   -3.369E+00   -3.391E+00   -3.413E+00   -3.435E+00   -3.457E+00
    -3.479E+00   -3.500E+00   -3.522E+00   -3.544E+00   -3.565E+00   -3.587E+00   -3.608E+00   -3.629E+00   -3.650E+00   -3.671E+00
    -3.692E+00   -3.713E+00   -3.734E+00   -3.755E+00   -3.776E+00   -3.796E+00   -3.817E+00   -3.837E+00   -3.858E+00   -3.878E+00
    -3.898E+00   -3.918E+00   -3.938E+00   -3.958E+00   -3.978E+00   -3.998E+00   -4.018E+00   -4.038E+00   -4.057E+00   -4.077E+00
    -4.096E+00   -4.116E+00   -4.135E+00   -4.154E+00   -4.173E+00   -4.193E+00   -4.212E+00   -4.231E+00   -4.249E+00   -4.268E+00
    -4.287E+00   -4.306E+00   -4.324E+00   -4.343E+00   -4.361E+00   -4.380E+00   -4.398E+00   -4.416E+00   -4.435E+00   -4.453E+00
    -4.471E+00   -4.489E+00   -4.507E+00   -4.525E+00   -4.542E+00   -4.560E+00   -4.578E+00   -4.595E+00   -4.613E+00   -4.630E+00
    -4.648E+00   -4.665E+00   -4.682E+00   -4.700E+00   -4.717E+00   -4.734E+00   -4.751E+00   -4.768E+00   -4.785E+00   -4.802E+00
    -4.818E+00   -4.835E+00   -4.852E+00   -4.868E+00   -4.885E+00   -4.901E+00   -4.918E+00   -4.934E+00   -4.950E+00   -4.966E+00
    -4.983E+00   -4.999E+00   -5.015E+00   -5.031E+00   -5.046E+00   -5.062E+00   -5.078E+00   -5.094E+00   -5.110E+00   -5.125E+00
    -5.141E+00   -5.156E+00   -5.172E+00   -5.187E+00   -5.202E+00   -5.218E+00   -5.233E+00   -5.248E+00   -5.263E+00   -5.278E+00
    -5.293E+00   -5.308E+00   -5.323E+00   -5.338E+00   -5.352E+00   -5.367E+00   -5.382E+00   -5.396E+00   -5.411E+00   -5.425E+00
    -5.440E+00   -5.454E+00   -5.468E+00   -5.483E+00   -5.497E+00   -5.511E+00   -5.525E+00   -5.539E+00   -5.553E+00   -5.567E+00
    -5.581E+00   -5.595E+00   -5.609E+00   -5.623E+00   -5.636E+00   -5.650E+00   -5.664E+00   -5.677E+00   -5.691E+00   -5.704E+00
    -5.718E+00   -5.731E+00   -5.745E+00   -5.758E+00   -5.771E+00   -5.784E+00   -5.798E+00   -5.811E+00   -5.824E+00   -5.837E+00
    -5.850E+00   -5.863E+00   -5.876E+00   -5.889E+00   -5.902E+00   -5.915E+00   -5.928E+00   -5.941E+00   -5.954E+00   -5.967E+00
    -5.980E+00   -5.992E+00   -6.005E+00   -6.018E+00   -6.030E+00   -6.043E+00   -6.056E+00   -6.068E+00   -6.081E+00   -6.093E+00
    -6.106E+00   -6.118E+00   -6.131E+00   -6.143E+00   -6.156E+00   -6.168E+00   -6.181E+00   -6.193E+00   -6.205E+00   -6.218E+00
    -6.230E+00   -6.242E+00   -6.255E+00   -6.267E+00   -6.279E+00   -6.292E+00   -6.304E+00   -6.316E+00   -6.328E+00   -6.341E+00
    -6.353E+00   -6.365E+00   -6.377E+00   -6.389E+00   -6.402E+00   -6.414E+00   -6.426E+00   -6.438E+00   -6.450E+00   -6.463E+00
    -6.475E+00   -6.487E+00   -6.499E+00   -6.511E+00   -6.524E+00   -6.536E+00   -6.548E+00   -6.560E+00
 Ala      Conc. = 1.64E+02
