 LCModel (Version 6.3-1L) Copyright: S.W. Provencher.          Ref.: Magn. Reson. Med. 30:672-679 (1993).                
 Slice#1 Row#12 Col#7  PD_24_press_1_raw_act
 36 lines in following concentration table = NCONC+1
    Conc.  %SD /Cr+PCr  Metabolite                                         
    0.000 999%   0.000 Ala                                                 
   81.519 217% 8.7E-02 Asp                                                 
  937.768   5%   1.000 Cr                                                  
    0.000 999%   0.000 PCr                                                 
   19.854 600% 2.1E-02 GABA                                                
   57.838 197% 6.2E-02 Glc                                                 
 1.08E+03  33%   1.156 Gln                                                 
 1.54E+03  26%   1.642 Glu                                                 
  307.179   7%   0.328 GPC                                                 
    0.000 999%   0.000 PCh                                                 
  282.554  28%   0.301 GSH                                                 
 1.65E+03  15%   1.761 Ins                                                 
  287.905  68%   0.307 Lac                                                 
 1.57E+03   9%   1.671 NAA                                                 
   85.170 186% 9.1E-02 NAAG                                                
   90.537  26% 9.7E-02 Scyllo                                              
   50.835 316% 5.4E-02 Tau                                                 
    0.000 999%   0.000 -CrCH2                                              
  307.179   7%   0.328 GPC+PCh                                             
 1.65E+03   5%   1.762 NAA+NAAG                                            
  937.768   5%   1.000 Cr+PCr                                              
 2.62E+03  25%   2.798 Glu+Gln                                             
 1.06E+03  96%   1.130 Lip13a                                              
  462.944 164%   0.494 Lip13b                                              
  287.563  86%   0.307 Lip09                                               
 1.39E+03  19%   1.480 MM09                                                
  219.200  74%   0.234 Lip20                                               
 2.63E+03  13%   2.800 MM20                                                
  347.180  59%   0.370 MM12                                                
 1.85E+03  22%   1.968 MM14                                                
  936.171  23%   0.998 MM17                                                
 1.52E+03  32%   1.624 Lip13a+Lip13b                                       
 3.72E+03   9%   3.962 MM14+Lip13a+Lip13b+MM12                             
 1.68E+03   9%   1.786 MM09+Lip09                                          
 2.84E+03  11%   3.033 MM20+Lip20                                          
   6 lines in following misc. output table
  FWHM = 0.076 ppm    S/N =   8                                            
  Data shift =-0.015 ppm                                                   
  Ph: -27 deg       5.9 deg/ppm                                            
  alphaB,S = 8.5E+01,   4.1E+02                                            
   14 spline knots.   Ns = 9(1)                                            
   2 inflections.     1 extrema                                            
  498 points on ppm-axis = NY
      4.000000     3.992357     3.984714     3.977070     3.969427     3.961784     3.954141     3.946497     3.938854     3.931211
      3.923568     3.915925     3.908281     3.900638     3.892995     3.885352     3.877708     3.870065     3.862422     3.854779
      3.847136     3.839492     3.831849     3.824206     3.816563     3.808919     3.801276     3.793633     3.785990     3.778347
      3.770703     3.763060     3.755417     3.747774     3.740130     3.732487     3.724844     3.717201     3.709558     3.701914
      3.694271     3.686628     3.678985     3.671341     3.663698     3.656055     3.648412     3.640769     3.633125     3.625482
      3.617839     3.610196     3.602552     3.594909     3.587266     3.579623     3.571980     3.564336     3.556693     3.549050
      3.541407     3.533763     3.526120     3.518477     3.510834     3.503191     3.495547     3.487904     3.480261     3.472618
      3.464974     3.457331     3.449688     3.442045     3.434402     3.426758     3.419115     3.411472     3.403829     3.396185
      3.388542     3.380899     3.373256     3.365613     3.357969     3.350326     3.342683     3.335040     3.327396     3.319753
      3.312110     3.304467     3.296824     3.289180     3.281537     3.273894     3.266251     3.258607     3.250964     3.243321
      3.235678     3.228034     3.220391     3.212748     3.205105     3.197462     3.189818     3.182175     3.174532     3.166889
      3.159245     3.151602     3.143959     3.136316     3.128673     3.121029     3.113386     3.105743     3.098100     3.090456
      3.082813     3.075170     3.067527     3.059884     3.052240     3.044597     3.036954     3.029311     3.021667     3.014024
      3.006381     2.998738     2.991095     2.983451     2.975808     2.968165     2.960522     2.952878     2.945235     2.937592
      2.929949     2.922306     2.914662     2.907019     2.899376     2.891733     2.884089     2.876446     2.868803     2.861160
      2.853517     2.845873     2.838230     2.830587     2.822944     2.815300     2.807657     2.800014     2.792371     2.784728
      2.777084     2.769441     2.761798     2.754155     2.746511     2.738868     2.731225     2.723582     2.715939     2.708295
      2.700652     2.693009     2.685366     2.677722     2.670079     2.662436     2.654793     2.647150     2.639506     2.631863
      2.624220     2.616577     2.608933     2.601290     2.593647     2.586004     2.578361     2.570717     2.563074     2.555431
      2.547788     2.540144     2.532501     2.524858     2.517215     2.509572     2.501928     2.494285     2.486642     2.478999
      2.471355     2.463712     2.456069     2.448426     2.440783     2.433139     2.425496     2.417853     2.410210     2.402566
      2.394923     2.387280     2.379637     2.371994     2.364350     2.356707     2.349064     2.341421     2.333777     2.326134
      2.318491     2.310848     2.303205     2.295561     2.287918     2.280275     2.272632     2.264988     2.257345     2.249702
      2.242059     2.234416     2.226772     2.219129     2.211486     2.203843     2.196199     2.188556     2.180913     2.173270
      2.165627     2.157983     2.150340     2.142697     2.135054     2.127410     2.119767     2.112124     2.104481     2.096838
      2.089194     2.081551     2.073908     2.066265     2.058621     2.050978     2.043335     2.035692     2.028049     2.020405
      2.012762     2.005119     1.997476     1.989833     1.982190     1.974546     1.966903     1.959260     1.951617     1.943974
      1.936331     1.928688     1.921045     1.913402     1.905759     1.898115     1.890472     1.882829     1.875186     1.867543
      1.859900     1.852257     1.844614     1.836971     1.829327     1.821684     1.814041     1.806398     1.798755     1.791112
      1.783469     1.775826     1.768183     1.760540     1.752896     1.745253     1.737610     1.729967     1.722324     1.714681
      1.707038     1.699395     1.691752     1.684108     1.676465     1.668822     1.661179     1.653536     1.645893     1.638250
      1.630607     1.622964     1.615321     1.607677     1.600034     1.592391     1.584748     1.577105     1.569462     1.561819
      1.554176     1.546533     1.538890     1.531246     1.523603     1.515960     1.508317     1.500674     1.493031     1.485388
      1.477745     1.470102     1.462458     1.454815     1.447172     1.439529     1.431886     1.424243     1.416600     1.408957
      1.401314     1.393671     1.386027     1.378384     1.370741     1.363098     1.355455     1.347812     1.340169     1.332526
      1.324883     1.317240     1.309596     1.301953     1.294310     1.286667     1.279024     1.271381     1.263738     1.256095
      1.248452     1.240808     1.233165     1.225522     1.217879     1.210236     1.202593     1.194950     1.187307     1.179664
      1.172021     1.164377     1.156734     1.149091     1.141448     1.133805     1.126162     1.118519     1.110876     1.103233
      1.095590     1.087946     1.080303     1.072660     1.065017     1.057374     1.049731     1.042088     1.034445     1.026802
      1.019158     1.011515     1.003872     0.996229     0.988586     0.980943     0.973300     0.965657     0.958014     0.950371
      0.942727     0.935084     0.927441     0.919798     0.912155     0.904512     0.896869     0.889226     0.881583     0.873940
      0.866296     0.858653     0.851010     0.843367     0.835724     0.828081     0.820438     0.812795     0.805152     0.797508
      0.789865     0.782222     0.774579     0.766936     0.759293     0.751650     0.744007     0.736364     0.728721     0.721077
      0.713434     0.705791     0.698148     0.690505     0.682862     0.675219     0.667576     0.659933     0.652290     0.644646
      0.637003     0.629360     0.621717     0.614074     0.606431     0.598788     0.591145     0.583502     0.575858     0.568215
      0.560572     0.552929     0.545286     0.537643     0.530000     0.522357     0.514714     0.507071     0.499427     0.491784
      0.484141     0.476498     0.468855     0.461212     0.453569     0.445925     0.438282     0.430639     0.422996     0.415353
      0.407710     0.400067     0.392424     0.384780     0.377137     0.369494     0.361851     0.354208     0.346565     0.338922
      0.331278     0.323635     0.315992     0.308349     0.300706     0.293063     0.285420     0.277777     0.270133     0.262490
      0.254847     0.247204     0.239561     0.231918     0.224275     0.216631     0.208988     0.201345
 NY phased data points follow
   5.59755E+00  2.62015E+00  4.44236E+00  7.36731E+00  6.17069E+00  1.06563E+01  1.33652E+01  1.17822E+01  1.17271E+01  1.14319E+01
   1.64898E+01  2.11237E+01  2.12717E+01  1.70851E+01  1.52165E+01  1.98899E+01  1.22482E+01  1.07096E+01  1.20731E+01  1.09343E+01
   5.27842E+00  6.29745E+00  4.54368E+00  8.53598E+00  5.34826E+00  1.75125E+00  7.17770E+00  9.71302E+00  4.35682E+00  4.71686E+00
   1.03221E+01  1.23251E+01  7.19450E+00  1.17516E+01  1.13579E+01  7.58321E+00  8.85789E+00  1.02945E+01  6.29801E+00  5.63704E+00
   5.41729E+00  6.19942E+00  5.91229E+00  1.27290E+01  7.62184E+00  1.08924E+01  9.65994E+00  1.29082E+01  8.87141E+00  1.47186E+01
   5.78252E+00  8.35536E+00  5.16808E+00  5.46604E+00  4.45568E+00  1.10066E+01  6.53707E+00  4.04823E+00  6.40963E+00  9.67063E+00
   3.13919E+00  4.17102E+00  2.38584E+00  4.25841E+00 -2.47055E+00  4.88015E+00  3.16997E+00  4.61071E+00  2.63446E+00  7.75859E+00
   2.25745E+00 -9.93596E-01 -2.37796E+00  7.71091E+00 -1.80507E+00  4.92060E+00  3.02609E+00  3.46306E+00  6.19360E+00  3.11911E+00
   7.01807E+00  1.37434E+00 -2.54641E+00  6.90103E+00  4.04500E+00  2.35281E+00  5.17230E+00  1.42211E+00  3.34918E+00  6.97592E-01
   5.63461E+00  4.95314E+00  2.95094E+00  3.13157E+00  7.16879E+00  5.33282E+00  7.48905E+00  4.63990E+00  8.10159E+00  9.83734E+00
   1.71335E+01  1.86762E+01  1.85615E+01  2.26444E+01  1.76235E+01  2.17717E+01  1.73559E+01  1.61025E+01  9.18948E+00  5.17454E+00
   9.64054E+00  4.48812E+00  1.69230E+00  5.68686E+00  1.36698E+00  6.51163E+00  4.74043E+00  4.14940E+00  5.81074E-02 -4.35649E-01
   3.14461E+00  3.40267E+00  2.48913E+00  1.00418E+01  1.52006E+01  2.76235E+01  2.25288E+01  2.11944E+01  2.45008E+01  2.26132E+01
   1.80014E+01  2.20688E+01  1.73261E+01  1.87181E+01  1.13375E+01  9.06981E+00  9.51963E+00  8.87401E+00  8.76223E+00  4.64644E+00
  -1.19164E+00  4.60718E+00  2.83902E+00 -2.45005E+00 -2.89194E+00  1.52485E+00 -1.85136E+00 -4.57233E+00 -2.54079E+00 -1.57897E+00
   5.47047E-01 -1.34204E+00 -3.79277E-01 -6.81779E-01 -3.49452E+00 -2.56974E+00  4.19274E+00  4.37728E+00  2.26260E+00  1.41670E+00
   1.75499E-01  1.06496E+00  5.51836E-01 -4.07264E+00  3.73035E-01 -4.62247E+00 -4.11861E+00 -1.84306E+00  5.07735E+00 -4.09691E+00
  -5.69919E+00 -5.26570E+00 -7.99998E+00 -7.94669E+00 -8.60502E-01 -4.54946E+00 -5.63246E+00 -7.55004E+00 -4.09788E+00 -4.94224E+00
  -7.70639E+00  6.29491E-01 -6.39241E+00  7.04096E-01 -3.52197E+00  5.99794E-02 -7.34523E+00 -9.56123E-01 -1.96325E+00 -2.10492E+00
  -4.75300E+00 -4.69100E+00 -5.71787E+00  1.88065E+00 -6.35653E+00 -5.15105E+00 -1.27652E+00 -4.89239E+00 -1.58701E+00 -3.17265E+00
  -3.89130E+00 -3.28546E+00  1.01131E+00  5.79849E+00  3.60084E-01  4.59611E+00 -1.15082E-01 -3.94516E+00  1.03083E+00  2.06340E+00
   2.34967E+00  2.70142E+00 -1.92205E+00  4.39169E+00  7.66971E+00  5.49552E+00  5.95106E+00  5.68698E+00  4.94134E+00 -1.59786E+00
  -9.98046E-01  2.48453E+00  1.92894E+00  9.03939E-01  6.23930E-01  2.85086E+00  3.22713E+00  6.54063E+00  1.96046E-01  9.38972E+00
   4.55360E+00  8.50114E+00  4.15761E+00  4.87538E+00  5.23327E+00  7.71864E+00  2.84631E+00  8.88230E+00  5.01303E+00  7.85270E+00
   4.61936E+00  5.45996E+00  4.05285E+00  1.05887E+01  5.94782E+00  7.41879E+00  7.35003E+00  1.30100E+01  8.93758E+00  1.08734E+01
   1.39195E+01  1.37632E+01  1.27116E+01  1.92940E+01  2.47852E+01  2.58083E+01  3.50734E+01  4.54490E+01  5.08461E+01  5.09028E+01
   5.30088E+01  4.91273E+01  4.33596E+01  3.20880E+01  2.92533E+01  2.48305E+01  2.19158E+01  2.05295E+01  1.51350E+01  1.04919E+01
   8.94635E+00  4.32339E+00  8.27437E+00  5.96178E+00  7.77996E+00  2.84276E+00  5.32922E+00  2.36638E+00  4.06489E+00  2.28686E+00
   4.62643E-01  1.56760E+00  3.83410E+00  3.88367E+00  1.88151E+00  4.08759E+00 -2.72578E-01  5.11727E+00  5.46213E-01  5.87155E-01
   3.31834E-01 -1.93203E+00  1.33600E+00  1.35615E+00  2.87249E+00 -7.63461E-01  4.15425E+00 -1.99638E+00  1.41826E+00  5.79794E-01
   6.37937E+00  6.55101E-01  5.27887E-01  1.20325E+00  6.58652E+00  5.55559E+00  9.48822E+00  9.45767E+00  7.82804E+00  8.81276E+00
   5.65045E+00  7.16395E+00  7.96312E+00  1.22270E+01  1.01002E+01  1.05338E+01  6.04166E+00  9.20605E+00  6.60272E+00  7.16366E+00
   6.63911E+00  4.97268E+00  8.88140E+00  5.20087E+00  8.52429E+00  5.03018E+00  8.79793E+00  1.06165E+01  7.56883E+00  1.24199E+01
   1.25922E+01  7.94279E+00  9.01120E+00  8.37339E+00  7.55075E+00  1.40327E+01  7.84396E+00  9.75784E+00  1.11345E+01  1.18477E+01
   1.44373E+01  1.25555E+01  1.68850E+01  1.52055E+01  1.27059E+01  1.11529E+01  1.20172E+01  1.19854E+01  1.07638E+01  1.10938E+01
   1.14397E+01  1.33990E+01  1.55929E+01  1.21162E+01  1.55264E+01  1.17226E+01  1.45339E+01  1.24975E+01  1.59027E+01  1.22987E+01
   1.19177E+01  1.07947E+01  6.50909E+00  1.36625E+01  8.87347E+00  1.13926E+01  1.06600E+01  1.16822E+01  7.96201E+00  8.23446E+00
   5.08801E+00  4.92570E+00  1.83160E+00 -1.10211E+00 -5.27767E-01  4.28282E-01  1.50948E+00  6.33564E+00  1.21134E+00 -5.19059E-01
   1.25696E+00 -2.01328E+00  4.24923E+00 -5.47668E-01  4.17857E+00  6.12942E+00  2.69622E+00  5.64189E+00  2.06349E+00  6.14489E+00
   6.96115E+00  5.98475E-01  6.20206E+00  5.60116E+00  5.98492E+00  1.29274E+01  1.06079E+01  2.58761E+00  1.06979E+01  1.41607E+01
   1.15399E+01  1.25739E+01  1.23897E+01  6.75124E+00  1.06850E+01  1.65449E+01  1.47298E+01  1.60177E+01  8.84750E+00  1.11770E+01
   9.84603E+00  8.91556E+00  8.05761E+00  7.03333E+00  7.13739E+00  1.04243E+01  6.91323E+00  6.59461E+00  4.51759E+00  3.91841E+00
   5.38212E+00  4.23006E+00  2.90419E+00  4.40766E+00  4.05978E+00  1.63426E+00  3.05367E+00  2.19529E+00  1.79011E+00  1.57425E+00
  -6.28432E-02  4.02677E+00 -2.67927E+00  7.28377E-01 -1.13217E+00  1.18599E+00 -4.89662E-01 -5.57654E+00  3.02512E+00 -2.71987E+00
  -6.66361E+00  1.37570E+00  1.22556E+00 -2.97213E+00 -2.27717E+00 -4.54775E+00 -4.06478E+00 -6.68890E+00 -3.35723E+00 -2.66408E+00
   3.50697E+00  1.95526E+00  1.74308E-01 -2.09183E+00  1.72671E+00 -1.14807E+00 -4.03622E+00  3.76918E+00  2.79118E+00 -1.58953E+00
  -2.30284E+00  3.30486E+00  8.83581E-01  4.34622E-01  1.54608E-02 -1.21091E+00 -3.01629E+00  2.24873E+00  1.25734E+00  3.21657E+00
  -1.91314E+00 -2.75637E+00 -1.41063E+00 -1.57128E+00 -1.58219E+00 -1.00668E+00  3.44104E-01  1.58245E+00 -2.77495E-01 -6.17750E-01
  -2.29538E+00 -4.53312E+00 -8.91610E-02 -3.26095E+00 -2.03058E+00 -1.82491E+00 -1.66068E+00 -3.96453E+00 -1.80703E+00 -3.31434E+00
  -2.24805E-01  9.81181E-01 -3.83959E+00 -2.44550E+00  1.56486E-01 -7.54611E-01  9.62296E-01  3.42413E+00
 NY points of the fit to the data follow
   5.32361E+00  4.75759E+00  4.40961E+00  4.53108E+00  5.32928E+00  6.68600E+00  8.51313E+00  1.07276E+01  1.31257E+01  1.54074E+01
   1.72476E+01  1.84021E+01  1.87665E+01  1.83644E+01  1.73300E+01  1.58699E+01  1.42167E+01  1.25493E+01  1.09275E+01  9.31507E+00
   7.70099E+00  6.20727E+00  5.04486E+00  4.49962E+00  4.60413E+00  5.11177E+00  5.94955E+00  7.02729E+00  8.20187E+00  9.27410E+00
   1.00333E+01  1.03551E+01  1.01973E+01  9.61128E+00  8.74027E+00  7.76093E+00  6.82827E+00  6.04652E+00  5.51316E+00  5.32217E+00
   5.54314E+00  6.19996E+00  7.19842E+00  8.42283E+00  9.68773E+00  1.06986E+01  1.12327E+01  1.11896E+01  1.06062E+01  9.59803E+00
   8.37987E+00  7.20756E+00  6.21933E+00  5.47540E+00  4.96635E+00  4.62972E+00  4.40493E+00  4.30459E+00  4.37100E+00  4.51731E+00
   4.57597E+00  4.47041E+00  4.24567E+00  3.99860E+00  3.80110E+00  3.69040E+00  3.67832E+00  3.75089E+00  3.86495E+00  3.98582E+00
   4.12051E+00  4.26019E+00  4.37078E+00  4.42150E+00  4.38109E+00  4.25331E+00  4.06716E+00  3.89341E+00  3.80023E+00  3.76673E+00
   3.76053E+00  3.75683E+00  3.74114E+00  3.68792E+00  3.53698E+00  3.27362E+00  2.93189E+00  2.57342E+00  2.24919E+00  1.98825E+00
   1.80371E+00  1.68540E+00  1.61644E+00  1.64015E+00  2.05873E+00  3.15041E+00  4.92026E+00  7.34488E+00  1.02901E+01  1.34490E+01
   1.64267E+01  1.87955E+01  2.02323E+01  2.05972E+01  1.99279E+01  1.84202E+01  1.63640E+01  1.40647E+01  1.17323E+01  9.46091E+00
   7.27629E+00  5.19168E+00  3.30253E+00  1.84774E+00  1.13597E+00  1.00815E+00  1.05382E+00  1.19062E+00  1.48774E+00  2.28568E+00
   3.85681E+00  6.15004E+00  9.06499E+00  1.24656E+01  1.61069E+01  1.95791E+01  2.23882E+01  2.41567E+01  2.47140E+01  2.40762E+01
   2.24268E+01  2.00664E+01  1.73247E+01  1.44786E+01  1.16911E+01  9.03695E+00  6.56878E+00  4.39933E+00  2.76473E+00  1.95163E+00
   1.74768E+00  1.68210E+00  1.62456E+00  1.55611E+00  1.48484E+00  1.40844E+00  1.29666E+00  1.13681E+00  9.38335E-01  7.15825E-01
   4.95004E-01  2.93328E-01  9.81304E-02 -9.13748E-02 -2.85602E-01 -4.81552E-01 -6.63994E-01 -8.32712E-01 -9.81679E-01 -1.09807E+00
  -1.17605E+00 -1.22794E+00 -1.27674E+00 -1.34383E+00 -1.44406E+00 -1.58568E+00 -1.77005E+00 -1.99609E+00 -2.24346E+00 -2.48212E+00
  -2.70589E+00 -2.93373E+00 -3.18604E+00 -3.42130E+00 -3.59532E+00 -3.68611E+00 -3.70601E+00 -3.70832E+00 -3.71984E+00 -3.72455E+00
  -3.69963E+00 -3.62231E+00 -3.46314E+00 -3.19340E+00 -2.80363E+00 -2.32188E+00 -1.79894E+00 -1.28706E+00 -8.21402E-01 -4.57745E-01
  -2.54339E-01 -2.33077E-01 -3.66459E-01 -5.48963E-01 -6.58955E-01 -6.01537E-01 -3.24034E-01  1.85447E-01  8.80863E-01  1.69467E+00
   2.49088E+00  3.04042E+00  3.17516E+00  2.85258E+00  2.07856E+00  9.59309E-01 -2.82323E-01 -1.32035E+00 -1.92593E+00 -2.00268E+00
  -1.51747E+00 -5.52178E-01  6.82726E-01  1.86851E+00  2.69941E+00  3.02938E+00  2.87859E+00  2.34240E+00  1.57219E+00  7.83027E-01
   1.58515E-01 -2.26284E-01 -2.80010E-01  2.71864E-02  5.92582E-01  1.34097E+00  2.20790E+00  3.11687E+00  3.92315E+00  4.58778E+00
   5.14926E+00  5.61833E+00  5.98276E+00  6.23447E+00  6.38743E+00  6.54033E+00  6.73575E+00  6.92527E+00  7.06807E+00  7.14925E+00
   7.17996E+00  7.17648E+00  7.15475E+00  7.15853E+00  7.25777E+00  7.48404E+00  7.82664E+00  8.28335E+00  8.90161E+00  9.72071E+00
   1.08473E+01  1.28697E+01  1.61318E+01  2.04292E+01  2.54792E+01  3.10940E+01  3.68949E+01  4.21827E+01  4.61843E+01  4.83729E+01
   4.85204E+01  4.66898E+01  4.32470E+01  3.87406E+01  3.37414E+01  2.86842E+01  2.38063E+01  1.91785E+01  1.47942E+01  1.08042E+01
   7.67594E+00  5.97738E+00  5.26235E+00  4.81095E+00  4.45304E+00  4.14434E+00  3.85039E+00  3.55557E+00  3.27364E+00  3.00637E+00
   2.75325E+00  2.51357E+00  2.28641E+00  2.07298E+00  1.88430E+00  1.73028E+00  1.61091E+00  1.52343E+00  1.46717E+00  1.44274E+00
   1.44993E+00  1.48730E+00  1.55503E+00  1.65763E+00  1.79893E+00  1.98150E+00  2.20702E+00  2.47664E+00  2.78965E+00  3.14339E+00
   3.53381E+00  3.95537E+00  4.40048E+00  4.86033E+00  5.32478E+00  5.78246E+00  6.22181E+00  6.63156E+00  7.00133E+00  7.32212E+00
   7.58707E+00  7.79238E+00  7.93718E+00  8.02361E+00  8.05689E+00  8.04481E+00  7.99725E+00  7.92584E+00  7.84304E+00  7.76147E+00
   7.69314E+00  7.64879E+00  7.63734E+00  7.66542E+00  7.73711E+00  7.85390E+00  8.01476E+00  8.21646E+00  8.45385E+00  8.72038E+00
   9.00863E+00  9.31095E+00  9.62009E+00  9.92993E+00  1.02363E+01  1.05381E+01  1.08399E+01  1.11585E+01  1.15305E+01  1.19471E+01
   1.23580E+01  1.27255E+01  1.30136E+01  1.31758E+01  1.31580E+01  1.29339E+01  1.25747E+01  1.21860E+01  1.18585E+01  1.16760E+01
   1.17036E+01  1.19623E+01  1.24066E+01  1.29368E+01  1.34398E+01  1.38226E+01  1.40323E+01  1.40597E+01  1.39120E+01  1.35489E+01
   1.29635E+01  1.22167E+01  1.13577E+01  1.04199E+01  9.43606E+00  8.46585E+00  7.60493E+00  6.86822E+00  6.22340E+00  5.65397E+00
   5.15012E+00  4.70458E+00  4.31168E+00  3.96708E+00  3.66761E+00  3.41106E+00  3.19612E+00  3.02215E+00  2.88918E+00  2.79775E+00
   2.74889E+00  2.74401E+00  2.78491E+00  2.87365E+00  3.01247E+00  3.20362E+00  3.44919E+00  3.75083E+00  4.10951E+00  4.52523E+00
   4.99664E+00  5.52080E+00  6.09284E+00  6.70579E+00  7.35048E+00  8.01551E+00  8.68746E+00  9.35115E+00  9.99012E+00  1.05873E+01
   1.11256E+01  1.15888E+01  1.19623E+01  1.22340E+01  1.23946E+01  1.24386E+01  1.23641E+01  1.21733E+01  1.18719E+01  1.14692E+01
   1.09773E+01  1.04104E+01  9.78412E+00  9.11476E+00  8.41843E+00  7.71045E+00  7.00477E+00  6.31359E+00  5.64705E+00  5.01314E+00
   4.41767E+00  3.86448E+00  3.35554E+00  2.89131E+00  2.47095E+00  2.09263E+00  1.75382E+00  1.45156E+00  1.18261E+00  9.43680E-01
   7.31545E-01  5.43115E-01  3.75531E-01  2.26187E-01  9.27516E-02 -2.68429E-02 -1.34410E-01 -2.31527E-01 -3.19551E-01 -3.99648E-01
  -4.72818E-01 -5.39918E-01 -6.01688E-01 -6.58758E-01 -7.11665E-01 -7.60873E-01 -8.06779E-01 -8.49734E-01 -8.90042E-01 -9.27964E-01
  -9.63727E-01 -9.97527E-01 -1.02955E+00 -1.05994E+00 -1.08885E+00 -1.11640E+00 -1.14270E+00 -1.16784E+00 -1.19192E+00 -1.21503E+00
  -1.23722E+00 -1.25857E+00 -1.27912E+00 -1.29895E+00 -1.31809E+00 -1.33661E+00 -1.35453E+00 -1.37189E+00 -1.38873E+00 -1.40508E+00
  -1.42097E+00 -1.43643E+00 -1.45149E+00 -1.46616E+00 -1.48046E+00 -1.49442E+00 -1.50807E+00 -1.52141E+00 -1.53446E+00 -1.54724E+00
  -1.55976E+00 -1.57204E+00 -1.58409E+00 -1.59593E+00 -1.60756E+00 -1.61899E+00 -1.63023E+00 -1.64131E+00 -1.65222E+00 -1.66297E+00
  -1.67357E+00 -1.68404E+00 -1.69437E+00 -1.70458E+00 -1.71468E+00 -1.72466E+00 -1.73454E+00 -1.74432E+00
 NY background values follow
    -4.070E-01   -4.108E-01   -4.146E-01   -4.184E-01   -4.222E-01   -4.260E-01   -4.298E-01   -4.336E-01   -4.373E-01   -4.411E-01
    -4.449E-01   -4.487E-01   -4.525E-01   -4.563E-01   -4.601E-01   -4.639E-01   -4.677E-01   -4.715E-01   -4.753E-01   -4.791E-01
    -4.829E-01   -4.867E-01   -4.905E-01   -4.943E-01   -4.981E-01   -5.019E-01   -5.057E-01   -5.095E-01   -5.133E-01   -5.171E-01
    -5.209E-01   -5.247E-01   -5.285E-01   -5.323E-01   -5.361E-01   -5.399E-01   -5.436E-01   -5.474E-01   -5.512E-01   -5.550E-01
    -5.588E-01   -5.626E-01   -5.664E-01   -5.702E-01   -5.740E-01   -5.778E-01   -5.816E-01   -5.854E-01   -5.892E-01   -5.930E-01
    -5.968E-01   -6.006E-01   -6.044E-01   -6.082E-01   -6.120E-01   -6.158E-01   -6.196E-01   -6.234E-01   -6.272E-01   -6.310E-01
    -6.348E-01   -6.386E-01   -6.424E-01   -6.462E-01   -6.500E-01   -6.538E-01   -6.576E-01   -6.614E-01   -6.652E-01   -6.690E-01
    -6.728E-01   -6.766E-01   -6.804E-01   -6.842E-01   -6.880E-01   -6.918E-01   -6.956E-01   -6.994E-01   -7.032E-01   -7.070E-01
    -7.108E-01   -7.146E-01   -7.184E-01   -7.222E-01   -7.259E-01   -7.297E-01   -7.335E-01   -7.373E-01   -7.411E-01   -7.449E-01
    -7.487E-01   -7.525E-01   -7.563E-01   -7.601E-01   -7.639E-01   -7.677E-01   -7.715E-01   -7.753E-01   -7.791E-01   -7.829E-01
    -7.867E-01   -7.905E-01   -7.943E-01   -7.981E-01   -8.019E-01   -8.057E-01   -8.095E-01   -8.133E-01   -8.171E-01   -8.209E-01
    -8.247E-01   -8.285E-01   -8.323E-01   -8.361E-01   -8.399E-01   -8.437E-01   -8.475E-01   -8.513E-01   -8.551E-01   -8.589E-01
    -8.627E-01   -8.665E-01   -8.703E-01   -8.741E-01   -8.779E-01   -8.817E-01   -8.855E-01   -8.893E-01   -8.931E-01   -8.969E-01
    -9.007E-01   -9.045E-01   -9.083E-01   -9.121E-01   -9.159E-01   -9.197E-01   -9.234E-01   -9.272E-01   -9.310E-01   -9.348E-01
    -9.386E-01   -9.424E-01   -9.462E-01   -9.500E-01   -9.538E-01   -9.576E-01   -9.614E-01   -9.652E-01   -9.690E-01   -9.728E-01
    -9.766E-01   -9.804E-01   -9.842E-01   -9.880E-01   -9.918E-01   -9.956E-01   -9.994E-01   -1.003E+00   -1.007E+00   -1.011E+00
    -1.015E+00   -1.018E+00   -1.022E+00   -1.026E+00   -1.030E+00   -1.034E+00   -1.037E+00   -1.041E+00   -1.045E+00   -1.049E+00
    -1.053E+00   -1.056E+00   -1.060E+00   -1.064E+00   -1.068E+00   -1.072E+00   -1.075E+00   -1.079E+00   -1.083E+00   -1.087E+00
    -1.090E+00   -1.094E+00   -1.098E+00   -1.102E+00   -1.106E+00   -1.109E+00   -1.113E+00   -1.117E+00   -1.121E+00   -1.125E+00
    -1.128E+00   -1.132E+00   -1.136E+00   -1.140E+00   -1.144E+00   -1.147E+00   -1.151E+00   -1.155E+00   -1.159E+00   -1.163E+00
    -1.166E+00   -1.170E+00   -1.174E+00   -1.178E+00   -1.182E+00   -1.185E+00   -1.189E+00   -1.193E+00   -1.197E+00   -1.200E+00
    -1.204E+00   -1.208E+00   -1.212E+00   -1.216E+00   -1.219E+00   -1.223E+00   -1.227E+00   -1.231E+00   -1.235E+00   -1.238E+00
    -1.242E+00   -1.246E+00   -1.250E+00   -1.254E+00   -1.257E+00   -1.261E+00   -1.265E+00   -1.269E+00   -1.273E+00   -1.276E+00
    -1.280E+00   -1.284E+00   -1.288E+00   -1.291E+00   -1.295E+00   -1.299E+00   -1.303E+00   -1.307E+00   -1.310E+00   -1.314E+00
    -1.318E+00   -1.322E+00   -1.326E+00   -1.329E+00   -1.333E+00   -1.337E+00   -1.341E+00   -1.345E+00   -1.348E+00   -1.352E+00
    -1.356E+00   -1.360E+00   -1.363E+00   -1.367E+00   -1.371E+00   -1.375E+00   -1.379E+00   -1.382E+00   -1.386E+00   -1.390E+00
    -1.394E+00   -1.398E+00   -1.401E+00   -1.405E+00   -1.409E+00   -1.413E+00   -1.416E+00   -1.420E+00   -1.424E+00   -1.428E+00
    -1.432E+00   -1.435E+00   -1.439E+00   -1.443E+00   -1.447E+00   -1.451E+00   -1.454E+00   -1.458E+00   -1.462E+00   -1.466E+00
    -1.469E+00   -1.473E+00   -1.477E+00   -1.481E+00   -1.485E+00   -1.488E+00   -1.492E+00   -1.496E+00   -1.500E+00   -1.504E+00
    -1.507E+00   -1.511E+00   -1.515E+00   -1.519E+00   -1.522E+00   -1.526E+00   -1.530E+00   -1.534E+00   -1.538E+00   -1.541E+00
    -1.545E+00   -1.549E+00   -1.553E+00   -1.556E+00   -1.560E+00   -1.564E+00   -1.568E+00   -1.572E+00   -1.575E+00   -1.579E+00
    -1.583E+00   -1.587E+00   -1.590E+00   -1.594E+00   -1.598E+00   -1.602E+00   -1.606E+00   -1.609E+00   -1.613E+00   -1.617E+00
    -1.621E+00   -1.624E+00   -1.628E+00   -1.632E+00   -1.636E+00   -1.640E+00   -1.643E+00   -1.647E+00   -1.651E+00   -1.655E+00
    -1.658E+00   -1.662E+00   -1.666E+00   -1.670E+00   -1.674E+00   -1.677E+00   -1.681E+00   -1.685E+00   -1.689E+00   -1.692E+00
    -1.696E+00   -1.700E+00   -1.704E+00   -1.708E+00   -1.711E+00   -1.715E+00   -1.719E+00   -1.723E+00   -1.726E+00   -1.730E+00
    -1.734E+00   -1.738E+00   -1.742E+00   -1.745E+00   -1.749E+00   -1.753E+00   -1.757E+00   -1.760E+00   -1.764E+00   -1.768E+00
    -1.772E+00   -1.775E+00   -1.779E+00   -1.783E+00   -1.787E+00   -1.791E+00   -1.794E+00   -1.798E+00   -1.802E+00   -1.806E+00
    -1.809E+00   -1.813E+00   -1.817E+00   -1.821E+00   -1.824E+00   -1.828E+00   -1.832E+00   -1.836E+00   -1.840E+00   -1.843E+00
    -1.847E+00   -1.851E+00   -1.855E+00   -1.858E+00   -1.862E+00   -1.866E+00   -1.870E+00   -1.873E+00   -1.877E+00   -1.881E+00
    -1.885E+00   -1.889E+00   -1.892E+00   -1.896E+00   -1.900E+00   -1.904E+00   -1.907E+00   -1.911E+00   -1.915E+00   -1.919E+00
    -1.922E+00   -1.926E+00   -1.930E+00   -1.934E+00   -1.937E+00   -1.941E+00   -1.945E+00   -1.949E+00   -1.952E+00   -1.956E+00
    -1.960E+00   -1.964E+00   -1.968E+00   -1.971E+00   -1.975E+00   -1.979E+00   -1.983E+00   -1.986E+00   -1.990E+00   -1.994E+00
    -1.998E+00   -2.001E+00   -2.005E+00   -2.009E+00   -2.013E+00   -2.016E+00   -2.020E+00   -2.024E+00   -2.028E+00   -2.031E+00
    -2.035E+00   -2.039E+00   -2.043E+00   -2.046E+00   -2.050E+00   -2.054E+00   -2.058E+00   -2.061E+00   -2.065E+00   -2.069E+00
    -2.073E+00   -2.077E+00   -2.080E+00   -2.084E+00   -2.088E+00   -2.092E+00   -2.095E+00   -2.099E+00   -2.103E+00   -2.107E+00
    -2.110E+00   -2.114E+00   -2.118E+00   -2.122E+00   -2.125E+00   -2.129E+00   -2.133E+00   -2.137E+00   -2.140E+00   -2.144E+00
    -2.148E+00   -2.152E+00   -2.155E+00   -2.159E+00   -2.163E+00   -2.167E+00   -2.170E+00   -2.174E+00   -2.178E+00   -2.182E+00
    -2.185E+00   -2.189E+00   -2.193E+00   -2.197E+00   -2.200E+00   -2.204E+00   -2.208E+00   -2.212E+00   -2.215E+00   -2.219E+00
    -2.223E+00   -2.227E+00   -2.230E+00   -2.234E+00   -2.238E+00   -2.242E+00   -2.245E+00   -2.249E+00   -2.253E+00   -2.257E+00
    -2.260E+00   -2.264E+00   -2.268E+00   -2.271E+00   -2.275E+00   -2.279E+00   -2.283E+00   -2.286E+00
 Asp      Conc. = 8.15E+01
