 LCModel (Version 6.3-1L) Copyright: S.W. Provencher.          Ref.: Magn. Reson. Med. 30:672-679 (1993).                
 Slice#1 Row#11 Col#5  PD_24_press_1_raw_act
 36 lines in following concentration table = NCONC+1
    Conc.  %SD /Cr+PCr  Metabolite                                         
   62.571 223% 6.7E-02 Ala                                                 
    0.000 999%   0.000 Asp                                                 
  928.044   7%   1.000 Cr                                                  
    0.000 999%   0.000 PCr                                                 
    9.173 999% 9.9E-03 GABA                                                
    0.000 999%   0.000 Glc                                                 
  484.343  64%   0.522 Gln                                                 
  920.736  39%   0.992 Glu                                                 
  500.838   5%   0.540 GPC                                                 
    0.000 999%   0.000 PCh                                                 
  386.321  22%   0.416 GSH                                                 
  924.575  33%   0.996 Ins                                                 
   70.356 220% 7.6E-02 Lac                                                 
 1.51E+03  12%   1.629 NAA                                                 
  523.172  35%   0.564 NAAG                                                
   63.216  47% 6.8E-02 Scyllo                                              
    0.000 999%   0.000 Tau                                                 
  132.937  89%   0.143 -CrCH2                                              
  500.838   5%   0.540 GPC+PCh                                             
 2.03E+03   5%   2.193 NAA+NAAG                                            
  928.044   7%   1.000 Cr+PCr                                              
 1.41E+03  39%   1.514 Glu+Gln                                             
    0.000 999%   0.000 Lip13a                                              
    0.000 999%   0.000 Lip13b                                              
 4.71E-03 999% 5.1E-06 Lip09                                               
 2.33E+03  10%   2.512 MM09                                                
 6.26E-03 999% 6.7E-06 Lip20                                               
 3.73E+03  11%   4.015 MM20                                                
    0.000 999%   0.000 MM12                                                
    0.000 999%   0.000 MM14                                                
  305.026  64%   0.329 MM17                                                
    0.000 999%   0.000 Lip13a+Lip13b                                       
    0.000 999%   0.000 MM14+Lip13a+Lip13b+MM12                             
 2.33E+03  10%   2.512 MM09+Lip09                                          
 3.73E+03  11%   4.015 MM20+Lip20                                          
   6 lines in following misc. output table
  FWHM = 0.069 ppm    S/N =   9                                            
  Data shift =-0.008 ppm                                                   
  Ph:   1 deg      13.1 deg/ppm                                            
  alphaB,S = 6.1E-01,   9.7E+01                                            
   14 spline knots.   Ns = 9(1)                                            
  (14) 6 infls.   (15) 1 extrs.                                            
  498 points on ppm-axis = NY
      4.000000     3.992357     3.984714     3.977070     3.969427     3.961784     3.954141     3.946497     3.938854     3.931211
      3.923568     3.915925     3.908281     3.900638     3.892995     3.885352     3.877708     3.870065     3.862422     3.854779
      3.847136     3.839492     3.831849     3.824206     3.816563     3.808919     3.801276     3.793633     3.785990     3.778347
      3.770703     3.763060     3.755417     3.747774     3.740130     3.732487     3.724844     3.717201     3.709558     3.701914
      3.694271     3.686628     3.678985     3.671341     3.663698     3.656055     3.648412     3.640769     3.633125     3.625482
      3.617839     3.610196     3.602552     3.594909     3.587266     3.579623     3.571980     3.564336     3.556693     3.549050
      3.541407     3.533763     3.526120     3.518477     3.510834     3.503191     3.495547     3.487904     3.480261     3.472618
      3.464974     3.457331     3.449688     3.442045     3.434402     3.426758     3.419115     3.411472     3.403829     3.396185
      3.388542     3.380899     3.373256     3.365613     3.357969     3.350326     3.342683     3.335040     3.327396     3.319753
      3.312110     3.304467     3.296824     3.289180     3.281537     3.273894     3.266251     3.258607     3.250964     3.243321
      3.235678     3.228034     3.220391     3.212748     3.205105     3.197462     3.189818     3.182175     3.174532     3.166889
      3.159245     3.151602     3.143959     3.136316     3.128673     3.121029     3.113386     3.105743     3.098100     3.090456
      3.082813     3.075170     3.067527     3.059884     3.052240     3.044597     3.036954     3.029311     3.021667     3.014024
      3.006381     2.998738     2.991095     2.983451     2.975808     2.968165     2.960522     2.952878     2.945235     2.937592
      2.929949     2.922306     2.914662     2.907019     2.899376     2.891733     2.884089     2.876446     2.868803     2.861160
      2.853517     2.845873     2.838230     2.830587     2.822944     2.815300     2.807657     2.800014     2.792371     2.784728
      2.777084     2.769441     2.761798     2.754155     2.746511     2.738868     2.731225     2.723582     2.715939     2.708295
      2.700652     2.693009     2.685366     2.677722     2.670079     2.662436     2.654793     2.647150     2.639506     2.631863
      2.624220     2.616577     2.608933     2.601290     2.593647     2.586004     2.578361     2.570717     2.563074     2.555431
      2.547788     2.540144     2.532501     2.524858     2.517215     2.509572     2.501928     2.494285     2.486642     2.478999
      2.471355     2.463712     2.456069     2.448426     2.440783     2.433139     2.425496     2.417853     2.410210     2.402566
      2.394923     2.387280     2.379637     2.371994     2.364350     2.356707     2.349064     2.341421     2.333777     2.326134
      2.318491     2.310848     2.303205     2.295561     2.287918     2.280275     2.272632     2.264988     2.257345     2.249702
      2.242059     2.234416     2.226772     2.219129     2.211486     2.203843     2.196199     2.188556     2.180913     2.173270
      2.165627     2.157983     2.150340     2.142697     2.135054     2.127410     2.119767     2.112124     2.104481     2.096838
      2.089194     2.081551     2.073908     2.066265     2.058621     2.050978     2.043335     2.035692     2.028049     2.020405
      2.012762     2.005119     1.997476     1.989833     1.982190     1.974546     1.966903     1.959260     1.951617     1.943974
      1.936331     1.928688     1.921045     1.913402     1.905759     1.898115     1.890472     1.882829     1.875186     1.867543
      1.859900     1.852257     1.844614     1.836971     1.829327     1.821684     1.814041     1.806398     1.798755     1.791112
      1.783469     1.775826     1.768183     1.760540     1.752896     1.745253     1.737610     1.729967     1.722324     1.714681
      1.707038     1.699395     1.691752     1.684108     1.676465     1.668822     1.661179     1.653536     1.645893     1.638250
      1.630607     1.622964     1.615321     1.607677     1.600034     1.592391     1.584748     1.577105     1.569462     1.561819
      1.554176     1.546533     1.538890     1.531246     1.523603     1.515960     1.508317     1.500674     1.493031     1.485388
      1.477745     1.470102     1.462458     1.454815     1.447172     1.439529     1.431886     1.424243     1.416600     1.408957
      1.401314     1.393671     1.386027     1.378384     1.370741     1.363098     1.355455     1.347812     1.340169     1.332526
      1.324883     1.317240     1.309596     1.301953     1.294310     1.286667     1.279024     1.271381     1.263738     1.256095
      1.248452     1.240808     1.233165     1.225522     1.217879     1.210236     1.202593     1.194950     1.187307     1.179664
      1.172021     1.164377     1.156734     1.149091     1.141448     1.133805     1.126162     1.118519     1.110876     1.103233
      1.095590     1.087946     1.080303     1.072660     1.065017     1.057374     1.049731     1.042088     1.034445     1.026802
      1.019158     1.011515     1.003872     0.996229     0.988586     0.980943     0.973300     0.965657     0.958014     0.950371
      0.942727     0.935084     0.927441     0.919798     0.912155     0.904512     0.896869     0.889226     0.881583     0.873940
      0.866296     0.858653     0.851010     0.843367     0.835724     0.828081     0.820438     0.812795     0.805152     0.797508
      0.789865     0.782222     0.774579     0.766936     0.759293     0.751650     0.744007     0.736364     0.728721     0.721077
      0.713434     0.705791     0.698148     0.690505     0.682862     0.675219     0.667576     0.659933     0.652290     0.644646
      0.637003     0.629360     0.621717     0.614074     0.606431     0.598788     0.591145     0.583502     0.575858     0.568215
      0.560572     0.552929     0.545286     0.537643     0.530000     0.522357     0.514714     0.507071     0.499427     0.491784
      0.484141     0.476498     0.468855     0.461212     0.453569     0.445925     0.438282     0.430639     0.422996     0.415353
      0.407710     0.400067     0.392424     0.384780     0.377137     0.369494     0.361851     0.354208     0.346565     0.338922
      0.331278     0.323635     0.315992     0.308349     0.300706     0.293063     0.285420     0.277777     0.270133     0.262490
      0.254847     0.247204     0.239561     0.231918     0.224275     0.216631     0.208988     0.201345
 NY phased data points follow
  -1.58174E+00 -3.61637E+00  3.25241E+00 -6.75129E+00 -1.60127E+00 -6.23363E+00 -1.52677E+00 -2.80827E+00  2.18185E+00  4.28120E+00
   1.70175E+01  1.60741E+01  1.37271E+01  1.21766E+01  1.33442E+01  1.17528E+01  1.30457E+01  8.42617E+00  9.69411E+00  3.70995E+00
   7.91851E+00  1.87661E+00  6.96323E-02 -2.34690E+00  5.33110E+00 -1.66188E+00  3.51705E+00 -2.25112E+00  5.47451E+00  1.29659E+00
   4.70388E+00 -1.40735E+00  6.64371E+00  1.78044E+00  7.41331E+00  1.81123E+00 -4.32511E-01  1.78545E+00  3.67744E+00 -1.93606E+00
   1.62654E+00 -5.44647E-03  4.94760E+00 -1.13112E+00  8.08414E+00  4.10720E+00  4.90799E+00  1.78443E+00  4.25635E+00  2.39199E+00
   3.97015E+00  1.87630E-01  2.63196E+00  1.45871E+00  1.00237E+00  4.73672E+00  2.30675E-01 -2.61998E+00 -9.35668E-02 -4.64944E+00
   3.67547E-01 -3.37002E+00 -2.72504E+00 -5.10027E+00  4.89421E-01 -1.25949E+01 -5.57531E-01 -7.78604E+00 -5.31014E+00 -7.97889E+00
  -7.49431E+00 -1.29986E+01 -2.93019E+00 -7.46769E+00 -6.70874E+00 -4.18730E+00 -5.55130E+00 -8.55135E+00 -6.21072E+00 -6.52938E+00
  -7.17608E+00 -1.14444E+01 -5.60365E+00 -6.01605E+00 -1.12562E+00 -9.86674E+00 -1.36453E+00 -9.37301E+00 -6.24833E+00 -5.14350E+00
  -7.17729E+00 -9.53137E+00 -9.05149E+00 -5.53378E+00 -3.46435E+00 -5.79516E+00 -2.52220E+00 -4.98407E+00  1.07469E+00  1.17558E+01
   1.53791E+01  2.06016E+01  2.60508E+01  2.79521E+01  2.81128E+01  2.57484E+01  2.43557E+01  1.84879E+01  1.72907E+01  9.76128E+00
   8.09945E+00 -1.28773E+00  8.35446E-01 -1.33281E+00 -1.02110E+00 -5.18453E+00 -5.38851E+00 -1.11890E+01 -3.84995E+00 -1.00971E+01
  -7.78908E+00 -6.26287E+00 -6.47094E+00 -6.06827E-01  1.72426E+00  3.30660E+00  1.14865E+01  1.94876E+01  2.15196E+01  1.48791E+01
   1.51417E+01  1.39184E+01  1.39214E+01  5.51892E+00  6.23065E+00  4.24649E+00  4.83516E+00 -2.62603E+00 -5.31935E+00 -2.50730E+00
  -7.10218E+00 -7.07257E+00 -6.80760E+00 -5.58405E+00 -5.48322E+00 -3.85731E+00 -6.72356E+00 -1.18782E+01 -8.32262E+00 -6.36173E+00
  -8.39326E+00 -7.46581E+00 -7.53444E+00 -9.03405E+00 -6.17238E+00 -1.27847E+01 -8.21868E+00 -9.33280E+00 -6.49961E+00 -1.00206E+01
  -8.50729E+00 -9.38828E+00 -9.28478E+00 -1.50864E+01 -1.20900E+01 -1.30625E+01 -1.28560E+01 -1.32605E+01 -1.58897E+01 -1.65691E+01
  -1.48700E+01 -1.92167E+01 -1.72657E+01 -2.35254E+01 -1.80402E+01 -1.97548E+01 -1.96540E+01 -1.89422E+01 -2.15806E+01 -2.22519E+01
  -1.47999E+01 -1.91099E+01 -1.94780E+01 -1.68849E+01 -1.86131E+01 -2.38206E+01 -1.57048E+01 -2.19272E+01 -2.06041E+01 -1.41203E+01
  -1.49874E+01 -1.90324E+01 -1.80798E+01 -1.81164E+01 -1.32969E+01 -1.65956E+01 -1.05377E+01 -1.59647E+01 -1.49633E+01 -1.33199E+01
  -1.37158E+01 -1.11659E+01 -8.52562E+00 -1.49732E+01 -1.07121E+01 -1.09242E+01 -9.57037E+00 -8.97907E+00 -1.77891E+01 -1.14990E+01
  -8.61098E+00 -1.06588E+01 -1.01953E+01 -1.38334E+01 -6.75166E+00 -7.87134E+00 -4.86104E+00 -5.19693E+00 -5.17864E+00 -1.08076E+01
  -1.50393E+01 -1.53636E+01 -9.92233E+00 -1.43934E+01 -5.34081E+00 -7.97341E+00 -1.22462E+01 -1.38583E+01 -4.60984E+00 -9.91836E+00
  -6.64776E+00 -7.36307E+00 -7.89571E+00 -6.40710E+00 -7.57045E+00 -9.74360E+00 -4.57555E+00 -4.27201E+00 -7.73533E+00 -8.67611E+00
  -5.01355E+00 -1.26116E+01 -1.37221E+01 -1.11727E+01 -3.43975E+00 -4.84585E+00 -4.78066E+00 -7.50834E-02 -2.93504E+00 -3.14806E+00
   2.38007E-01  3.09746E+00  8.15649E+00  9.65723E+00  2.19763E+01  2.24493E+01  2.70214E+01  3.08508E+01  4.47937E+01  5.02491E+01
   4.65854E+01  3.55122E+01  3.54165E+01  2.94748E+01  2.52644E+01  1.35958E+01  3.26782E+00 -5.48742E+00 -4.93606E-01 -8.78369E+00
  -1.14250E+01 -1.51385E+01 -1.53267E+01 -1.16458E+01 -1.37158E+01 -1.40172E+01 -1.23432E+01 -1.42533E+01 -1.04572E+01 -1.49401E+01
  -1.41205E+01 -1.39288E+01 -1.59554E+01 -1.36271E+01 -1.71261E+01 -1.71141E+01 -1.66491E+01 -1.27677E+01 -1.43224E+01 -1.94409E+01
  -1.38367E+01 -1.71708E+01 -1.64618E+01 -1.90082E+01 -1.50113E+01 -1.85761E+01 -1.69991E+01 -1.97922E+01 -1.69080E+01 -1.39000E+01
  -1.38432E+01 -1.61618E+01 -1.20109E+01 -1.43069E+01 -1.53820E+01 -2.02454E+01 -1.64909E+01 -1.70494E+01 -1.31536E+01 -1.60066E+01
  -1.27661E+01 -1.75708E+01 -1.46387E+01 -1.53329E+01 -1.63869E+01 -1.62616E+01 -1.22634E+01 -1.51223E+01 -1.93634E+01 -1.67555E+01
  -1.54027E+01 -1.69332E+01 -1.45929E+01 -1.98242E+01 -1.67211E+01 -1.92586E+01 -1.75776E+01 -2.08400E+01 -1.97933E+01 -1.55184E+01
  -1.63591E+01 -1.98690E+01 -1.98808E+01 -1.77608E+01 -1.37436E+01 -1.80523E+01 -1.21152E+01 -1.75432E+01 -1.49716E+01 -1.26298E+01
  -1.53469E+01 -1.55873E+01 -1.64421E+01 -1.83420E+01 -1.28453E+01 -1.58065E+01 -1.68852E+01 -1.79554E+01 -1.97437E+01 -1.77424E+01
  -1.86979E+01 -1.48363E+01 -1.48971E+01 -1.89541E+01 -2.20276E+01 -2.13913E+01 -2.04360E+01 -1.82448E+01 -1.12545E+01 -1.52161E+01
  -1.47528E+01 -1.19804E+01 -1.77110E+01 -1.62780E+01 -1.06386E+01 -1.42055E+01 -1.24722E+01 -1.38824E+01 -1.13734E+01 -1.41285E+01
  -1.47049E+01 -1.15890E+01 -1.76545E+01 -1.77991E+01 -1.41680E+01 -1.56056E+01 -1.07859E+01 -1.71400E+01 -1.37139E+01 -1.35090E+01
  -1.30049E+01 -1.17278E+01 -1.51097E+01 -1.07371E+01 -7.86141E+00 -1.05030E+01 -1.20674E+01 -8.66087E+00 -9.46347E+00 -1.02945E+01
  -1.03384E+01 -3.60485E+00 -8.96138E+00 -6.01970E+00 -4.57320E+00 -3.43584E+00 -1.43759E+00  9.32325E-01  6.85189E-01  1.19883E+00
   1.42545E+00  1.20888E+00  4.23600E+00  3.30140E+00  3.91751E+00 -4.98747E-01  8.94420E+00  5.50158E+00  6.00444E+00  7.82750E+00
   3.43388E+00  4.88039E+00  2.39184E+00 -1.93473E+00  5.39312E+00  1.53099E+00  2.87980E+00  1.05363E+00  5.07041E+00  9.67271E-01
   4.51680E-01  1.73765E+00  1.05665E+00  2.84348E+00  6.11428E+00 -4.85660E+00  6.11808E-02  4.05619E-01  4.60239E+00 -2.78517E+00
  -1.77060E+00  8.55212E-01  9.71400E-01 -2.84496E+00  5.89502E-01  1.25171E-01 -1.27904E+00 -1.66012E+00 -1.78481E+00 -1.40091E+00
   6.89713E-01  9.10790E-02 -5.60451E-01 -3.82466E+00  3.58354E-01  1.34459E-01 -3.24648E+00  9.01827E-01 -4.11028E+00 -4.57696E+00
  -3.67530E+00 -2.46218E+00 -1.69650E+00 -6.80276E+00 -2.38994E+00 -5.60454E+00 -6.63834E-01 -3.97347E+00 -8.43174E-01 -9.78944E-01
  -2.51681E+00 -3.08462E+00 -1.20960E+00 -3.09134E+00  4.11470E+00 -4.24710E+00  2.15755E+00 -8.48661E-01 -1.84183E+00 -2.56680E+00
  -2.40912E+00 -2.38668E+00 -9.06058E-01 -2.59651E+00 -3.53850E-01  2.08135E+00 -4.27682E+00 -3.66024E+00 -4.48195E+00 -3.22202E+00
   1.29585E+00 -4.48296E+00 -5.38405E+00 -1.43288E+00 -2.82384E+00  3.12951E-01  5.83001E-01 -2.69250E+00 -2.76505E+00 -3.07222E+00
  -6.60014E+00 -9.13127E+00 -6.79733E-01 -5.56961E-01 -4.34405E+00 -4.60235E+00 -2.94669E-01 -3.77064E+00
 NY points of the fit to the data follow
  -9.61522E-01 -1.44279E+00 -1.84806E+00 -2.02532E+00 -1.88079E+00 -1.51512E+00 -7.70410E-01  5.77478E-01  2.74798E+00  5.88746E+00
   9.57013E+00  1.25999E+01  1.40090E+01  1.40965E+01  1.38012E+01  1.33576E+01  1.22564E+01  1.03053E+01  8.02851E+00  6.01893E+00
   4.34390E+00  2.75143E+00  1.20164E+00  1.19748E-01 -2.65191E-01 -1.86298E-01  3.84655E-01  1.57375E+00  3.17595E+00  4.57891E+00
   5.35057E+00  5.60682E+00  5.57897E+00  5.22531E+00  4.42769E+00  3.29779E+00  2.14309E+00  1.19018E+00  4.20649E-01 -2.51905E-01
  -6.64899E-01 -5.90766E-01 -1.29046E-01  5.77103E-01  1.53384E+00  2.58591E+00  3.29846E+00  3.36201E+00  2.93941E+00  2.36152E+00
   1.72496E+00  9.26028E-01 -4.25971E-02 -9.49149E-01 -1.59377E+00 -2.01289E+00 -2.31344E+00 -2.47026E+00 -2.47289E+00 -2.48470E+00
  -2.66228E+00 -2.99122E+00 -3.37225E+00 -3.74344E+00 -4.09152E+00 -4.39316E+00 -4.60790E+00 -4.72309E+00 -4.75737E+00 -4.72724E+00
  -4.66413E+00 -4.63654E+00 -4.68257E+00 -4.77816E+00 -4.89741E+00 -5.04628E+00 -5.24030E+00 -5.44674E+00 -5.61994E+00 -5.73655E+00
  -5.77741E+00 -5.74902E+00 -5.64338E+00 -5.46112E+00 -5.32124E+00 -5.41829E+00 -5.80547E+00 -6.28759E+00 -6.66159E+00 -6.93581E+00
  -7.22623E+00 -7.55042E+00 -7.81278E+00 -7.89502E+00 -7.55253E+00 -6.71190E+00 -5.23947E+00 -2.57838E+00  1.55921E+00  7.31238E+00
   1.46803E+01  2.24114E+01  2.78656E+01  2.94358E+01  2.82645E+01  2.63560E+01  2.40049E+01  2.02658E+01  1.50728E+01  9.67445E+00
   5.25517E+00  1.78534E+00 -1.37691E+00 -4.14526E+00 -5.80147E+00 -6.45000E+00 -6.77154E+00 -6.97732E+00 -7.07669E+00 -6.87629E+00
  -6.24389E+00 -5.14626E+00 -3.30748E+00 -5.64269E-01  3.19851E+00  8.03607E+00  1.32152E+01  1.70266E+01  1.82994E+01  1.76851E+01
   1.65400E+01  1.50836E+01  1.25530E+01  8.78541E+00  4.68910E+00  1.28869E+00 -1.27427E+00 -3.46423E+00 -5.32826E+00 -6.41132E+00
  -6.75813E+00 -6.90493E+00 -7.04881E+00 -7.21714E+00 -7.39353E+00 -7.60095E+00 -7.88379E+00 -8.23549E+00 -8.63344E+00 -9.06167E+00
  -9.49555E+00 -9.91872E+00 -1.03134E+01 -1.06298E+01 -1.08683E+01 -1.10643E+01 -1.12720E+01 -1.15589E+01 -1.19245E+01 -1.22763E+01
  -1.25045E+01 -1.26039E+01 -1.26870E+01 -1.28857E+01 -1.32266E+01 -1.36144E+01 -1.39610E+01 -1.42844E+01 -1.46275E+01 -1.49684E+01
  -1.52781E+01 -1.55906E+01 -1.59713E+01 -1.63884E+01 -1.67211E+01 -1.68493E+01 -1.68358E+01 -1.68885E+01 -1.70831E+01 -1.72744E+01
  -1.73091E+01 -1.71951E+01 -1.70505E+01 -1.69384E+01 -1.67507E+01 -1.63033E+01 -1.55534E+01 -1.46707E+01 -1.38408E+01 -1.31655E+01
  -1.26756E+01 -1.24329E+01 -1.24800E+01 -1.27400E+01 -1.31017E+01 -1.34683E+01 -1.37221E+01 -1.37077E+01 -1.33860E+01 -1.28672E+01
  -1.23100E+01 -1.18021E+01 -1.13875E+01 -1.12285E+01 -1.15071E+01 -1.22144E+01 -1.31920E+01 -1.42187E+01 -1.50716E+01 -1.55541E+01
  -1.55626E+01 -1.51439E+01 -1.43383E+01 -1.32269E+01 -1.21153E+01 -1.14248E+01 -1.13336E+01 -1.16750E+01 -1.22263E+01 -1.29624E+01
  -1.38360E+01 -1.45070E+01 -1.45922E+01 -1.41513E+01 -1.35392E+01 -1.29261E+01 -1.22323E+01 -1.14186E+01 -1.06801E+01 -1.01815E+01
  -9.80838E+00 -9.34304E+00 -8.76915E+00 -8.25281E+00 -7.82947E+00 -7.38285E+00 -6.95908E+00 -6.73335E+00 -6.74806E+00 -6.88473E+00
  -7.00980E+00 -7.02330E+00 -6.85001E+00 -6.47224E+00 -5.95808E+00 -5.40900E+00 -4.80864E+00 -3.99892E+00 -2.95659E+00 -1.62610E+00
   1.87636E-01  2.95134E+00  6.79303E+00  1.16809E+01  1.73525E+01  2.31260E+01  2.90934E+01  3.59367E+01  4.25445E+01  4.57210E+01
   4.39043E+01  3.91659E+01  3.42210E+01  2.92283E+01  2.28796E+01  1.52350E+01  8.04743E+00  2.66239E+00 -1.45692E+00 -5.23304E+00
  -8.40468E+00 -1.01681E+01 -1.09384E+01 -1.14889E+01 -1.19899E+01 -1.24607E+01 -1.28966E+01 -1.32986E+01 -1.36760E+01 -1.40363E+01
  -1.43607E+01 -1.46346E+01 -1.48729E+01 -1.50991E+01 -1.53139E+01 -1.55008E+01 -1.56551E+01 -1.57883E+01 -1.59042E+01 -1.59889E+01
  -1.60353E+01 -1.60556E+01 -1.60668E+01 -1.60703E+01 -1.60594E+01 -1.60375E+01 -1.60148E+01 -1.59924E+01 -1.59631E+01 -1.59233E+01
  -1.58791E+01 -1.58396E+01 -1.58059E+01 -1.57743E+01 -1.57474E+01 -1.57313E+01 -1.57297E+01 -1.57425E+01 -1.57686E+01 -1.58085E+01
  -1.58627E+01 -1.59281E+01 -1.60015E+01 -1.60797E+01 -1.61592E+01 -1.62367E+01 -1.63088E+01 -1.63705E+01 -1.64157E+01 -1.64459E+01
  -1.64602E+01 -1.64577E+01 -1.64466E+01 -1.64375E+01 -1.64514E+01 -1.65270E+01 -1.66821E+01 -1.68808E+01 -1.70604E+01 -1.71872E+01
  -1.72719E+01 -1.73121E+01 -1.72636E+01 -1.70995E+01 -1.68702E+01 -1.66590E+01 -1.64882E+01 -1.63147E+01 -1.61153E+01 -1.59317E+01
  -1.57946E+01 -1.56861E+01 -1.55840E+01 -1.54882E+01 -1.54287E+01 -1.54488E+01 -1.55581E+01 -1.57212E+01 -1.58715E+01 -1.59610E+01
  -1.59978E+01 -1.59865E+01 -1.58859E+01 -1.56716E+01 -1.53998E+01 -1.51550E+01 -1.49557E+01 -1.47581E+01 -1.45453E+01 -1.43609E+01
  -1.42357E+01 -1.41476E+01 -1.40634E+01 -1.39744E+01 -1.38914E+01 -1.38117E+01 -1.37132E+01 -1.35913E+01 -1.34551E+01 -1.33081E+01
  -1.31519E+01 -1.29870E+01 -1.28135E+01 -1.26312E+01 -1.24397E+01 -1.22384E+01 -1.20265E+01 -1.18031E+01 -1.15674E+01 -1.13180E+01
  -1.10536E+01 -1.07725E+01 -1.04731E+01 -1.01536E+01 -9.81188E+00 -9.44582E+00 -9.05310E+00 -8.63144E+00 -8.17866E+00 -7.69269E+00
  -7.17171E+00 -6.61426E+00 -6.01947E+00 -5.38730E+00 -4.71868E+00 -4.01566E+00 -3.28153E+00 -2.52100E+00 -1.74037E+00 -9.47559E-01
  -1.51980E-01  6.35623E-01  1.40340E+00  2.13869E+00  2.82834E+00  3.45928E+00  4.01902E+00  4.49628E+00  4.88141E+00  5.16686E+00
   5.34753E+00  5.42103E+00  5.38792E+00  5.25167E+00  5.01846E+00  4.69683E+00  4.29734E+00  3.83207E+00  3.31419E+00  2.75733E+00
   2.17502E+00  1.58019E+00  9.84793E-01  3.99511E-01 -1.66424E-01 -7.05429E-01 -1.21163E+00 -1.68081E+00 -2.11025E+00 -2.49857E+00
  -2.84549E+00 -3.15173E+00 -3.41879E+00 -3.64878E+00 -3.84413E+00 -4.00747E+00 -4.14150E+00 -4.24899E+00 -4.33263E+00 -4.39500E+00
  -4.43844E+00 -4.46510E+00 -4.47690E+00 -4.47566E+00 -4.46300E+00 -4.44032E+00 -4.40886E+00 -4.36966E+00 -4.32369E+00 -4.27181E+00
  -4.21479E+00 -4.15330E+00 -4.08785E+00 -4.01892E+00 -3.94693E+00 -3.87226E+00 -3.79526E+00 -3.71616E+00 -3.63518E+00 -3.55252E+00
  -3.46837E+00 -3.38294E+00 -3.29638E+00 -3.20878E+00 -3.12022E+00 -3.03081E+00 -2.94066E+00 -2.84989E+00 -2.75853E+00 -2.66662E+00
  -2.57419E+00 -2.48130E+00 -2.38804E+00 -2.29444E+00 -2.20050E+00 -2.10622E+00 -2.01161E+00 -1.91674E+00 -1.82165E+00 -1.72633E+00
  -1.63076E+00 -1.53492E+00 -1.43884E+00 -1.34256E+00 -1.24608E+00 -1.14939E+00 -1.05243E+00 -9.55206E-01 -8.57733E-01 -7.60039E-01
  -6.62102E-01 -5.63876E-01 -4.65313E-01 -3.66413E-01 -2.67192E-01 -1.67647E-01 -6.77234E-02  3.26451E-02
 NY background values follow
    -2.593E+00   -2.649E+00   -2.704E+00   -2.760E+00   -2.816E+00   -2.872E+00   -2.927E+00   -2.983E+00   -3.039E+00   -3.095E+00
    -3.150E+00   -3.206E+00   -3.262E+00   -3.318E+00   -3.374E+00   -3.430E+00   -3.486E+00   -3.542E+00   -3.598E+00   -3.655E+00
    -3.711E+00   -3.767E+00   -3.824E+00   -3.880E+00   -3.937E+00   -3.993E+00   -4.050E+00   -4.107E+00   -4.164E+00   -4.221E+00
    -4.278E+00   -4.335E+00   -4.393E+00   -4.450E+00   -4.508E+00   -4.565E+00   -4.623E+00   -4.681E+00   -4.739E+00   -4.798E+00
    -4.856E+00   -4.915E+00   -4.973E+00   -5.032E+00   -5.091E+00   -5.150E+00   -5.210E+00   -5.269E+00   -5.329E+00   -5.388E+00
    -5.448E+00   -5.508E+00   -5.569E+00   -5.629E+00   -5.690E+00   -5.750E+00   -5.811E+00   -5.872E+00   -5.933E+00   -5.994E+00
    -6.055E+00   -6.117E+00   -6.178E+00   -6.240E+00   -6.302E+00   -6.363E+00   -6.425E+00   -6.487E+00   -6.550E+00   -6.612E+00
    -6.674E+00   -6.737E+00   -6.799E+00   -6.862E+00   -6.924E+00   -6.987E+00   -7.050E+00   -7.112E+00   -7.175E+00   -7.238E+00
    -7.301E+00   -7.364E+00   -7.428E+00   -7.491E+00   -7.554E+00   -7.617E+00   -7.680E+00   -7.744E+00   -7.807E+00   -7.870E+00
    -7.934E+00   -7.997E+00   -8.061E+00   -8.124E+00   -8.188E+00   -8.251E+00   -8.315E+00   -8.378E+00   -8.442E+00   -8.506E+00
    -8.569E+00   -8.633E+00   -8.697E+00   -8.761E+00   -8.825E+00   -8.889E+00   -8.953E+00   -9.017E+00   -9.082E+00   -9.146E+00
    -9.210E+00   -9.275E+00   -9.340E+00   -9.404E+00   -9.469E+00   -9.534E+00   -9.600E+00   -9.665E+00   -9.730E+00   -9.796E+00
    -9.861E+00   -9.927E+00   -9.993E+00   -1.006E+01   -1.013E+01   -1.019E+01   -1.026E+01   -1.032E+01   -1.039E+01   -1.046E+01
    -1.053E+01   -1.059E+01   -1.066E+01   -1.073E+01   -1.080E+01   -1.086E+01   -1.093E+01   -1.100E+01   -1.107E+01   -1.114E+01
    -1.121E+01   -1.128E+01   -1.135E+01   -1.142E+01   -1.149E+01   -1.155E+01   -1.162E+01   -1.169E+01   -1.176E+01   -1.183E+01
    -1.190E+01   -1.197E+01   -1.204E+01   -1.211E+01   -1.218E+01   -1.225E+01   -1.232E+01   -1.239E+01   -1.246E+01   -1.253E+01
    -1.260E+01   -1.267E+01   -1.274E+01   -1.281E+01   -1.288E+01   -1.295E+01   -1.302E+01   -1.308E+01   -1.315E+01   -1.322E+01
    -1.329E+01   -1.336E+01   -1.342E+01   -1.349E+01   -1.356E+01   -1.362E+01   -1.369E+01   -1.375E+01   -1.382E+01   -1.389E+01
    -1.395E+01   -1.401E+01   -1.408E+01   -1.414E+01   -1.421E+01   -1.427E+01   -1.433E+01   -1.439E+01   -1.445E+01   -1.452E+01
    -1.458E+01   -1.464E+01   -1.470E+01   -1.476E+01   -1.482E+01   -1.488E+01   -1.494E+01   -1.500E+01   -1.506E+01   -1.511E+01
    -1.517E+01   -1.523E+01   -1.529E+01   -1.535E+01   -1.540E+01   -1.546E+01   -1.552E+01   -1.557E+01   -1.563E+01   -1.568E+01
    -1.574E+01   -1.580E+01   -1.585E+01   -1.591E+01   -1.596E+01   -1.602E+01   -1.607E+01   -1.612E+01   -1.618E+01   -1.623E+01
    -1.629E+01   -1.634E+01   -1.639E+01   -1.645E+01   -1.650E+01   -1.655E+01   -1.661E+01   -1.666E+01   -1.671E+01   -1.676E+01
    -1.681E+01   -1.687E+01   -1.692E+01   -1.697E+01   -1.702E+01   -1.707E+01   -1.712E+01   -1.717E+01   -1.722E+01   -1.727E+01
    -1.732E+01   -1.737E+01   -1.742E+01   -1.746E+01   -1.751E+01   -1.756E+01   -1.760E+01   -1.765E+01   -1.769E+01   -1.774E+01
    -1.778E+01   -1.782E+01   -1.787E+01   -1.791E+01   -1.795E+01   -1.799E+01   -1.803E+01   -1.807E+01   -1.810E+01   -1.814E+01
    -1.818E+01   -1.821E+01   -1.824E+01   -1.828E+01   -1.831E+01   -1.834E+01   -1.837E+01   -1.840E+01   -1.843E+01   -1.846E+01
    -1.848E+01   -1.851E+01   -1.853E+01   -1.855E+01   -1.857E+01   -1.860E+01   -1.861E+01   -1.863E+01   -1.865E+01   -1.867E+01
    -1.868E+01   -1.869E+01   -1.871E+01   -1.872E+01   -1.873E+01   -1.874E+01   -1.874E+01   -1.875E+01   -1.875E+01   -1.876E+01
    -1.876E+01   -1.876E+01   -1.876E+01   -1.876E+01   -1.876E+01   -1.876E+01   -1.875E+01   -1.875E+01   -1.874E+01   -1.873E+01
    -1.872E+01   -1.871E+01   -1.870E+01   -1.869E+01   -1.867E+01   -1.865E+01   -1.864E+01   -1.862E+01   -1.860E+01   -1.858E+01
    -1.856E+01   -1.853E+01   -1.851E+01   -1.848E+01   -1.845E+01   -1.842E+01   -1.839E+01   -1.836E+01   -1.833E+01   -1.830E+01
    -1.826E+01   -1.822E+01   -1.818E+01   -1.814E+01   -1.810E+01   -1.806E+01   -1.802E+01   -1.797E+01   -1.793E+01   -1.788E+01
    -1.783E+01   -1.778E+01   -1.773E+01   -1.767E+01   -1.762E+01   -1.756E+01   -1.751E+01   -1.745E+01   -1.739E+01   -1.733E+01
    -1.726E+01   -1.720E+01   -1.713E+01   -1.707E+01   -1.700E+01   -1.693E+01   -1.686E+01   -1.679E+01   -1.671E+01   -1.664E+01
    -1.656E+01   -1.648E+01   -1.640E+01   -1.632E+01   -1.624E+01   -1.615E+01   -1.607E+01   -1.598E+01   -1.589E+01   -1.581E+01
    -1.571E+01   -1.562E+01   -1.553E+01   -1.543E+01   -1.534E+01   -1.524E+01   -1.514E+01   -1.504E+01   -1.494E+01   -1.483E+01
    -1.473E+01   -1.463E+01   -1.452E+01   -1.441E+01   -1.430E+01   -1.419E+01   -1.408E+01   -1.397E+01   -1.386E+01   -1.374E+01
    -1.363E+01   -1.351E+01   -1.339E+01   -1.328E+01   -1.316E+01   -1.304E+01   -1.292E+01   -1.280E+01   -1.268E+01   -1.256E+01
    -1.243E+01   -1.231E+01   -1.219E+01   -1.206E+01   -1.194E+01   -1.181E+01   -1.168E+01   -1.156E+01   -1.143E+01   -1.130E+01
    -1.117E+01   -1.105E+01   -1.092E+01   -1.079E+01   -1.066E+01   -1.053E+01   -1.040E+01   -1.027E+01   -1.014E+01   -1.001E+01
    -9.878E+00   -9.747E+00   -9.616E+00   -9.485E+00   -9.355E+00   -9.224E+00   -9.093E+00   -8.962E+00   -8.831E+00   -8.700E+00
    -8.569E+00   -8.439E+00   -8.308E+00   -8.178E+00   -8.048E+00   -7.918E+00   -7.788E+00   -7.658E+00   -7.529E+00   -7.399E+00
    -7.270E+00   -7.142E+00   -7.014E+00   -6.886E+00   -6.758E+00   -6.631E+00   -6.504E+00   -6.377E+00   -6.252E+00   -6.126E+00
    -6.001E+00   -5.876E+00   -5.752E+00   -5.629E+00   -5.506E+00   -5.384E+00   -5.262E+00   -5.141E+00   -5.021E+00   -4.901E+00
    -4.782E+00   -4.663E+00   -4.546E+00   -4.429E+00   -4.313E+00   -4.197E+00   -4.082E+00   -3.968E+00   -3.855E+00   -3.742E+00
    -3.629E+00   -3.518E+00   -3.407E+00   -3.296E+00   -3.186E+00   -3.077E+00   -2.968E+00   -2.859E+00   -2.751E+00   -2.644E+00
    -2.537E+00   -2.430E+00   -2.324E+00   -2.218E+00   -2.112E+00   -2.007E+00   -1.902E+00   -1.798E+00   -1.693E+00   -1.589E+00
    -1.485E+00   -1.382E+00   -1.278E+00   -1.175E+00   -1.072E+00   -9.695E-01   -8.668E-01   -7.643E-01   -6.618E-01   -5.595E-01
    -4.572E-01   -3.549E-01   -2.527E-01   -1.505E-01   -4.832E-02    5.390E-02    1.562E-01    2.585E-01
 Ala      Conc. = 6.26E+01
