 LCModel (Version 6.3-1L) Copyright: S.W. Provencher.          Ref.: Magn. Reson. Med. 30:672-679 (1993).                
 Slice#1 Row#5 Col#6  PD_24_press_1_raw_act
 36 lines in following concentration table = NCONC+1
    Conc.  %SD /Cr+PCr  Metabolite                                         
  185.186  80%   0.283 Ala                                                 
  157.885  97%   0.241 Asp                                                 
  653.810   9%   1.000 Cr                                                  
    0.000 999%   0.000 PCr                                                 
   51.905 189% 7.9E-02 GABA                                                
   30.296 319% 4.6E-02 Glc                                                 
   63.043 498% 9.6E-02 Gln                                                 
  458.558  77%   0.701 Glu                                                 
  326.539  49%   0.499 GPC                                                 
   57.428 284% 8.8E-02 PCh                                                 
  208.180  40%   0.318 GSH                                                 
  582.789  48%   0.891 Ins                                                 
    0.000 999%   0.000 Lac                                                 
 1.32E+03   9%   2.024 NAA                                                 
   52.881 253% 8.1E-02 NAAG                                                
   65.954  37%   0.101 Scyllo                                              
  226.071  67%   0.346 Tau                                                 
  366.706  28%   0.561 -CrCH2                                              
  383.967   6%   0.587 GPC+PCh                                             
 1.38E+03   6%   2.105 NAA+NAAG                                            
  653.810   9%   1.000 Cr+PCr                                              
  521.601 104%   0.798 Glu+Gln                                             
    0.000 999%   0.000 Lip13a                                              
    0.000 999%   0.000 Lip13b                                              
    0.000 999%   0.000 Lip09                                               
  941.405  14%   1.440 MM09                                                
 6.13E-03 999% 9.4E-06 Lip20                                               
 2.20E+03  12%   3.358 MM20                                                
  214.953  40%   0.329 MM12                                                
 1.20E+03  11%   1.831 MM14                                                
  581.733  26%   0.890 MM17                                                
    0.000 999%   0.000 Lip13a+Lip13b                                       
 1.41E+03  11%   2.160 MM14+Lip13a+Lip13b+MM12                             
  941.405  14%   1.440 MM09+Lip09                                          
 2.20E+03  12%   3.358 MM20+Lip20                                          
   6 lines in following misc. output table
  FWHM = 0.061 ppm    S/N =   6                                            
  Data shift = 0.008 ppm                                                   
  Ph: -29 deg      -4.7 deg/ppm                                            
  alphaB,S = 5.6E+00,   5.7E+01                                            
   14 spline knots.   Ns = 8(1)                                            
  (10) 6 infls.   ( 3) 1 extrs.                                            
  498 points on ppm-axis = NY
      4.000000     3.992357     3.984714     3.977070     3.969427     3.961784     3.954141     3.946497     3.938854     3.931211
      3.923568     3.915925     3.908281     3.900638     3.892995     3.885352     3.877708     3.870065     3.862422     3.854779
      3.847136     3.839492     3.831849     3.824206     3.816563     3.808919     3.801276     3.793633     3.785990     3.778347
      3.770703     3.763060     3.755417     3.747774     3.740130     3.732487     3.724844     3.717201     3.709558     3.701914
      3.694271     3.686628     3.678985     3.671341     3.663698     3.656055     3.648412     3.640769     3.633125     3.625482
      3.617839     3.610196     3.602552     3.594909     3.587266     3.579623     3.571980     3.564336     3.556693     3.549050
      3.541407     3.533763     3.526120     3.518477     3.510834     3.503191     3.495547     3.487904     3.480261     3.472618
      3.464974     3.457331     3.449688     3.442045     3.434402     3.426758     3.419115     3.411472     3.403829     3.396185
      3.388542     3.380899     3.373256     3.365613     3.357969     3.350326     3.342683     3.335040     3.327396     3.319753
      3.312110     3.304467     3.296824     3.289180     3.281537     3.273894     3.266251     3.258607     3.250964     3.243321
      3.235678     3.228034     3.220391     3.212748     3.205105     3.197462     3.189818     3.182175     3.174532     3.166889
      3.159245     3.151602     3.143959     3.136316     3.128673     3.121029     3.113386     3.105743     3.098100     3.090456
      3.082813     3.075170     3.067527     3.059884     3.052240     3.044597     3.036954     3.029311     3.021667     3.014024
      3.006381     2.998738     2.991095     2.983451     2.975808     2.968165     2.960522     2.952878     2.945235     2.937592
      2.929949     2.922306     2.914662     2.907019     2.899376     2.891733     2.884089     2.876446     2.868803     2.861160
      2.853517     2.845873     2.838230     2.830587     2.822944     2.815300     2.807657     2.800014     2.792371     2.784728
      2.777084     2.769441     2.761798     2.754155     2.746511     2.738868     2.731225     2.723582     2.715939     2.708295
      2.700652     2.693009     2.685366     2.677722     2.670079     2.662436     2.654793     2.647150     2.639506     2.631863
      2.624220     2.616577     2.608933     2.601290     2.593647     2.586004     2.578361     2.570717     2.563074     2.555431
      2.547788     2.540144     2.532501     2.524858     2.517215     2.509572     2.501928     2.494285     2.486642     2.478999
      2.471355     2.463712     2.456069     2.448426     2.440783     2.433139     2.425496     2.417853     2.410210     2.402566
      2.394923     2.387280     2.379637     2.371994     2.364350     2.356707     2.349064     2.341421     2.333777     2.326134
      2.318491     2.310848     2.303205     2.295561     2.287918     2.280275     2.272632     2.264988     2.257345     2.249702
      2.242059     2.234416     2.226772     2.219129     2.211486     2.203843     2.196199     2.188556     2.180913     2.173270
      2.165627     2.157983     2.150340     2.142697     2.135054     2.127410     2.119767     2.112124     2.104481     2.096838
      2.089194     2.081551     2.073908     2.066265     2.058621     2.050978     2.043335     2.035692     2.028049     2.020405
      2.012762     2.005119     1.997476     1.989833     1.982190     1.974546     1.966903     1.959260     1.951617     1.943974
      1.936331     1.928688     1.921045     1.913402     1.905759     1.898115     1.890472     1.882829     1.875186     1.867543
      1.859900     1.852257     1.844614     1.836971     1.829327     1.821684     1.814041     1.806398     1.798755     1.791112
      1.783469     1.775826     1.768183     1.760540     1.752896     1.745253     1.737610     1.729967     1.722324     1.714681
      1.707038     1.699395     1.691752     1.684108     1.676465     1.668822     1.661179     1.653536     1.645893     1.638250
      1.630607     1.622964     1.615321     1.607677     1.600034     1.592391     1.584748     1.577105     1.569462     1.561819
      1.554176     1.546533     1.538890     1.531246     1.523603     1.515960     1.508317     1.500674     1.493031     1.485388
      1.477745     1.470102     1.462458     1.454815     1.447172     1.439529     1.431886     1.424243     1.416600     1.408957
      1.401314     1.393671     1.386027     1.378384     1.370741     1.363098     1.355455     1.347812     1.340169     1.332526
      1.324883     1.317240     1.309596     1.301953     1.294310     1.286667     1.279024     1.271381     1.263738     1.256095
      1.248452     1.240808     1.233165     1.225522     1.217879     1.210236     1.202593     1.194950     1.187307     1.179664
      1.172021     1.164377     1.156734     1.149091     1.141448     1.133805     1.126162     1.118519     1.110876     1.103233
      1.095590     1.087946     1.080303     1.072660     1.065017     1.057374     1.049731     1.042088     1.034445     1.026802
      1.019158     1.011515     1.003872     0.996229     0.988586     0.980943     0.973300     0.965657     0.958014     0.950371
      0.942727     0.935084     0.927441     0.919798     0.912155     0.904512     0.896869     0.889226     0.881583     0.873940
      0.866296     0.858653     0.851010     0.843367     0.835724     0.828081     0.820438     0.812795     0.805152     0.797508
      0.789865     0.782222     0.774579     0.766936     0.759293     0.751650     0.744007     0.736364     0.728721     0.721077
      0.713434     0.705791     0.698148     0.690505     0.682862     0.675219     0.667576     0.659933     0.652290     0.644646
      0.637003     0.629360     0.621717     0.614074     0.606431     0.598788     0.591145     0.583502     0.575858     0.568215
      0.560572     0.552929     0.545286     0.537643     0.530000     0.522357     0.514714     0.507071     0.499427     0.491784
      0.484141     0.476498     0.468855     0.461212     0.453569     0.445925     0.438282     0.430639     0.422996     0.415353
      0.407710     0.400067     0.392424     0.384780     0.377137     0.369494     0.361851     0.354208     0.346565     0.338922
      0.331278     0.323635     0.315992     0.308349     0.300706     0.293063     0.285420     0.277777     0.270133     0.262490
      0.254847     0.247204     0.239561     0.231918     0.224275     0.216631     0.208988     0.201345
 NY phased data points follow
  -1.51819E+01 -1.77665E+01 -1.67577E+01 -1.59532E+01 -1.16694E+01 -1.22883E+01 -7.21748E+00 -7.03416E+00 -8.82957E-01 -3.55021E+00
   1.37094E+00 -1.59593E+00 -1.52524E+00 -1.68421E-02 -3.26555E+00 -7.66946E+00 -5.34561E+00 -7.44552E+00 -7.13892E+00 -9.73103E+00
  -9.51570E+00 -5.21052E+00 -7.88243E+00 -9.08778E+00 -3.88524E+00 -7.44373E+00 -4.23679E+00 -5.78516E+00 -5.04658E+00 -7.70769E+00
  -5.18167E+00 -3.51900E+00 -6.84487E+00 -1.01761E+01 -5.11193E+00 -3.81768E+00 -7.31046E+00 -6.33791E+00 -7.96604E-01 -6.35699E+00
  -7.38861E+00 -2.21353E+00 -1.62603E+00 -2.75710E+00 -4.59374E+00  4.26869E-01  1.82554E+00 -3.42373E+00  9.83062E-01 -5.94866E+00
  -1.11599E+00 -5.58114E+00 -6.62429E+00 -3.94223E+00 -7.76607E+00 -3.15893E+00 -4.47183E+00 -8.21178E+00 -4.72857E+00 -1.02850E+01
  -8.36458E+00 -5.63300E+00 -6.91032E+00 -6.63114E+00 -5.15601E+00 -8.23152E+00 -8.27026E+00 -1.27652E+01 -6.26896E+00 -7.63692E+00
  -9.37980E+00 -5.37098E+00 -2.58978E-01 -1.16880E+01 -5.73107E+00 -3.93268E+00 -4.03517E+00 -1.04334E+01 -7.49792E+00 -6.96460E+00
  -3.92128E+00 -6.85890E+00 -5.12005E+00 -7.75318E+00 -2.50533E+00 -9.54830E+00 -5.68864E+00 -3.58887E+00 -7.14953E+00  9.85365E-01
  -4.34970E+00 -4.06425E+00 -1.65696E+00  1.38745E+00  1.93849E+00 -2.22844E+00  7.52937E+00  6.27440E+00  1.12792E+01  1.18182E+01
   1.39262E+01  2.03533E+01  2.68688E+01  2.21228E+01  1.70973E+01  1.46896E+01  1.40918E+01  5.65454E+00  8.26928E+00  7.87889E-01
  -1.60848E-01 -6.59839E+00 -4.11997E+00 -4.70836E+00 -3.21348E+00 -8.12430E+00  3.55604E+00 -8.11371E+00 -5.54993E+00 -5.86375E+00
  -9.82170E-01 -2.29496E+00 -3.04606E-01  2.64392E+00  9.15950E+00  1.05529E+01  1.31323E+01  1.72665E+01  1.59621E+01  8.03393E+00
  -2.31623E+00  5.05419E+00  8.63388E+00 -3.80044E+00  7.82065E+00 -6.44724E+00 -1.91408E+00 -5.77128E+00 -3.30363E+00 -4.24361E+00
  -5.96876E+00 -7.03060E+00 -2.43567E+00 -3.41097E+00 -5.64912E+00 -6.08680E+00  8.37894E-01 -3.87456E+00 -6.29310E+00 -9.59315E+00
  -3.65613E+00 -1.18150E+01 -3.62981E+00 -6.42185E+00 -5.28342E+00 -1.32355E+01 -4.82473E-01 -6.74543E+00 -7.21704E+00 -1.14510E+01
  -8.71449E+00 -7.86675E+00 -6.98196E+00 -9.05826E+00 -2.78796E-01 -6.40084E+00 -7.86933E+00 -7.45159E+00 -5.14876E+00 -8.58968E+00
  -7.21960E+00 -1.01119E+01 -6.86589E+00 -1.08525E+01 -7.74876E+00 -1.30697E+01 -1.08897E+01 -1.26972E+01 -1.26691E+01 -1.12049E+01
  -1.33348E+01 -1.26320E+01 -5.14710E+00 -8.37605E+00 -1.07642E+01 -4.67968E+00 -6.80720E+00 -8.98938E+00 -7.85474E+00 -3.24043E+00
  -6.08038E+00 -7.58360E+00 -2.67957E+00 -6.75911E+00 -5.55342E+00 -8.62880E+00 -1.53419E+00 -8.36407E+00 -4.67132E+00 -1.28571E+01
  -1.87371E+00 -3.38928E+00 -2.77057E+00 -2.33938E+00 -1.01136E+00 -3.77271E+00 -6.97506E+00 -2.20651E+00 -8.02189E+00 -3.07241E+00
  -3.34654E+00  2.88250E+00  2.51606E+00  1.60439E+00  2.09150E+00  1.66075E+00 -1.98390E-01 -1.12907E-01  1.48153E+00 -2.15984E+00
   4.24447E-01 -3.18120E+00 -4.17523E+00 -3.74219E-01 -1.28110E+00 -2.12003E+00  1.13210E+00  2.04392E-01 -4.07783E+00  3.15741E+00
  -2.98259E+00  1.42948E-01 -3.72529E+00  3.21489E-01 -1.90715E+00 -2.55484E+00  2.19728E+00 -6.12056E+00 -1.13033E+00 -6.55617E-01
  -4.07103E-01 -3.90310E+00 -3.11691E+00  1.55451E+00  3.42303E+00  3.50042E+00  7.58808E+00  5.90749E+00  6.40420E+00  7.72029E+00
   8.63225E+00  4.26257E+00  8.23458E+00  1.02985E+01  1.58806E+01  2.03782E+01  2.67218E+01  3.02266E+01  3.22855E+01  3.46206E+01
   4.13225E+01  3.94418E+01  3.18199E+01  2.21900E+01  1.78896E+01  1.33511E+01  1.23542E+01  6.23878E+00  9.62494E+00  1.79468E+00
   7.90636E+00  6.40025E-01  1.07047E+00 -2.57039E-01 -9.18989E-01  4.29609E+00  1.45481E+00 -4.42644E+00 -6.70347E-01  2.50873E+00
  -9.98838E-02  2.69673E+00 -2.41539E+00 -5.79562E+00 -3.12388E+00 -5.75925E+00 -9.03374E-01 -5.14433E+00 -3.05932E-01 -4.33296E+00
  -3.99417E+00 -2.18980E+00 -2.85966E-01  5.77504E-01 -3.57648E+00 -3.11704E+00  1.36149E+00 -8.21848E+00  2.69524E+00  2.23877E+00
  -1.40416E+00  1.26010E+00  3.24197E-01 -2.64368E+00 -1.66579E+00 -1.94717E+00  2.30983E+00 -2.14591E-01 -2.99934E-01 -1.83674E+00
  -3.37517E-01 -4.50065E+00 -4.67510E+00 -5.88763E+00 -9.68459E-01 -3.05433E+00 -4.06492E+00 -4.90735E+00 -2.72982E+00 -5.59662E+00
  -3.35308E+00 -6.76901E+00 -2.17639E+00 -5.87442E+00 -4.54129E+00 -1.69635E+00 -4.16852E+00 -1.77988E+00 -5.28983E+00 -3.22237E+00
  -6.42600E+00 -6.14753E+00 -5.25139E+00 -4.79264E+00  9.08293E-01  4.30301E+00  1.07011E+00  9.47979E-01  2.78099E+00  1.84189E+00
   2.80945E+00  1.16831E-01  7.11429E+00  6.80517E+00  8.57805E+00  4.40634E+00  3.84281E+00  6.19779E+00  1.57769E+01  6.03288E+00
   1.12959E+01  6.13820E+00  7.56172E+00  3.90647E+00  6.36608E-01 -2.31906E-01  3.99237E+00 -1.94642E+00 -6.56246E+00 -1.50636E+00
  -4.94528E+00 -5.97134E+00 -6.71235E+00 -1.09604E+01 -1.60442E+00 -7.63661E+00 -4.29957E+00 -4.29412E+00 -5.25217E+00 -4.59677E+00
  -6.70946E-01  2.19753E-01 -3.16392E-01 -4.79637E+00  7.47078E-01 -6.40498E+00 -1.15032E+00 -6.30665E+00 -4.19586E+00 -4.14727E+00
  -5.47588E+00 -7.03783E+00 -2.37306E+00 -9.34855E-01 -1.39760E+00 -1.15035E+00 -1.07021E+00 -5.64781E+00 -5.60534E+00 -4.09733E+00
  -7.11779E-01 -3.31601E+00 -3.30800E+00 -2.49213E+00 -2.33876E+00  1.34447E+00  2.36516E-01  1.89323E+00  1.63163E+00  3.22654E+00
   2.57898E+00  6.20225E+00  4.66035E+00  4.41972E+00  1.28932E+00  4.57515E+00  2.30115E-01 -6.28529E-01  1.37901E+00 -3.18448E-01
   5.56391E-01 -8.49179E-01  3.59732E+00 -2.20221E+00  4.66815E+00 -1.75866E-01  3.04683E+00 -4.24452E-01 -1.70135E+00 -9.66012E-01
  -1.14881E+00 -3.61039E-01 -4.77101E+00 -7.64443E+00 -4.83653E+00 -4.15172E+00 -1.62172E-01 -3.66891E+00 -6.14331E+00  1.20549E-01
  -4.11410E+00 -8.24967E+00 -8.75605E+00 -5.75108E+00 -9.45901E+00 -5.71637E+00 -4.28349E+00 -3.58212E+00 -4.03083E+00 -4.20609E+00
  -3.17060E+00 -2.39365E+00 -3.59697E+00 -4.20109E+00  2.75146E+00  2.22704E-01 -2.43463E+00 -2.31343E+00 -6.80382E-01 -4.82843E+00
  -4.52177E+00 -3.55925E+00 -1.95258E+00 -1.92228E+00 -1.76860E+00  2.34316E-01 -4.53832E+00 -2.94892E+00  8.81725E-01 -2.20562E+00
  -2.05725E+00 -3.09650E+00 -4.96991E+00 -1.99379E+00 -2.14540E+00 -1.01014E+00  5.67632E-01 -4.18312E+00 -5.86848E+00 -6.12823E+00
  -2.71431E-01 -1.24646E+00 -1.84908E+00 -3.88797E-01 -2.27731E+00 -3.80558E+00 -2.57636E+00  8.69975E-01 -5.48348E+00 -3.18783E+00
  -3.83640E+00 -5.27019E+00 -1.96786E+00 -7.12221E+00  9.16956E-01 -1.25625E+00 -7.79839E+00  8.54933E-01 -4.94046E+00 -3.38360E+00
  -2.75859E+00 -6.51828E+00 -3.92820E+00 -4.84074E+00 -2.59699E+00 -6.95681E+00 -1.16217E+00 -8.62249E+00
 NY points of the fit to the data follow
  -8.57446E+00 -9.32408E+00 -1.00376E+01 -1.00381E+01 -9.29888E+00 -8.44306E+00 -7.75490E+00 -7.18193E+00 -6.22740E+00 -4.27483E+00
  -1.53829E+00  5.72891E-01  7.76420E-01 -6.37533E-01 -2.31021E+00 -3.33456E+00 -3.77195E+00 -4.01717E+00 -4.50757E+00 -5.45119E+00
  -6.56649E+00 -7.22879E+00 -7.20253E+00 -6.94590E+00 -6.68767E+00 -6.40567E+00 -6.02144E+00 -5.52078E+00 -4.86467E+00 -4.11433E+00
  -3.60134E+00 -3.59430E+00 -3.95486E+00 -4.37979E+00 -4.72897E+00 -5.03723E+00 -5.35156E+00 -5.66493E+00 -5.99075E+00 -6.20682E+00
  -6.08097E+00 -5.68999E+00 -5.24196E+00 -4.85015E+00 -4.46960E+00 -4.04718E+00 -3.67119E+00 -3.54333E+00 -3.80723E+00 -4.40705E+00
  -5.11975E+00 -5.69058E+00 -5.98910E+00 -6.08712E+00 -6.14887E+00 -6.26641E+00 -6.40639E+00 -6.47542E+00 -6.41956E+00 -6.29768E+00
  -6.24682E+00 -6.32576E+00 -6.51006E+00 -6.70603E+00 -6.79457E+00 -6.75544E+00 -6.65312E+00 -6.53404E+00 -6.40921E+00 -6.30285E+00
  -6.20539E+00 -6.09860E+00 -6.01656E+00 -5.99332E+00 -5.99632E+00 -6.03687E+00 -6.17075E+00 -6.38756E+00 -6.50755E+00 -6.35146E+00
  -6.06237E+00 -5.75458E+00 -5.44739E+00 -5.18532E+00 -4.96041E+00 -4.73092E+00 -4.63175E+00 -4.88089E+00 -5.40054E+00 -5.89988E+00
  -6.16446E+00 -6.20527E+00 -6.16933E+00 -5.96040E+00 -4.65373E+00 -1.61676E+00  2.23952E+00  6.17495E+00  9.97918E+00  1.37276E+01
   1.76778E+01  2.16726E+01  2.41850E+01  2.32816E+01  1.90263E+01  1.37006E+01  9.48729E+00  6.72691E+00  4.64862E+00  2.61109E+00
   2.04134E-01 -2.51348E+00 -4.55216E+00 -5.38531E+00 -5.66926E+00 -5.78561E+00 -5.82482E+00 -5.77308E+00 -5.41351E+00 -4.00259E+00
  -1.69131E+00  7.21478E-01  3.01880E+00  5.29711E+00  7.68037E+00  1.03094E+01  1.27412E+01  1.35985E+01  1.20081E+01  8.81000E+00
   5.70485E+00  3.60691E+00  2.22386E+00  9.46505E-01 -5.37954E-01 -2.36590E+00 -4.14111E+00 -5.01665E+00 -5.11248E+00 -4.99825E+00
  -4.88775E+00 -4.87617E+00 -4.97510E+00 -5.10356E+00 -5.19301E+00 -5.26736E+00 -5.36899E+00 -5.52509E+00 -5.72187E+00 -5.91547E+00
  -6.08178E+00 -6.21694E+00 -6.33543E+00 -6.49262E+00 -6.69317E+00 -6.88116E+00 -7.02473E+00 -7.11959E+00 -7.21126E+00 -7.35079E+00
  -7.51151E+00 -7.60366E+00 -7.55501E+00 -7.39138E+00 -7.23851E+00 -7.23120E+00 -7.38948E+00 -7.62622E+00 -7.85816E+00 -8.05084E+00
  -8.16483E+00 -8.24906E+00 -8.36175E+00 -8.54148E+00 -8.77731E+00 -8.95362E+00 -8.97421E+00 -8.83004E+00 -8.63140E+00 -8.56517E+00
  -8.66239E+00 -8.71126E+00 -8.53679E+00 -8.15403E+00 -7.70377E+00 -7.31447E+00 -6.99282E+00 -6.61106E+00 -6.06040E+00 -5.44397E+00
  -4.99573E+00 -4.83735E+00 -4.89354E+00 -5.00219E+00 -5.05440E+00 -5.01439E+00 -4.89412E+00 -4.78083E+00 -4.67552E+00 -4.51578E+00
  -4.31190E+00 -4.09598E+00 -3.91895E+00 -3.80887E+00 -3.82656E+00 -4.06254E+00 -4.44841E+00 -4.78774E+00 -4.94713E+00 -4.94682E+00
  -4.85726E+00 -4.70894E+00 -4.52803E+00 -4.30451E+00 -4.03713E+00 -3.84876E+00 -3.88752E+00 -4.17830E+00 -4.56852E+00 -4.84566E+00
  -4.94635E+00 -4.86637E+00 -4.57849E+00 -4.11475E+00 -3.59008E+00 -3.11945E+00 -2.74398E+00 -2.46080E+00 -2.22191E+00 -1.95590E+00
  -1.62636E+00 -1.23950E+00 -8.35516E-01 -4.63962E-01 -1.47502E-01  7.27934E-02  2.01910E-01  2.80163E-01  3.23127E-01  3.70880E-01
   5.25775E-01  8.21844E-01  1.22367E+00  1.71339E+00  2.26452E+00  2.80574E+00  3.25196E+00  3.63128E+00  4.05722E+00  4.53569E+00
   5.06497E+00  5.87420E+00  7.96512E+00  1.22063E+01  1.70871E+01  2.15596E+01  2.55790E+01  2.93526E+01  3.32460E+01  3.72280E+01
   3.94719E+01  3.74799E+01  3.13471E+01  2.40521E+01  1.83604E+01  1.46356E+01  1.18244E+01  9.09517E+00  5.99661E+00  2.51650E+00
  -1.39906E-01 -1.14137E+00 -1.50755E+00 -1.73073E+00 -1.90150E+00 -2.06423E+00 -2.23835E+00 -2.40768E+00 -2.55687E+00 -2.68166E+00
  -2.78142E+00 -2.85338E+00 -2.89873E+00 -2.91693E+00 -2.90421E+00 -2.86134E+00 -2.79161E+00 -2.69930E+00 -2.58697E+00 -2.45514E+00
  -2.30665E+00 -2.14885E+00 -1.98633E+00 -1.82455E+00 -1.66942E+00 -1.52462E+00 -1.39221E+00 -1.27757E+00 -1.18612E+00 -1.12125E+00
  -1.08510E+00 -1.08023E+00 -1.10693E+00 -1.16486E+00 -1.25269E+00 -1.36768E+00 -1.50526E+00 -1.66032E+00 -1.82743E+00 -2.00174E+00
  -2.17746E+00 -2.34900E+00 -2.51043E+00 -2.65607E+00 -2.77998E+00 -2.87624E+00 -2.93698E+00 -2.95045E+00 -2.89194E+00 -2.72035E+00
  -2.51088E+00 -2.38415E+00 -2.32774E+00 -2.30337E+00 -2.30257E+00 -2.34479E+00 -2.50666E+00 -2.80802E+00 -3.09032E+00 -3.16903E+00
  -2.90371E+00 -2.31827E+00 -1.54909E+00 -6.55786E-01  3.89968E-01  1.50174E+00  2.48844E+00  3.25901E+00  3.82648E+00  4.28201E+00
   4.71236E+00  5.09789E+00  5.39514E+00  5.55101E+00  5.52246E+00  5.37963E+00  5.20936E+00  4.98506E+00  4.69027E+00  4.32509E+00
   3.89685E+00  3.41626E+00  2.89636E+00  2.35075E+00  1.79338E+00  1.23724E+00  6.94505E-01  1.75410E-01 -3.11503E-01 -7.60195E-01
  -1.16643E+00 -1.52821E+00 -1.84490E+00 -2.11769E+00 -2.34865E+00 -2.54110E+00 -2.69853E+00 -2.82492E+00 -2.92385E+00 -2.99903E+00
  -3.05356E+00 -3.09043E+00 -3.11173E+00 -3.11929E+00 -3.11405E+00 -3.09682E+00 -3.06771E+00 -3.02673E+00 -2.97316E+00 -2.90622E+00
  -2.82460E+00 -2.72713E+00 -2.61226E+00 -2.47860E+00 -2.32437E+00 -2.14815E+00 -1.94845E+00 -1.72441E+00 -1.47532E+00 -1.20128E+00
  -9.02780E-01 -5.81497E-01 -2.39873E-01  1.18205E-01  4.88009E-01  8.63423E-01  1.23759E+00  1.60240E+00  1.94935E+00  2.26926E+00
   2.55332E+00  2.79293E+00  2.98064E+00  3.10996E+00  3.17628E+00  3.17664E+00  3.11050E+00  2.97925E+00  2.78661E+00  2.53788E+00
   2.24022E+00  1.90179E+00  1.53190E+00  1.13993E+00  7.35442E-01  3.27200E-01 -7.65427E-02 -4.68813E-01 -8.43550E-01 -1.19628E+00
  -1.52360E+00 -1.82363E+00 -2.09528E+00 -2.33867E+00 -2.55437E+00 -2.74389E+00 -2.90889E+00 -3.05160E+00 -3.17406E+00 -3.27854E+00
  -3.36704E+00 -3.44169E+00 -3.50427E+00 -3.55659E+00 -3.59998E+00 -3.63583E+00 -3.66512E+00 -3.68898E+00 -3.70812E+00 -3.72337E+00
  -3.73514E+00 -3.74404E+00 -3.75034E+00 -3.75456E+00 -3.75689E+00 -3.75769E+00 -3.75699E+00 -3.75509E+00 -3.75203E+00 -3.74811E+00
  -3.74331E+00 -3.73782E+00 -3.73158E+00 -3.72477E+00 -3.71737E+00 -3.70958E+00 -3.70132E+00 -3.69271E+00 -3.68365E+00 -3.67432E+00
  -3.66466E+00 -3.65481E+00 -3.64467E+00 -3.63434E+00 -3.62372E+00 -3.61296E+00 -3.60200E+00 -3.59096E+00 -3.57970E+00 -3.56833E+00
  -3.55674E+00 -3.54511E+00 -3.53333E+00 -3.52150E+00 -3.50949E+00 -3.49741E+00 -3.48517E+00 -3.47292E+00 -3.46055E+00 -3.44814E+00
  -3.43556E+00 -3.42293E+00 -3.41017E+00 -3.39740E+00 -3.38450E+00 -3.37156E+00 -3.35844E+00 -3.34527E+00 -3.33197E+00 -3.31864E+00
  -3.30515E+00 -3.29158E+00 -3.27779E+00 -3.26393E+00 -3.24989E+00 -3.23574E+00 -3.22135E+00 -3.20679E+00
 NY background values follow
    -9.848E+00   -9.829E+00   -9.811E+00   -9.792E+00   -9.774E+00   -9.756E+00   -9.737E+00   -9.719E+00   -9.700E+00   -9.682E+00
    -9.664E+00   -9.645E+00   -9.627E+00   -9.608E+00   -9.590E+00   -9.572E+00   -9.553E+00   -9.535E+00   -9.516E+00   -9.498E+00
    -9.479E+00   -9.461E+00   -9.442E+00   -9.424E+00   -9.406E+00   -9.387E+00   -9.369E+00   -9.350E+00   -9.332E+00   -9.313E+00
    -9.295E+00   -9.277E+00   -9.258E+00   -9.240E+00   -9.221E+00   -9.203E+00   -9.184E+00   -9.166E+00   -9.148E+00   -9.129E+00
    -9.111E+00   -9.092E+00   -9.074E+00   -9.056E+00   -9.037E+00   -9.019E+00   -9.000E+00   -8.982E+00   -8.964E+00   -8.945E+00
    -8.927E+00   -8.909E+00   -8.890E+00   -8.872E+00   -8.854E+00   -8.835E+00   -8.817E+00   -8.799E+00   -8.781E+00   -8.762E+00
    -8.744E+00   -8.726E+00   -8.708E+00   -8.689E+00   -8.671E+00   -8.653E+00   -8.635E+00   -8.617E+00   -8.599E+00   -8.580E+00
    -8.562E+00   -8.544E+00   -8.526E+00   -8.508E+00   -8.490E+00   -8.472E+00   -8.454E+00   -8.436E+00   -8.418E+00   -8.400E+00
    -8.382E+00   -8.364E+00   -8.346E+00   -8.328E+00   -8.310E+00   -8.293E+00   -8.275E+00   -8.257E+00   -8.239E+00   -8.221E+00
    -8.203E+00   -8.186E+00   -8.168E+00   -8.150E+00   -8.133E+00   -8.115E+00   -8.097E+00   -8.080E+00   -8.062E+00   -8.044E+00
    -8.027E+00   -8.009E+00   -7.992E+00   -7.974E+00   -7.957E+00   -7.939E+00   -7.922E+00   -7.904E+00   -7.887E+00   -7.870E+00
    -7.852E+00   -7.835E+00   -7.818E+00   -7.801E+00   -7.783E+00   -7.766E+00   -7.749E+00   -7.732E+00   -7.714E+00   -7.697E+00
    -7.680E+00   -7.663E+00   -7.646E+00   -7.629E+00   -7.612E+00   -7.595E+00   -7.578E+00   -7.561E+00   -7.544E+00   -7.527E+00
    -7.511E+00   -7.494E+00   -7.477E+00   -7.460E+00   -7.443E+00   -7.427E+00   -7.410E+00   -7.393E+00   -7.377E+00   -7.360E+00
    -7.344E+00   -7.327E+00   -7.310E+00   -7.294E+00   -7.278E+00   -7.261E+00   -7.245E+00   -7.228E+00   -7.212E+00   -7.196E+00
    -7.179E+00   -7.163E+00   -7.147E+00   -7.130E+00   -7.114E+00   -7.098E+00   -7.082E+00   -7.066E+00   -7.050E+00   -7.034E+00
    -7.018E+00   -7.002E+00   -6.986E+00   -6.970E+00   -6.954E+00   -6.938E+00   -6.922E+00   -6.906E+00   -6.891E+00   -6.875E+00
    -6.859E+00   -6.843E+00   -6.828E+00   -6.812E+00   -6.796E+00   -6.781E+00   -6.765E+00   -6.750E+00   -6.734E+00   -6.719E+00
    -6.703E+00   -6.688E+00   -6.673E+00   -6.657E+00   -6.642E+00   -6.627E+00   -6.611E+00   -6.596E+00   -6.581E+00   -6.566E+00
    -6.551E+00   -6.536E+00   -6.521E+00   -6.506E+00   -6.491E+00   -6.476E+00   -6.461E+00   -6.446E+00   -6.431E+00   -6.416E+00
    -6.401E+00   -6.387E+00   -6.372E+00   -6.357E+00   -6.342E+00   -6.328E+00   -6.313E+00   -6.299E+00   -6.284E+00   -6.270E+00
    -6.255E+00   -6.241E+00   -6.226E+00   -6.212E+00   -6.198E+00   -6.183E+00   -6.169E+00   -6.155E+00   -6.141E+00   -6.127E+00
    -6.113E+00   -6.099E+00   -6.084E+00   -6.070E+00   -6.057E+00   -6.043E+00   -6.029E+00   -6.015E+00   -6.001E+00   -5.987E+00
    -5.974E+00   -5.960E+00   -5.946E+00   -5.933E+00   -5.919E+00   -5.905E+00   -5.892E+00   -5.878E+00   -5.865E+00   -5.852E+00
    -5.838E+00   -5.825E+00   -5.812E+00   -5.798E+00   -5.785E+00   -5.772E+00   -5.759E+00   -5.745E+00   -5.732E+00   -5.719E+00
    -5.706E+00   -5.693E+00   -5.680E+00   -5.667E+00   -5.654E+00   -5.641E+00   -5.629E+00   -5.616E+00   -5.603E+00   -5.590E+00
    -5.577E+00   -5.565E+00   -5.552E+00   -5.539E+00   -5.527E+00   -5.514E+00   -5.502E+00   -5.489E+00   -5.477E+00   -5.464E+00
    -5.452E+00   -5.439E+00   -5.427E+00   -5.415E+00   -5.402E+00   -5.390E+00   -5.378E+00   -5.365E+00   -5.353E+00   -5.341E+00
    -5.329E+00   -5.317E+00   -5.304E+00   -5.292E+00   -5.280E+00   -5.268E+00   -5.256E+00   -5.244E+00   -5.232E+00   -5.220E+00
    -5.208E+00   -5.196E+00   -5.184E+00   -5.172E+00   -5.161E+00   -5.149E+00   -5.137E+00   -5.125E+00   -5.113E+00   -5.101E+00
    -5.090E+00   -5.078E+00   -5.066E+00   -5.054E+00   -5.043E+00   -5.031E+00   -5.019E+00   -5.008E+00   -4.996E+00   -4.984E+00
    -4.973E+00   -4.961E+00   -4.950E+00   -4.938E+00   -4.926E+00   -4.915E+00   -4.903E+00   -4.892E+00   -4.880E+00   -4.869E+00
    -4.857E+00   -4.846E+00   -4.834E+00   -4.823E+00   -4.811E+00   -4.800E+00   -4.788E+00   -4.777E+00   -4.765E+00   -4.754E+00
    -4.742E+00   -4.731E+00   -4.719E+00   -4.708E+00   -4.696E+00   -4.685E+00   -4.674E+00   -4.662E+00   -4.651E+00   -4.639E+00
    -4.628E+00   -4.616E+00   -4.605E+00   -4.594E+00   -4.582E+00   -4.571E+00   -4.559E+00   -4.548E+00   -4.537E+00   -4.525E+00
    -4.514E+00   -4.502E+00   -4.491E+00   -4.480E+00   -4.468E+00   -4.457E+00   -4.445E+00   -4.434E+00   -4.423E+00   -4.411E+00
    -4.400E+00   -4.388E+00   -4.377E+00   -4.365E+00   -4.354E+00   -4.343E+00   -4.331E+00   -4.320E+00   -4.308E+00   -4.297E+00
    -4.285E+00   -4.274E+00   -4.262E+00   -4.251E+00   -4.239E+00   -4.228E+00   -4.216E+00   -4.205E+00   -4.193E+00   -4.182E+00
    -4.170E+00   -4.159E+00   -4.147E+00   -4.136E+00   -4.124E+00   -4.113E+00   -4.101E+00   -4.090E+00   -4.078E+00   -4.067E+00
    -4.055E+00   -4.044E+00   -4.032E+00   -4.020E+00   -4.009E+00   -3.997E+00   -3.986E+00   -3.974E+00   -3.962E+00   -3.951E+00
    -3.939E+00   -3.927E+00   -3.916E+00   -3.904E+00   -3.893E+00   -3.881E+00   -3.869E+00   -3.858E+00   -3.846E+00   -3.834E+00
    -3.823E+00   -3.811E+00   -3.799E+00   -3.787E+00   -3.776E+00   -3.764E+00   -3.752E+00   -3.741E+00   -3.729E+00   -3.717E+00
    -3.705E+00   -3.694E+00   -3.682E+00   -3.670E+00   -3.658E+00   -3.647E+00   -3.635E+00   -3.623E+00   -3.611E+00   -3.599E+00
    -3.588E+00   -3.576E+00   -3.564E+00   -3.552E+00   -3.541E+00   -3.529E+00   -3.517E+00   -3.505E+00   -3.493E+00   -3.482E+00
    -3.470E+00   -3.458E+00   -3.446E+00   -3.434E+00   -3.423E+00   -3.411E+00   -3.399E+00   -3.387E+00   -3.375E+00   -3.364E+00
    -3.352E+00   -3.340E+00   -3.328E+00   -3.316E+00   -3.305E+00   -3.293E+00   -3.281E+00   -3.269E+00   -3.258E+00   -3.246E+00
    -3.234E+00   -3.222E+00   -3.211E+00   -3.199E+00   -3.187E+00   -3.175E+00   -3.163E+00   -3.152E+00   -3.140E+00   -3.128E+00
    -3.116E+00   -3.105E+00   -3.093E+00   -3.081E+00   -3.069E+00   -3.058E+00   -3.046E+00   -3.034E+00   -3.023E+00   -3.011E+00
    -2.999E+00   -2.987E+00   -2.976E+00   -2.964E+00   -2.952E+00   -2.941E+00   -2.929E+00   -2.917E+00   -2.905E+00   -2.894E+00
    -2.882E+00   -2.870E+00   -2.859E+00   -2.847E+00   -2.835E+00   -2.824E+00   -2.812E+00   -2.800E+00
 Ala      Conc. = 1.85E+02
