 LCModel (Version 6.3-1L) Copyright: S.W. Provencher.          Ref.: Magn. Reson. Med. 30:672-679 (1993).                
 Slice#1 Row#1 Col#14  PD_24_press_1_raw_act
 36 lines in following concentration table = NCONC+1
    Conc.  %SD /Cr+PCr  Metabolite                                         
   36.037  52%   1.131 Ala                                                 
    3.351  58%   0.105 Asp                                                 
    0.000 999%   0.000 Cr                                                  
   31.851  31%   1.000 PCr                                                 
    2.019  58% 6.3E-02 GABA                                                
    2.019  58% 6.3E-02 Glc                                                 
   48.480  73%   1.522 Gln                                                 
   56.221  68%   1.765 Glu                                                 
    8.513  42%   0.267 GPC                                                 
    0.000 999%   0.000 PCh                                                 
    4.037 299%   0.127 GSH                                                 
    0.000 999%   0.000 Ins                                                 
    0.000 999%   0.000 Lac                                                 
    9.168 112%   0.288 NAA                                                 
    0.000 999%   0.000 NAAG                                                
    0.672  58% 2.1E-02 Scyllo                                              
    3.406  57%   0.107 Tau                                                 
    2.122 183% 6.7E-02 -CrCH2                                              
    8.513  42%   0.267 GPC+PCh                                             
    9.168 112%   0.288 NAA+NAAG                                            
   31.851  31%   1.000 Cr+PCr                                              
  104.701  51%   3.287 Glu+Gln                                             
   36.178 365%   1.136 Lip13a                                              
    0.000 999%   0.000 Lip13b                                              
   11.361 328%   0.357 Lip09                                               
  398.939  14%  12.525 MM09                                                
    5.177 412%   0.163 Lip20                                               
  131.780  54%   4.137 MM20                                                
  107.490  49%   3.375 MM12                                                
  668.072  18%  20.975 MM14                                                
  327.586  23%  10.285 MM17                                                
   36.178 365%   1.136 Lip13a+Lip13b                                       
  811.741  10%  25.486 MM14+Lip13a+Lip13b+MM12                             
  410.300  10%  12.882 MM09+Lip09                                          
  136.957  48%   4.300 MM20+Lip20                                          
   6 lines in following misc. output table
  FWHM = 0.046 ppm    S/N =   2                                            
  Data shift = 0.000 ppm                                                   
  Ph:-110 deg     -42.9 deg/ppm                                            
  alphaB,S = 8.5E+01,   1.3E+01                                            
   14 spline knots.   Ns = 5(1)                                            
   2 inflections.     2 extrema                                            
  498 points on ppm-axis = NY
      4.000000     3.992357     3.984714     3.977070     3.969427     3.961784     3.954141     3.946497     3.938854     3.931211
      3.923568     3.915925     3.908281     3.900638     3.892995     3.885352     3.877708     3.870065     3.862422     3.854779
      3.847136     3.839492     3.831849     3.824206     3.816563     3.808919     3.801276     3.793633     3.785990     3.778347
      3.770703     3.763060     3.755417     3.747774     3.740130     3.732487     3.724844     3.717201     3.709558     3.701914
      3.694271     3.686628     3.678985     3.671341     3.663698     3.656055     3.648412     3.640769     3.633125     3.625482
      3.617839     3.610196     3.602552     3.594909     3.587266     3.579623     3.571980     3.564336     3.556693     3.549050
      3.541407     3.533763     3.526120     3.518477     3.510834     3.503191     3.495547     3.487904     3.480261     3.472618
      3.464974     3.457331     3.449688     3.442045     3.434402     3.426758     3.419115     3.411472     3.403829     3.396185
      3.388542     3.380899     3.373256     3.365613     3.357969     3.350326     3.342683     3.335040     3.327396     3.319753
      3.312110     3.304467     3.296824     3.289180     3.281537     3.273894     3.266251     3.258607     3.250964     3.243321
      3.235678     3.228034     3.220391     3.212748     3.205105     3.197462     3.189818     3.182175     3.174532     3.166889
      3.159245     3.151602     3.143959     3.136316     3.128673     3.121029     3.113386     3.105743     3.098100     3.090456
      3.082813     3.075170     3.067527     3.059884     3.052240     3.044597     3.036954     3.029311     3.021667     3.014024
      3.006381     2.998738     2.991095     2.983451     2.975808     2.968165     2.960522     2.952878     2.945235     2.937592
      2.929949     2.922306     2.914662     2.907019     2.899376     2.891733     2.884089     2.876446     2.868803     2.861160
      2.853517     2.845873     2.838230     2.830587     2.822944     2.815300     2.807657     2.800014     2.792371     2.784728
      2.777084     2.769441     2.761798     2.754155     2.746511     2.738868     2.731225     2.723582     2.715939     2.708295
      2.700652     2.693009     2.685366     2.677722     2.670079     2.662436     2.654793     2.647150     2.639506     2.631863
      2.624220     2.616577     2.608933     2.601290     2.593647     2.586004     2.578361     2.570717     2.563074     2.555431
      2.547788     2.540144     2.532501     2.524858     2.517215     2.509572     2.501928     2.494285     2.486642     2.478999
      2.471355     2.463712     2.456069     2.448426     2.440783     2.433139     2.425496     2.417853     2.410210     2.402566
      2.394923     2.387280     2.379637     2.371994     2.364350     2.356707     2.349064     2.341421     2.333777     2.326134
      2.318491     2.310848     2.303205     2.295561     2.287918     2.280275     2.272632     2.264988     2.257345     2.249702
      2.242059     2.234416     2.226772     2.219129     2.211486     2.203843     2.196199     2.188556     2.180913     2.173270
      2.165627     2.157983     2.150340     2.142697     2.135054     2.127410     2.119767     2.112124     2.104481     2.096838
      2.089194     2.081551     2.073908     2.066265     2.058621     2.050978     2.043335     2.035692     2.028049     2.020405
      2.012762     2.005119     1.997476     1.989833     1.982190     1.974546     1.966903     1.959260     1.951617     1.943974
      1.936331     1.928688     1.921045     1.913402     1.905759     1.898115     1.890472     1.882829     1.875186     1.867543
      1.859900     1.852257     1.844614     1.836971     1.829327     1.821684     1.814041     1.806398     1.798755     1.791112
      1.783469     1.775826     1.768183     1.760540     1.752896     1.745253     1.737610     1.729967     1.722324     1.714681
      1.707038     1.699395     1.691752     1.684108     1.676465     1.668822     1.661179     1.653536     1.645893     1.638250
      1.630607     1.622964     1.615321     1.607677     1.600034     1.592391     1.584748     1.577105     1.569462     1.561819
      1.554176     1.546533     1.538890     1.531246     1.523603     1.515960     1.508317     1.500674     1.493031     1.485388
      1.477745     1.470102     1.462458     1.454815     1.447172     1.439529     1.431886     1.424243     1.416600     1.408957
      1.401314     1.393671     1.386027     1.378384     1.370741     1.363098     1.355455     1.347812     1.340169     1.332526
      1.324883     1.317240     1.309596     1.301953     1.294310     1.286667     1.279024     1.271381     1.263738     1.256095
      1.248452     1.240808     1.233165     1.225522     1.217879     1.210236     1.202593     1.194950     1.187307     1.179664
      1.172021     1.164377     1.156734     1.149091     1.141448     1.133805     1.126162     1.118519     1.110876     1.103233
      1.095590     1.087946     1.080303     1.072660     1.065017     1.057374     1.049731     1.042088     1.034445     1.026802
      1.019158     1.011515     1.003872     0.996229     0.988586     0.980943     0.973300     0.965657     0.958014     0.950371
      0.942727     0.935084     0.927441     0.919798     0.912155     0.904512     0.896869     0.889226     0.881583     0.873940
      0.866296     0.858653     0.851010     0.843367     0.835724     0.828081     0.820438     0.812795     0.805152     0.797508
      0.789865     0.782222     0.774579     0.766936     0.759293     0.751650     0.744007     0.736364     0.728721     0.721077
      0.713434     0.705791     0.698148     0.690505     0.682862     0.675219     0.667576     0.659933     0.652290     0.644646
      0.637003     0.629360     0.621717     0.614074     0.606431     0.598788     0.591145     0.583502     0.575858     0.568215
      0.560572     0.552929     0.545286     0.537643     0.530000     0.522357     0.514714     0.507071     0.499427     0.491784
      0.484141     0.476498     0.468855     0.461212     0.453569     0.445925     0.438282     0.430639     0.422996     0.415353
      0.407710     0.400067     0.392424     0.384780     0.377137     0.369494     0.361851     0.354208     0.346565     0.338922
      0.331278     0.323635     0.315992     0.308349     0.300706     0.293063     0.285420     0.277777     0.270133     0.262490
      0.254847     0.247204     0.239561     0.231918     0.224275     0.216631     0.208988     0.201345
 NY phased data points follow
  -1.33087E-01 -7.04558E-01 -5.30892E-01 -1.21663E+00 -3.73474E-01 -3.31965E-01 -1.32665E-01 -1.16957E+00 -7.61417E-01  8.02296E-01
   3.06348E+00  8.68771E-01  5.78503E-01  6.76417E-01  1.36058E+00  2.27797E-01  5.83665E-01 -9.80838E-01  4.98496E-01  3.16455E-01
  -8.37192E-01 -1.75537E-01 -1.11826E+00 -7.32226E-01  5.01884E-02 -2.40597E-02 -5.21955E-01  8.75321E-01  2.71016E-01 -6.14605E-01
   2.21812E+00 -1.32793E+00  9.02870E-04  7.68783E-01  5.33558E-01 -8.57774E-01  4.84026E-01 -3.01857E-01 -6.81692E-01  2.34176E-01
  -2.06241E-01 -1.14772E-01 -1.08620E+00  4.47875E-01  1.77717E-01  7.55035E-01  5.18808E-01  9.93706E-02  3.20769E-01  7.63792E-01
   4.35580E-01  6.49982E-02  2.83510E-01  7.22299E-01  1.17181E+00 -2.32364E-02  7.38440E-01  1.18236E+00  7.21001E-01  9.62617E-01
   9.87947E-01  5.22557E-01  2.76874E-02 -1.52390E+00 -3.73947E-01 -4.12012E-01  7.08128E-01 -1.27240E+00  4.62140E-01 -7.64470E-01
   1.28796E+00 -6.24922E-01 -1.64820E-01 -7.72522E-01  8.42994E-01 -2.76280E-01  6.99406E-01 -2.73728E-01  9.44977E-01  5.17342E-01
   3.67757E-01 -9.18290E-02 -4.10432E-01  7.20200E-05 -7.46726E-01 -9.43980E-01 -1.34816E-01  6.13826E-01 -2.82576E-01  7.11130E-01
   1.15944E+00  4.02662E-01 -1.99760E-01 -9.38244E-02  8.99259E-01 -4.87786E-02 -7.76411E-01 -1.30702E+00  3.31963E-01  2.61618E-01
   1.24316E+00  1.82688E-01  1.75551E+00  1.64160E+00  1.05994E+00 -5.96028E-01  1.43855E+00  2.00337E+00  8.20280E-02 -6.01948E-02
   6.25425E-01 -8.63955E-01  8.70066E-01  1.57753E+00 -4.71872E-01  1.48998E+00  1.37252E+00  6.25364E-01 -2.82883E-01  1.36672E+00
   3.23683E-01  2.38286E-01  7.08469E-01 -8.14142E-01 -8.31381E-01  2.00986E-02  8.72020E-01  1.48158E+00  3.62505E-01  1.35205E+00
   1.70417E+00  1.20449E+00  2.04445E+00  2.26886E-01 -2.64498E-01 -4.06661E-01  1.01710E+00 -8.00537E-01  4.69460E-01  7.60952E-02
   9.29504E-01  7.75553E-01 -3.29323E-01  9.54698E-01  6.26325E-01  1.01574E+00 -2.98116E-01 -1.65425E+00  1.67403E+00  4.11004E-01
  -7.26570E-01  1.46764E+00  1.61485E-01 -6.62740E-01  7.07732E-01  3.90750E-01  1.82082E-01  1.19839E+00  2.68029E-01 -3.07515E-01
   4.18031E-02  8.44608E-01  7.22093E-02  6.01300E-01  7.53499E-01  2.60517E-01 -4.69809E-01  1.57842E+00 -6.04187E-01  8.91156E-01
   1.07471E+00  8.86727E-01  8.63712E-01  7.86011E-01  1.96771E+00  3.87434E-01  8.42226E-01  9.09553E-01  1.55001E+00  1.14914E+00
   8.91432E-01  4.98070E-01  1.22387E+00  7.67150E-01 -7.94641E-01  2.30876E-02  1.14128E+00  8.63465E-01 -5.44137E-01  2.36479E-01
   8.26493E-01  7.56632E-01 -9.61591E-01 -3.53581E-01  7.08692E-01  4.04201E-01  5.56480E-01  1.13978E+00  1.04526E-02  3.88960E-01
  -2.86584E-01  5.31483E-01  5.29320E-01  7.42178E-01  7.06168E-01 -8.00197E-02  1.99923E-01  4.13369E-01 -1.00992E+00  1.32626E+00
  -1.75571E-01 -9.71117E-01 -2.35798E-01  6.93787E-01  1.49397E+00  8.78121E-01  2.21631E+00  1.46319E+00  8.99347E-01  1.00179E+00
   8.84475E-01  1.13987E+00  3.94088E-01  1.44325E-01  5.23826E-01  8.80334E-01 -1.69120E-01  2.21788E-01  2.34377E-01  3.54601E-01
   1.77405E-01  1.08694E+00 -3.95471E-01  1.03642E+00  1.02092E+00  1.14162E+00 -5.02414E-01  3.54137E-01  2.00921E+00  1.54297E+00
   1.41287E+00  2.08317E+00  1.60168E+00  9.26602E-01  1.12218E+00  8.70242E-01  9.71941E-01  3.08422E-01  9.04712E-01  9.16791E-01
   8.00207E-01 -4.42454E-01  9.61007E-01  8.53411E-01 -3.61975E-02  9.68046E-01  1.17050E+00  4.61397E-01  8.13105E-01  6.64413E-01
   1.21414E+00  1.60607E+00  1.99280E+00  4.77530E-01  1.88927E+00  2.05018E+00  3.12693E+00  5.02699E-01  2.08433E+00  6.33775E-01
   3.30616E+00  2.05305E+00  1.81134E+00  1.63380E+00  5.97396E-02  2.07073E+00  2.96713E+00  1.96596E+00  1.03746E+00  8.90487E-01
   1.75287E+00  3.20057E+00  1.88928E+00  1.55999E+00  1.26081E+00  1.54194E+00  9.46947E-01  8.25043E-01  1.45742E+00  2.56865E+00
   1.87063E-01  2.86947E+00  2.67960E+00  1.94546E+00  7.97862E-01  2.61500E+00  9.93115E-01  1.61879E+00  2.42039E+00  1.76683E+00
   2.31938E+00  2.75646E+00  3.58543E+00  3.09267E+00  2.36382E+00  1.83835E+00  2.40057E+00  3.00010E+00  2.33886E+00  2.68843E+00
   1.67662E+00  3.38000E+00  2.32352E+00  3.03796E+00  3.19478E+00  3.76773E+00  3.59402E+00  4.41664E+00  3.88234E+00  2.69405E+00
   1.35647E+00  1.97570E+00  4.55823E+00  2.94486E+00  5.03908E+00  3.32941E+00  1.50130E+00  2.91440E+00  5.35796E+00  3.60907E+00
   3.98070E+00  3.72688E+00  1.79258E+00  3.28617E+00  3.92997E+00  2.72379E+00  5.03269E+00  4.71686E+00  5.05603E+00  4.95712E+00
   4.74923E+00  4.86972E+00  4.75869E+00  4.27967E+00  4.06991E+00  4.52706E+00  5.65359E+00  4.20562E+00  4.57020E+00  2.86557E+00
   3.87413E+00  4.22399E+00  4.32141E+00  4.31929E+00  3.63978E+00  3.04341E+00  2.67502E+00  1.78499E+00  1.66197E+00  1.72997E+00
   2.76132E+00  2.25095E+00  2.56363E+00  1.09320E+00  2.49215E+00 -2.70781E-01  1.55649E+00  3.18276E+00  3.70439E+00  1.47362E+00
   8.31228E-01  1.83358E+00  2.15683E+00  3.24072E+00  1.43899E+00  2.29631E+00  2.60380E+00  3.91720E+00  1.71697E+00  1.91933E+00
   3.02662E+00  3.19554E+00  1.95459E+00  3.80326E+00  2.06629E+00  2.43601E+00  3.99178E+00  4.38273E+00  3.74783E+00  3.31877E+00
   4.08426E+00  2.82323E+00  3.20820E+00  4.20086E+00  2.20199E+00  4.35424E+00  3.38704E+00  3.92023E+00  4.44475E+00  3.46283E+00
   4.21855E+00  3.34334E+00  4.47181E+00  4.09560E+00  1.87078E+00  4.34437E+00  3.62170E+00  2.91115E+00  2.90296E+00  3.57157E+00
   2.20020E+00  2.97638E+00  2.95651E+00  3.99475E+00  4.25215E+00  3.45961E+00  3.22357E+00  1.93907E+00  2.06710E+00  2.55002E+00
   2.94580E+00  1.46836E+00  1.90276E+00  2.77102E+00  1.81418E+00  1.49313E+00  1.37183E+00  1.22719E+00  2.22239E+00  2.19174E+00
   8.05521E-01  2.04378E+00  2.67996E+00  1.94765E+00  3.07108E+00  1.42260E+00  8.54424E-01  2.16358E+00  5.57161E-01  1.37310E-01
   2.05184E+00  8.52857E-01  1.94386E+00  2.41543E+00  1.05327E+00  1.90306E+00  3.12003E-01  5.61944E-01  1.42497E+00  3.04327E+00
   7.54598E-01  1.95442E+00  1.65330E+00  7.37560E-01  1.27065E+00  7.18229E-01  1.12864E+00 -4.89096E-01  2.36274E+00  1.71741E+00
   2.18836E+00  2.27365E+00  1.59901E+00  1.41835E+00  9.56290E-01  2.45247E+00  2.71251E+00  5.18490E-01  9.62635E-01  1.69102E+00
   1.08625E+00  1.98228E+00 -2.30826E-02  7.65104E-01  1.11259E+00  8.42772E-01 -4.50389E-01  9.95985E-02  1.52118E+00  5.65834E-01
   1.54001E+00  2.80621E-01  1.24074E+00  4.46595E-01  1.02556E+00  1.21859E+00  3.31104E-01  1.50654E+00  1.54363E+00  2.11152E+00
   1.93992E+00  1.66502E+00  1.81473E+00  1.30566E+00 -1.76259E-01  1.83663E+00  1.63184E+00  1.89534E-01
 NY points of the fit to the data follow
  -1.71425E-01 -1.65741E-01 -1.58807E-01 -1.52686E-01 -1.66741E-01 -1.81885E-01 -1.18539E-01  4.18572E-02  2.72084E-01  5.26113E-01
   7.13778E-01  7.72593E-01  7.43214E-01  6.59280E-01  4.78224E-01  2.20124E-01  3.23325E-02 -3.17093E-02 -5.86671E-02 -6.58472E-02
  -5.76861E-02 -2.33897E-02  4.39506E-02  1.30224E-01  1.94041E-01  1.85918E-01  9.72031E-02 -4.33584E-02 -1.79165E-01 -2.63812E-01
  -2.68225E-01 -1.67540E-01  3.31454E-02  2.49285E-01  3.85758E-01  3.96726E-01  3.11478E-01  1.75234E-01  2.53848E-02 -8.03550E-02
  -1.19090E-01 -9.47596E-02 -2.73543E-02  4.85873E-02  9.23227E-02  9.36328E-02  8.43360E-02  7.59511E-02  6.15228E-02  5.47903E-02
   5.88343E-02  5.98914E-02  5.78106E-02  6.11873E-02  6.39595E-02  5.81726E-02  4.76243E-02  3.99270E-02  3.52593E-02  3.25189E-02
   3.01406E-02  2.83787E-02  2.86248E-02  3.13996E-02  3.54083E-02  3.97416E-02  4.41935E-02  4.76390E-02  4.95985E-02  5.06620E-02
   5.00325E-02  4.82744E-02  4.96906E-02  5.64887E-02  6.72397E-02  7.96708E-02  9.08144E-02  9.52471E-02  9.37882E-02  9.05310E-02
   8.53060E-02  7.72285E-02  7.43842E-02  8.35075E-02  1.01038E-01  1.23201E-01  1.45102E-01  1.58731E-01  1.62696E-01  1.63309E-01
   1.61284E-01  1.52049E-01  1.37743E-01  1.27368E-01  1.22344E-01  1.21246E-01  1.22161E-01  1.05889E-01  6.69560E-02  1.03075E-01
   2.67386E-01  5.35289E-01  8.57853E-01  1.13316E+00  1.25337E+00  1.24025E+00  1.15646E+00  9.64173E-01  6.48966E-01  3.68377E-01
   2.67662E-01  2.47129E-01  2.42578E-01  2.42630E-01  2.44959E-01  2.50185E-01  2.56703E-01  2.63290E-01  2.69917E-01  2.76054E-01
   2.80339E-01  2.74545E-01  2.25537E-01  1.94319E-01  3.05914E-01  5.76896E-01  9.58178E-01  1.35985E+00  1.62969E+00  1.69799E+00
   1.64232E+00  1.48488E+00  1.15888E+00  7.44758E-01  4.88843E-01  4.12484E-01  3.77251E-01  3.53208E-01  3.37212E-01  3.29614E-01
   3.32398E-01  3.43028E-01  3.54806E-01  3.64722E-01  3.70246E-01  3.69723E-01  3.65051E-01  3.58589E-01  3.52544E-01  3.48401E-01
   3.44221E-01  3.39459E-01  3.35115E-01  3.32665E-01  3.31633E-01  3.31575E-01  3.32818E-01  3.33914E-01  3.33338E-01  3.31145E-01
   3.27942E-01  3.25281E-01  3.24419E-01  3.25855E-01  3.29545E-01  3.35342E-01  3.42445E-01  3.49024E-01  3.53455E-01  3.55732E-01
   3.56896E-01  3.58437E-01  3.60926E-01  3.61948E-01  3.61623E-01  3.61217E-01  3.61762E-01  3.63684E-01  3.66195E-01  3.67843E-01
   3.69119E-01  3.72517E-01  3.78615E-01  3.84051E-01  3.86777E-01  3.88841E-01  3.92449E-01  3.99719E-01  4.11629E-01  4.28209E-01
   4.44414E-01  4.58932E-01  4.65258E-01  4.54337E-01  4.25033E-01  3.83934E-01  3.35993E-01  2.96599E-01  2.91195E-01  3.31952E-01
   4.08553E-01  5.12883E-01  6.35970E-01  7.46126E-01  8.29383E-01  8.78937E-01  8.37750E-01  6.83770E-01  4.76792E-01  2.71207E-01
   1.05440E-01  2.88400E-02  8.27216E-02  2.50200E-01  5.05693E-01  8.17001E-01  1.07779E+00  1.17889E+00  1.15359E+00  1.03891E+00
   8.33224E-01  5.71738E-01  3.41400E-01  2.45438E-01  2.80258E-01  3.87582E-01  5.35962E-01  7.17777E-01  8.94006E-01  9.93776E-01
   1.00576E+00  9.83896E-01  9.49801E-01  8.99487E-01  8.46482E-01  8.04994E-01  7.99651E-01  8.56855E-01  9.58341E-01  1.05315E+00
   1.13240E+00  1.19495E+00  1.20110E+00  1.13482E+00  1.05828E+00  9.98832E-01  9.50779E-01  9.35696E-01  9.75099E-01  1.03402E+00
   1.07533E+00  1.12153E+00  1.17706E+00  1.22947E+00  1.26633E+00  1.27189E+00  1.24640E+00  1.23147E+00  1.25053E+00  1.30687E+00
   1.39909E+00  1.48900E+00  1.53531E+00  1.54923E+00  1.53868E+00  1.46370E+00  1.32858E+00  1.21889E+00  1.16865E+00  1.13192E+00
   1.10173E+00  1.08654E+00  1.08165E+00  1.08298E+00  1.09481E+00  1.11300E+00  1.13378E+00  1.15461E+00  1.17166E+00  1.18166E+00
   1.18846E+00  1.19837E+00  1.21417E+00  1.23677E+00  1.26652E+00  1.30370E+00  1.34843E+00  1.39918E+00  1.45439E+00  1.51477E+00
   1.58043E+00  1.65079E+00  1.72575E+00  1.80547E+00  1.88924E+00  1.97588E+00  2.06443E+00  2.15394E+00  2.24284E+00  2.32958E+00
   2.41281E+00  2.49095E+00  2.56263E+00  2.62668E+00  2.68212E+00  2.72828E+00  2.76486E+00  2.79193E+00  2.80994E+00  2.81974E+00
   2.82270E+00  2.82043E+00  2.81480E+00  2.80792E+00  2.80202E+00  2.79939E+00  2.80231E+00  2.81295E+00  2.83328E+00  2.86494E+00
   2.90884E+00  2.96351E+00  3.02856E+00  3.15011E+00  3.35560E+00  3.59539E+00  3.81026E+00  3.94584E+00  3.95855E+00  3.87915E+00
   3.74844E+00  3.56046E+00  3.37264E+00  3.32140E+00  3.51405E+00  3.87056E+00  4.23772E+00  4.53337E+00  4.75519E+00  4.91679E+00
   4.95670E+00  4.83020E+00  4.64428E+00  4.50302E+00  4.38140E+00  4.26179E+00  4.13930E+00  4.01308E+00  3.88387E+00  3.75306E+00
   3.62231E+00  3.49332E+00  3.36765E+00  3.24667E+00  3.13150E+00  3.02299E+00  2.92171E+00  2.82797E+00  2.74182E+00  2.66314E+00
   2.59164E+00  2.52691E+00  2.46848E+00  2.41585E+00  2.36854E+00  2.32610E+00  2.28816E+00  2.25444E+00  2.22478E+00  2.19911E+00
   2.17751E+00  2.16013E+00  2.14727E+00  2.13930E+00  2.13669E+00  2.13995E+00  2.14968E+00  2.16648E+00  2.19096E+00  2.22370E+00
   2.26525E+00  2.31606E+00  2.37646E+00  2.44662E+00  2.52650E+00  2.61584E+00  2.71408E+00  2.82035E+00  2.93345E+00  3.05185E+00
   3.17366E+00  3.29669E+00  3.41849E+00  3.53638E+00  3.64760E+00  3.74933E+00  3.83889E+00  3.91377E+00  3.97179E+00  4.01120E+00
   4.03073E+00  4.02969E+00  4.00801E+00  3.96617E+00  3.90525E+00  3.82684E+00  3.73295E+00  3.62591E+00  3.50830E+00  3.38277E+00
   3.25198E+00  3.11849E+00  2.98464E+00  2.85257E+00  2.72406E+00  2.60061E+00  2.48336E+00  2.37314E+00  2.27048E+00  2.17565E+00
   2.08870E+00  2.00947E+00  1.93768E+00  1.87292E+00  1.81474E+00  1.76263E+00  1.71607E+00  1.67453E+00  1.63751E+00  1.60454E+00
   1.57518E+00  1.54903E+00  1.52572E+00  1.50492E+00  1.48635E+00  1.46975E+00  1.45489E+00  1.44158E+00  1.42965E+00  1.41893E+00
   1.40931E+00  1.40067E+00  1.39290E+00  1.38592E+00  1.37966E+00  1.37403E+00  1.36898E+00  1.36447E+00  1.36044E+00  1.35684E+00
   1.35365E+00  1.35083E+00  1.34834E+00  1.34617E+00  1.34429E+00  1.34267E+00  1.34130E+00  1.34016E+00  1.33923E+00  1.33850E+00
   1.33795E+00  1.33757E+00  1.33736E+00  1.33729E+00  1.33737E+00  1.33758E+00  1.33791E+00  1.33836E+00  1.33892E+00  1.33958E+00
   1.34034E+00  1.34119E+00  1.34213E+00  1.34315E+00  1.34425E+00  1.34542E+00  1.34666E+00  1.34797E+00  1.34934E+00  1.35078E+00
   1.35226E+00  1.35381E+00  1.35540E+00  1.35705E+00  1.35874E+00  1.36048E+00  1.36226E+00  1.36408E+00  1.36594E+00  1.36784E+00
   1.36977E+00  1.37174E+00  1.37374E+00  1.37578E+00  1.37784E+00  1.37994E+00  1.38206E+00  1.38421E+00
 NY background values follow
    -1.965E-01   -1.934E-01   -1.903E-01   -1.873E-01   -1.842E-01   -1.811E-01   -1.780E-01   -1.750E-01   -1.719E-01   -1.688E-01
    -1.657E-01   -1.627E-01   -1.596E-01   -1.565E-01   -1.534E-01   -1.504E-01   -1.473E-01   -1.442E-01   -1.411E-01   -1.381E-01
    -1.350E-01   -1.319E-01   -1.288E-01   -1.258E-01   -1.227E-01   -1.196E-01   -1.165E-01   -1.135E-01   -1.104E-01   -1.073E-01
    -1.042E-01   -1.012E-01   -9.810E-02   -9.503E-02   -9.195E-02   -8.888E-02   -8.580E-02   -8.273E-02   -7.966E-02   -7.658E-02
    -7.351E-02   -7.043E-02   -6.736E-02   -6.428E-02   -6.121E-02   -5.814E-02   -5.506E-02   -5.199E-02   -4.891E-02   -4.584E-02
    -4.276E-02   -3.969E-02   -3.662E-02   -3.354E-02   -3.047E-02   -2.739E-02   -2.432E-02   -2.125E-02   -1.817E-02   -1.510E-02
    -1.202E-02   -8.948E-03   -5.874E-03   -2.800E-03    2.742E-04    3.348E-03    6.423E-03    9.497E-03    1.257E-02    1.565E-02
     1.872E-02    2.179E-02    2.487E-02    2.794E-02    3.102E-02    3.409E-02    3.716E-02    4.024E-02    4.331E-02    4.639E-02
     4.946E-02    5.254E-02    5.561E-02    5.868E-02    6.176E-02    6.483E-02    6.791E-02    7.098E-02    7.406E-02    7.713E-02
     8.020E-02    8.328E-02    8.635E-02    8.943E-02    9.250E-02    9.557E-02    9.865E-02    1.017E-01    1.048E-01    1.079E-01
     1.109E-01    1.140E-01    1.171E-01    1.202E-01    1.232E-01    1.263E-01    1.294E-01    1.325E-01    1.355E-01    1.386E-01
     1.417E-01    1.448E-01    1.478E-01    1.509E-01    1.540E-01    1.571E-01    1.601E-01    1.632E-01    1.663E-01    1.694E-01
     1.724E-01    1.755E-01    1.786E-01    1.817E-01    1.847E-01    1.878E-01    1.909E-01    1.939E-01    1.970E-01    2.001E-01
     2.032E-01    2.062E-01    2.093E-01    2.124E-01    2.155E-01    2.185E-01    2.216E-01    2.247E-01    2.278E-01    2.308E-01
     2.339E-01    2.370E-01    2.401E-01    2.431E-01    2.462E-01    2.493E-01    2.524E-01    2.554E-01    2.585E-01    2.616E-01
     2.647E-01    2.677E-01    2.708E-01    2.739E-01    2.770E-01    2.800E-01    2.831E-01    2.862E-01    2.892E-01    2.923E-01
     2.954E-01    2.985E-01    3.015E-01    3.046E-01    3.077E-01    3.108E-01    3.138E-01    3.169E-01    3.200E-01    3.231E-01
     3.261E-01    3.292E-01    3.323E-01    3.354E-01    3.384E-01    3.415E-01    3.446E-01    3.477E-01    3.507E-01    3.538E-01
     3.569E-01    3.600E-01    3.630E-01    3.661E-01    3.692E-01    3.723E-01    3.753E-01    3.784E-01    3.815E-01    3.845E-01
     3.876E-01    3.907E-01    3.938E-01    3.968E-01    3.999E-01    4.030E-01    4.061E-01    4.091E-01    4.122E-01    4.153E-01
     4.184E-01    4.214E-01    4.245E-01    4.276E-01    4.307E-01    4.337E-01    4.368E-01    4.399E-01    4.430E-01    4.460E-01
     4.491E-01    4.522E-01    4.553E-01    4.583E-01    4.614E-01    4.645E-01    4.676E-01    4.706E-01    4.737E-01    4.768E-01
     4.798E-01    4.829E-01    4.860E-01    4.891E-01    4.921E-01    4.952E-01    4.983E-01    5.014E-01    5.044E-01    5.075E-01
     5.106E-01    5.137E-01    5.167E-01    5.198E-01    5.229E-01    5.260E-01    5.290E-01    5.321E-01    5.352E-01    5.383E-01
     5.413E-01    5.444E-01    5.475E-01    5.506E-01    5.536E-01    5.567E-01    5.598E-01    5.628E-01    5.659E-01    5.690E-01
     5.721E-01    5.751E-01    5.782E-01    5.813E-01    5.844E-01    5.874E-01    5.905E-01    5.936E-01    5.967E-01    5.997E-01
     6.028E-01    6.059E-01    6.090E-01    6.120E-01    6.151E-01    6.182E-01    6.213E-01    6.243E-01    6.274E-01    6.305E-01
     6.336E-01    6.366E-01    6.397E-01    6.428E-01    6.458E-01    6.489E-01    6.520E-01    6.551E-01    6.581E-01    6.612E-01
     6.643E-01    6.674E-01    6.704E-01    6.735E-01    6.766E-01    6.797E-01    6.827E-01    6.858E-01    6.889E-01    6.920E-01
     6.950E-01    6.981E-01    7.012E-01    7.043E-01    7.073E-01    7.104E-01    7.135E-01    7.166E-01    7.196E-01    7.227E-01
     7.258E-01    7.288E-01    7.319E-01    7.350E-01    7.381E-01    7.411E-01    7.442E-01    7.473E-01    7.504E-01    7.534E-01
     7.565E-01    7.596E-01    7.627E-01    7.657E-01    7.688E-01    7.719E-01    7.750E-01    7.780E-01    7.811E-01    7.842E-01
     7.873E-01    7.903E-01    7.934E-01    7.965E-01    7.995E-01    8.026E-01    8.057E-01    8.088E-01    8.118E-01    8.149E-01
     8.180E-01    8.211E-01    8.241E-01    8.272E-01    8.303E-01    8.334E-01    8.364E-01    8.395E-01    8.426E-01    8.457E-01
     8.487E-01    8.518E-01    8.549E-01    8.580E-01    8.610E-01    8.641E-01    8.672E-01    8.703E-01    8.733E-01    8.764E-01
     8.795E-01    8.825E-01    8.856E-01    8.887E-01    8.918E-01    8.948E-01    8.979E-01    9.010E-01    9.041E-01    9.071E-01
     9.102E-01    9.133E-01    9.164E-01    9.194E-01    9.225E-01    9.256E-01    9.287E-01    9.317E-01    9.348E-01    9.379E-01
     9.410E-01    9.440E-01    9.471E-01    9.502E-01    9.532E-01    9.563E-01    9.594E-01    9.625E-01    9.655E-01    9.686E-01
     9.717E-01    9.748E-01    9.778E-01    9.809E-01    9.840E-01    9.871E-01    9.901E-01    9.932E-01    9.963E-01    9.994E-01
     1.002E+00    1.006E+00    1.009E+00    1.012E+00    1.015E+00    1.018E+00    1.021E+00    1.024E+00    1.027E+00    1.030E+00
     1.033E+00    1.036E+00    1.039E+00    1.042E+00    1.045E+00    1.049E+00    1.052E+00    1.055E+00    1.058E+00    1.061E+00
     1.064E+00    1.067E+00    1.070E+00    1.073E+00    1.076E+00    1.079E+00    1.082E+00    1.085E+00    1.088E+00    1.092E+00
     1.095E+00    1.098E+00    1.101E+00    1.104E+00    1.107E+00    1.110E+00    1.113E+00    1.116E+00    1.119E+00    1.122E+00
     1.125E+00    1.128E+00    1.132E+00    1.135E+00    1.138E+00    1.141E+00    1.144E+00    1.147E+00    1.150E+00    1.153E+00
     1.156E+00    1.159E+00    1.162E+00    1.165E+00    1.168E+00    1.171E+00    1.175E+00    1.178E+00    1.181E+00    1.184E+00
     1.187E+00    1.190E+00    1.193E+00    1.196E+00    1.199E+00    1.202E+00    1.205E+00    1.208E+00    1.211E+00    1.215E+00
     1.218E+00    1.221E+00    1.224E+00    1.227E+00    1.230E+00    1.233E+00    1.236E+00    1.239E+00    1.242E+00    1.245E+00
     1.248E+00    1.251E+00    1.254E+00    1.258E+00    1.261E+00    1.264E+00    1.267E+00    1.270E+00    1.273E+00    1.276E+00
     1.279E+00    1.282E+00    1.285E+00    1.288E+00    1.291E+00    1.294E+00    1.298E+00    1.301E+00    1.304E+00    1.307E+00
     1.310E+00    1.313E+00    1.316E+00    1.319E+00    1.322E+00    1.325E+00    1.328E+00    1.331E+00
 Ala      Conc. = 3.60E+01
