 LCModel (Version 6.3-1L) Copyright: S.W. Provencher.          Ref.: Magn. Reson. Med. 30:672-679 (1993).                
 Slice#3 Row#12 Col#6  PD_24_press_1_raw_act
 36 lines in following concentration table = NCONC+1
    Conc.  %SD /Cr+PCr  Metabolite                                         
   25.938 317% 2.5E-02 Ala                                                 
    0.000 999%   0.000 Asp                                                 
  118.741 141%   0.114 Cr                                                  
  923.908  19%   0.886 PCr                                                 
    0.000 999%   0.000 GABA                                                
  182.093  59%   0.175 Glc                                                 
  686.431  26%   0.658 Gln                                                 
  948.674  21%   0.910 Glu                                                 
  387.742   4%   0.372 GPC                                                 
    0.000 999%   0.000 PCh                                                 
  313.134  18%   0.300 GSH                                                 
 1.44E+03  15%   1.385 Ins                                                 
   55.655 174% 5.3E-02 Lac                                                 
 1.39E+03   4%   1.333 NAA                                                 
   62.275 112% 6.0E-02 NAAG                                                
  111.782  19%   0.107 Scyllo                                              
  168.805  98%   0.162 Tau                                                 
  345.998  25%   0.332 -CrCH2                                              
  387.742   4%   0.372 GPC+PCh                                             
 1.45E+03   3%   1.392 NAA+NAAG                                            
 1.04E+03   4%   1.000 Cr+PCr                                              
 1.64E+03  19%   1.568 Glu+Gln                                             
  866.912  51%   0.831 Lip13a                                              
   52.832 252% 5.1E-02 Lip13b                                              
  285.888  44%   0.274 Lip09                                               
  208.401  62%   0.200 MM09                                                
  133.779  62%   0.128 Lip20                                               
  256.785  90%   0.246 MM20                                                
   60.990 127% 5.8E-02 MM12                                                
    0.000 999%   0.000 MM14                                                
    0.000 999%   0.000 MM17                                                
  919.744  37%   0.882 Lip13a+Lip13b                                       
  980.734  34%   0.941 MM14+Lip13a+Lip13b+MM12                             
  494.289  24%   0.474 MM09+Lip09                                          
  390.564  58%   0.375 MM20+Lip20                                          
   6 lines in following misc. output table
  FWHM = 0.069 ppm    S/N =   9                                            
  Data shift = 0.031 ppm                                                   
  Ph: -35 deg     -13.6 deg/ppm                                            
  alphaB,S = 5.3E-01,   1.6E+02                                            
   14 spline knots.   Ns = 7(1)                                            
  (13) 2 infls.   ( 7) 1 extrs.                                            
  498 points on ppm-axis = NY
      4.000000     3.992357     3.984714     3.977070     3.969427     3.961784     3.954141     3.946497     3.938854     3.931211
      3.923568     3.915925     3.908281     3.900638     3.892995     3.885352     3.877708     3.870065     3.862422     3.854779
      3.847136     3.839492     3.831849     3.824206     3.816563     3.808919     3.801276     3.793633     3.785990     3.778347
      3.770703     3.763060     3.755417     3.747774     3.740130     3.732487     3.724844     3.717201     3.709558     3.701914
      3.694271     3.686628     3.678985     3.671341     3.663698     3.656055     3.648412     3.640769     3.633125     3.625482
      3.617839     3.610196     3.602552     3.594909     3.587266     3.579623     3.571980     3.564336     3.556693     3.549050
      3.541407     3.533763     3.526120     3.518477     3.510834     3.503191     3.495547     3.487904     3.480261     3.472618
      3.464974     3.457331     3.449688     3.442045     3.434402     3.426758     3.419115     3.411472     3.403829     3.396185
      3.388542     3.380899     3.373256     3.365613     3.357969     3.350326     3.342683     3.335040     3.327396     3.319753
      3.312110     3.304467     3.296824     3.289180     3.281537     3.273894     3.266251     3.258607     3.250964     3.243321
      3.235678     3.228034     3.220391     3.212748     3.205105     3.197462     3.189818     3.182175     3.174532     3.166889
      3.159245     3.151602     3.143959     3.136316     3.128673     3.121029     3.113386     3.105743     3.098100     3.090456
      3.082813     3.075170     3.067527     3.059884     3.052240     3.044597     3.036954     3.029311     3.021667     3.014024
      3.006381     2.998738     2.991095     2.983451     2.975808     2.968165     2.960522     2.952878     2.945235     2.937592
      2.929949     2.922306     2.914662     2.907019     2.899376     2.891733     2.884089     2.876446     2.868803     2.861160
      2.853517     2.845873     2.838230     2.830587     2.822944     2.815300     2.807657     2.800014     2.792371     2.784728
      2.777084     2.769441     2.761798     2.754155     2.746511     2.738868     2.731225     2.723582     2.715939     2.708295
      2.700652     2.693009     2.685366     2.677722     2.670079     2.662436     2.654793     2.647150     2.639506     2.631863
      2.624220     2.616577     2.608933     2.601290     2.593647     2.586004     2.578361     2.570717     2.563074     2.555431
      2.547788     2.540144     2.532501     2.524858     2.517215     2.509572     2.501928     2.494285     2.486642     2.478999
      2.471355     2.463712     2.456069     2.448426     2.440783     2.433139     2.425496     2.417853     2.410210     2.402566
      2.394923     2.387280     2.379637     2.371994     2.364350     2.356707     2.349064     2.341421     2.333777     2.326134
      2.318491     2.310848     2.303205     2.295561     2.287918     2.280275     2.272632     2.264988     2.257345     2.249702
      2.242059     2.234416     2.226772     2.219129     2.211486     2.203843     2.196199     2.188556     2.180913     2.173270
      2.165627     2.157983     2.150340     2.142697     2.135054     2.127410     2.119767     2.112124     2.104481     2.096838
      2.089194     2.081551     2.073908     2.066265     2.058621     2.050978     2.043335     2.035692     2.028049     2.020405
      2.012762     2.005119     1.997476     1.989833     1.982190     1.974546     1.966903     1.959260     1.951617     1.943974
      1.936331     1.928688     1.921045     1.913402     1.905759     1.898115     1.890472     1.882829     1.875186     1.867543
      1.859900     1.852257     1.844614     1.836971     1.829327     1.821684     1.814041     1.806398     1.798755     1.791112
      1.783469     1.775826     1.768183     1.760540     1.752896     1.745253     1.737610     1.729967     1.722324     1.714681
      1.707038     1.699395     1.691752     1.684108     1.676465     1.668822     1.661179     1.653536     1.645893     1.638250
      1.630607     1.622964     1.615321     1.607677     1.600034     1.592391     1.584748     1.577105     1.569462     1.561819
      1.554176     1.546533     1.538890     1.531246     1.523603     1.515960     1.508317     1.500674     1.493031     1.485388
      1.477745     1.470102     1.462458     1.454815     1.447172     1.439529     1.431886     1.424243     1.416600     1.408957
      1.401314     1.393671     1.386027     1.378384     1.370741     1.363098     1.355455     1.347812     1.340169     1.332526
      1.324883     1.317240     1.309596     1.301953     1.294310     1.286667     1.279024     1.271381     1.263738     1.256095
      1.248452     1.240808     1.233165     1.225522     1.217879     1.210236     1.202593     1.194950     1.187307     1.179664
      1.172021     1.164377     1.156734     1.149091     1.141448     1.133805     1.126162     1.118519     1.110876     1.103233
      1.095590     1.087946     1.080303     1.072660     1.065017     1.057374     1.049731     1.042088     1.034445     1.026802
      1.019158     1.011515     1.003872     0.996229     0.988586     0.980943     0.973300     0.965657     0.958014     0.950371
      0.942727     0.935084     0.927441     0.919798     0.912155     0.904512     0.896869     0.889226     0.881583     0.873940
      0.866296     0.858653     0.851010     0.843367     0.835724     0.828081     0.820438     0.812795     0.805152     0.797508
      0.789865     0.782222     0.774579     0.766936     0.759293     0.751650     0.744007     0.736364     0.728721     0.721077
      0.713434     0.705791     0.698148     0.690505     0.682862     0.675219     0.667576     0.659933     0.652290     0.644646
      0.637003     0.629360     0.621717     0.614074     0.606431     0.598788     0.591145     0.583502     0.575858     0.568215
      0.560572     0.552929     0.545286     0.537643     0.530000     0.522357     0.514714     0.507071     0.499427     0.491784
      0.484141     0.476498     0.468855     0.461212     0.453569     0.445925     0.438282     0.430639     0.422996     0.415353
      0.407710     0.400067     0.392424     0.384780     0.377137     0.369494     0.361851     0.354208     0.346565     0.338922
      0.331278     0.323635     0.315992     0.308349     0.300706     0.293063     0.285420     0.277777     0.270133     0.262490
      0.254847     0.247204     0.239561     0.231918     0.224275     0.216631     0.208988     0.201345
 NY phased data points follow
  -1.44551E+02 -1.35918E+02 -1.37554E+02 -1.35895E+02 -1.27760E+02 -1.22227E+02 -1.19951E+02 -1.19102E+02 -1.09850E+02 -1.10708E+02
  -1.09660E+02 -1.05987E+02 -1.06148E+02 -1.05200E+02 -1.13739E+02 -1.12364E+02 -1.13553E+02 -1.16912E+02 -1.13595E+02 -1.13954E+02
  -1.13919E+02 -1.09456E+02 -1.08282E+02 -1.09575E+02 -1.05561E+02 -1.04051E+02 -1.01550E+02 -1.03704E+02 -1.01233E+02 -9.85900E+01
  -9.74370E+01 -9.35686E+01 -9.19502E+01 -9.21391E+01 -9.48503E+01 -9.27203E+01 -9.33690E+01 -9.14871E+01 -8.95089E+01 -9.05719E+01
  -8.65756E+01 -8.94731E+01 -8.59775E+01 -8.56339E+01 -8.46874E+01 -8.14014E+01 -7.86332E+01 -8.01934E+01 -7.80032E+01 -7.74473E+01
  -8.15489E+01 -7.81170E+01 -8.26916E+01 -7.63257E+01 -7.72183E+01 -7.76553E+01 -8.03470E+01 -7.75159E+01 -7.46457E+01 -7.36843E+01
  -7.82231E+01 -7.56784E+01 -7.69115E+01 -7.73748E+01 -7.54467E+01 -7.59107E+01 -7.83081E+01 -7.69290E+01 -7.23863E+01 -7.14035E+01
  -7.16702E+01 -6.96615E+01 -7.01189E+01 -6.85109E+01 -6.57678E+01 -6.50710E+01 -6.62002E+01 -6.29314E+01 -6.44069E+01 -6.75170E+01
  -6.56505E+01 -6.68134E+01 -6.37848E+01 -6.46580E+01 -6.23677E+01 -5.96425E+01 -6.07704E+01 -6.16233E+01 -5.97280E+01 -5.79934E+01
  -5.69105E+01 -5.78609E+01 -5.94203E+01 -5.92945E+01 -5.68553E+01 -5.51764E+01 -5.55131E+01 -5.10134E+01 -4.79279E+01 -4.36707E+01
  -3.83410E+01 -3.16647E+01 -2.78154E+01 -2.43498E+01 -2.64777E+01 -2.77583E+01 -3.34650E+01 -3.89579E+01 -4.19708E+01 -4.60711E+01
  -4.45064E+01 -5.15631E+01 -5.48034E+01 -4.68294E+01 -5.06361E+01 -4.95369E+01 -5.07603E+01 -5.20088E+01 -5.17504E+01 -4.96203E+01
  -5.00629E+01 -4.61880E+01 -3.99903E+01 -3.62294E+01 -3.17184E+01 -2.51383E+01 -1.97250E+01 -1.96194E+01 -1.78442E+01 -1.77068E+01
  -2.39288E+01 -2.89046E+01 -3.18890E+01 -3.78370E+01 -4.23197E+01 -4.12976E+01 -4.87104E+01 -4.60571E+01 -4.79159E+01 -4.15995E+01
  -4.64874E+01 -4.53570E+01 -4.45638E+01 -4.18563E+01 -4.65666E+01 -4.04553E+01 -4.56924E+01 -4.44567E+01 -4.17019E+01 -4.70621E+01
  -4.37433E+01 -4.18283E+01 -4.60372E+01 -4.01618E+01 -4.21568E+01 -4.29217E+01 -4.11643E+01 -4.11453E+01 -4.23634E+01 -3.96970E+01
  -4.13705E+01 -4.04288E+01 -3.99893E+01 -4.11930E+01 -3.87365E+01 -3.64100E+01 -4.15721E+01 -4.08270E+01 -3.87351E+01 -3.84762E+01
  -3.99236E+01 -4.12416E+01 -4.12357E+01 -3.71011E+01 -3.89432E+01 -3.88623E+01 -3.98676E+01 -3.84821E+01 -4.01087E+01 -3.67419E+01
  -3.89469E+01 -3.82583E+01 -3.83010E+01 -4.01223E+01 -4.16177E+01 -4.32964E+01 -3.62147E+01 -3.56696E+01 -3.48407E+01 -3.61701E+01
  -3.16206E+01 -3.34580E+01 -2.95430E+01 -2.85228E+01 -2.77478E+01 -2.83630E+01 -3.27397E+01 -2.65461E+01 -3.10709E+01 -3.34574E+01
  -3.10077E+01 -2.99491E+01 -2.98556E+01 -2.79721E+01 -2.73141E+01 -2.84070E+01 -2.97483E+01 -2.78032E+01 -3.33352E+01 -3.12017E+01
  -3.15019E+01 -2.92639E+01 -2.88727E+01 -2.47750E+01 -2.37328E+01 -2.52324E+01 -2.38278E+01 -1.97841E+01 -2.02573E+01 -2.48587E+01
  -2.70306E+01 -2.46344E+01 -2.54640E+01 -2.70169E+01 -2.87433E+01 -2.41410E+01 -2.36169E+01 -2.16905E+01 -1.87023E+01 -1.96636E+01
  -2.08650E+01 -2.16352E+01 -1.97723E+01 -2.08039E+01 -2.35000E+01 -2.41309E+01 -2.35893E+01 -2.18727E+01 -2.20014E+01 -2.07387E+01
  -2.27095E+01 -2.35242E+01 -2.89571E+01 -2.31329E+01 -1.97866E+01 -2.12129E+01 -1.99273E+01 -2.32270E+01 -2.23453E+01 -2.43730E+01
  -2.31413E+01 -2.00544E+01 -1.54429E+01 -1.62215E+01 -9.41337E+00 -4.83841E+00 -9.33740E-01 -2.21221E+00  1.19376E+01  1.62466E+01
   2.20663E+01  2.30028E+01  2.16090E+01  1.60944E+01  1.20215E+01  1.18003E+00 -1.49213E+00 -7.82630E+00 -7.22476E+00 -1.40747E+01
  -1.85521E+01 -1.89603E+01 -1.62066E+01 -1.48462E+01 -1.54326E+01 -1.64260E+01 -1.54026E+01 -1.84342E+01 -1.60357E+01 -1.65791E+01
  -1.46216E+01 -1.89043E+01 -1.60280E+01 -1.98759E+01 -2.00576E+01 -1.44024E+01 -1.43220E+01 -1.37510E+01 -1.81984E+01 -1.72549E+01
  -1.58594E+01 -1.54172E+01 -1.81200E+01 -1.79383E+01 -1.83368E+01 -1.72499E+01 -1.90189E+01 -1.71323E+01 -1.88792E+01 -1.83263E+01
  -1.94732E+01 -1.70315E+01 -1.76132E+01 -1.81613E+01 -1.76190E+01 -1.79815E+01 -1.61703E+01 -1.54408E+01 -1.60034E+01 -1.52407E+01
  -1.51167E+01 -1.67495E+01 -1.36201E+01 -1.41740E+01 -1.54309E+01 -1.49864E+01 -1.37789E+01 -1.67990E+01 -1.23227E+01 -1.59580E+01
  -1.74433E+01 -1.53464E+01 -1.37037E+01 -1.44750E+01 -1.40422E+01 -1.37894E+01 -1.48531E+01 -1.27996E+01 -1.70905E+01 -1.28840E+01
  -1.46965E+01 -1.01570E+01 -1.29614E+01 -1.40735E+01 -1.74222E+01 -1.38031E+01 -1.41962E+01 -1.26683E+01 -1.25035E+01 -1.32720E+01
  -9.87725E+00 -1.22891E+01 -1.45031E+01 -1.18730E+01 -1.00531E+01 -8.79979E+00 -1.08893E+01 -6.11194E+00 -8.29277E+00 -8.93404E+00
  -9.76722E+00 -9.78447E+00 -9.22052E+00 -1.13867E+01 -8.03825E+00 -9.19880E+00 -4.53001E+00 -8.08522E+00 -5.81633E+00 -8.04198E+00
  -9.33913E+00 -7.59451E+00 -1.02125E+01 -1.16097E+01 -6.89784E+00 -8.72360E+00 -9.49064E+00 -4.72286E+00 -1.03580E+01 -1.08482E+01
  -1.01154E+01 -8.58841E+00 -7.93177E+00 -1.07710E+01 -1.03937E+01 -5.82920E+00 -6.54912E+00 -9.53836E+00 -6.03874E+00 -1.03610E+01
  -7.35165E+00 -9.25588E+00 -8.83177E+00 -7.18769E+00 -8.21997E+00 -7.24991E+00 -6.67262E+00 -9.17461E+00 -6.58636E+00 -9.70117E+00
  -7.89353E+00 -7.31619E+00 -9.57334E+00 -7.73790E+00 -9.82344E+00 -8.09960E+00 -8.38341E+00 -7.21404E+00 -6.41378E+00 -4.67194E+00
  -6.91630E+00 -5.05695E+00 -6.44632E+00 -5.52560E+00 -3.63126E+00 -4.87151E+00 -8.02331E-01 -2.69333E+00 -5.70061E+00 -5.46983E+00
  -3.76479E+00 -4.44864E+00 -1.13289E+00 -2.85842E+00 -7.44040E+00 -5.42742E+00 -7.25925E+00 -5.05893E+00 -6.17177E+00 -3.83275E+00
  -5.87594E+00 -5.12225E+00 -4.25107E+00 -6.85185E+00 -6.09832E+00 -7.93367E+00 -4.37472E+00 -5.00674E+00 -9.23509E+00 -4.68179E+00
  -7.20791E+00 -8.11391E+00 -5.04910E+00 -4.43739E+00 -7.13275E+00 -7.44513E+00 -9.84565E+00 -6.34606E+00 -5.53788E+00 -4.99294E+00
  -7.25560E+00 -4.01008E+00 -1.04123E+01 -7.23101E+00 -9.82873E+00 -6.59918E+00 -5.78354E+00 -5.25429E+00 -4.39280E+00 -3.27872E+00
  -7.04659E+00 -1.69971E+00 -3.68543E+00 -9.40864E+00 -4.48724E+00 -5.72423E+00 -6.67411E+00 -6.34151E+00 -1.17287E+00 -5.14562E+00
  -4.10720E+00 -5.53384E+00 -5.78393E+00 -5.39530E+00 -5.27843E+00 -6.80175E+00 -4.52254E+00 -3.54998E+00 -4.19347E+00 -2.91900E+00
  -3.93759E+00 -5.14847E+00 -5.57275E+00 -5.15088E+00 -4.91702E+00 -5.07577E+00 -4.23799E+00 -9.01360E+00 -1.52021E+00 -5.15180E+00
  -5.24992E+00 -5.99476E+00 -5.47741E+00 -2.28620E+00 -1.67825E+00 -1.98610E+00 -4.00511E+00 -3.89696E+00 -4.56920E+00  8.83866E-02
  -3.89804E+00 -4.58095E+00 -5.45989E+00 -4.48801E+00 -4.74761E+00 -6.02232E-01  8.85463E-01 -3.77768E+00
 NY points of the fit to the data follow
  -1.33113E+02 -1.32562E+02 -1.31419E+02 -1.29288E+02 -1.26561E+02 -1.23614E+02 -1.20419E+02 -1.16884E+02 -1.13353E+02 -1.10394E+02
  -1.08388E+02 -1.07523E+02 -1.07798E+02 -1.08887E+02 -1.10199E+02 -1.11295E+02 -1.12144E+02 -1.12933E+02 -1.13179E+02 -1.12655E+02
  -1.11886E+02 -1.11093E+02 -1.10321E+02 -1.09345E+02 -1.08082E+02 -1.06615E+02 -1.04914E+02 -1.02898E+02 -1.00574E+02 -9.81240E+01
  -9.57905E+01 -9.38802E+01 -9.26534E+01 -9.21726E+01 -9.23317E+01 -9.28870E+01 -9.35779E+01 -9.42579E+01 -9.46749E+01 -9.42807E+01
  -9.29046E+01 -9.09047E+01 -8.86343E+01 -8.62223E+01 -8.37530E+01 -8.15288E+01 -7.99134E+01 -7.91532E+01 -7.92036E+01 -7.98512E+01
  -8.08503E+01 -8.17495E+01 -8.21903E+01 -8.22033E+01 -8.18805E+01 -8.11129E+01 -7.99039E+01 -7.85642E+01 -7.73897E+01 -7.64573E+01
  -7.58009E+01 -7.54269E+01 -7.52691E+01 -7.51705E+01 -7.49108E+01 -7.44221E+01 -7.37584E+01 -7.29376E+01 -7.19543E+01 -7.08582E+01
  -6.97632E+01 -6.87983E+01 -6.79951E+01 -6.73484E+01 -6.68563E+01 -6.64710E+01 -6.61484E+01 -6.58805E+01 -6.56787E+01 -6.54944E+01
  -6.50540E+01 -6.44055E+01 -6.37272E+01 -6.30563E+01 -6.22997E+01 -6.14536E+01 -6.06798E+01 -6.01107E+01 -5.97506E+01 -5.95811E+01
  -5.95884E+01 -5.96602E+01 -5.96496E+01 -5.95463E+01 -5.93690E+01 -5.85879E+01 -5.59734E+01 -5.20449E+01 -4.76812E+01 -4.29129E+01
  -3.75068E+01 -3.20000E+01 -2.76148E+01 -2.53275E+01 -2.54692E+01 -2.79508E+01 -3.21946E+01 -3.70952E+01 -4.16380E+01 -4.55632E+01
  -4.90142E+01 -5.16097E+01 -5.25940E+01 -5.27195E+01 -5.26314E+01 -5.24707E+01 -5.22697E+01 -5.20157E+01 -5.16676E+01 -5.09524E+01
  -4.87877E+01 -4.50963E+01 -4.08574E+01 -3.63419E+01 -3.12490E+01 -2.58017E+01 -2.10782E+01 -1.81406E+01 -1.75228E+01 -1.93097E+01
  -2.30703E+01 -2.78188E+01 -3.24836E+01 -3.65996E+01 -4.03214E+01 -4.35044E+01 -4.51867E+01 -4.55897E+01 -4.55608E+01 -4.52651E+01
  -4.48001E+01 -4.42801E+01 -4.37727E+01 -4.33073E+01 -4.29513E+01 -4.27295E+01 -4.26018E+01 -4.25336E+01 -4.24975E+01 -4.24503E+01
  -4.23752E+01 -4.22422E+01 -4.20699E+01 -4.18767E+01 -4.17015E+01 -4.15622E+01 -4.14305E+01 -4.12864E+01 -4.11178E+01 -4.09519E+01
  -4.08168E+01 -4.06723E+01 -4.04709E+01 -4.02144E+01 -3.99524E+01 -3.97347E+01 -3.95929E+01 -3.95329E+01 -3.95301E+01 -3.95655E+01
  -3.96497E+01 -3.97202E+01 -3.97372E+01 -3.97170E+01 -3.96678E+01 -3.95835E+01 -3.94262E+01 -3.91706E+01 -3.88653E+01 -3.85750E+01
  -3.83390E+01 -3.81389E+01 -3.78938E+01 -3.75482E+01 -3.70894E+01 -3.65360E+01 -3.58891E+01 -3.51113E+01 -3.42120E+01 -3.32663E+01
  -3.24205E+01 -3.18413E+01 -3.15628E+01 -3.15108E+01 -3.15833E+01 -3.16796E+01 -3.17087E+01 -3.15266E+01 -3.09986E+01 -3.01384E+01
  -2.90673E+01 -2.79416E+01 -2.69588E+01 -2.64470E+01 -2.64896E+01 -2.69624E+01 -2.78126E+01 -2.89793E+01 -3.01611E+01 -3.08718E+01
  -3.08988E+01 -3.03009E+01 -2.91564E+01 -2.75708E+01 -2.58549E+01 -2.45056E+01 -2.38564E+01 -2.38645E+01 -2.43952E+01 -2.54566E+01
  -2.67228E+01 -2.77098E+01 -2.81807E+01 -2.80656E+01 -2.73986E+01 -2.62653E+01 -2.49352E+01 -2.37228E+01 -2.28117E+01 -2.22892E+01
  -2.20602E+01 -2.20035E+01 -2.20614E+01 -2.21195E+01 -2.20272E+01 -2.17567E+01 -2.14619E+01 -2.12407E+01 -2.11000E+01 -2.10478E+01
  -2.12032E+01 -2.15936E+01 -2.20523E+01 -2.24037E+01 -2.25853E+01 -2.26153E+01 -2.24285E+01 -2.20127E+01 -2.14729E+01 -2.08295E+01
  -2.00672E+01 -1.92247E+01 -1.82790E+01 -1.62890E+01 -1.21680E+01 -6.93933E+00 -1.51405E+00  4.29261E+00  1.06987E+01  1.67713E+01
   2.10560E+01  2.26059E+01  2.11341E+01  1.68360E+01  1.06378E+01  4.01852E+00 -1.96715E+00 -7.22681E+00 -1.19037E+01 -1.52333E+01
  -1.65107E+01 -1.69479E+01 -1.71350E+01 -1.71884E+01 -1.71786E+01 -1.71605E+01 -1.71410E+01 -1.71345E+01 -1.71471E+01 -1.71706E+01
  -1.71960E+01 -1.72230E+01 -1.72439E+01 -1.72460E+01 -1.72294E+01 -1.72018E+01 -1.71706E+01 -1.71369E+01 -1.71000E+01 -1.70609E+01
  -1.70224E+01 -1.69815E+01 -1.69370E+01 -1.68892E+01 -1.68397E+01 -1.67891E+01 -1.67379E+01 -1.66859E+01 -1.66332E+01 -1.65789E+01
  -1.65228E+01 -1.64639E+01 -1.64021E+01 -1.63376E+01 -1.62715E+01 -1.62040E+01 -1.61356E+01 -1.60661E+01 -1.59961E+01 -1.59248E+01
  -1.58522E+01 -1.57778E+01 -1.57016E+01 -1.56228E+01 -1.55414E+01 -1.54568E+01 -1.53688E+01 -1.52763E+01 -1.51781E+01 -1.50706E+01
  -1.49478E+01 -1.48171E+01 -1.46928E+01 -1.45758E+01 -1.44639E+01 -1.43631E+01 -1.42856E+01 -1.42367E+01 -1.42017E+01 -1.41548E+01
  -1.40851E+01 -1.39833E+01 -1.38376E+01 -1.36421E+01 -1.34046E+01 -1.31364E+01 -1.28457E+01 -1.25517E+01 -1.22716E+01 -1.19991E+01
  -1.17116E+01 -1.14102E+01 -1.11257E+01 -1.08646E+01 -1.06123E+01 -1.03695E+01 -1.01701E+01 -1.00322E+01 -9.92156E+00 -9.79881E+00
  -9.65215E+00 -9.46550E+00 -9.21613E+00 -8.90345E+00 -8.56154E+00 -8.22792E+00 -7.92415E+00 -7.69070E+00 -7.56913E+00 -7.55079E+00
  -7.60626E+00 -7.70807E+00 -7.84521E+00 -8.00989E+00 -8.16851E+00 -8.30338E+00 -8.42339E+00 -8.53231E+00 -8.63171E+00 -8.72202E+00
  -8.80364E+00 -8.87639E+00 -8.94022E+00 -8.99459E+00 -9.03918E+00 -9.07331E+00 -9.09665E+00 -9.10859E+00 -9.10888E+00 -9.09696E+00
  -9.07259E+00 -9.03519E+00 -8.98450E+00 -8.91993E+00 -8.84114E+00 -8.74746E+00 -8.63850E+00 -8.51360E+00 -8.37253E+00 -8.21487E+00
  -8.04077E+00 -7.85031E+00 -7.64429E+00 -7.42367E+00 -7.19027E+00 -6.94616E+00 -6.69431E+00 -6.43794E+00 -6.18110E+00 -5.92798E+00
  -5.68338E+00 -5.45187E+00 -5.23828E+00 -5.04681E+00 -4.88149E+00 -4.74537E+00 -4.64095E+00 -4.56945E+00 -4.53134E+00 -4.52570E+00
  -4.55095E+00 -4.60430E+00 -4.68252E+00 -4.78152E+00 -4.89710E+00 -5.02464E+00 -5.15987E+00 -5.29845E+00 -5.43671E+00 -5.57113E+00
  -5.69904E+00 -5.81807E+00 -5.92673E+00 -6.02380E+00 -6.10882E+00 -6.18146E+00 -6.24204E+00 -6.29088E+00 -6.32880E+00 -6.35645E+00
  -6.37483E+00 -6.38467E+00 -6.38699E+00 -6.38251E+00 -6.37216E+00 -6.35653E+00 -6.33638E+00 -6.31214E+00 -6.28445E+00 -6.25363E+00
  -6.22019E+00 -6.18431E+00 -6.14639E+00 -6.10652E+00 -6.06505E+00 -6.02201E+00 -5.97770E+00 -5.93208E+00 -5.88538E+00 -5.83755E+00
  -5.78881E+00 -5.73910E+00 -5.68860E+00 -5.63721E+00 -5.58510E+00 -5.53220E+00 -5.47870E+00 -5.42452E+00 -5.36981E+00 -5.31445E+00
  -5.25861E+00 -5.20219E+00 -5.14537E+00 -5.08802E+00 -5.03030E+00 -4.97207E+00 -4.91349E+00 -4.85445E+00 -4.79512E+00 -4.73537E+00
  -4.67533E+00 -4.61487E+00 -4.55414E+00 -4.49305E+00 -4.43173E+00 -4.37004E+00 -4.30811E+00 -4.24583E+00 -4.18336E+00 -4.12056E+00
  -4.05759E+00 -3.99430E+00 -3.93081E+00 -3.86703E+00 -3.80309E+00 -3.73888E+00 -3.67451E+00 -3.60986E+00 -3.54506E+00 -3.47999E+00
  -3.41482E+00 -3.34940E+00 -3.28385E+00 -3.21804E+00 -3.15212E+00 -3.08597E+00 -3.01974E+00 -2.95328E+00
 NY background values follow
    -1.365E+02   -1.355E+02   -1.345E+02   -1.334E+02   -1.324E+02   -1.314E+02   -1.303E+02   -1.293E+02   -1.283E+02   -1.273E+02
    -1.262E+02   -1.252E+02   -1.242E+02   -1.232E+02   -1.222E+02   -1.212E+02   -1.202E+02   -1.192E+02   -1.182E+02   -1.172E+02
    -1.162E+02   -1.152E+02   -1.142E+02   -1.132E+02   -1.122E+02   -1.113E+02   -1.103E+02   -1.093E+02   -1.084E+02   -1.074E+02
    -1.065E+02   -1.055E+02   -1.046E+02   -1.037E+02   -1.028E+02   -1.018E+02   -1.009E+02   -1.000E+02   -9.914E+01   -9.825E+01
    -9.737E+01   -9.650E+01   -9.563E+01   -9.478E+01   -9.393E+01   -9.309E+01   -9.226E+01   -9.144E+01   -9.063E+01   -8.982E+01
    -8.903E+01   -8.824E+01   -8.746E+01   -8.669E+01   -8.593E+01   -8.517E+01   -8.443E+01   -8.369E+01   -8.296E+01   -8.224E+01
    -8.152E+01   -8.082E+01   -8.012E+01   -7.943E+01   -7.875E+01   -7.808E+01   -7.742E+01   -7.676E+01   -7.611E+01   -7.547E+01
    -7.483E+01   -7.421E+01   -7.359E+01   -7.298E+01   -7.237E+01   -7.178E+01   -7.119E+01   -7.061E+01   -7.004E+01   -6.947E+01
    -6.891E+01   -6.836E+01   -6.782E+01   -6.728E+01   -6.675E+01   -6.623E+01   -6.572E+01   -6.521E+01   -6.471E+01   -6.421E+01
    -6.373E+01   -6.325E+01   -6.278E+01   -6.231E+01   -6.185E+01   -6.140E+01   -6.095E+01   -6.051E+01   -6.008E+01   -5.965E+01
    -5.923E+01   -5.881E+01   -5.840E+01   -5.800E+01   -5.760E+01   -5.721E+01   -5.682E+01   -5.644E+01   -5.606E+01   -5.569E+01
    -5.532E+01   -5.495E+01   -5.460E+01   -5.424E+01   -5.389E+01   -5.355E+01   -5.321E+01   -5.287E+01   -5.253E+01   -5.220E+01
    -5.188E+01   -5.156E+01   -5.124E+01   -5.092E+01   -5.061E+01   -5.030E+01   -5.000E+01   -4.969E+01   -4.939E+01   -4.909E+01
    -4.880E+01   -4.851E+01   -4.822E+01   -4.793E+01   -4.764E+01   -4.736E+01   -4.708E+01   -4.680E+01   -4.652E+01   -4.624E+01
    -4.597E+01   -4.569E+01   -4.542E+01   -4.515E+01   -4.488E+01   -4.461E+01   -4.435E+01   -4.408E+01   -4.382E+01   -4.356E+01
    -4.330E+01   -4.304E+01   -4.278E+01   -4.252E+01   -4.226E+01   -4.201E+01   -4.175E+01   -4.150E+01   -4.124E+01   -4.099E+01
    -4.074E+01   -4.049E+01   -4.024E+01   -3.999E+01   -3.974E+01   -3.949E+01   -3.924E+01   -3.899E+01   -3.874E+01   -3.850E+01
    -3.825E+01   -3.800E+01   -3.775E+01   -3.751E+01   -3.726E+01   -3.701E+01   -3.677E+01   -3.652E+01   -3.627E+01   -3.602E+01
    -3.578E+01   -3.553E+01   -3.528E+01   -3.503E+01   -3.478E+01   -3.453E+01   -3.428E+01   -3.403E+01   -3.379E+01   -3.354E+01
    -3.329E+01   -3.304E+01   -3.279E+01   -3.255E+01   -3.230E+01   -3.206E+01   -3.181E+01   -3.157E+01   -3.132E+01   -3.108E+01
    -3.084E+01   -3.060E+01   -3.036E+01   -3.013E+01   -2.989E+01   -2.966E+01   -2.942E+01   -2.919E+01   -2.896E+01   -2.874E+01
    -2.851E+01   -2.829E+01   -2.807E+01   -2.785E+01   -2.763E+01   -2.741E+01   -2.720E+01   -2.699E+01   -2.678E+01   -2.658E+01
    -2.638E+01   -2.618E+01   -2.598E+01   -2.579E+01   -2.560E+01   -2.541E+01   -2.522E+01   -2.504E+01   -2.486E+01   -2.469E+01
    -2.452E+01   -2.435E+01   -2.418E+01   -2.402E+01   -2.386E+01   -2.370E+01   -2.354E+01   -2.339E+01   -2.324E+01   -2.309E+01
    -2.295E+01   -2.281E+01   -2.267E+01   -2.253E+01   -2.240E+01   -2.227E+01   -2.214E+01   -2.201E+01   -2.189E+01   -2.176E+01
    -2.164E+01   -2.152E+01   -2.141E+01   -2.129E+01   -2.118E+01   -2.107E+01   -2.096E+01   -2.085E+01   -2.075E+01   -2.065E+01
    -2.054E+01   -2.044E+01   -2.035E+01   -2.025E+01   -2.015E+01   -2.006E+01   -1.997E+01   -1.988E+01   -1.979E+01   -1.970E+01
    -1.961E+01   -1.952E+01   -1.944E+01   -1.936E+01   -1.927E+01   -1.919E+01   -1.911E+01   -1.903E+01   -1.895E+01   -1.887E+01
    -1.880E+01   -1.872E+01   -1.864E+01   -1.857E+01   -1.849E+01   -1.842E+01   -1.835E+01   -1.828E+01   -1.820E+01   -1.813E+01
    -1.806E+01   -1.799E+01   -1.792E+01   -1.785E+01   -1.778E+01   -1.771E+01   -1.764E+01   -1.757E+01   -1.750E+01   -1.743E+01
    -1.736E+01   -1.730E+01   -1.723E+01   -1.716E+01   -1.709E+01   -1.702E+01   -1.695E+01   -1.688E+01   -1.681E+01   -1.674E+01
    -1.667E+01   -1.660E+01   -1.652E+01   -1.645E+01   -1.638E+01   -1.631E+01   -1.623E+01   -1.616E+01   -1.608E+01   -1.601E+01
    -1.593E+01   -1.586E+01   -1.578E+01   -1.570E+01   -1.562E+01   -1.554E+01   -1.546E+01   -1.538E+01   -1.530E+01   -1.522E+01
    -1.514E+01   -1.506E+01   -1.498E+01   -1.490E+01   -1.481E+01   -1.473E+01   -1.465E+01   -1.456E+01   -1.448E+01   -1.440E+01
    -1.431E+01   -1.423E+01   -1.414E+01   -1.406E+01   -1.397E+01   -1.389E+01   -1.380E+01   -1.372E+01   -1.363E+01   -1.355E+01
    -1.346E+01   -1.338E+01   -1.329E+01   -1.320E+01   -1.312E+01   -1.303E+01   -1.295E+01   -1.286E+01   -1.278E+01   -1.269E+01
    -1.261E+01   -1.252E+01   -1.244E+01   -1.235E+01   -1.227E+01   -1.218E+01   -1.210E+01   -1.202E+01   -1.193E+01   -1.185E+01
    -1.177E+01   -1.168E+01   -1.160E+01   -1.152E+01   -1.144E+01   -1.136E+01   -1.128E+01   -1.119E+01   -1.111E+01   -1.103E+01
    -1.095E+01   -1.087E+01   -1.079E+01   -1.071E+01   -1.064E+01   -1.056E+01   -1.048E+01   -1.040E+01   -1.032E+01   -1.025E+01
    -1.017E+01   -1.009E+01   -1.002E+01   -9.944E+00   -9.869E+00   -9.795E+00   -9.721E+00   -9.647E+00   -9.574E+00   -9.501E+00
    -9.429E+00   -9.358E+00   -9.286E+00   -9.216E+00   -9.146E+00   -9.076E+00   -9.007E+00   -8.938E+00   -8.870E+00   -8.803E+00
    -8.735E+00   -8.669E+00   -8.603E+00   -8.537E+00   -8.472E+00   -8.407E+00   -8.342E+00   -8.278E+00   -8.215E+00   -8.151E+00
    -8.088E+00   -8.025E+00   -7.963E+00   -7.901E+00   -7.839E+00   -7.777E+00   -7.716E+00   -7.654E+00   -7.593E+00   -7.532E+00
    -7.472E+00   -7.411E+00   -7.351E+00   -7.290E+00   -7.230E+00   -7.170E+00   -7.110E+00   -7.050E+00   -6.990E+00   -6.930E+00
    -6.870E+00   -6.810E+00   -6.750E+00   -6.690E+00   -6.629E+00   -6.569E+00   -6.509E+00   -6.448E+00   -6.387E+00   -6.327E+00
    -6.266E+00   -6.204E+00   -6.143E+00   -6.081E+00   -6.019E+00   -5.957E+00   -5.895E+00   -5.833E+00   -5.770E+00   -5.707E+00
    -5.644E+00   -5.581E+00   -5.517E+00   -5.454E+00   -5.390E+00   -5.326E+00   -5.261E+00   -5.197E+00   -5.132E+00   -5.067E+00
    -5.002E+00   -4.937E+00   -4.872E+00   -4.806E+00   -4.740E+00   -4.674E+00   -4.608E+00   -4.542E+00   -4.476E+00   -4.409E+00
    -4.342E+00   -4.275E+00   -4.208E+00   -4.141E+00   -4.074E+00   -4.006E+00   -3.939E+00   -3.871E+00   -3.803E+00   -3.735E+00
    -3.666E+00   -3.598E+00   -3.529E+00   -3.461E+00   -3.392E+00   -3.323E+00   -3.254E+00   -3.185E+00
 Ala      Conc. = 2.59E+01
