 LCModel (Version 6.3-1L) Copyright: S.W. Provencher.          Ref.: Magn. Reson. Med. 30:672-679 (1993).                
 Slice#1 Row#9 Col#1  PD_24_press_1_raw_act
 36 lines in following concentration table = NCONC+1
    Conc.  %SD /Cr+PCr  Metabolite                                         
    0.000 999%   0.000 Ala                                                 
    8.036 224%   0.159 Asp                                                 
   46.609  34%   0.924 Cr                                                  
    3.822 438% 7.6E-02 PCr                                                 
    7.849 131%   0.156 GABA                                                
   11.552  96%   0.229 Glc                                                 
   30.125  83%   0.597 Gln                                                 
   42.130  66%   0.835 Glu                                                 
    0.000 999%   0.000 GPC                                                 
   25.686  17%   0.509 PCh                                                 
   23.832  45%   0.473 GSH                                                 
  106.900  34%   2.120 Ins                                                 
   23.464  59%   0.465 Lac                                                 
   92.728  15%   1.839 NAA                                                 
   27.934  40%   0.554 NAAG                                                
    7.305  42%   0.145 Scyllo                                              
   23.757  71%   0.471 Tau                                                 
   17.302  88%   0.343 -CrCH2                                              
   25.686  17%   0.509 GPC+PCh                                             
  120.662  16%   2.393 NAA+NAAG                                            
   50.431  22%   1.000 Cr+PCr                                              
   72.255  46%   1.433 Glu+Gln                                             
    0.000 999%   0.000 Lip13a                                              
   79.642  62%   1.579 Lip13b                                              
   14.886 255%   0.295 Lip09                                               
    0.958 999% 1.9E-02 MM09                                                
    0.000 999%   0.000 Lip20                                               
    0.000 999%   0.000 MM20                                                
    0.168 999% 3.3E-03 MM12                                                
    0.000 999%   0.000 MM14                                                
   10.434 152%   0.207 MM17                                                
   79.642  62%   1.579 Lip13a+Lip13b                                       
   79.809  63%   1.583 MM14+Lip13a+Lip13b+MM12                             
   15.844 245%   0.314 MM09+Lip09                                          
    0.000 999%   0.000 MM20+Lip20                                          
   6 lines in following misc. output table
  FWHM = 0.031 ppm    S/N =   2                                            
  Data shift = 0.008 ppm                                                   
  Ph:-141 deg      20.1 deg/ppm                                            
  alphaB,S = 8.2E-01,   1.1E+01                                            
   14 spline knots.   Ns = 5(1)                                            
   2 inflections.     1 extrema                                            
  498 points on ppm-axis = NY
      4.000000     3.992357     3.984714     3.977070     3.969427     3.961784     3.954141     3.946497     3.938854     3.931211
      3.923568     3.915925     3.908281     3.900638     3.892995     3.885352     3.877708     3.870065     3.862422     3.854779
      3.847136     3.839492     3.831849     3.824206     3.816563     3.808919     3.801276     3.793633     3.785990     3.778347
      3.770703     3.763060     3.755417     3.747774     3.740130     3.732487     3.724844     3.717201     3.709558     3.701914
      3.694271     3.686628     3.678985     3.671341     3.663698     3.656055     3.648412     3.640769     3.633125     3.625482
      3.617839     3.610196     3.602552     3.594909     3.587266     3.579623     3.571980     3.564336     3.556693     3.549050
      3.541407     3.533763     3.526120     3.518477     3.510834     3.503191     3.495547     3.487904     3.480261     3.472618
      3.464974     3.457331     3.449688     3.442045     3.434402     3.426758     3.419115     3.411472     3.403829     3.396185
      3.388542     3.380899     3.373256     3.365613     3.357969     3.350326     3.342683     3.335040     3.327396     3.319753
      3.312110     3.304467     3.296824     3.289180     3.281537     3.273894     3.266251     3.258607     3.250964     3.243321
      3.235678     3.228034     3.220391     3.212748     3.205105     3.197462     3.189818     3.182175     3.174532     3.166889
      3.159245     3.151602     3.143959     3.136316     3.128673     3.121029     3.113386     3.105743     3.098100     3.090456
      3.082813     3.075170     3.067527     3.059884     3.052240     3.044597     3.036954     3.029311     3.021667     3.014024
      3.006381     2.998738     2.991095     2.983451     2.975808     2.968165     2.960522     2.952878     2.945235     2.937592
      2.929949     2.922306     2.914662     2.907019     2.899376     2.891733     2.884089     2.876446     2.868803     2.861160
      2.853517     2.845873     2.838230     2.830587     2.822944     2.815300     2.807657     2.800014     2.792371     2.784728
      2.777084     2.769441     2.761798     2.754155     2.746511     2.738868     2.731225     2.723582     2.715939     2.708295
      2.700652     2.693009     2.685366     2.677722     2.670079     2.662436     2.654793     2.647150     2.639506     2.631863
      2.624220     2.616577     2.608933     2.601290     2.593647     2.586004     2.578361     2.570717     2.563074     2.555431
      2.547788     2.540144     2.532501     2.524858     2.517215     2.509572     2.501928     2.494285     2.486642     2.478999
      2.471355     2.463712     2.456069     2.448426     2.440783     2.433139     2.425496     2.417853     2.410210     2.402566
      2.394923     2.387280     2.379637     2.371994     2.364350     2.356707     2.349064     2.341421     2.333777     2.326134
      2.318491     2.310848     2.303205     2.295561     2.287918     2.280275     2.272632     2.264988     2.257345     2.249702
      2.242059     2.234416     2.226772     2.219129     2.211486     2.203843     2.196199     2.188556     2.180913     2.173270
      2.165627     2.157983     2.150340     2.142697     2.135054     2.127410     2.119767     2.112124     2.104481     2.096838
      2.089194     2.081551     2.073908     2.066265     2.058621     2.050978     2.043335     2.035692     2.028049     2.020405
      2.012762     2.005119     1.997476     1.989833     1.982190     1.974546     1.966903     1.959260     1.951617     1.943974
      1.936331     1.928688     1.921045     1.913402     1.905759     1.898115     1.890472     1.882829     1.875186     1.867543
      1.859900     1.852257     1.844614     1.836971     1.829327     1.821684     1.814041     1.806398     1.798755     1.791112
      1.783469     1.775826     1.768183     1.760540     1.752896     1.745253     1.737610     1.729967     1.722324     1.714681
      1.707038     1.699395     1.691752     1.684108     1.676465     1.668822     1.661179     1.653536     1.645893     1.638250
      1.630607     1.622964     1.615321     1.607677     1.600034     1.592391     1.584748     1.577105     1.569462     1.561819
      1.554176     1.546533     1.538890     1.531246     1.523603     1.515960     1.508317     1.500674     1.493031     1.485388
      1.477745     1.470102     1.462458     1.454815     1.447172     1.439529     1.431886     1.424243     1.416600     1.408957
      1.401314     1.393671     1.386027     1.378384     1.370741     1.363098     1.355455     1.347812     1.340169     1.332526
      1.324883     1.317240     1.309596     1.301953     1.294310     1.286667     1.279024     1.271381     1.263738     1.256095
      1.248452     1.240808     1.233165     1.225522     1.217879     1.210236     1.202593     1.194950     1.187307     1.179664
      1.172021     1.164377     1.156734     1.149091     1.141448     1.133805     1.126162     1.118519     1.110876     1.103233
      1.095590     1.087946     1.080303     1.072660     1.065017     1.057374     1.049731     1.042088     1.034445     1.026802
      1.019158     1.011515     1.003872     0.996229     0.988586     0.980943     0.973300     0.965657     0.958014     0.950371
      0.942727     0.935084     0.927441     0.919798     0.912155     0.904512     0.896869     0.889226     0.881583     0.873940
      0.866296     0.858653     0.851010     0.843367     0.835724     0.828081     0.820438     0.812795     0.805152     0.797508
      0.789865     0.782222     0.774579     0.766936     0.759293     0.751650     0.744007     0.736364     0.728721     0.721077
      0.713434     0.705791     0.698148     0.690505     0.682862     0.675219     0.667576     0.659933     0.652290     0.644646
      0.637003     0.629360     0.621717     0.614074     0.606431     0.598788     0.591145     0.583502     0.575858     0.568215
      0.560572     0.552929     0.545286     0.537643     0.530000     0.522357     0.514714     0.507071     0.499427     0.491784
      0.484141     0.476498     0.468855     0.461212     0.453569     0.445925     0.438282     0.430639     0.422996     0.415353
      0.407710     0.400067     0.392424     0.384780     0.377137     0.369494     0.361851     0.354208     0.346565     0.338922
      0.331278     0.323635     0.315992     0.308349     0.300706     0.293063     0.285420     0.277777     0.270133     0.262490
      0.254847     0.247204     0.239561     0.231918     0.224275     0.216631     0.208988     0.201345
 NY phased data points follow
  -2.78693E+01 -2.74566E+01 -2.47455E+01 -2.63752E+01 -2.53200E+01 -2.64317E+01 -2.37814E+01 -2.08116E+01 -2.26003E+01 -2.15561E+01
  -2.09084E+01 -1.99540E+01 -2.10148E+01 -2.03636E+01 -2.12435E+01 -2.31573E+01 -2.25367E+01 -2.43114E+01 -2.31154E+01 -2.20175E+01
  -1.81049E+01 -1.96524E+01 -1.99172E+01 -1.85781E+01 -1.77546E+01 -1.94579E+01 -1.64721E+01 -2.03624E+01 -1.49665E+01 -1.81687E+01
  -1.64888E+01 -1.75837E+01 -1.64792E+01 -1.43782E+01 -1.78997E+01 -1.91464E+01 -1.90560E+01 -1.58372E+01 -1.65084E+01 -1.49303E+01
  -1.83261E+01 -1.72937E+01 -1.45921E+01 -1.67929E+01 -1.50802E+01 -1.59419E+01 -1.66446E+01 -1.42642E+01 -1.16062E+01 -1.67073E+01
  -1.61777E+01 -1.53257E+01 -1.54468E+01 -1.42728E+01 -1.30486E+01 -1.55713E+01 -9.50607E+00 -1.34257E+01 -9.26701E+00 -1.24934E+01
  -1.03341E+01 -1.37460E+01 -1.31417E+01 -1.48384E+01 -1.33269E+01 -8.96345E+00 -9.83909E+00 -1.03512E+01 -1.10976E+01 -1.18409E+01
  -1.10958E+01 -9.72278E+00 -7.69695E+00 -1.14080E+01 -1.02416E+01 -1.25107E+01 -8.22767E+00 -9.41704E+00 -1.22851E+01 -1.04981E+01
  -8.62444E+00 -1.21257E+01 -8.89484E+00 -7.72245E+00 -7.86739E+00 -6.47004E+00 -1.07836E+01 -9.60646E+00 -6.80298E+00 -9.13087E+00
  -1.02564E+01 -9.24944E+00 -9.96105E+00 -7.26710E+00 -9.06681E+00 -7.50203E+00 -9.67678E+00 -9.32095E+00 -9.53484E+00 -9.29812E+00
  -7.50430E+00 -6.05338E+00 -1.46694E-01 -3.36659E+00 -4.70241E+00 -4.71576E+00 -7.47000E+00 -7.96977E+00 -1.12529E+01 -1.21372E+01
  -1.17484E+01 -9.32349E+00 -8.35586E+00 -7.40378E+00 -8.60260E+00 -1.01895E+01 -7.42520E+00 -7.23951E+00 -7.05367E+00 -8.36267E+00
  -6.14648E+00 -1.08351E+01 -8.99361E+00 -5.49121E+00 -6.87320E+00 -3.61125E+00 -1.82973E+00 -1.44940E+00 -2.93399E+00 -5.78879E+00
  -8.81292E+00 -6.49005E+00 -6.33817E+00 -6.99333E+00 -8.19121E+00 -6.91121E+00 -8.53369E+00 -7.92329E+00 -7.80332E+00 -6.95953E+00
  -4.57893E+00 -7.27865E+00 -5.81736E+00 -7.04628E+00 -5.32360E+00 -6.69745E+00 -7.04004E+00 -6.05325E+00 -5.58649E+00 -6.97807E+00
  -2.47181E+00 -4.49209E+00 -3.30269E+00 -7.15082E+00 -4.17891E+00 -4.24556E+00 -5.68674E+00 -6.87105E+00 -5.36054E+00 -5.82875E+00
  -5.62360E+00 -6.31301E+00 -4.87839E+00 -4.35141E+00 -6.45030E+00 -5.34959E+00 -8.25305E+00 -5.80039E+00 -7.65917E+00 -4.91253E+00
  -5.56748E+00 -2.79171E+00 -3.71725E+00 -5.72950E+00 -5.11556E+00 -5.40913E+00 -5.08574E+00 -3.05461E+00 -6.15045E+00 -3.70928E+00
  -6.06799E+00 -4.47825E+00 -4.53248E+00 -4.07726E+00 -4.33375E+00 -3.85736E+00 -3.55216E+00 -7.04554E+00 -2.28799E+00 -1.61293E+00
  -2.42056E+00 -3.54786E+00 -3.09757E+00 -2.89990E+00 -3.73079E+00 -6.45247E+00 -5.07778E+00 -3.04669E+00 -3.25509E+00 -4.39628E+00
  -5.70060E+00 -2.34739E+00 -3.46702E+00 -3.11253E+00 -2.90633E+00 -3.61317E+00 -4.09834E+00 -3.40060E+00 -5.03232E+00 -6.24737E+00
  -2.72035E+00 -5.80177E+00 -5.74975E+00 -3.84586E+00 -3.63000E+00 -3.78619E+00 -2.45122E+00 -2.19117E+00 -5.44738E+00 -6.55466E+00
  -5.35460E+00 -5.17097E+00 -1.00309E+00 -4.20851E+00 -3.79084E+00 -4.94719E+00 -3.67221E-01 -4.82215E+00 -4.13181E+00 -2.86180E+00
  -1.84676E+00 -4.20573E+00 -3.10062E+00 -3.19034E+00 -3.54503E+00 -5.00286E+00 -7.52483E-01 -1.00316E+00 -4.63851E+00 -4.74283E+00
  -2.32529E+00 -3.59551E+00 -3.98568E+00 -4.22118E+00 -3.16348E+00 -5.56487E+00 -2.76979E+00 -4.07248E+00 -2.44062E+00 -3.63307E+00
  -3.42964E+00 -2.91384E-01 -4.21542E+00 -1.64792E+00 -4.49357E-01  1.10072E+00  8.15626E-02  7.32262E-01  2.59472E+00  5.24966E+00
   7.68762E+00  3.98569E+00 -1.42462E+00 -2.27653E+00 -4.24695E+00 -3.58621E+00 -4.76958E+00 -3.58353E+00 -2.65008E+00 -2.52271E+00
  -1.54012E+00 -5.94262E-01  6.90959E-01 -2.89741E+00 -4.76505E-01 -1.78560E+00 -2.35649E+00  1.61961E+00 -2.45106E+00 -1.48807E+00
  -2.22288E+00 -3.18578E+00  2.06647E+00 -1.07602E+00 -4.94805E-01 -2.14815E-01  1.97730E-01  7.98688E-01 -9.12290E-01 -3.24726E-01
   5.86849E-01  1.48401E+00 -8.15755E-01  3.76656E-01  4.19343E-01 -6.32246E-01  7.23341E-01 -5.11676E-01  8.41975E-02 -3.14675E-01
   1.06224E+00  3.80624E-01 -2.87622E-01  1.94277E+00  1.86383E+00 -5.59420E-01  7.32939E-01  1.39727E+00  2.95967E+00  7.15143E-02
   2.38162E+00  1.12970E+00 -4.71224E-01  2.02447E+00  1.80041E+00  1.09125E+00  2.83059E-01  1.89174E+00  8.03649E-02  1.91609E+00
   6.57927E-02  1.43806E+00 -1.68277E+00  1.35002E+00 -2.09396E-02  1.74810E+00 -9.01627E-01  1.38187E+00  9.26933E-01  1.23389E+00
   2.32241E+00  4.23927E-01 -2.57033E+00 -1.43709E-01  2.65149E+00  1.66621E+00 -8.49024E-01 -4.08053E-02 -1.78909E+00  1.71104E-01
   1.43680E+00  6.79119E-01  1.66657E-01  1.28101E+00  1.69832E-02  1.02007E+00  2.76156E+00  1.40178E+00  1.97063E+00 -1.28252E+00
  -1.23894E-01  2.57776E-02 -1.02100E-01  1.20800E+00  1.55889E+00  1.69707E+00  1.38471E+00  3.30428E+00  2.78825E+00  1.99311E+00
   2.03397E+00  2.33278E+00  2.01775E+00  2.34063E+00  1.22100E+00  1.48520E+00 -1.32158E+00  3.55683E+00  4.04486E+00  1.80641E+00
   5.23137E+00  3.19331E+00  2.67879E+00  1.58048E-01  8.97942E-01  5.17623E-01 -6.24549E-01  7.85103E-01 -1.62570E-01  1.96643E+00
   2.54804E-01 -2.32346E-01  9.39179E-01  2.53064E+00  1.11255E+00 -2.77891E-01  1.50524E+00  1.18684E+00 -1.42804E+00  2.44876E-01
   3.11086E-01  1.67128E+00 -3.22148E-01  1.10755E+00  2.47177E+00  4.38447E-01  6.84546E-03 -1.20950E+00  2.75778E+00  1.53968E+00
   1.04909E+00 -9.91092E-02  8.14147E-01  1.33125E+00 -2.04406E+00  2.83034E+00 -7.29683E-01  4.65879E+00  2.24158E+00  1.49425E+00
   3.59439E+00  1.10929E+00  2.51149E+00  7.24349E-01  2.74459E+00  1.01578E+00 -6.59131E-01  3.57123E+00  1.25380E+00  2.40340E+00
   1.59390E+00  2.80634E+00  7.68722E-01  3.13926E+00  2.31718E+00  2.73763E+00  1.67130E+00  6.07242E-01  2.33904E+00 -3.46691E-01
   4.54595E-01  7.21002E-01  2.11602E+00  1.21407E-01  1.33442E+00  2.69600E+00  5.51203E-01  2.15985E+00  3.36467E+00  1.61653E+00
   3.14207E+00  4.73378E-01  1.87953E-01  6.36619E-01  2.65284E+00  4.80316E+00  1.54905E+00  2.61801E+00  6.33295E-01  1.99335E+00
   4.38310E+00  1.16112E+00  2.67220E+00  2.60146E+00  7.06904E-01  4.33174E+00  2.82011E+00  2.54599E+00  6.69818E-01  2.77269E+00
   2.43975E+00  1.08554E+00  4.20336E+00  3.42512E+00  2.18464E+00  2.14371E+00  2.42135E+00  2.54948E+00  2.76923E+00  1.83194E+00
   2.49295E+00  1.08366E+00  1.49649E-01 -3.86573E-01  5.62244E+00  2.78305E+00  2.89107E+00 -5.46555E-01  3.85907E+00  3.62597E+00
   3.06599E+00  2.99081E+00  2.72410E+00 -4.49561E-02  3.41694E+00  2.25843E+00  1.99331E+00  3.07166E+00  3.44340E+00 -9.13583E-02
   9.08595E-01  1.72023E+00  2.42138E+00  4.93784E+00  2.45300E+00  1.49117E+00  1.98594E+00  1.08344E+00
 NY points of the fit to the data follow
  -2.40817E+01 -2.38246E+01 -2.35259E+01 -2.32989E+01 -2.31983E+01 -2.31946E+01 -2.31520E+01 -2.27817E+01 -2.19344E+01 -2.07080E+01
  -1.96064E+01 -1.91993E+01 -1.95934E+01 -2.04289E+01 -2.12644E+01 -2.18260E+01 -2.18954E+01 -2.14384E+01 -2.07576E+01 -2.03260E+01
  -2.00308E+01 -1.97872E+01 -1.96045E+01 -1.94893E+01 -1.94132E+01 -1.92524E+01 -1.88782E+01 -1.82284E+01 -1.73999E+01 -1.67116E+01
  -1.64397E+01 -1.66070E+01 -1.70516E+01 -1.75709E+01 -1.79765E+01 -1.80746E+01 -1.78316E+01 -1.75074E+01 -1.72361E+01 -1.69621E+01
  -1.67288E+01 -1.65310E+01 -1.62565E+01 -1.57304E+01 -1.49449E+01 -1.41017E+01 -1.35210E+01 -1.35309E+01 -1.41453E+01 -1.50259E+01
  -1.57335E+01 -1.60089E+01 -1.58133E+01 -1.52319E+01 -1.45417E+01 -1.40225E+01 -1.36544E+01 -1.33008E+01 -1.29713E+01 -1.27575E+01
  -1.27514E+01 -1.29299E+01 -1.31594E+01 -1.33184E+01 -1.32993E+01 -1.30587E+01 -1.26987E+01 -1.23349E+01 -1.20317E+01 -1.18147E+01
  -1.16368E+01 -1.14760E+01 -1.13297E+01 -1.11951E+01 -1.11101E+01 -1.11055E+01 -1.12032E+01 -1.13084E+01 -1.13124E+01 -1.12245E+01
  -1.10343E+01 -1.06847E+01 -1.02315E+01 -9.81044E+00 -9.52828E+00 -9.52976E+00 -9.84683E+00 -1.02785E+01 -1.05599E+01 -1.05849E+01
  -1.04069E+01 -1.01002E+01 -9.74398E+00 -9.53267E+00 -9.48639E+00 -9.47362E+00 -9.44814E+00 -9.41709E+00 -9.29894E+00 -8.65194E+00
  -7.21631E+00 -5.09116E+00 -2.97559E+00 -2.07324E+00 -2.99580E+00 -5.22328E+00 -7.68709E+00 -9.53586E+00 -1.04412E+01 -1.02555E+01
  -9.16914E+00 -8.35871E+00 -8.09131E+00 -7.96927E+00 -7.87781E+00 -7.81736E+00 -7.77895E+00 -7.75429E+00 -7.73844E+00 -7.72078E+00
  -7.68829E+00 -7.61289E+00 -7.30856E+00 -6.49129E+00 -5.16839E+00 -3.60978E+00 -2.51617E+00 -2.54953E+00 -3.70193E+00 -5.33681E+00
  -6.75457E+00 -7.62518E+00 -7.88096E+00 -7.53482E+00 -7.04364E+00 -6.96238E+00 -6.95766E+00 -6.81444E+00 -6.53034E+00 -6.17475E+00
  -5.86436E+00 -5.71420E+00 -5.71305E+00 -5.78978E+00 -5.88302E+00 -5.93757E+00 -5.93661E+00 -5.90291E+00 -5.84362E+00 -5.80014E+00
  -5.77558E+00 -5.76060E+00 -5.74365E+00 -5.71015E+00 -5.64014E+00 -5.53502E+00 -5.44104E+00 -5.40628E+00 -5.44649E+00 -5.53162E+00
  -5.58274E+00 -5.53486E+00 -5.38716E+00 -5.21178E+00 -5.09539E+00 -5.07724E+00 -5.14703E+00 -5.24690E+00 -5.29509E+00 -5.25714E+00
  -5.16070E+00 -5.06505E+00 -5.05221E+00 -5.11285E+00 -5.17533E+00 -5.17147E+00 -5.08114E+00 -4.95063E+00 -4.86068E+00 -4.84660E+00
  -4.86385E+00 -4.86406E+00 -4.84191E+00 -4.80015E+00 -4.73807E+00 -4.67183E+00 -4.55350E+00 -4.35306E+00 -4.08759E+00 -3.83032E+00
  -3.67900E+00 -3.70497E+00 -3.89938E+00 -4.18336E+00 -4.43841E+00 -4.59036E+00 -4.62889E+00 -4.51455E+00 -4.25294E+00 -3.91520E+00
  -3.58664E+00 -3.30754E+00 -3.12752E+00 -3.10638E+00 -3.27283E+00 -3.57695E+00 -3.95830E+00 -4.35187E+00 -4.65168E+00 -4.73694E+00
  -4.54781E+00 -4.13349E+00 -3.60281E+00 -3.08873E+00 -2.71062E+00 -2.60574E+00 -2.82316E+00 -3.21859E+00 -3.63991E+00 -4.02798E+00
  -4.25296E+00 -4.19774E+00 -3.85286E+00 -3.39616E+00 -2.99083E+00 -2.72030E+00 -2.63561E+00 -2.74403E+00 -3.00206E+00 -3.27801E+00
  -3.42066E+00 -3.39316E+00 -3.24139E+00 -3.00900E+00 -2.77474E+00 -2.58616E+00 -2.47889E+00 -2.50275E+00 -2.66144E+00 -2.87865E+00
  -3.09678E+00 -3.26619E+00 -3.33573E+00 -3.23730E+00 -3.00140E+00 -2.78299E+00 -2.66702E+00 -2.64957E+00 -2.72022E+00 -2.85411E+00
  -2.91078E+00 -2.70570E+00 -2.17983E+00 -1.42081E+00 -6.68539E-01 -4.99144E-02  7.88559E-01  2.15267E+00  4.12082E+00  5.76543E+00
   5.79274E+00  4.01251E+00  1.37678E+00 -1.23787E+00 -3.19780E+00 -4.01867E+00 -3.43052E+00 -2.20221E+00 -1.67628E+00 -1.49208E+00
  -1.36307E+00 -1.24355E+00 -1.12985E+00 -1.02723E+00 -9.59958E-01 -9.36360E-01 -9.45978E-01 -9.64720E-01 -9.75746E-01 -9.68481E-01
  -9.38495E-01 -8.90620E-01 -8.34935E-01 -7.82467E-01 -7.36028E-01 -6.96350E-01 -6.65649E-01 -6.42967E-01 -6.19748E-01 -5.88480E-01
  -5.48200E-01 -5.03182E-01 -4.56537E-01 -4.15591E-01 -3.83113E-01 -3.56723E-01 -3.34909E-01 -3.14325E-01 -2.87271E-01 -2.53089E-01
  -2.15027E-01 -1.75038E-01 -1.35492E-01 -9.82194E-02 -6.48795E-02 -3.59236E-02 -8.29217E-03  1.94065E-02  4.65992E-02  7.34007E-02
   9.94559E-02  1.24547E-01  1.48616E-01  1.71740E-01  1.93980E-01  2.15504E-01  2.36337E-01  2.56591E-01  2.76323E-01  2.95588E-01
   3.14273E-01  3.32445E-01  3.50124E-01  3.67436E-01  3.84396E-01  4.01046E-01  4.17312E-01  4.33213E-01  4.48738E-01  4.63992E-01
   4.78972E-01  4.93736E-01  5.08261E-01  5.22656E-01  5.37049E-01  5.51732E-01  5.67002E-01  5.83452E-01  6.02070E-01  6.24909E-01
   6.56139E-01  7.06831E-01  8.12940E-01  1.00849E+00  1.24046E+00  1.41367E+00  1.38354E+00  1.08072E+00  6.12196E-01  1.65616E-01
  -9.79697E-02 -7.93640E-02  2.59840E-01  9.20161E-01  1.68383E+00  2.22808E+00  2.49567E+00  2.50495E+00  2.33784E+00  2.08401E+00
   1.82996E+00  1.69794E+00  1.68813E+00  1.66048E+00  1.60999E+00  1.55287E+00  1.49719E+00  1.44711E+00  1.40446E+00  1.36972E+00
   1.34244E+00  1.32172E+00  1.30646E+00  1.29562E+00  1.28824E+00  1.28361E+00  1.28109E+00  1.28026E+00  1.28076E+00  1.28237E+00
   1.28489E+00  1.28825E+00  1.29231E+00  1.29704E+00  1.30236E+00  1.30830E+00  1.31482E+00  1.32196E+00  1.32966E+00  1.33799E+00
   1.34691E+00  1.35649E+00  1.36671E+00  1.37759E+00  1.38909E+00  1.40123E+00  1.41395E+00  1.42725E+00  1.44103E+00  1.45525E+00
   1.46978E+00  1.48454E+00  1.49942E+00  1.51432E+00  1.52908E+00  1.54361E+00  1.55776E+00  1.57149E+00  1.58467E+00  1.59728E+00
   1.60921E+00  1.62048E+00  1.63105E+00  1.64099E+00  1.65031E+00  1.65909E+00  1.66738E+00  1.67527E+00  1.68282E+00  1.69017E+00
   1.69737E+00  1.70450E+00  1.71161E+00  1.71879E+00  1.72607E+00  1.73353E+00  1.74116E+00  1.74900E+00  1.75703E+00  1.76529E+00
   1.77377E+00  1.78249E+00  1.79139E+00  1.80049E+00  1.80975E+00  1.81920E+00  1.82880E+00  1.83854E+00  1.84839E+00  1.85835E+00
   1.86838E+00  1.87852E+00  1.88871E+00  1.89898E+00  1.90926E+00  1.91959E+00  1.92993E+00  1.94031E+00  1.95069E+00  1.96107E+00
   1.97142E+00  1.98177E+00  1.99209E+00  2.00240E+00  2.01267E+00  2.02291E+00  2.03310E+00  2.04327E+00  2.05340E+00  2.06351E+00
   2.07356E+00  2.08358E+00  2.09354E+00  2.10348E+00  2.11338E+00  2.12325E+00  2.13305E+00  2.14282E+00  2.15253E+00  2.16222E+00
   2.17186E+00  2.18146E+00  2.19099E+00  2.20050E+00  2.20994E+00  2.21936E+00  2.22873E+00  2.23805E+00  2.24730E+00  2.25652E+00
   2.26569E+00  2.27482E+00  2.28389E+00  2.29291E+00  2.30186E+00  2.31078E+00  2.31963E+00  2.32845E+00  2.33718E+00  2.34586E+00
   2.35446E+00  2.36302E+00  2.37150E+00  2.37993E+00  2.38825E+00  2.39649E+00  2.40464E+00  2.41271E+00
 NY background values follow
    -2.385E+01   -2.366E+01   -2.348E+01   -2.329E+01   -2.311E+01   -2.292E+01   -2.274E+01   -2.255E+01   -2.237E+01   -2.218E+01
    -2.200E+01   -2.181E+01   -2.163E+01   -2.145E+01   -2.126E+01   -2.108E+01   -2.090E+01   -2.071E+01   -2.053E+01   -2.035E+01
    -2.017E+01   -1.999E+01   -1.981E+01   -1.963E+01   -1.945E+01   -1.927E+01   -1.909E+01   -1.891E+01   -1.873E+01   -1.856E+01
    -1.838E+01   -1.821E+01   -1.803E+01   -1.786E+01   -1.769E+01   -1.752E+01   -1.735E+01   -1.718E+01   -1.701E+01   -1.684E+01
    -1.667E+01   -1.651E+01   -1.634E+01   -1.618E+01   -1.602E+01   -1.585E+01   -1.569E+01   -1.554E+01   -1.538E+01   -1.522E+01
    -1.507E+01   -1.491E+01   -1.476E+01   -1.461E+01   -1.446E+01   -1.431E+01   -1.416E+01   -1.401E+01   -1.387E+01   -1.372E+01
    -1.358E+01   -1.344E+01   -1.330E+01   -1.316E+01   -1.302E+01   -1.288E+01   -1.275E+01   -1.261E+01   -1.248E+01   -1.235E+01
    -1.222E+01   -1.209E+01   -1.197E+01   -1.184E+01   -1.172E+01   -1.159E+01   -1.147E+01   -1.135E+01   -1.123E+01   -1.111E+01
    -1.100E+01   -1.088E+01   -1.077E+01   -1.066E+01   -1.055E+01   -1.044E+01   -1.033E+01   -1.023E+01   -1.012E+01   -1.002E+01
    -9.919E+00   -9.819E+00   -9.721E+00   -9.624E+00   -9.529E+00   -9.435E+00   -9.342E+00   -9.251E+00   -9.161E+00   -9.072E+00
    -8.985E+00   -8.899E+00   -8.814E+00   -8.731E+00   -8.649E+00   -8.568E+00   -8.488E+00   -8.409E+00   -8.332E+00   -8.255E+00
    -8.180E+00   -8.106E+00   -8.033E+00   -7.961E+00   -7.890E+00   -7.819E+00   -7.750E+00   -7.682E+00   -7.615E+00   -7.549E+00
    -7.483E+00   -7.419E+00   -7.355E+00   -7.292E+00   -7.230E+00   -7.169E+00   -7.109E+00   -7.049E+00   -6.990E+00   -6.932E+00
    -6.874E+00   -6.817E+00   -6.761E+00   -6.705E+00   -6.650E+00   -6.596E+00   -6.542E+00   -6.488E+00   -6.436E+00   -6.383E+00
    -6.332E+00   -6.280E+00   -6.230E+00   -6.180E+00   -6.130E+00   -6.081E+00   -6.032E+00   -5.984E+00   -5.936E+00   -5.889E+00
    -5.842E+00   -5.796E+00   -5.750E+00   -5.705E+00   -5.660E+00   -5.616E+00   -5.572E+00   -5.528E+00   -5.485E+00   -5.442E+00
    -5.400E+00   -5.358E+00   -5.317E+00   -5.276E+00   -5.235E+00   -5.195E+00   -5.155E+00   -5.115E+00   -5.076E+00   -5.038E+00
    -4.999E+00   -4.961E+00   -4.923E+00   -4.886E+00   -4.849E+00   -4.812E+00   -4.776E+00   -4.740E+00   -4.704E+00   -4.669E+00
    -4.634E+00   -4.599E+00   -4.564E+00   -4.530E+00   -4.496E+00   -4.462E+00   -4.429E+00   -4.396E+00   -4.363E+00   -4.330E+00
    -4.297E+00   -4.265E+00   -4.232E+00   -4.200E+00   -4.168E+00   -4.136E+00   -4.104E+00   -4.073E+00   -4.041E+00   -4.010E+00
    -3.978E+00   -3.947E+00   -3.915E+00   -3.884E+00   -3.853E+00   -3.821E+00   -3.790E+00   -3.759E+00   -3.727E+00   -3.696E+00
    -3.664E+00   -3.633E+00   -3.601E+00   -3.569E+00   -3.537E+00   -3.505E+00   -3.473E+00   -3.441E+00   -3.409E+00   -3.376E+00
    -3.343E+00   -3.310E+00   -3.277E+00   -3.244E+00   -3.210E+00   -3.176E+00   -3.142E+00   -3.107E+00   -3.073E+00   -3.038E+00
    -3.003E+00   -2.967E+00   -2.932E+00   -2.896E+00   -2.860E+00   -2.824E+00   -2.787E+00   -2.750E+00   -2.714E+00   -2.676E+00
    -2.639E+00   -2.602E+00   -2.564E+00   -2.527E+00   -2.489E+00   -2.451E+00   -2.413E+00   -2.374E+00   -2.336E+00   -2.298E+00
    -2.259E+00   -2.220E+00   -2.182E+00   -2.143E+00   -2.104E+00   -2.065E+00   -2.026E+00   -1.987E+00   -1.948E+00   -1.908E+00
    -1.869E+00   -1.830E+00   -1.790E+00   -1.751E+00   -1.712E+00   -1.672E+00   -1.633E+00   -1.594E+00   -1.555E+00   -1.515E+00
    -1.476E+00   -1.437E+00   -1.398E+00   -1.358E+00   -1.319E+00   -1.280E+00   -1.241E+00   -1.203E+00   -1.164E+00   -1.125E+00
    -1.087E+00   -1.049E+00   -1.011E+00   -9.726E-01   -9.348E-01   -8.972E-01   -8.598E-01   -8.226E-01   -7.857E-01   -7.490E-01
    -7.125E-01   -6.763E-01   -6.404E-01   -6.047E-01   -5.694E-01   -5.343E-01   -4.996E-01   -4.651E-01   -4.311E-01   -3.973E-01
    -3.640E-01   -3.310E-01   -2.984E-01   -2.662E-01   -2.343E-01   -2.029E-01   -1.719E-01   -1.414E-01   -1.113E-01   -8.166E-02
    -5.249E-02   -2.380E-02    4.408E-03    3.211E-02    5.931E-02    8.598E-02    1.121E-01    1.377E-01    1.628E-01    1.873E-01
     2.114E-01    2.349E-01    2.579E-01    2.804E-01    3.025E-01    3.240E-01    3.452E-01    3.658E-01    3.861E-01    4.059E-01
     4.253E-01    4.443E-01    4.628E-01    4.810E-01    4.988E-01    5.163E-01    5.334E-01    5.501E-01    5.665E-01    5.825E-01
     5.983E-01    6.137E-01    6.288E-01    6.436E-01    6.581E-01    6.724E-01    6.864E-01    7.001E-01    7.136E-01    7.269E-01
     7.399E-01    7.527E-01    7.653E-01    7.777E-01    7.899E-01    8.019E-01    8.137E-01    8.254E-01    8.369E-01    8.483E-01
     8.595E-01    8.707E-01    8.817E-01    8.925E-01    9.033E-01    9.140E-01    9.246E-01    9.350E-01    9.454E-01    9.558E-01
     9.660E-01    9.762E-01    9.863E-01    9.963E-01    1.006E+00    1.016E+00    1.026E+00    1.036E+00    1.046E+00    1.056E+00
     1.065E+00    1.075E+00    1.085E+00    1.094E+00    1.104E+00    1.114E+00    1.124E+00    1.133E+00    1.143E+00    1.153E+00
     1.162E+00    1.172E+00    1.182E+00    1.192E+00    1.202E+00    1.212E+00    1.222E+00    1.232E+00    1.242E+00    1.252E+00
     1.262E+00    1.273E+00    1.283E+00    1.293E+00    1.304E+00    1.315E+00    1.325E+00    1.336E+00    1.347E+00    1.358E+00
     1.369E+00    1.380E+00    1.392E+00    1.403E+00    1.415E+00    1.426E+00    1.438E+00    1.449E+00    1.461E+00    1.473E+00
     1.485E+00    1.497E+00    1.509E+00    1.520E+00    1.533E+00    1.545E+00    1.557E+00    1.569E+00    1.581E+00    1.593E+00
     1.605E+00    1.617E+00    1.630E+00    1.642E+00    1.654E+00    1.666E+00    1.678E+00    1.691E+00    1.703E+00    1.715E+00
     1.727E+00    1.739E+00    1.751E+00    1.763E+00    1.775E+00    1.787E+00    1.799E+00    1.811E+00    1.823E+00    1.835E+00
     1.847E+00    1.858E+00    1.870E+00    1.881E+00    1.893E+00    1.904E+00    1.916E+00    1.927E+00    1.938E+00    1.949E+00
     1.961E+00    1.972E+00    1.983E+00    1.993E+00    2.004E+00    2.015E+00    2.026E+00    2.037E+00    2.047E+00    2.058E+00
     2.068E+00    2.079E+00    2.089E+00    2.100E+00    2.110E+00    2.120E+00    2.131E+00    2.141E+00    2.151E+00    2.161E+00
     2.171E+00    2.181E+00    2.191E+00    2.201E+00    2.211E+00    2.221E+00    2.231E+00    2.240E+00    2.250E+00    2.260E+00
     2.269E+00    2.279E+00    2.289E+00    2.298E+00    2.308E+00    2.317E+00    2.327E+00    2.336E+00
 Asp      Conc. = 8.04E+00
