 LCModel (Version 6.3-1L) Copyright: S.W. Provencher.          Ref.: Magn. Reson. Med. 30:672-679 (1993).                
 Slice#2 Row#10 Col#5  PD_24_press_1_raw_act
 36 lines in following concentration table = NCONC+1
    Conc.  %SD /Cr+PCr  Metabolite                                         
    0.000 999%   0.000 Ala                                                 
    0.000 999%   0.000 Asp                                                 
  739.788  31%   0.420 Cr                                                  
 1.02E+03  23%   0.580 PCr                                                 
    0.000 999%   0.000 GABA                                                
   95.116 214% 5.4E-02 Glc                                                 
  629.748  37%   0.357 Gln                                                 
 1.69E+03  16%   0.956 Glu                                                 
  647.563  18%   0.368 GPC                                                 
  327.377  36%   0.186 PCh                                                 
  425.071  18%   0.241 GSH                                                 
 1.32E+03  20%   0.748 Ins                                                 
    0.000 999%   0.000 Lac                                                 
 2.81E+03   6%   1.594 NAA                                                 
  635.897  24%   0.361 NAAG                                                
  194.366  17%   0.110 Scyllo                                              
   16.466 999% 9.3E-03 Tau                                                 
   19.353 610% 1.1E-02 -CrCH2                                              
  974.940   3%   0.553 GPC+PCh                                             
 3.44E+03   3%   1.955 NAA+NAAG                                            
 1.76E+03   4%   1.000 Cr+PCr                                              
 2.31E+03  16%   1.314 Glu+Gln                                             
 2.91E+03  21%   1.651 Lip13a                                              
    0.000 999%   0.000 Lip13b                                              
    0.000 999%   0.000 Lip09                                               
 1.73E+03  12%   0.983 MM09                                                
  767.823  39%   0.436 Lip20                                               
 3.70E+03  12%   2.098 MM20                                                
  492.716  37%   0.280 MM12                                                
 2.00E+03  23%   1.136 MM14                                                
 1.57E+03  18%   0.890 MM17                                                
 2.91E+03  21%   1.651 Lip13a+Lip13b                                       
 5.40E+03   8%   3.066 MM14+Lip13a+Lip13b+MM12                             
 1.73E+03  12%   0.983 MM09+Lip09                                          
 4.46E+03   9%   2.534 MM20+Lip20                                          
   6 lines in following misc. output table
  FWHM = 0.054 ppm    S/N =  16                                            
  Data shift = 0.015 ppm                                                   
  Ph: -31 deg     -11.0 deg/ppm                                            
  alphaB,S = 5.8E+00,   9.7E+01                                            
   14 spline knots.   Ns = 7(1)                                            
  (13) 2 infls.   ( 5) 1 extrs.                                            
  498 points on ppm-axis = NY
      4.000000     3.992357     3.984714     3.977070     3.969427     3.961784     3.954141     3.946497     3.938854     3.931211
      3.923568     3.915925     3.908281     3.900638     3.892995     3.885352     3.877708     3.870065     3.862422     3.854779
      3.847136     3.839492     3.831849     3.824206     3.816563     3.808919     3.801276     3.793633     3.785990     3.778347
      3.770703     3.763060     3.755417     3.747774     3.740130     3.732487     3.724844     3.717201     3.709558     3.701914
      3.694271     3.686628     3.678985     3.671341     3.663698     3.656055     3.648412     3.640769     3.633125     3.625482
      3.617839     3.610196     3.602552     3.594909     3.587266     3.579623     3.571980     3.564336     3.556693     3.549050
      3.541407     3.533763     3.526120     3.518477     3.510834     3.503191     3.495547     3.487904     3.480261     3.472618
      3.464974     3.457331     3.449688     3.442045     3.434402     3.426758     3.419115     3.411472     3.403829     3.396185
      3.388542     3.380899     3.373256     3.365613     3.357969     3.350326     3.342683     3.335040     3.327396     3.319753
      3.312110     3.304467     3.296824     3.289180     3.281537     3.273894     3.266251     3.258607     3.250964     3.243321
      3.235678     3.228034     3.220391     3.212748     3.205105     3.197462     3.189818     3.182175     3.174532     3.166889
      3.159245     3.151602     3.143959     3.136316     3.128673     3.121029     3.113386     3.105743     3.098100     3.090456
      3.082813     3.075170     3.067527     3.059884     3.052240     3.044597     3.036954     3.029311     3.021667     3.014024
      3.006381     2.998738     2.991095     2.983451     2.975808     2.968165     2.960522     2.952878     2.945235     2.937592
      2.929949     2.922306     2.914662     2.907019     2.899376     2.891733     2.884089     2.876446     2.868803     2.861160
      2.853517     2.845873     2.838230     2.830587     2.822944     2.815300     2.807657     2.800014     2.792371     2.784728
      2.777084     2.769441     2.761798     2.754155     2.746511     2.738868     2.731225     2.723582     2.715939     2.708295
      2.700652     2.693009     2.685366     2.677722     2.670079     2.662436     2.654793     2.647150     2.639506     2.631863
      2.624220     2.616577     2.608933     2.601290     2.593647     2.586004     2.578361     2.570717     2.563074     2.555431
      2.547788     2.540144     2.532501     2.524858     2.517215     2.509572     2.501928     2.494285     2.486642     2.478999
      2.471355     2.463712     2.456069     2.448426     2.440783     2.433139     2.425496     2.417853     2.410210     2.402566
      2.394923     2.387280     2.379637     2.371994     2.364350     2.356707     2.349064     2.341421     2.333777     2.326134
      2.318491     2.310848     2.303205     2.295561     2.287918     2.280275     2.272632     2.264988     2.257345     2.249702
      2.242059     2.234416     2.226772     2.219129     2.211486     2.203843     2.196199     2.188556     2.180913     2.173270
      2.165627     2.157983     2.150340     2.142697     2.135054     2.127410     2.119767     2.112124     2.104481     2.096838
      2.089194     2.081551     2.073908     2.066265     2.058621     2.050978     2.043335     2.035692     2.028049     2.020405
      2.012762     2.005119     1.997476     1.989833     1.982190     1.974546     1.966903     1.959260     1.951617     1.943974
      1.936331     1.928688     1.921045     1.913402     1.905759     1.898115     1.890472     1.882829     1.875186     1.867543
      1.859900     1.852257     1.844614     1.836971     1.829327     1.821684     1.814041     1.806398     1.798755     1.791112
      1.783469     1.775826     1.768183     1.760540     1.752896     1.745253     1.737610     1.729967     1.722324     1.714681
      1.707038     1.699395     1.691752     1.684108     1.676465     1.668822     1.661179     1.653536     1.645893     1.638250
      1.630607     1.622964     1.615321     1.607677     1.600034     1.592391     1.584748     1.577105     1.569462     1.561819
      1.554176     1.546533     1.538890     1.531246     1.523603     1.515960     1.508317     1.500674     1.493031     1.485388
      1.477745     1.470102     1.462458     1.454815     1.447172     1.439529     1.431886     1.424243     1.416600     1.408957
      1.401314     1.393671     1.386027     1.378384     1.370741     1.363098     1.355455     1.347812     1.340169     1.332526
      1.324883     1.317240     1.309596     1.301953     1.294310     1.286667     1.279024     1.271381     1.263738     1.256095
      1.248452     1.240808     1.233165     1.225522     1.217879     1.210236     1.202593     1.194950     1.187307     1.179664
      1.172021     1.164377     1.156734     1.149091     1.141448     1.133805     1.126162     1.118519     1.110876     1.103233
      1.095590     1.087946     1.080303     1.072660     1.065017     1.057374     1.049731     1.042088     1.034445     1.026802
      1.019158     1.011515     1.003872     0.996229     0.988586     0.980943     0.973300     0.965657     0.958014     0.950371
      0.942727     0.935084     0.927441     0.919798     0.912155     0.904512     0.896869     0.889226     0.881583     0.873940
      0.866296     0.858653     0.851010     0.843367     0.835724     0.828081     0.820438     0.812795     0.805152     0.797508
      0.789865     0.782222     0.774579     0.766936     0.759293     0.751650     0.744007     0.736364     0.728721     0.721077
      0.713434     0.705791     0.698148     0.690505     0.682862     0.675219     0.667576     0.659933     0.652290     0.644646
      0.637003     0.629360     0.621717     0.614074     0.606431     0.598788     0.591145     0.583502     0.575858     0.568215
      0.560572     0.552929     0.545286     0.537643     0.530000     0.522357     0.514714     0.507071     0.499427     0.491784
      0.484141     0.476498     0.468855     0.461212     0.453569     0.445925     0.438282     0.430639     0.422996     0.415353
      0.407710     0.400067     0.392424     0.384780     0.377137     0.369494     0.361851     0.354208     0.346565     0.338922
      0.331278     0.323635     0.315992     0.308349     0.300706     0.293063     0.285420     0.277777     0.270133     0.262490
      0.254847     0.247204     0.239561     0.231918     0.224275     0.216631     0.208988     0.201345
 NY phased data points follow
  -3.21794E+01 -2.70835E+01 -2.47929E+01 -1.85963E+01 -1.08955E+01 -8.67522E+00 -4.48100E+00  5.93256E+00  1.32221E+01  1.42918E+01
   1.16578E+01  1.92541E+01  1.41171E+01  1.19803E+01  3.24635E+00 -6.73597E+00 -1.21297E+01 -1.70577E+01 -2.14945E+01 -1.57157E+01
  -2.21540E+01 -1.89640E+01 -1.79044E+01 -1.75514E+01 -1.74860E+01 -1.51060E+01 -1.26957E+01 -1.38931E+01 -1.00727E+01 -1.09687E+01
  -1.11576E+01 -8.28411E+00 -7.79750E+00 -1.24149E+01 -1.26398E+01 -1.70078E+01 -1.94192E+01 -1.64504E+01 -1.40053E+01 -1.62065E+01
  -1.42838E+01 -8.85969E+00 -8.51938E+00 -9.11858E+00 -8.72444E+00 -6.16435E+00 -4.22274E+00 -4.65100E+00 -7.29908E+00 -9.62561E+00
  -8.81324E+00 -9.98937E+00 -1.62239E+01 -1.28054E+01 -1.48022E+01 -1.07563E+01 -1.42043E+01 -1.27539E+01 -1.58558E+01 -8.23862E+00
  -1.64116E+01 -1.28806E+01 -1.82919E+01 -1.77769E+01 -2.50976E+01 -2.10649E+01 -2.29885E+01 -1.50438E+01 -2.58314E+01 -2.40851E+01
  -1.55971E+01 -1.75471E+01 -1.73703E+01 -1.45996E+01 -2.00149E+01 -9.63060E+00 -1.25458E+01 -1.28702E+01 -1.49329E+01 -1.66481E+01
  -1.74077E+01 -7.11620E+00 -1.29639E+01 -6.70139E+00 -1.07841E+01 -9.98884E+00 -1.24937E+01 -7.64166E+00 -1.19381E+01 -9.32190E+00
  -1.03465E+01 -2.35351E+00 -7.14061E+00 -1.16553E+01 -6.14883E+00 -2.41557E+00  2.50122E+00  1.40133E+01  2.15227E+01  3.69846E+01
   5.08879E+01  5.77550E+01  6.53557E+01  6.54954E+01  5.90315E+01  4.68975E+01  3.21724E+01  2.12956E+01  8.29383E+00 -1.59048E+00
  -7.28832E+00 -5.89522E+00 -1.14341E+01 -5.70526E+00 -1.46497E+01 -1.28864E+01 -1.06239E+01 -1.03004E+01 -1.01174E+01 -1.15157E+01
  -1.20972E+01 -6.62849E+00 -2.01780E-01  1.21217E+01  2.00050E+01  3.76621E+01  4.04379E+01  4.62831E+01  4.40659E+01  3.85915E+01
   2.61008E+01  1.75895E+01  9.59099E+00  1.15248E+00 -4.62353E+00 -1.33759E+01 -1.74011E+01 -9.78570E+00 -1.58609E+01 -8.57245E+00
  -1.43940E+01 -1.20791E+01 -4.96943E+00 -8.81764E+00 -1.13472E+01 -1.00839E+01 -1.15459E+01 -9.00681E+00 -8.52667E+00 -1.03131E+01
  -1.08814E+01 -7.65554E+00 -9.06002E+00 -1.17885E+01 -1.34764E+01 -9.30197E+00 -1.32292E+01 -1.47137E+01 -1.31427E+01 -1.10574E+01
  -1.22755E+01 -8.75728E+00 -1.22396E+01 -1.55183E+01 -1.34792E+01 -1.04506E+01 -1.17612E+01 -1.11844E+01 -1.77622E+01 -1.84845E+01
  -1.72968E+01 -1.88885E+01 -1.61135E+01 -2.07535E+01 -2.56585E+01 -1.67789E+01 -2.38410E+01 -1.92406E+01 -2.18796E+01 -1.58355E+01
  -1.97523E+01 -2.02925E+01 -2.62422E+01 -2.16614E+01 -2.39788E+01 -1.45436E+01 -1.57061E+01 -1.56225E+01 -9.85690E+00 -7.98389E+00
  -4.82757E+00 -1.05115E+00  4.34591E+00 -1.39885E-01 -1.97829E+00 -2.67309E+00 -1.05097E+01 -7.72864E+00 -1.03007E+01 -3.80784E+00
  -7.29690E+00 -7.89882E+00 -6.75278E+00 -3.61086E+00 -6.78996E+00 -4.45246E+00 -1.14070E+01 -9.53446E+00 -1.01512E+01 -8.48048E+00
  -1.00664E+01 -1.03848E+01 -4.94419E+00 -2.40268E+00  7.94463E+00  7.91388E+00  4.37438E+00  5.51115E+00  2.65395E+00  1.66177E+00
  -5.62191E+00 -5.64711E+00 -8.17774E+00 -3.88997E+00 -1.13299E+01 -4.11233E+00 -2.46639E-01  1.69393E+00  2.92412E+00  4.17323E+00
   4.07837E+00  4.05853E+00  4.03733E+00  4.36112E+00  4.48471E+00  6.63767E+00  9.79754E-01  3.40492E+00  4.68965E+00  4.55124E+00
  -2.54078E+00 -4.11015E+00 -1.38501E+00 -3.79313E+00  3.65192E+00  5.93012E+00  4.82680E+00  8.68674E+00  9.77221E+00  1.20811E+01
   1.26182E+01  1.55392E+01  2.36600E+01  3.67671E+01  4.21553E+01  5.60883E+01  6.59148E+01  7.80821E+01  8.60787E+01  1.03416E+02
   1.07863E+02  1.04731E+02  8.78853E+01  6.98551E+01  4.78383E+01  3.55954E+01  2.36201E+01  1.99070E+01  9.67704E+00  1.18044E+01
   8.16950E+00  7.01028E+00  7.08870E+00  7.50956E+00  5.46269E+00  3.35173E+00  3.55448E+00 -3.32595E-02  3.54077E+00  6.19232E+00
   6.76785E+00  4.99178E+00  3.79321E+00  3.30971E-01  1.66424E+00  1.64732E+00 -4.37322E-01  1.32418E+00  4.86723E+00  5.82097E+00
  -2.17632E+00  3.92008E+00  1.89209E+00  1.20395E+00 -2.49833E+00  5.76923E+00  3.89535E+00  4.12748E+00  4.05866E+00  5.59957E+00
   5.39603E+00  6.93771E+00  4.52634E+00  7.47059E+00  2.89257E+00  4.57039E+00  4.02498E+00  8.54441E+00  3.52006E+00  7.08400E+00
   7.40324E+00  4.16625E+00  4.97977E+00  8.09313E+00  3.79872E+00  5.68245E+00  5.95878E+00  5.80555E+00  6.76833E+00  2.66882E+00
   6.09520E+00  4.14776E+00  8.22502E+00  5.78712E+00  6.05247E+00  7.87417E+00  4.69119E+00  1.22037E+01  1.16940E+01  5.93255E+00
   8.40686E+00  1.14269E+01  9.28526E+00  1.25960E+01  9.93702E+00  7.61036E+00  9.78815E+00  6.00863E+00  1.23723E+01  1.16498E+01
   1.18356E+01  8.92840E+00  1.27730E+01  1.71084E+01  1.83569E+01  1.98687E+01  1.44862E+01  1.98008E+01  1.47465E+01  1.79315E+01
   1.96004E+01  1.94879E+01  1.53661E+01  1.64397E+01  1.94891E+01  1.26319E+01  1.70434E+01  1.66685E+01  8.97081E+00  1.69926E+01
   1.10605E+01  1.10115E+01  1.30413E+01  1.00423E+01  9.00595E+00  7.05790E+00  9.70862E+00  7.30843E+00  7.15009E+00  1.05517E+01
   6.18364E+00  8.16840E+00  4.45508E+00  7.83631E+00  7.50601E+00  8.04505E+00  4.86163E+00  8.65102E+00  5.89885E+00  8.93521E+00
   2.91134E+00  4.84747E+00  1.13530E+01  7.92357E+00  4.30236E-01  5.27366E+00  5.93299E+00  7.23125E+00  4.78897E+00  1.13022E+01
   5.78855E+00  5.74061E+00  5.22428E+00  6.45268E+00  5.83220E+00  7.77070E+00  1.09217E+01  1.31762E+01  6.83930E+00  1.03381E+01
   6.78697E+00  8.98569E+00  4.41299E+00  8.48726E+00  1.07792E+01  1.36003E+01  1.10652E+01  1.20383E+01  1.37250E+01  9.04130E+00
   9.34306E+00  8.24586E+00  5.53786E+00  7.42075E+00  8.20683E+00  5.71488E+00  7.89314E+00  1.08971E+01  4.39949E+00  1.86140E+00
   2.40536E+00  8.17148E+00  4.15339E+00  6.44024E+00  1.36505E+00  1.42799E+00  9.03568E-01  5.51237E+00 -2.60466E+00  5.29241E+00
   2.89027E+00  5.10380E+00 -5.38933E-01  5.80862E+00  1.39548E-01  1.41136E+00  1.31792E+00  8.79892E-01  5.88763E-01  4.30078E+00
  -1.19060E+00  1.01002E-01  2.42686E+00  3.37865E+00  1.25678E+00  6.05564E-01  4.35385E+00  9.93077E-01 -3.02882E-01  3.36118E+00
  -1.86655E+00  3.29570E+00  3.87604E+00  1.28292E+00  2.84220E+00  3.95385E+00 -2.33627E+00  7.88148E-01  2.61995E+00 -1.12656E-01
   1.57624E+00 -5.12581E-01 -2.88318E-01  5.43991E+00  1.98445E+00 -2.24014E+00  2.09177E+00  9.98626E-01  2.11682E-01  1.60177E+00
   9.48699E-01  2.32742E-01  1.96099E+00  1.01369E+00  6.09893E-01 -9.01498E-01 -8.14225E-03  8.13831E-01  2.12641E+00  2.53594E+00
  -1.92145E-01 -1.36877E-01  2.02289E+00 -9.17719E-01  2.22980E+00  4.52819E-01 -3.14203E+00 -3.26674E-02 -1.68834E-01 -6.62578E-01
   2.14911E+00  3.11110E-01 -6.68303E-01  9.02749E-01 -2.13689E+00  1.80636E+00 -4.76538E-01  1.80793E+00
 NY points of the fit to the data follow
  -2.07965E+01 -2.05442E+01 -1.93732E+01 -1.68437E+01 -1.31352E+01 -8.30845E+00 -2.70548E+00  3.57660E+00  9.94142E+00  1.51512E+01
   1.78171E+01  1.70926E+01  1.32100E+01  7.34747E+00  1.00492E+00 -4.69187E+00 -9.30883E+00 -1.28493E+01 -1.52955E+01 -1.67857E+01
  -1.75486E+01 -1.79616E+01 -1.81845E+01 -1.79282E+01 -1.73624E+01 -1.64874E+01 -1.51816E+01 -1.33480E+01 -1.11322E+01 -9.03787E+00
  -7.45904E+00 -6.68786E+00 -6.98349E+00 -8.17447E+00 -9.79870E+00 -1.15666E+01 -1.34182E+01 -1.51810E+01 -1.63681E+01 -1.66472E+01
  -1.60066E+01 -1.46678E+01 -1.29989E+01 -1.12694E+01 -9.57923E+00 -8.09471E+00 -7.08180E+00 -6.93725E+00 -7.91473E+00 -9.78711E+00
  -1.20266E+01 -1.40591E+01 -1.54909E+01 -1.62561E+01 -1.64569E+01 -1.62687E+01 -1.58017E+01 -1.51967E+01 -1.46726E+01 -1.44133E+01
  -1.45246E+01 -1.50297E+01 -1.57818E+01 -1.65643E+01 -1.71051E+01 -1.72808E+01 -1.71430E+01 -1.67734E+01 -1.62646E+01 -1.57172E+01
  -1.52384E+01 -1.49194E+01 -1.47949E+01 -1.48466E+01 -1.50181E+01 -1.52295E+01 -1.54188E+01 -1.55624E+01 -1.56466E+01 -1.55520E+01
  -1.49335E+01 -1.40321E+01 -1.30051E+01 -1.17760E+01 -1.03259E+01 -8.88062E+00 -7.89041E+00 -7.72188E+00 -8.44709E+00 -9.77869E+00
  -1.12635E+01 -1.24545E+01 -1.31188E+01 -1.30318E+01 -1.09901E+01 -6.00599E+00  8.21060E-01  1.01114E+01  2.22915E+01  3.63014E+01
   5.02182E+01  6.12634E+01  6.69440E+01  6.57857E+01  5.81646E+01  4.62201E+01  3.26073E+01  1.94668E+01  8.14688E+00 -5.99777E-01
  -6.38706E+00 -9.79926E+00 -1.18457E+01 -1.28181E+01 -1.31222E+01 -1.32075E+01 -1.31911E+01 -1.30751E+01 -1.27886E+01 -1.19268E+01
  -8.72165E+00 -2.96948E+00  3.87849E+00  1.19780E+01  2.16697E+01  3.22402E+01  4.13442E+01  4.61099E+01  4.48422E+01  3.79318E+01
   2.76909E+01  1.70651E+01  8.03564E+00  9.86657E-01 -4.49794E+00 -8.47448E+00 -1.05591E+01 -1.11565E+01 -1.10503E+01 -1.05689E+01
  -9.98056E+00 -9.49647E+00 -9.22165E+00 -9.19434E+00 -9.37310E+00 -9.65267E+00 -9.95424E+00 -1.02579E+01 -1.05500E+01 -1.08059E+01
  -1.10185E+01 -1.11893E+01 -1.13109E+01 -1.13975E+01 -1.15143E+01 -1.16375E+01 -1.17351E+01 -1.18542E+01 -1.20323E+01 -1.23545E+01
  -1.27599E+01 -1.30449E+01 -1.30914E+01 -1.29733E+01 -1.28772E+01 -1.29948E+01 -1.34068E+01 -1.40245E+01 -1.46927E+01 -1.53281E+01
  -1.58827E+01 -1.62750E+01 -1.65965E+01 -1.69349E+01 -1.73143E+01 -1.76074E+01 -1.76205E+01 -1.73310E+01 -1.69412E+01 -1.66647E+01
  -1.65991E+01 -1.65659E+01 -1.63051E+01 -1.57581E+01 -1.49827E+01 -1.40251E+01 -1.28539E+01 -1.14026E+01 -9.73997E+00 -8.13514E+00
  -6.93032E+00 -6.42023E+00 -6.54662E+00 -7.06548E+00 -7.70144E+00 -8.23197E+00 -8.47152E+00 -8.18013E+00 -7.37273E+00 -6.21474E+00
  -4.90490E+00 -3.73355E+00 -2.99020E+00 -2.91373E+00 -3.51529E+00 -4.81666E+00 -6.80096E+00 -9.06977E+00 -1.09672E+01 -1.18809E+01
  -1.15223E+01 -1.01736E+01 -7.99617E+00 -5.22331E+00 -2.34247E+00 -1.13579E-01  6.78896E-01 -1.92041E-01 -2.39845E+00 -5.38786E+00
  -8.39600E+00 -1.06512E+01 -1.15810E+01 -1.09183E+01 -8.87956E+00 -5.98928E+00 -2.95555E+00 -4.95017E-01  1.05422E+00  1.79838E+00
   2.10868E+00  2.23151E+00  2.34446E+00  2.69976E+00  3.35918E+00  4.09136E+00  4.62928E+00  4.82262E+00  4.65605E+00  4.14899E+00
   3.39540E+00  2.72200E+00  2.53401E+00  3.03684E+00  4.13732E+00  5.59362E+00  7.15423E+00  8.60546E+00  1.01174E+01  1.23398E+01
   1.50523E+01  1.82256E+01  2.25766E+01  3.05014E+01  4.25141E+01  5.52364E+01  6.76620E+01  8.01229E+01  9.23730E+01  1.02091E+02
   1.05858E+02  1.01344E+02  8.86629E+01  7.07963E+01  5.23511E+01  3.68062E+01  2.49446E+01  1.60644E+01  9.71318E+00  6.15102E+00
   4.67299E+00  3.91583E+00  3.44354E+00  3.13172E+00  2.87128E+00  2.58500E+00  2.26733E+00  1.93517E+00  1.61694E+00  1.35317E+00
   1.16787E+00  1.05986E+00  1.01848E+00  1.03241E+00  1.08468E+00  1.15919E+00  1.24679E+00  1.35753E+00  1.50869E+00  1.71269E+00
   1.97354E+00  2.28647E+00  2.63385E+00  2.99421E+00  3.34557E+00  3.67411E+00  3.97566E+00  4.25294E+00  4.51049E+00  4.75087E+00
   4.97598E+00  5.18393E+00  5.36502E+00  5.50845E+00  5.60763E+00  5.66132E+00  5.67208E+00  5.64363E+00  5.58212E+00  5.49724E+00
   5.39811E+00  5.29308E+00  5.19063E+00  5.09911E+00  5.02641E+00  4.97977E+00  4.96544E+00  4.98843E+00  5.05256E+00  5.16048E+00
   5.31359E+00  5.51197E+00  5.75434E+00  6.03832E+00  6.36079E+00  6.71804E+00  7.10572E+00  7.51897E+00  7.95260E+00  8.40149E+00
   8.86086E+00  9.32628E+00  9.79372E+00  1.02596E+01  1.07207E+01  1.11749E+01  1.16204E+01  1.20560E+01  1.24808E+01  1.28940E+01
   1.32945E+01  1.36813E+01  1.40532E+01  1.44081E+01  1.47433E+01  1.50551E+01  1.53392E+01  1.55907E+01  1.58043E+01  1.59743E+01
   1.60948E+01  1.61602E+01  1.61657E+01  1.61074E+01  1.59826E+01  1.57900E+01  1.55296E+01  1.52032E+01  1.48144E+01  1.43682E+01
   1.38710E+01  1.33301E+01  1.27538E+01  1.21509E+01  1.15305E+01  1.09019E+01  1.02737E+01  9.65422E+00  9.05089E+00  8.47058E+00
   7.91935E+00  7.40231E+00  6.92363E+00  6.48665E+00  6.09406E+00  5.74801E+00  5.45014E+00  5.20156E+00  5.00298E+00  4.85485E+00
   4.75750E+00  4.71114E+00  4.71581E+00  4.77122E+00  4.87683E+00  5.03182E+00  5.23505E+00  5.48484E+00  5.77881E+00  6.11365E+00
   6.48518E+00  6.88822E+00  7.31662E+00  7.76310E+00  8.21924E+00  8.67566E+00  9.12226E+00  9.54856E+00  9.94394E+00  1.02980E+01
   1.06007E+01  1.08433E+01  1.10182E+01  1.11199E+01  1.11447E+01  1.10910E+01  1.09596E+01  1.07531E+01  1.04767E+01  1.01372E+01
   9.74263E+00  9.30239E+00  8.82630E+00  8.32452E+00  7.80712E+00  7.28367E+00  6.76289E+00  6.25241E+00  5.75868E+00  5.28700E+00
   4.84145E+00  4.42491E+00  4.03906E+00  3.68460E+00  3.36142E+00  3.06883E+00  2.80564E+00  2.57023E+00  2.36066E+00  2.17488E+00
   2.01083E+00  1.86654E+00  1.74012E+00  1.62968E+00  1.53347E+00  1.44988E+00  1.37753E+00  1.31521E+00  1.26183E+00  1.21633E+00
   1.17779E+00  1.14541E+00  1.11859E+00  1.09677E+00  1.07942E+00  1.06602E+00  1.05614E+00  1.04944E+00  1.04566E+00  1.04457E+00
   1.04589E+00  1.04934E+00  1.05472E+00  1.06191E+00  1.07081E+00  1.08129E+00  1.09317E+00  1.10628E+00  1.12056E+00  1.13596E+00
   1.15244E+00  1.16990E+00  1.18821E+00  1.20730E+00  1.22714E+00  1.24775E+00  1.26908E+00  1.29105E+00  1.31356E+00  1.33659E+00
   1.36016E+00  1.38428E+00  1.40892E+00  1.43398E+00  1.45942E+00  1.48525E+00  1.51150E+00  1.53818E+00  1.56521E+00  1.59255E+00
   1.62017E+00  1.64812E+00  1.67642E+00  1.70505E+00  1.73396E+00  1.76311E+00  1.79252E+00  1.82223E+00  1.85226E+00  1.88259E+00
   1.91316E+00  1.94396E+00  1.97505E+00  2.00648E+00  2.03824E+00  2.07031E+00  2.10267E+00  2.13536E+00
 NY background values follow
    -2.460E+01   -2.453E+01   -2.445E+01   -2.438E+01   -2.431E+01   -2.424E+01   -2.416E+01   -2.409E+01   -2.402E+01   -2.395E+01
    -2.388E+01   -2.380E+01   -2.373E+01   -2.366E+01   -2.359E+01   -2.351E+01   -2.344E+01   -2.337E+01   -2.330E+01   -2.323E+01
    -2.315E+01   -2.308E+01   -2.301E+01   -2.294E+01   -2.286E+01   -2.279E+01   -2.272E+01   -2.265E+01   -2.258E+01   -2.250E+01
    -2.243E+01   -2.236E+01   -2.229E+01   -2.222E+01   -2.214E+01   -2.207E+01   -2.200E+01   -2.193E+01   -2.186E+01   -2.178E+01
    -2.171E+01   -2.164E+01   -2.157E+01   -2.150E+01   -2.143E+01   -2.135E+01   -2.128E+01   -2.121E+01   -2.114E+01   -2.107E+01
    -2.099E+01   -2.092E+01   -2.085E+01   -2.078E+01   -2.071E+01   -2.064E+01   -2.057E+01   -2.049E+01   -2.042E+01   -2.035E+01
    -2.028E+01   -2.021E+01   -2.014E+01   -2.007E+01   -2.000E+01   -1.992E+01   -1.985E+01   -1.978E+01   -1.971E+01   -1.964E+01
    -1.957E+01   -1.950E+01   -1.943E+01   -1.936E+01   -1.929E+01   -1.922E+01   -1.915E+01   -1.907E+01   -1.900E+01   -1.893E+01
    -1.886E+01   -1.879E+01   -1.872E+01   -1.865E+01   -1.858E+01   -1.851E+01   -1.844E+01   -1.837E+01   -1.830E+01   -1.823E+01
    -1.816E+01   -1.809E+01   -1.802E+01   -1.795E+01   -1.788E+01   -1.782E+01   -1.775E+01   -1.768E+01   -1.761E+01   -1.754E+01
    -1.747E+01   -1.740E+01   -1.733E+01   -1.726E+01   -1.719E+01   -1.712E+01   -1.706E+01   -1.699E+01   -1.692E+01   -1.685E+01
    -1.678E+01   -1.671E+01   -1.664E+01   -1.658E+01   -1.651E+01   -1.644E+01   -1.637E+01   -1.630E+01   -1.624E+01   -1.617E+01
    -1.610E+01   -1.603E+01   -1.596E+01   -1.590E+01   -1.583E+01   -1.576E+01   -1.569E+01   -1.563E+01   -1.556E+01   -1.549E+01
    -1.543E+01   -1.536E+01   -1.529E+01   -1.522E+01   -1.516E+01   -1.509E+01   -1.502E+01   -1.496E+01   -1.489E+01   -1.482E+01
    -1.476E+01   -1.469E+01   -1.463E+01   -1.456E+01   -1.449E+01   -1.443E+01   -1.436E+01   -1.430E+01   -1.423E+01   -1.416E+01
    -1.410E+01   -1.403E+01   -1.397E+01   -1.390E+01   -1.384E+01   -1.377E+01   -1.371E+01   -1.364E+01   -1.358E+01   -1.351E+01
    -1.345E+01   -1.338E+01   -1.332E+01   -1.325E+01   -1.319E+01   -1.312E+01   -1.306E+01   -1.300E+01   -1.293E+01   -1.287E+01
    -1.280E+01   -1.274E+01   -1.268E+01   -1.261E+01   -1.255E+01   -1.249E+01   -1.242E+01   -1.236E+01   -1.230E+01   -1.223E+01
    -1.217E+01   -1.211E+01   -1.204E+01   -1.198E+01   -1.192E+01   -1.186E+01   -1.179E+01   -1.173E+01   -1.167E+01   -1.161E+01
    -1.154E+01   -1.148E+01   -1.142E+01   -1.136E+01   -1.130E+01   -1.124E+01   -1.117E+01   -1.111E+01   -1.105E+01   -1.099E+01
    -1.093E+01   -1.087E+01   -1.081E+01   -1.075E+01   -1.069E+01   -1.063E+01   -1.057E+01   -1.051E+01   -1.045E+01   -1.039E+01
    -1.033E+01   -1.027E+01   -1.021E+01   -1.015E+01   -1.009E+01   -1.003E+01   -9.971E+00   -9.912E+00   -9.854E+00   -9.795E+00
    -9.737E+00   -9.678E+00   -9.620E+00   -9.562E+00   -9.504E+00   -9.446E+00   -9.389E+00   -9.331E+00   -9.274E+00   -9.217E+00
    -9.160E+00   -9.103E+00   -9.046E+00   -8.989E+00   -8.933E+00   -8.877E+00   -8.820E+00   -8.764E+00   -8.709E+00   -8.653E+00
    -8.597E+00   -8.542E+00   -8.486E+00   -8.431E+00   -8.376E+00   -8.321E+00   -8.266E+00   -8.212E+00   -8.157E+00   -8.103E+00
    -8.049E+00   -7.995E+00   -7.941E+00   -7.887E+00   -7.833E+00   -7.780E+00   -7.727E+00   -7.673E+00   -7.620E+00   -7.567E+00
    -7.514E+00   -7.462E+00   -7.409E+00   -7.357E+00   -7.305E+00   -7.253E+00   -7.201E+00   -7.149E+00   -7.097E+00   -7.046E+00
    -6.994E+00   -6.943E+00   -6.892E+00   -6.841E+00   -6.790E+00   -6.739E+00   -6.689E+00   -6.638E+00   -6.588E+00   -6.538E+00
    -6.488E+00   -6.438E+00   -6.388E+00   -6.339E+00   -6.289E+00   -6.240E+00   -6.191E+00   -6.142E+00   -6.093E+00   -6.044E+00
    -5.995E+00   -5.947E+00   -5.898E+00   -5.850E+00   -5.802E+00   -5.754E+00   -5.706E+00   -5.658E+00   -5.611E+00   -5.563E+00
    -5.516E+00   -5.469E+00   -5.422E+00   -5.375E+00   -5.328E+00   -5.281E+00   -5.234E+00   -5.188E+00   -5.141E+00   -5.095E+00
    -5.049E+00   -5.003E+00   -4.957E+00   -4.911E+00   -4.866E+00   -4.820E+00   -4.775E+00   -4.730E+00   -4.685E+00   -4.640E+00
    -4.595E+00   -4.550E+00   -4.505E+00   -4.461E+00   -4.416E+00   -4.372E+00   -4.328E+00   -4.283E+00   -4.239E+00   -4.196E+00
    -4.152E+00   -4.108E+00   -4.065E+00   -4.021E+00   -3.978E+00   -3.935E+00   -3.891E+00   -3.848E+00   -3.806E+00   -3.763E+00
    -3.720E+00   -3.677E+00   -3.635E+00   -3.593E+00   -3.550E+00   -3.508E+00   -3.466E+00   -3.424E+00   -3.382E+00   -3.340E+00
    -3.298E+00   -3.257E+00   -3.215E+00   -3.174E+00   -3.133E+00   -3.091E+00   -3.050E+00   -3.009E+00   -2.968E+00   -2.927E+00
    -2.886E+00   -2.846E+00   -2.805E+00   -2.765E+00   -2.724E+00   -2.684E+00   -2.643E+00   -2.603E+00   -2.563E+00   -2.523E+00
    -2.483E+00   -2.443E+00   -2.403E+00   -2.364E+00   -2.324E+00   -2.285E+00   -2.245E+00   -2.206E+00   -2.166E+00   -2.127E+00
    -2.088E+00   -2.049E+00   -2.010E+00   -1.971E+00   -1.932E+00   -1.893E+00   -1.854E+00   -1.816E+00   -1.777E+00   -1.739E+00
    -1.700E+00   -1.662E+00   -1.623E+00   -1.585E+00   -1.547E+00   -1.509E+00   -1.471E+00   -1.433E+00   -1.395E+00   -1.357E+00
    -1.319E+00   -1.281E+00   -1.243E+00   -1.206E+00   -1.168E+00   -1.131E+00   -1.093E+00   -1.056E+00   -1.018E+00   -9.810E-01
    -9.437E-01   -9.065E-01   -8.693E-01   -8.322E-01   -7.951E-01   -7.581E-01   -7.212E-01   -6.843E-01   -6.474E-01   -6.106E-01
    -5.738E-01   -5.371E-01   -5.004E-01   -4.638E-01   -4.272E-01   -3.906E-01   -3.541E-01   -3.177E-01   -2.813E-01   -2.449E-01
    -2.086E-01   -1.723E-01   -1.360E-01   -9.983E-02   -6.366E-02   -2.753E-02    8.558E-03    4.461E-02    8.063E-02    1.166E-01
     1.526E-01    1.885E-01    2.243E-01    2.602E-01    2.960E-01    3.318E-01    3.675E-01    4.032E-01    4.389E-01    4.746E-01
     5.102E-01    5.458E-01    5.813E-01    6.169E-01    6.524E-01    6.879E-01    7.233E-01    7.588E-01    7.942E-01    8.296E-01
     8.649E-01    9.003E-01    9.356E-01    9.709E-01    1.006E+00    1.041E+00    1.077E+00    1.112E+00    1.147E+00    1.182E+00
     1.217E+00    1.253E+00    1.288E+00    1.323E+00    1.358E+00    1.393E+00    1.428E+00    1.463E+00    1.498E+00    1.533E+00
     1.568E+00    1.603E+00    1.638E+00    1.673E+00    1.708E+00    1.744E+00    1.779E+00    1.814E+00    1.849E+00    1.884E+00
     1.918E+00    1.953E+00    1.988E+00    2.023E+00    2.058E+00    2.093E+00    2.128E+00    2.163E+00
 Cr       Conc. = 7.40E+02
