 LCModel (Version 6.3-1L) Copyright: S.W. Provencher.          Ref.: Magn. Reson. Med. 30:672-679 (1993).                
 Slice#1 Row#8 Col#5  PD_24_press_1_raw_act
 36 lines in following concentration table = NCONC+1
    Conc.  %SD /Cr+PCr  Metabolite                                         
   74.544 119% 9.9E-02 Ala                                                 
  138.780 116%   0.184 Asp                                                 
  495.425  28%   0.657 Cr                                                  
  258.930  55%   0.343 PCr                                                 
   34.651 283% 4.6E-02 GABA                                                
   75.555 136%   0.100 Glc                                                 
  334.704  52%   0.444 Gln                                                 
 1.01E+03  20%   1.339 Glu                                                 
  433.018   5%   0.574 GPC                                                 
    0.000 999%   0.000 PCh                                                 
  275.094  23%   0.365 GSH                                                 
  646.152  31%   0.857 Ins                                                 
    0.000 999%   0.000 Lac                                                 
 1.30E+03   6%   1.722 NAA                                                 
  328.500  23%   0.435 NAAG                                                
   73.900  30% 9.8E-02 Scyllo                                              
  118.737 120%   0.157 Tau                                                 
    0.000 999%   0.000 -CrCH2                                              
  433.018   5%   0.574 GPC+PCh                                             
 1.63E+03   5%   2.158 NAA+NAAG                                            
  754.355   7%   1.000 Cr+PCr                                              
 1.34E+03  20%   1.783 Glu+Gln                                             
 3.15E+03  27%   4.178 Lip13a                                              
    0.000 999%   0.000 Lip13b                                              
  406.884  92%   0.539 Lip09                                               
 1.88E+03  22%   2.498 MM09                                                
  333.509  77%   0.442 Lip20                                               
 3.19E+03  14%   4.228 MM20                                                
  815.931  31%   1.082 MM12                                                
 2.61E+03  20%   3.465 MM14                                                
 1.33E+03  22%   1.766 MM17                                                
 3.15E+03  27%   4.178 Lip13a+Lip13b                                       
 6.58E+03   8%   8.725 MM14+Lip13a+Lip13b+MM12                             
 2.29E+03  10%   3.037 MM09+Lip09                                          
 3.52E+03  11%   4.670 MM20+Lip20                                          
   6 lines in following misc. output table
  FWHM = 0.038 ppm    S/N =   9                                            
  Data shift = 0.023 ppm                                                   
  Ph: -51 deg      -5.2 deg/ppm                                            
  alphaB,S = 8.5E+01,   2.6E+01                                            
   14 spline knots.   Ns = 5(1)                                            
   2 inflections.     1 extrema                                            
  498 points on ppm-axis = NY
      4.000000     3.992357     3.984714     3.977070     3.969427     3.961784     3.954141     3.946497     3.938854     3.931211
      3.923568     3.915925     3.908281     3.900638     3.892995     3.885352     3.877708     3.870065     3.862422     3.854779
      3.847136     3.839492     3.831849     3.824206     3.816563     3.808919     3.801276     3.793633     3.785990     3.778347
      3.770703     3.763060     3.755417     3.747774     3.740130     3.732487     3.724844     3.717201     3.709558     3.701914
      3.694271     3.686628     3.678985     3.671341     3.663698     3.656055     3.648412     3.640769     3.633125     3.625482
      3.617839     3.610196     3.602552     3.594909     3.587266     3.579623     3.571980     3.564336     3.556693     3.549050
      3.541407     3.533763     3.526120     3.518477     3.510834     3.503191     3.495547     3.487904     3.480261     3.472618
      3.464974     3.457331     3.449688     3.442045     3.434402     3.426758     3.419115     3.411472     3.403829     3.396185
      3.388542     3.380899     3.373256     3.365613     3.357969     3.350326     3.342683     3.335040     3.327396     3.319753
      3.312110     3.304467     3.296824     3.289180     3.281537     3.273894     3.266251     3.258607     3.250964     3.243321
      3.235678     3.228034     3.220391     3.212748     3.205105     3.197462     3.189818     3.182175     3.174532     3.166889
      3.159245     3.151602     3.143959     3.136316     3.128673     3.121029     3.113386     3.105743     3.098100     3.090456
      3.082813     3.075170     3.067527     3.059884     3.052240     3.044597     3.036954     3.029311     3.021667     3.014024
      3.006381     2.998738     2.991095     2.983451     2.975808     2.968165     2.960522     2.952878     2.945235     2.937592
      2.929949     2.922306     2.914662     2.907019     2.899376     2.891733     2.884089     2.876446     2.868803     2.861160
      2.853517     2.845873     2.838230     2.830587     2.822944     2.815300     2.807657     2.800014     2.792371     2.784728
      2.777084     2.769441     2.761798     2.754155     2.746511     2.738868     2.731225     2.723582     2.715939     2.708295
      2.700652     2.693009     2.685366     2.677722     2.670079     2.662436     2.654793     2.647150     2.639506     2.631863
      2.624220     2.616577     2.608933     2.601290     2.593647     2.586004     2.578361     2.570717     2.563074     2.555431
      2.547788     2.540144     2.532501     2.524858     2.517215     2.509572     2.501928     2.494285     2.486642     2.478999
      2.471355     2.463712     2.456069     2.448426     2.440783     2.433139     2.425496     2.417853     2.410210     2.402566
      2.394923     2.387280     2.379637     2.371994     2.364350     2.356707     2.349064     2.341421     2.333777     2.326134
      2.318491     2.310848     2.303205     2.295561     2.287918     2.280275     2.272632     2.264988     2.257345     2.249702
      2.242059     2.234416     2.226772     2.219129     2.211486     2.203843     2.196199     2.188556     2.180913     2.173270
      2.165627     2.157983     2.150340     2.142697     2.135054     2.127410     2.119767     2.112124     2.104481     2.096838
      2.089194     2.081551     2.073908     2.066265     2.058621     2.050978     2.043335     2.035692     2.028049     2.020405
      2.012762     2.005119     1.997476     1.989833     1.982190     1.974546     1.966903     1.959260     1.951617     1.943974
      1.936331     1.928688     1.921045     1.913402     1.905759     1.898115     1.890472     1.882829     1.875186     1.867543
      1.859900     1.852257     1.844614     1.836971     1.829327     1.821684     1.814041     1.806398     1.798755     1.791112
      1.783469     1.775826     1.768183     1.760540     1.752896     1.745253     1.737610     1.729967     1.722324     1.714681
      1.707038     1.699395     1.691752     1.684108     1.676465     1.668822     1.661179     1.653536     1.645893     1.638250
      1.630607     1.622964     1.615321     1.607677     1.600034     1.592391     1.584748     1.577105     1.569462     1.561819
      1.554176     1.546533     1.538890     1.531246     1.523603     1.515960     1.508317     1.500674     1.493031     1.485388
      1.477745     1.470102     1.462458     1.454815     1.447172     1.439529     1.431886     1.424243     1.416600     1.408957
      1.401314     1.393671     1.386027     1.378384     1.370741     1.363098     1.355455     1.347812     1.340169     1.332526
      1.324883     1.317240     1.309596     1.301953     1.294310     1.286667     1.279024     1.271381     1.263738     1.256095
      1.248452     1.240808     1.233165     1.225522     1.217879     1.210236     1.202593     1.194950     1.187307     1.179664
      1.172021     1.164377     1.156734     1.149091     1.141448     1.133805     1.126162     1.118519     1.110876     1.103233
      1.095590     1.087946     1.080303     1.072660     1.065017     1.057374     1.049731     1.042088     1.034445     1.026802
      1.019158     1.011515     1.003872     0.996229     0.988586     0.980943     0.973300     0.965657     0.958014     0.950371
      0.942727     0.935084     0.927441     0.919798     0.912155     0.904512     0.896869     0.889226     0.881583     0.873940
      0.866296     0.858653     0.851010     0.843367     0.835724     0.828081     0.820438     0.812795     0.805152     0.797508
      0.789865     0.782222     0.774579     0.766936     0.759293     0.751650     0.744007     0.736364     0.728721     0.721077
      0.713434     0.705791     0.698148     0.690505     0.682862     0.675219     0.667576     0.659933     0.652290     0.644646
      0.637003     0.629360     0.621717     0.614074     0.606431     0.598788     0.591145     0.583502     0.575858     0.568215
      0.560572     0.552929     0.545286     0.537643     0.530000     0.522357     0.514714     0.507071     0.499427     0.491784
      0.484141     0.476498     0.468855     0.461212     0.453569     0.445925     0.438282     0.430639     0.422996     0.415353
      0.407710     0.400067     0.392424     0.384780     0.377137     0.369494     0.361851     0.354208     0.346565     0.338922
      0.331278     0.323635     0.315992     0.308349     0.300706     0.293063     0.285420     0.277777     0.270133     0.262490
      0.254847     0.247204     0.239561     0.231918     0.224275     0.216631     0.208988     0.201345
 NY phased data points follow
  -6.33887E+00 -9.38799E+00 -7.42644E-01 -4.05547E+00 -4.16757E+00 -2.22216E+00  4.90646E+00  2.47684E+00  1.22721E+01  1.79548E+01
   1.73847E+01  1.43325E+01  1.73454E+01  1.37614E+01  1.04296E+01  3.27254E+00 -3.45312E+00 -5.19682E+00 -3.09554E+00  1.11273E+00
  -5.32423E+00 -1.85034E+00  5.89761E-01  2.05439E+00  1.14267E+00 -1.35340E+00 -4.24648E+00  3.95537E+00  2.01147E+00  2.78750E+00
   4.85178E+00  3.59055E+00  9.96985E+00 -3.15714E+00  9.86749E-01 -1.33599E+00 -4.29410E+00  9.59031E-01  1.09929E+00  5.07158E+00
   5.90694E-01  6.41622E+00  1.79744E+00 -6.58429E+00  9.00056E+00  5.85780E+00  4.38195E+00  6.97698E+00  7.23158E+00  3.86048E+00
   2.42091E-01 -3.58839E+00  4.91943E+00  2.15076E+00 -6.22085E+00 -4.47327E+00 -2.17197E+00 -2.45533E+00 -5.42455E-01 -5.81110E+00
  -3.69459E+00 -2.68237E+00 -3.65054E+00 -6.57590E+00 -4.75086E-01 -1.13656E+01 -1.34664E+01 -3.63682E+00 -6.08852E+00 -4.03067E+00
  -3.47190E+00 -4.16194E+00 -1.53235E-01 -2.20830E+00 -2.71028E-02 -2.74963E+00 -2.40004E+00 -7.37353E+00 -8.58402E+00 -3.81467E+00
   1.45616E+00 -1.74918E+00  3.67287E+00 -6.65028E-03 -6.90030E-01 -3.65041E+00 -1.73931E+00  2.84796E+00 -5.66663E-01  2.14965E+00
   1.87490E+00  6.04544E+00  2.09404E+00  5.17521E+00  2.84401E+00  9.19067E-01 -2.76400E+00 -8.15203E+00  6.48975E-01  1.12676E+01
   2.33184E+01  4.52477E+01  5.26509E+01  4.37622E+01  3.75580E+01  2.66198E+01  2.05951E+01  8.77561E+00  7.88356E+00  2.82243E+00
  -2.65920E+00 -1.13923E+00  2.23411E-01 -6.48842E-01  3.06970E+00 -1.66243E+00  5.80044E-01  5.25161E+00  3.52480E+00  6.16193E-01
  -8.13168E+00 -7.80995E+00 -1.02695E+01  2.43741E+00  8.71306E+00  2.19556E+01  3.10515E+01  3.36165E+01  2.42014E+01  2.55492E+01
   9.00729E+00  1.37752E+01  8.31373E+00 -1.04089E+00  2.74431E-01  1.00193E+01 -7.58898E+00 -2.52652E+00 -6.42160E+00  1.56050E+00
   4.31005E-01 -4.03811E-01 -7.62562E-01 -3.16085E+00 -4.17252E+00 -6.59044E+00 -1.37503E+00 -2.20256E-01 -2.02525E+00 -7.65729E+00
  -1.66623E+00 -2.05237E+00 -3.54598E+00  4.49442E-01 -7.85888E-01 -5.07669E+00 -4.53920E+00 -1.04094E+00 -2.47391E+00  1.51360E+00
  -2.13206E+00 -7.36880E+00 -6.85893E+00 -4.85505E+00 -6.27781E+00 -1.00488E+01 -4.10993E+00 -2.89789E+00 -7.91857E+00 -1.05978E+01
  -9.15553E+00 -7.51991E+00 -6.93468E+00 -1.36285E+01 -1.21968E+01 -1.34282E+01 -1.69696E+01 -7.43285E+00 -8.69210E+00 -7.57061E+00
  -9.89719E+00 -1.29095E+01 -4.45427E+00 -7.92838E+00 -7.99953E+00 -6.22463E+00 -3.39899E+00 -9.06065E+00 -7.91604E+00 -2.53487E+00
  -3.52164E+00 -6.76679E+00 -8.64908E+00 -2.37072E+00 -5.37956E+00 -5.75162E+00 -6.46638E+00 -1.01809E+01 -1.11439E+01 -6.13101E+00
  -7.98508E+00  6.69273E-01  1.02537E+00  3.58515E+00  7.21846E+00 -2.55229E+00 -6.21798E+00 -6.05730E+00 -2.97459E+00 -2.45920E+00
  -3.73070E+00 -7.55828E-01  3.43396E+00  1.00206E+00  6.62364E+00  6.85676E+00  6.94374E+00  2.58024E+00  6.22353E+00 -4.93803E-01
  -3.92274E+00 -1.30601E+01 -3.13586E+00 -6.65674E+00 -4.39710E+00 -3.24807E+00  4.25756E+00  1.05518E+00  4.08016E+00  1.07987E+00
   4.52017E+00  2.07950E+00  2.19930E+00  3.28628E+00  2.52008E-01  7.98614E+00  1.12598E+00  9.83987E+00  6.52852E+00  1.61382E+00
  -3.07352E+00 -4.73244E+00 -1.21569E+00  7.45286E-01  5.18437E+00  1.16898E+01  1.11651E+01  5.90344E+00  1.37394E+01  1.28304E+01
   1.81908E+01  2.05763E+01  2.01825E+01  2.71414E+01  2.29043E+01  2.19522E+01  2.87460E+01  4.83295E+01  5.74312E+01  6.91036E+01
   6.73622E+01  5.99721E+01  4.47419E+01  2.62662E+01  2.17139E+01  1.44636E+01  1.16768E+01  7.37733E+00  6.52807E+00  7.09918E+00
   7.96065E+00  8.97662E-01  3.21579E+00  3.69176E+00  1.28849E+00 -3.01793E+00  9.69095E-01 -1.52721E+00  8.44153E-01  6.40488E+00
   1.05156E+00  8.32901E-01  1.76131E+00 -3.42834E+00  2.75335E-01 -2.19051E+00  2.86623E+00  1.50935E+00  3.21564E+00  1.59351E+00
   4.52984E+00  3.06888E+00  2.24534E+00 -5.61061E-01  1.11358E+00  1.72841E+00 -2.25787E+00  8.30080E+00  7.01594E+00  6.59476E+00
   2.54913E+00  2.83239E+00  7.35518E+00  3.10836E+00 -2.44319E+00  1.69178E+00  9.87628E-01  1.24609E+01  9.50794E+00  4.89963E+00
   3.65494E+00  7.48012E+00  1.08973E+01  9.29691E+00  6.23250E+00  1.30173E+01  9.33817E+00  6.02492E+00  9.67276E+00  8.04989E+00
   7.97146E+00  9.76603E+00  1.59208E+00  1.68132E+00  1.27501E+01  1.01582E+01  9.55197E+00  9.85322E+00  1.28234E+01  6.71795E+00
   5.43741E+00  1.21115E+01  1.55818E+01  1.60320E+01  8.36312E+00  1.81966E+01  7.96810E+00  1.43320E+01  2.12125E+01  2.14242E+01
   1.15836E+01  1.32904E+01  1.57009E+01  1.72582E+01  2.00951E+01  2.94606E+01  1.78591E+01  1.36602E+01  1.75281E+01  1.95964E+01
   2.00559E+01  1.12946E+01  1.48875E+01  1.40656E+01  1.08668E+01  1.06515E+01  8.25835E+00  6.37777E+00  8.30641E+00  5.61273E+00
   6.81997E+00  8.51612E+00  7.02587E+00  1.13144E+01  1.41906E+01  1.34406E+01  1.33484E+01  1.17553E+01  1.35507E+01  1.84876E+01
   1.09392E+01  1.65317E+01  8.17121E+00  1.19686E+01  9.23083E+00  1.18951E+01  1.30555E+01  1.36146E+01  1.24281E+01  6.50464E+00
   9.21236E+00  8.22941E+00  1.11338E+01  9.22828E+00  8.38244E+00  8.06794E+00  4.68523E-01  2.79475E+00  3.95267E+00  3.33579E+00
   2.53623E+00  9.42268E+00  8.95985E+00  2.25474E+00  9.92231E+00  9.19268E+00  8.33184E+00  7.43252E+00  1.07541E+01  8.09233E+00
   1.14591E+01  1.40904E+01  7.71328E+00  1.04566E+01  1.08700E+01  9.93345E+00  1.12515E+01  1.38796E+01  1.26056E+01  8.88567E+00
   1.44938E+01  1.12557E+01  8.78822E+00  1.04084E+01  5.87161E+00  4.60829E+00  2.41803E+00  7.65217E+00  6.71175E+00  2.29575E+00
   7.09342E+00  6.71685E+00 -5.30969E+00 -4.28809E-01  1.19024E-01  4.72949E+00 -2.20368E+00 -1.14208E+00 -1.32472E+00 -2.44813E+00
  -2.65259E+00  1.01236E+00 -5.01333E+00 -2.43839E+00  2.21203E+00 -2.40842E+00  3.02837E+00 -5.44949E-01  2.32568E+00 -6.94550E+00
   4.79768E+00 -1.52951E+00 -1.96834E+00 -3.39991E+00 -5.82387E+00 -4.87228E+00 -7.60360E+00 -3.34543E+00 -2.17795E+00 -1.29148E+00
  -9.34713E+00 -5.17845E+00 -5.69336E+00 -4.43917E+00 -6.84280E-01  7.25878E-01 -4.36949E+00 -3.08845E-01 -1.25266E+00 -5.39930E+00
   1.51131E+00 -4.06197E-01 -9.61087E+00 -2.78255E+00 -6.52396E-01 -8.18444E-01 -8.60556E-01 -2.77786E+00 -4.19647E+00 -6.93482E+00
  -5.09624E+00 -8.23832E+00 -7.46306E-01 -3.49186E+00 -2.43166E+00 -6.29479E+00 -3.90715E+00 -4.69277E+00 -5.79408E+00 -5.24951E+00
  -3.14520E+00 -3.64219E+00 -2.95300E+00 -6.76126E+00  3.37440E+00 -3.69076E+00 -3.48946E+00 -6.42740E+00 -4.45719E+00 -5.62045E+00
  -8.54832E+00 -8.88741E+00 -8.07954E+00 -5.80704E+00 -4.20578E+00 -8.57424E+00 -1.75087E+00 -4.26254E+00
 NY points of the fit to the data follow
  -3.49802E+00 -3.47831E+00 -3.24715E+00 -2.74517E+00 -1.98865E+00 -5.40528E-01  2.00981E+00  5.51852E+00  1.04539E+01  1.53508E+01
   1.80668E+01  1.76154E+01  1.48434E+01  1.12857E+01  7.67518E+00  4.68841E+00  2.55067E+00  8.81476E-01 -4.51184E-01 -9.88847E-01
  -1.10116E+00 -1.15679E+00 -1.33006E+00 -1.60181E+00 -2.17104E+00 -2.86605E+00 -2.36593E+00 -2.50535E-01  2.55075E+00  4.92922E+00
   6.43773E+00  6.90431E+00  5.99252E+00  4.16192E+00  2.21605E+00  3.18037E-01 -1.26938E+00 -2.17167E+00 -2.45144E+00 -2.25195E+00
  -1.77426E+00 -1.33914E+00 -8.85057E-01  1.29919E-01  1.86581E+00  3.55486E+00  4.45626E+00  4.40442E+00  3.44610E+00  1.88806E+00
   3.22351E-01 -8.52624E-01 -1.67537E+00 -2.24869E+00 -2.58983E+00 -2.62184E+00 -2.31181E+00 -1.75181E+00 -1.17473E+00 -8.77894E-01
  -1.02165E+00 -1.59879E+00 -2.37315E+00 -3.00012E+00 -3.35231E+00 -3.42229E+00 -3.31922E+00 -3.15600E+00 -2.89366E+00 -2.55651E+00
  -2.26983E+00 -2.06854E+00 -1.86427E+00 -1.70271E+00 -1.72019E+00 -1.94508E+00 -2.29895E+00 -2.73656E+00 -3.13082E+00 -3.31125E+00
  -3.29399E+00 -3.14642E+00 -2.54547E+00 -1.14158E+00  3.19866E-01  9.43927E-01  5.14634E-01 -5.54219E-01 -1.76407E+00 -2.75560E+00
  -3.26695E+00 -3.47634E+00 -3.65071E+00 -3.76395E+00 -3.69516E+00 -3.51437E+00 -3.24728E+00 -2.68081E+00 -1.69209E-01  9.90838E+00
   2.70158E+01  4.27596E+01  5.00320E+01  4.77613E+01  3.90434E+01  2.72987E+01  1.68413E+01  9.99831E+00  5.22622E+00  1.10788E+00
  -1.17763E+00 -1.88214E+00 -2.15802E+00 -2.28930E+00 -2.35272E+00 -2.36897E+00 -2.39070E+00 -2.42774E+00 -2.44202E+00 -2.39592E+00
  -2.24341E+00 -1.87592E+00 -9.04413E-01  3.04993E+00  1.22701E+01  2.30070E+01  3.00403E+01  3.10595E+01  2.73084E+01  2.10557E+01
   1.46231E+01  9.99832E+00  6.70223E+00  3.35573E+00  3.01291E-01 -1.46419E+00 -2.31863E+00 -2.39848E+00 -1.88132E+00 -1.21846E+00
  -7.03983E-01 -4.36939E-01 -4.19856E-01 -5.71729E-01 -8.40774E-01 -1.16513E+00 -1.50119E+00 -1.83225E+00 -2.15334E+00 -2.43155E+00
  -2.73015E+00 -3.07871E+00 -3.38785E+00 -3.54029E+00 -3.50449E+00 -3.34499E+00 -3.25149E+00 -3.53449E+00 -4.21827E+00 -4.95470E+00
  -5.36674E+00 -5.22836E+00 -4.74698E+00 -4.31736E+00 -4.22297E+00 -4.48673E+00 -4.94021E+00 -5.37338E+00 -5.62637E+00 -5.67896E+00
  -5.67798E+00 -5.81691E+00 -6.23317E+00 -6.91216E+00 -7.39571E+00 -7.36739E+00 -6.96377E+00 -6.67031E+00 -6.73622E+00 -7.00235E+00
  -7.13543E+00 -6.94860E+00 -6.60649E+00 -6.47862E+00 -6.56880E+00 -6.42490E+00 -5.73254E+00 -4.47166E+00 -2.96875E+00 -1.75235E+00
  -1.24064E+00 -1.43582E+00 -2.05046E+00 -2.76328E+00 -3.61799E+00 -4.38410E+00 -4.68995E+00 -4.39806E+00 -3.62258E+00 -2.59045E+00
  -1.33992E+00 -9.59447E-02  8.20457E-01  1.13343E+00  6.54576E-01 -6.99363E-01 -2.86076E+00 -5.04855E+00 -6.50491E+00 -7.13458E+00
  -6.94939E+00 -5.75142E+00 -3.14495E+00  3.84246E-01  3.39774E+00  4.87360E+00  4.53108E+00  2.63606E+00 -3.99687E-01 -4.04446E+00
  -7.15639E+00 -8.51984E+00 -7.86774E+00 -5.62597E+00 -2.64083E+00  1.62315E-01  2.17114E+00  3.10048E+00  3.13179E+00  2.68773E+00
   2.18850E+00  1.97169E+00  2.17021E+00  2.88947E+00  4.10817E+00  5.39035E+00  6.28387E+00  6.59838E+00  6.22052E+00  5.12370E+00
   3.86702E+00  3.24649E+00  3.66433E+00  4.86519E+00  6.45587E+00  8.05275E+00  9.26225E+00  9.89259E+00  1.00577E+01  1.01494E+01
   1.05421E+01  1.21293E+01  1.60878E+01  2.11450E+01  2.49173E+01  2.68021E+01  3.20972E+01  4.52504E+01  5.98963E+01  6.81312E+01
   6.68087E+01  5.78681E+01  4.47133E+01  3.17539E+01  2.26403E+01  1.65975E+01  1.13124E+01  7.38239E+00  5.67048E+00  4.70035E+00
   4.03884E+00  3.67329E+00  3.49175E+00  3.29136E+00  3.00902E+00  2.65071E+00  2.23890E+00  1.79726E+00  1.38367E+00  1.04498E+00
   7.88935E-01  6.08964E-01  4.95815E-01  4.27423E-01  3.73164E-01  3.20426E-01  2.80957E-01  2.75151E-01  3.25237E-01  4.50682E-01
   6.51815E-01  9.04871E-01  1.18929E+00  1.49509E+00  1.81146E+00  2.13191E+00  2.46712E+00  2.82570E+00  3.21112E+00  3.62216E+00
   4.04857E+00  4.47486E+00  4.88163E+00  5.25599E+00  5.59230E+00  5.88456E+00  6.12699E+00  6.32110E+00  6.46883E+00  6.57243E+00
   6.63610E+00  6.66661E+00  6.67310E+00  6.66644E+00  6.65814E+00  6.66007E+00  6.68448E+00  6.74371E+00  6.84993E+00  7.01493E+00
   7.25077E+00  7.57339E+00  8.01716E+00  8.64940E+00  9.34766E+00  9.84157E+00  1.00457E+01  1.00807E+01  1.01176E+01  1.02431E+01
   1.04910E+01  1.09610E+01  1.17675E+01  1.28309E+01  1.39651E+01  1.49437E+01  1.56431E+01  1.60590E+01  1.62511E+01  1.63472E+01
   1.64006E+01  1.63797E+01  1.62979E+01  1.62044E+01  1.60904E+01  1.59510E+01  1.57893E+01  1.56101E+01  1.54183E+01  1.52186E+01
   1.50152E+01  1.48114E+01  1.46094E+01  1.44096E+01  1.42114E+01  1.40130E+01  1.38121E+01  1.36060E+01  1.33915E+01  1.31647E+01
   1.29219E+01  1.26602E+01  1.23771E+01  1.20712E+01  1.17416E+01  1.13881E+01  1.10115E+01  1.06141E+01  1.01991E+01  9.77054E+00
   9.33305E+00  8.89159E+00  8.45188E+00  8.02022E+00  7.60314E+00  7.20694E+00  6.83752E+00  6.50061E+00  6.20185E+00  5.94669E+00
   5.73999E+00  5.58578E+00  5.48735E+00  5.44748E+00  5.46848E+00  5.55199E+00  5.69846E+00  5.90712E+00  6.17602E+00  6.50217E+00
   6.88143E+00  7.30809E+00  7.77468E+00  8.27200E+00  8.78948E+00  9.31549E+00  9.83742E+00  1.03417E+01  1.08142E+01  1.12408E+01
   1.16081E+01  1.19041E+01  1.21186E+01  1.22430E+01  1.22710E+01  1.21992E+01  1.20273E+01  1.17578E+01  1.13958E+01  1.09489E+01
   1.04262E+01  9.83880E+00  9.19915E+00  8.52017E+00  7.81460E+00  7.09461E+00  6.37154E+00  5.65581E+00  4.95660E+00  4.28155E+00
   3.63645E+00  3.02551E+00  2.45163E+00  1.91664E+00  1.42129E+00  9.65223E-01  5.47145E-01  1.65183E-01 -1.82730E-01 -4.98740E-01
  -7.85178E-01 -1.04462E+00 -1.27973E+00 -1.49296E+00 -1.68643E+00 -1.86199E+00 -2.02147E+00 -2.16672E+00 -2.29944E+00 -2.42102E+00
  -2.53249E+00 -2.63476E+00 -2.72884E+00 -2.81574E+00 -2.89632E+00 -2.97115E+00 -3.04061E+00 -3.10513E+00 -3.16528E+00 -3.22164E+00
  -3.27459E+00 -3.32429E+00 -3.37086E+00 -3.41454E+00 -3.45574E+00 -3.49479E+00 -3.53182E+00 -3.56680E+00 -3.59979E+00 -3.63101E+00
  -3.66077E+00 -3.68924E+00 -3.71637E+00 -3.74209E+00 -3.76646E+00 -3.78973E+00 -3.81212E+00 -3.83365E+00 -3.85421E+00 -3.87375E+00
  -3.89237E+00 -3.91031E+00 -3.92768E+00 -3.94441E+00 -3.96037E+00 -3.97555E+00 -3.99014E+00 -4.00430E+00 -4.01808E+00 -4.03132E+00
  -4.04393E+00 -4.05597E+00 -4.06764E+00 -4.07905E+00 -4.09013E+00 -4.10072E+00 -4.11079E+00 -4.12046E+00 -4.12991E+00 -4.13917E+00
  -4.14811E+00 -4.15659E+00 -4.16464E+00 -4.17243E+00 -4.18008E+00 -4.18754E+00 -4.19463E+00 -4.20128E+00
 NY background values follow
    -4.722E+00   -4.721E+00   -4.721E+00   -4.721E+00   -4.720E+00   -4.720E+00   -4.720E+00   -4.719E+00   -4.719E+00   -4.719E+00
    -4.718E+00   -4.718E+00   -4.717E+00   -4.717E+00   -4.717E+00   -4.716E+00   -4.716E+00   -4.716E+00   -4.715E+00   -4.715E+00
    -4.715E+00   -4.714E+00   -4.714E+00   -4.714E+00   -4.713E+00   -4.713E+00   -4.713E+00   -4.712E+00   -4.712E+00   -4.712E+00
    -4.711E+00   -4.711E+00   -4.710E+00   -4.710E+00   -4.710E+00   -4.709E+00   -4.709E+00   -4.709E+00   -4.708E+00   -4.708E+00
    -4.708E+00   -4.707E+00   -4.707E+00   -4.707E+00   -4.706E+00   -4.706E+00   -4.705E+00   -4.705E+00   -4.705E+00   -4.704E+00
    -4.704E+00   -4.704E+00   -4.703E+00   -4.703E+00   -4.703E+00   -4.702E+00   -4.702E+00   -4.702E+00   -4.701E+00   -4.701E+00
    -4.700E+00   -4.700E+00   -4.700E+00   -4.699E+00   -4.699E+00   -4.699E+00   -4.698E+00   -4.698E+00   -4.698E+00   -4.697E+00
    -4.697E+00   -4.697E+00   -4.696E+00   -4.696E+00   -4.695E+00   -4.695E+00   -4.695E+00   -4.694E+00   -4.694E+00   -4.694E+00
    -4.693E+00   -4.693E+00   -4.693E+00   -4.692E+00   -4.692E+00   -4.691E+00   -4.691E+00   -4.691E+00   -4.690E+00   -4.690E+00
    -4.690E+00   -4.689E+00   -4.689E+00   -4.689E+00   -4.688E+00   -4.688E+00   -4.687E+00   -4.687E+00   -4.687E+00   -4.686E+00
    -4.686E+00   -4.686E+00   -4.685E+00   -4.685E+00   -4.685E+00   -4.684E+00   -4.684E+00   -4.683E+00   -4.683E+00   -4.683E+00
    -4.682E+00   -4.682E+00   -4.682E+00   -4.681E+00   -4.681E+00   -4.680E+00   -4.680E+00   -4.680E+00   -4.679E+00   -4.679E+00
    -4.679E+00   -4.678E+00   -4.678E+00   -4.678E+00   -4.677E+00   -4.677E+00   -4.676E+00   -4.676E+00   -4.676E+00   -4.675E+00
    -4.675E+00   -4.675E+00   -4.674E+00   -4.674E+00   -4.673E+00   -4.673E+00   -4.673E+00   -4.672E+00   -4.672E+00   -4.672E+00
    -4.671E+00   -4.671E+00   -4.670E+00   -4.670E+00   -4.670E+00   -4.669E+00   -4.669E+00   -4.669E+00   -4.668E+00   -4.668E+00
    -4.667E+00   -4.667E+00   -4.667E+00   -4.666E+00   -4.666E+00   -4.666E+00   -4.665E+00   -4.665E+00   -4.664E+00   -4.664E+00
    -4.664E+00   -4.663E+00   -4.663E+00   -4.663E+00   -4.662E+00   -4.662E+00   -4.661E+00   -4.661E+00   -4.661E+00   -4.660E+00
    -4.660E+00   -4.660E+00   -4.659E+00   -4.659E+00   -4.658E+00   -4.658E+00   -4.658E+00   -4.657E+00   -4.657E+00   -4.657E+00
    -4.656E+00   -4.656E+00   -4.655E+00   -4.655E+00   -4.655E+00   -4.654E+00   -4.654E+00   -4.653E+00   -4.653E+00   -4.653E+00
    -4.652E+00   -4.652E+00   -4.652E+00   -4.651E+00   -4.651E+00   -4.650E+00   -4.650E+00   -4.650E+00   -4.649E+00   -4.649E+00
    -4.648E+00   -4.648E+00   -4.648E+00   -4.647E+00   -4.647E+00   -4.647E+00   -4.646E+00   -4.646E+00   -4.645E+00   -4.645E+00
    -4.645E+00   -4.644E+00   -4.644E+00   -4.643E+00   -4.643E+00   -4.643E+00   -4.642E+00   -4.642E+00   -4.641E+00   -4.641E+00
    -4.641E+00   -4.640E+00   -4.640E+00   -4.640E+00   -4.639E+00   -4.639E+00   -4.638E+00   -4.638E+00   -4.638E+00   -4.637E+00
    -4.637E+00   -4.636E+00   -4.636E+00   -4.636E+00   -4.635E+00   -4.635E+00   -4.634E+00   -4.634E+00   -4.634E+00   -4.633E+00
    -4.633E+00   -4.633E+00   -4.632E+00   -4.632E+00   -4.631E+00   -4.631E+00   -4.631E+00   -4.630E+00   -4.630E+00   -4.629E+00
    -4.629E+00   -4.629E+00   -4.628E+00   -4.628E+00   -4.627E+00   -4.627E+00   -4.627E+00   -4.626E+00   -4.626E+00   -4.625E+00
    -4.625E+00   -4.625E+00   -4.624E+00   -4.624E+00   -4.623E+00   -4.623E+00   -4.623E+00   -4.622E+00   -4.622E+00   -4.621E+00
    -4.621E+00   -4.621E+00   -4.620E+00   -4.620E+00   -4.619E+00   -4.619E+00   -4.619E+00   -4.618E+00   -4.618E+00   -4.617E+00
    -4.617E+00   -4.617E+00   -4.616E+00   -4.616E+00   -4.615E+00   -4.615E+00   -4.615E+00   -4.614E+00   -4.614E+00   -4.613E+00
    -4.613E+00   -4.613E+00   -4.612E+00   -4.612E+00   -4.611E+00   -4.611E+00   -4.611E+00   -4.610E+00   -4.610E+00   -4.609E+00
    -4.609E+00   -4.609E+00   -4.608E+00   -4.608E+00   -4.607E+00   -4.607E+00   -4.607E+00   -4.606E+00   -4.606E+00   -4.605E+00
    -4.605E+00   -4.605E+00   -4.604E+00   -4.604E+00   -4.603E+00   -4.603E+00   -4.603E+00   -4.602E+00   -4.602E+00   -4.601E+00
    -4.601E+00   -4.601E+00   -4.600E+00   -4.600E+00   -4.599E+00   -4.599E+00   -4.598E+00   -4.598E+00   -4.598E+00   -4.597E+00
    -4.597E+00   -4.596E+00   -4.596E+00   -4.596E+00   -4.595E+00   -4.595E+00   -4.594E+00   -4.594E+00   -4.594E+00   -4.593E+00
    -4.593E+00   -4.592E+00   -4.592E+00   -4.592E+00   -4.591E+00   -4.591E+00   -4.590E+00   -4.590E+00   -4.589E+00   -4.589E+00
    -4.589E+00   -4.588E+00   -4.588E+00   -4.587E+00   -4.587E+00   -4.587E+00   -4.586E+00   -4.586E+00   -4.585E+00   -4.585E+00
    -4.585E+00   -4.584E+00   -4.584E+00   -4.583E+00   -4.583E+00   -4.582E+00   -4.582E+00   -4.582E+00   -4.581E+00   -4.581E+00
    -4.580E+00   -4.580E+00   -4.580E+00   -4.579E+00   -4.579E+00   -4.578E+00   -4.578E+00   -4.578E+00   -4.577E+00   -4.577E+00
    -4.576E+00   -4.576E+00   -4.575E+00   -4.575E+00   -4.575E+00   -4.574E+00   -4.574E+00   -4.573E+00   -4.573E+00   -4.573E+00
    -4.572E+00   -4.572E+00   -4.571E+00   -4.571E+00   -4.570E+00   -4.570E+00   -4.570E+00   -4.569E+00   -4.569E+00   -4.568E+00
    -4.568E+00   -4.568E+00   -4.567E+00   -4.567E+00   -4.566E+00   -4.566E+00   -4.565E+00   -4.565E+00   -4.565E+00   -4.564E+00
    -4.564E+00   -4.563E+00   -4.563E+00   -4.562E+00   -4.562E+00   -4.562E+00   -4.561E+00   -4.561E+00   -4.560E+00   -4.560E+00
    -4.560E+00   -4.559E+00   -4.559E+00   -4.558E+00   -4.558E+00   -4.557E+00   -4.557E+00   -4.557E+00   -4.556E+00   -4.556E+00
    -4.555E+00   -4.555E+00   -4.554E+00   -4.554E+00   -4.554E+00   -4.553E+00   -4.553E+00   -4.552E+00   -4.552E+00   -4.551E+00
    -4.551E+00   -4.551E+00   -4.550E+00   -4.550E+00   -4.549E+00   -4.549E+00   -4.548E+00   -4.548E+00   -4.548E+00   -4.547E+00
    -4.547E+00   -4.546E+00   -4.546E+00   -4.545E+00   -4.545E+00   -4.545E+00   -4.544E+00   -4.544E+00   -4.543E+00   -4.543E+00
    -4.543E+00   -4.542E+00   -4.542E+00   -4.541E+00   -4.541E+00   -4.540E+00   -4.540E+00   -4.539E+00   -4.539E+00   -4.539E+00
    -4.538E+00   -4.538E+00   -4.537E+00   -4.537E+00   -4.536E+00   -4.536E+00   -4.536E+00   -4.535E+00   -4.535E+00   -4.534E+00
    -4.534E+00   -4.533E+00   -4.533E+00   -4.533E+00   -4.532E+00   -4.532E+00   -4.531E+00   -4.531E+00   -4.530E+00   -4.530E+00
    -4.530E+00   -4.529E+00   -4.529E+00   -4.528E+00   -4.528E+00   -4.527E+00   -4.527E+00   -4.527E+00
 Ala      Conc. = 7.45E+01
