 LCModel (Version 6.3-1L) Copyright: S.W. Provencher.          Ref.: Magn. Reson. Med. 30:672-679 (1993).                
 Slice#3 Row#11 Col#9  PD_24_press_1_raw_act
 36 lines in following concentration table = NCONC+1
    Conc.  %SD /Cr+PCr  Metabolite                                         
  112.001  71% 6.3E-02 Ala                                                 
    0.000 999%   0.000 Asp                                                 
  662.417  25%   0.371 Cr                                                  
 1.12E+03  15%   0.629 PCr                                                 
    0.000 999%   0.000 GABA                                                
    0.000 999%   0.000 Glc                                                 
  476.297  35%   0.267 Gln                                                 
 1.45E+03  13%   0.812 Glu                                                 
  605.535   3%   0.339 GPC                                                 
    0.000 999%   0.000 PCh                                                 
  394.821  14%   0.221 GSH                                                 
  523.428  36%   0.293 Ins                                                 
  108.972  81% 6.1E-02 Lac                                                 
 2.00E+03   4%   1.122 NAA                                                 
  509.601  16%   0.286 NAAG                                                
   14.873 142% 8.3E-03 Scyllo                                              
    0.000 999%   0.000 Tau                                                 
    0.000 999%   0.000 -CrCH2                                              
  605.535   3%   0.339 GPC+PCh                                             
 2.51E+03   3%   1.408 NAA+NAAG                                            
 1.78E+03   3%   1.000 Cr+PCr                                              
 1.93E+03  13%   1.079 Glu+Gln                                             
    0.000 999%   0.000 Lip13a                                              
   81.182 125% 4.6E-02 Lip13b                                              
    0.000 999%   0.000 Lip09                                               
 1.15E+03  15%   0.643 MM09                                                
   10.699 621% 6.0E-03 Lip20                                               
 2.33E+03  14%   1.306 MM20                                                
  432.808  30%   0.243 MM12                                                
  312.196  72%   0.175 MM14                                                
  603.656  31%   0.338 MM17                                                
   81.182 125% 4.6E-02 Lip13a+Lip13b                                       
  826.186  34%   0.463 MM14+Lip13a+Lip13b+MM12                             
 1.15E+03  15%   0.643 MM09+Lip09                                          
 2.34E+03  14%   1.312 MM20+Lip20                                          
   6 lines in following misc. output table
  FWHM = 0.054 ppm    S/N =  15                                            
  Data shift = 0.023 ppm                                                   
  Ph:   5 deg       2.5 deg/ppm                                            
  alphaB,S = 9.7E-01,   1.0E+02                                            
   14 spline knots.   Ns = 6(1)                                            
  ( 8) 4 infls.   ( 3) 1 extrs.                                            
  498 points on ppm-axis = NY
      4.000000     3.992357     3.984714     3.977070     3.969427     3.961784     3.954141     3.946497     3.938854     3.931211
      3.923568     3.915925     3.908281     3.900638     3.892995     3.885352     3.877708     3.870065     3.862422     3.854779
      3.847136     3.839492     3.831849     3.824206     3.816563     3.808919     3.801276     3.793633     3.785990     3.778347
      3.770703     3.763060     3.755417     3.747774     3.740130     3.732487     3.724844     3.717201     3.709558     3.701914
      3.694271     3.686628     3.678985     3.671341     3.663698     3.656055     3.648412     3.640769     3.633125     3.625482
      3.617839     3.610196     3.602552     3.594909     3.587266     3.579623     3.571980     3.564336     3.556693     3.549050
      3.541407     3.533763     3.526120     3.518477     3.510834     3.503191     3.495547     3.487904     3.480261     3.472618
      3.464974     3.457331     3.449688     3.442045     3.434402     3.426758     3.419115     3.411472     3.403829     3.396185
      3.388542     3.380899     3.373256     3.365613     3.357969     3.350326     3.342683     3.335040     3.327396     3.319753
      3.312110     3.304467     3.296824     3.289180     3.281537     3.273894     3.266251     3.258607     3.250964     3.243321
      3.235678     3.228034     3.220391     3.212748     3.205105     3.197462     3.189818     3.182175     3.174532     3.166889
      3.159245     3.151602     3.143959     3.136316     3.128673     3.121029     3.113386     3.105743     3.098100     3.090456
      3.082813     3.075170     3.067527     3.059884     3.052240     3.044597     3.036954     3.029311     3.021667     3.014024
      3.006381     2.998738     2.991095     2.983451     2.975808     2.968165     2.960522     2.952878     2.945235     2.937592
      2.929949     2.922306     2.914662     2.907019     2.899376     2.891733     2.884089     2.876446     2.868803     2.861160
      2.853517     2.845873     2.838230     2.830587     2.822944     2.815300     2.807657     2.800014     2.792371     2.784728
      2.777084     2.769441     2.761798     2.754155     2.746511     2.738868     2.731225     2.723582     2.715939     2.708295
      2.700652     2.693009     2.685366     2.677722     2.670079     2.662436     2.654793     2.647150     2.639506     2.631863
      2.624220     2.616577     2.608933     2.601290     2.593647     2.586004     2.578361     2.570717     2.563074     2.555431
      2.547788     2.540144     2.532501     2.524858     2.517215     2.509572     2.501928     2.494285     2.486642     2.478999
      2.471355     2.463712     2.456069     2.448426     2.440783     2.433139     2.425496     2.417853     2.410210     2.402566
      2.394923     2.387280     2.379637     2.371994     2.364350     2.356707     2.349064     2.341421     2.333777     2.326134
      2.318491     2.310848     2.303205     2.295561     2.287918     2.280275     2.272632     2.264988     2.257345     2.249702
      2.242059     2.234416     2.226772     2.219129     2.211486     2.203843     2.196199     2.188556     2.180913     2.173270
      2.165627     2.157983     2.150340     2.142697     2.135054     2.127410     2.119767     2.112124     2.104481     2.096838
      2.089194     2.081551     2.073908     2.066265     2.058621     2.050978     2.043335     2.035692     2.028049     2.020405
      2.012762     2.005119     1.997476     1.989833     1.982190     1.974546     1.966903     1.959260     1.951617     1.943974
      1.936331     1.928688     1.921045     1.913402     1.905759     1.898115     1.890472     1.882829     1.875186     1.867543
      1.859900     1.852257     1.844614     1.836971     1.829327     1.821684     1.814041     1.806398     1.798755     1.791112
      1.783469     1.775826     1.768183     1.760540     1.752896     1.745253     1.737610     1.729967     1.722324     1.714681
      1.707038     1.699395     1.691752     1.684108     1.676465     1.668822     1.661179     1.653536     1.645893     1.638250
      1.630607     1.622964     1.615321     1.607677     1.600034     1.592391     1.584748     1.577105     1.569462     1.561819
      1.554176     1.546533     1.538890     1.531246     1.523603     1.515960     1.508317     1.500674     1.493031     1.485388
      1.477745     1.470102     1.462458     1.454815     1.447172     1.439529     1.431886     1.424243     1.416600     1.408957
      1.401314     1.393671     1.386027     1.378384     1.370741     1.363098     1.355455     1.347812     1.340169     1.332526
      1.324883     1.317240     1.309596     1.301953     1.294310     1.286667     1.279024     1.271381     1.263738     1.256095
      1.248452     1.240808     1.233165     1.225522     1.217879     1.210236     1.202593     1.194950     1.187307     1.179664
      1.172021     1.164377     1.156734     1.149091     1.141448     1.133805     1.126162     1.118519     1.110876     1.103233
      1.095590     1.087946     1.080303     1.072660     1.065017     1.057374     1.049731     1.042088     1.034445     1.026802
      1.019158     1.011515     1.003872     0.996229     0.988586     0.980943     0.973300     0.965657     0.958014     0.950371
      0.942727     0.935084     0.927441     0.919798     0.912155     0.904512     0.896869     0.889226     0.881583     0.873940
      0.866296     0.858653     0.851010     0.843367     0.835724     0.828081     0.820438     0.812795     0.805152     0.797508
      0.789865     0.782222     0.774579     0.766936     0.759293     0.751650     0.744007     0.736364     0.728721     0.721077
      0.713434     0.705791     0.698148     0.690505     0.682862     0.675219     0.667576     0.659933     0.652290     0.644646
      0.637003     0.629360     0.621717     0.614074     0.606431     0.598788     0.591145     0.583502     0.575858     0.568215
      0.560572     0.552929     0.545286     0.537643     0.530000     0.522357     0.514714     0.507071     0.499427     0.491784
      0.484141     0.476498     0.468855     0.461212     0.453569     0.445925     0.438282     0.430639     0.422996     0.415353
      0.407710     0.400067     0.392424     0.384780     0.377137     0.369494     0.361851     0.354208     0.346565     0.338922
      0.331278     0.323635     0.315992     0.308349     0.300706     0.293063     0.285420     0.277777     0.270133     0.262490
      0.254847     0.247204     0.239561     0.231918     0.224275     0.216631     0.208988     0.201345
 NY phased data points follow
   2.04083E+01  1.95768E+01  2.29022E+01  2.37671E+01  2.57331E+01  3.24847E+01  3.63163E+01  4.78703E+01  5.48425E+01  6.27301E+01
   6.33254E+01  6.61721E+01  5.87663E+01  5.92503E+01  4.96475E+01  4.49005E+01  3.65302E+01  3.09207E+01  2.91840E+01  2.40718E+01
   2.40264E+01  2.44832E+01  2.25716E+01  2.39871E+01  2.21809E+01  2.26879E+01  2.36582E+01  2.47440E+01  2.25334E+01  2.27873E+01
   2.88255E+01  2.88455E+01  2.68640E+01  2.70298E+01  1.99655E+01  2.38800E+01  2.27484E+01  1.95640E+01  1.96523E+01  2.06282E+01
   1.86499E+01  1.75394E+01  1.82462E+01  1.88050E+01  1.76878E+01  1.92304E+01  2.29195E+01  2.71381E+01  2.46028E+01  2.38756E+01
   2.26809E+01  1.70085E+01  1.87782E+01  1.89314E+01  1.75095E+01  1.50962E+01  1.67453E+01  1.77847E+01  1.80952E+01  1.57622E+01
   1.40711E+01  9.73704E+00  9.55532E+00  6.97338E+00  3.97142E+00  5.19379E+00  5.98483E+00  5.08288E+00  3.30360E+00  4.09511E+00
   2.56417E+00  7.00657E+00  8.30637E+00  1.03221E+01  7.67524E+00  4.90776E+00  5.65769E+00  4.97687E+00  7.83444E+00  7.56872E+00
   8.59839E+00  4.42530E+00  5.39541E+00  6.03651E+00  8.29859E+00  7.80713E+00  8.03922E+00  3.87393E+00  6.88928E+00  6.21931E+00
   6.58856E+00  5.77083E+00  1.12517E+01  6.42554E+00  1.19407E+01  9.15327E+00  5.35785E+00  8.67165E+00  9.05170E+00  2.02421E+01
   3.17621E+01  4.75810E+01  6.20396E+01  6.65819E+01  6.32916E+01  5.35725E+01  4.89561E+01  3.77366E+01  2.84313E+01  1.95875E+01
   1.75641E+01  8.46361E+00  9.94948E+00  7.30185E+00  2.65340E+00  7.43093E+00  5.98962E+00  5.25678E+00  6.66621E+00  6.49914E+00
   5.77473E+00  3.90934E+00  7.83055E+00  1.53160E+01  2.86587E+01  4.29887E+01  5.72751E+01  6.44457E+01  5.92420E+01  5.59141E+01
   4.66329E+01  3.89263E+01  2.82441E+01  2.26225E+01  1.82171E+01  1.32816E+01  6.36747E+00  3.56252E+00  4.88108E+00  5.06107E+00
   2.06986E+00  7.29754E+00  2.97414E+00  3.41294E+00 -3.04765E+00  5.75500E-02  1.92050E+00  1.00433E+00  3.40430E+00  2.70715E+00
  -3.02262E+00  3.39585E-01  3.41942E+00 -1.93174E+00 -2.58864E-01 -1.97818E+00  1.74731E+00  1.55863E+00 -2.57308E+00 -1.77669E-01
   1.64840E+00 -5.82668E+00 -2.73527E+00 -6.37891E+00 -4.74430E+00 -4.44491E-01 -2.44738E+00 -2.76441E+00 -3.39299E+00 -5.32382E+00
  -6.52117E+00 -4.48732E+00 -3.03941E+00 -9.37480E+00 -9.54049E+00 -8.42647E+00 -1.14030E+01 -7.28803E+00 -6.46398E+00 -7.48018E+00
  -1.06383E+01 -9.70273E+00 -1.23477E+01 -1.24056E+01 -9.28713E+00 -1.12808E+01 -1.07115E+01 -9.41966E+00 -4.03779E+00 -1.69086E-01
   4.01104E+00  2.65150E+00  5.99191E+00  7.32812E+00  8.28078E+00  4.47130E+00  9.30719E+00  6.30428E+00 -2.43603E+00 -4.49456E-01
  -2.02605E+00  3.25637E+00  5.89353E-01  5.75081E+00  4.80003E+00  3.30860E+00  1.06762E+00 -1.06395E+00 -1.66610E+00 -5.32903E+00
  -2.74843E+00 -5.55089E+00 -3.44032E+00 -2.42834E+00  7.08462E+00  9.99263E+00  1.06155E+01  7.50805E+00  7.88277E+00  3.81238E+00
   1.29190E+00 -1.42583E+00 -4.77694E+00 -2.39405E+00 -1.56693E+00  2.42982E+00  2.77406E+00  8.32583E+00  1.01427E+01  8.72017E+00
   9.51754E+00  8.35018E+00  8.24662E+00  4.32165E+00  5.03587E+00  5.68268E+00  5.69403E+00  8.22957E+00  5.90242E+00  4.85535E+00
   6.04452E-01 -1.01163E+00 -1.64172E+00  1.42298E+00  2.76186E+00  1.07454E+00  7.18280E+00  7.36928E+00  8.61412E+00  1.04543E+01
   9.09970E+00  1.46589E+01  1.41188E+01  2.35403E+01  2.79472E+01  3.03699E+01  3.55074E+01  4.57692E+01  6.32055E+01  8.07951E+01
   8.83123E+01  8.40961E+01  7.13915E+01  5.42155E+01  4.51260E+01  3.00908E+01  2.32539E+01  1.55454E+01  1.07433E+01  6.75309E+00
   1.02208E+01  8.12828E+00  6.10548E+00  2.91599E+00  5.05651E+00  5.15772E+00  2.89316E+00  8.20554E+00  4.84618E+00  6.39507E+00
   5.07264E+00  3.02351E+00  5.80489E+00  2.35373E+00  2.72991E+00  5.82032E-01  2.26405E+00 -5.04036E-01 -7.51803E-01  1.66460E+00
   1.94191E+00  2.58452E+00  2.03318E+00 -2.05557E-01  2.13512E+00  1.86102E-01 -1.11233E-01 -8.13588E-02  1.98444E+00  1.26355E+00
   2.00378E+00  1.12761E+00  4.01384E+00  2.06856E+00  5.76550E+00  5.94815E+00  4.60197E+00  2.34850E+00  4.68434E+00  3.83177E+00
   6.80997E-01  3.90940E+00 -1.97348E+00  4.42639E+00  2.58584E+00  2.75115E+00  4.47828E+00  4.92060E+00  5.96428E+00  4.27441E+00
   2.77650E-01  2.86433E+00  1.42610E+00  3.08592E+00  3.40824E+00  2.84893E+00  3.83331E+00 -4.53248E-01  1.51750E+00  4.98958E-01
  -4.88885E-01  8.77345E-01 -7.26362E-01  2.17548E+00  1.70742E+00  2.29804E+00  8.37017E-01  5.24022E+00  4.47848E+00 -4.30937E-01
   3.89226E+00  2.40867E+00  7.49362E-01  2.62544E+00  3.49613E+00 -3.50834E+00  3.54771E+00  2.25217E-01 -1.94867E+00  1.04076E+00
  -3.86472E+00  9.63924E-02  1.02238E+00  4.65705E+00  2.50684E+00  1.67127E+00  5.51995E+00  2.49745E+00  1.00627E+00  4.53351E+00
   2.46652E+00  5.47341E+00  4.99501E+00  4.43688E+00  4.06028E+00  3.94638E+00  2.76295E+00 -3.21214E-01  4.12191E+00  3.62074E+00
   6.60144E+00  1.11985E+00  5.83851E+00  2.97038E+00  2.86063E+00 -5.73400E-01  4.54331E+00  5.70818E+00 -1.33464E+00  1.62895E+00
  -1.24722E+00 -5.81705E-01  5.61727E-01  1.00292E+00  4.91948E+00  3.47932E-01  1.51550E+00  2.88042E+00  3.11495E+00  2.03222E+00
   1.91351E+00  5.00225E+00  4.01529E+00  3.56155E+00  4.68897E+00  3.30874E+00  6.87688E+00  5.70950E+00  5.56083E+00  5.69558E+00
   7.50943E+00  4.40975E+00  3.98339E+00  6.58730E+00  4.62102E+00  8.53188E+00  8.81942E+00  9.43837E+00  6.27431E+00  9.74124E+00
   8.63500E+00  6.71804E+00  9.22485E+00  4.94715E+00  8.73119E+00  3.84531E+00  4.41195E+00  4.02878E+00  2.34816E+00  1.84382E+00
   1.86735E+00  5.29156E+00  3.97501E+00  2.97829E+00  4.40654E+00 -1.75144E+00  2.01982E+00  2.73424E+00  4.06203E+00 -1.06297E+00
   1.04385E+00  4.15719E+00  3.97148E-01 -1.01982E+00  2.57604E+00  1.05586E-01  2.36618E+00  4.70964E-01  1.54630E+00  2.29381E-01
   2.65202E+00 -4.24677E-01  7.67896E-01  8.23252E-01  1.12058E-01 -2.24748E+00 -4.91855E-01 -7.72804E-01 -1.87694E+00  2.34234E+00
   6.47080E-01 -2.33149E-01 -1.22870E-01  1.57043E-01  6.60804E-01 -4.17223E-01  3.20832E+00  3.81197E+00 -3.11128E+00 -9.65917E-01
   2.20943E+00 -3.19229E+00 -6.76826E-01 -2.41956E-01 -1.00961E+00  1.75835E+00  9.14727E-01  1.24517E+00 -1.64382E+00  3.54848E+00
  -2.71186E+00 -7.60787E-01 -2.71642E+00 -1.20022E+00 -2.07875E+00 -1.13024E+00  9.96905E-01 -2.56866E+00 -5.93312E-01 -1.66706E+00
  -3.22732E+00  1.53568E+00 -2.27201E+00  1.90495E+00  5.94430E-01 -1.28967E+00  4.03049E-02 -2.01026E+00  2.11423E+00  9.58462E-01
  -1.90910E-01 -7.57390E-01 -1.71769E+00 -1.26216E+00 -6.08573E-01 -6.69105E-02 -2.16462E+00 -3.14377E-02
 NY points of the fit to the data follow
   2.27796E+01  2.26800E+01  2.28757E+01  2.34998E+01  2.51125E+01  2.85025E+01  3.44073E+01  4.27500E+01  5.19853E+01  5.95033E+01
   6.30751E+01  6.21641E+01  5.78875E+01  5.20009E+01  4.58885E+01  4.02319E+01  3.49394E+01  3.01070E+01  2.66500E+01  2.44149E+01
   2.32849E+01  2.26243E+01  2.19880E+01  2.12180E+01  2.03687E+01  1.97383E+01  1.97868E+01  2.09152E+01  2.30963E+01  2.56802E+01
   2.77738E+01  2.88317E+01  2.87349E+01  2.75818E+01  2.55958E+01  2.33040E+01  2.10831E+01  1.90847E+01  1.78350E+01  1.74637E+01
   1.75009E+01  1.77821E+01  1.82650E+01  1.90074E+01  1.98778E+01  2.07172E+01  2.12560E+01  2.11902E+01  2.06122E+01  1.97637E+01
   1.87110E+01  1.76251E+01  1.66773E+01  1.57679E+01  1.48949E+01  1.42860E+01  1.40080E+01  1.39021E+01  1.38419E+01  1.37560E+01
   1.35071E+01  1.30526E+01  1.24361E+01  1.17840E+01  1.12331E+01  1.08335E+01  1.05581E+01  1.03959E+01  1.03499E+01  1.03782E+01
   1.04368E+01  1.04400E+01  1.03367E+01  1.01314E+01  9.85983E+00  9.57036E+00  9.29249E+00  9.03744E+00  8.79910E+00  8.56503E+00
   8.37995E+00  8.25557E+00  8.17519E+00  8.08882E+00  7.91132E+00  7.57398E+00  7.09320E+00  6.58831E+00  6.19665E+00  5.98713E+00
   5.95059E+00  6.04334E+00  6.20413E+00  6.38097E+00  6.58021E+00  6.79213E+00  7.12180E+00  8.26710E+00  1.18673E+01  1.97851E+01
   3.26815E+01  4.82569E+01  6.13895E+01  6.72531E+01  6.48418E+01  5.69962E+01  4.72428E+01  3.76669E+01  2.90620E+01  2.14089E+01
   1.40026E+01  8.30585E+00  6.25570E+00  5.60512E+00  5.29574E+00  5.12029E+00  5.01474E+00  4.95402E+00  4.94767E+00  5.05253E+00
   5.42121E+00  6.59957E+00  9.97505E+00  1.73039E+01  2.94847E+01  4.47967E+01  5.85712E+01  6.58341E+01  6.49067E+01  5.81379E+01
   4.90689E+01  3.98980E+01  3.13053E+01  2.32411E+01  1.50425E+01  7.88044E+00  4.46992E+00  3.27239E+00  2.98835E+00  3.20259E+00
   3.57215E+00  3.86113E+00  4.03108E+00  4.03792E+00  3.85844E+00  3.57488E+00  3.21993E+00  2.80817E+00  2.39160E+00  1.94205E+00
   1.51642E+00  1.11188E+00  7.50604E-01  5.04121E-01  4.23404E-01  4.62817E-01  4.68785E-01  2.68619E-01 -2.22200E-01 -8.89398E-01
  -1.43235E+00 -1.59380E+00 -1.40016E+00 -1.13059E+00 -1.10110E+00 -1.44085E+00 -2.02501E+00 -2.59469E+00 -2.96765E+00 -3.20504E+00
  -3.46408E+00 -3.84610E+00 -4.44092E+00 -5.09486E+00 -5.58464E+00 -5.78566E+00 -5.64022E+00 -5.36169E+00 -5.25627E+00 -5.35820E+00
  -5.46882E+00 -5.39574E+00 -5.15955E+00 -4.93636E+00 -4.83736E+00 -4.72588E+00 -4.13526E+00 -2.88097E+00 -1.16049E+00  5.24931E-01
   1.67876E+00  2.18133E+00  2.11860E+00  1.65072E+00  9.68382E-01  1.74364E-01 -5.67855E-01 -9.06951E-01 -6.98581E-01  4.18257E-02
   1.20313E+00  2.56288E+00  3.79944E+00  4.57083E+00  4.53810E+00  3.61006E+00  1.82226E+00 -4.70605E-01 -2.65711E+00 -4.22997E+00
  -4.86877E+00 -4.39796E+00 -2.63410E+00  2.56780E-01  3.55390E+00  6.18097E+00  7.21766E+00  6.46031E+00  4.07116E+00  6.82932E-01
  -2.81172E+00 -5.61023E+00 -6.95270E+00 -6.54268E+00 -4.69145E+00 -1.96813E+00  6.43775E-01  2.66443E+00  3.93919E+00  4.56848E+00
   4.73646E+00  4.54695E+00  4.32463E+00  4.47247E+00  5.02148E+00  5.78875E+00  6.52301E+00  6.87836E+00  6.64452E+00  5.82744E+00
   4.62905E+00  3.52363E+00  3.02578E+00  3.31638E+00  4.14116E+00  5.18674E+00  6.22075E+00  7.04304E+00  7.60733E+00  8.16025E+00
   9.29718E+00  1.16263E+01  1.54714E+01  2.03802E+01  2.54904E+01  3.09501E+01  3.85530E+01  5.04576E+01  6.58452E+01  7.95992E+01
   8.56527E+01  8.19307E+01  7.12004E+01  5.80989E+01  4.60329E+01  3.54689E+01  2.62252E+01  1.71261E+01  9.34658E+00  6.23384E+00
   5.15948E+00  4.57854E+00  4.25139E+00  4.08386E+00  3.89764E+00  3.64719E+00  3.36367E+00  3.07133E+00  2.78582E+00  2.53491E+00
   2.32680E+00  2.15048E+00  2.01321E+00  1.91925E+00  1.83608E+00  1.73810E+00  1.63080E+00  1.53586E+00  1.47764E+00  1.46206E+00
   1.49099E+00  1.56650E+00  1.66722E+00  1.77241E+00  1.87476E+00  1.97065E+00  2.06259E+00  2.15822E+00  2.26075E+00  2.37624E+00
   2.51091E+00  2.65609E+00  2.80096E+00  2.93630E+00  3.05525E+00  3.15555E+00  3.23293E+00  3.28007E+00  3.29986E+00  3.29392E+00
   3.26337E+00  3.21072E+00  3.13966E+00  3.05363E+00  2.95642E+00  2.85240E+00  2.74686E+00  2.64592E+00  2.55645E+00  2.48694E+00
   2.45167E+00  2.47680E+00  2.58146E+00  2.74365E+00  2.87336E+00  2.83069E+00  2.51675E+00  1.96213E+00  1.30747E+00  7.00865E-01
   2.42637E-01  1.08449E-02  7.92819E-02  4.41420E-01  9.90797E-01  1.60068E+00  2.08384E+00  2.35529E+00  2.48037E+00  2.52683E+00
   2.55129E+00  2.59129E+00  2.63396E+00  2.71901E+00  2.83811E+00  2.82306E+00  2.55879E+00  2.07272E+00  1.50872E+00  1.02797E+00
   7.44681E-01  7.38922E-01  1.05137E+00  1.61034E+00  2.26201E+00  2.88631E+00  3.33438E+00  3.55581E+00  3.61451E+00  3.56474E+00
   3.44797E+00  3.26243E+00  3.00266E+00  2.77756E+00  2.61390E+00  2.48405E+00  2.37649E+00  2.28537E+00  2.20621E+00  2.13518E+00
   2.06924E+00  2.00652E+00  1.94644E+00  1.88939E+00  1.83631E+00  1.78849E+00  1.74760E+00  1.71581E+00  1.69558E+00  1.68936E+00
   1.69935E+00  1.72756E+00  1.77604E+00  1.84699E+00  1.94258E+00  2.06463E+00  2.21453E+00  2.39336E+00  2.60196E+00  2.84091E+00
   3.11009E+00  3.40845E+00  3.73387E+00  4.08335E+00  4.45299E+00  4.83791E+00  5.23201E+00  5.62796E+00  6.01753E+00  6.39201E+00
   6.74253E+00  7.06025E+00  7.33654E+00  7.56336E+00  7.73389E+00  7.84298E+00  7.88735E+00  7.86556E+00  7.77800E+00  7.62694E+00
   7.41658E+00  7.15296E+00  6.84340E+00  6.49602E+00  6.11931E+00  5.72192E+00  5.31246E+00  4.89916E+00  4.48938E+00  4.08935E+00
   3.70410E+00  3.33766E+00  2.99311E+00  2.67256E+00  2.37705E+00  2.10665E+00  1.86078E+00  1.63848E+00  1.43860E+00  1.25967E+00
   1.09995E+00  9.57527E-01  8.30565E-01  7.17477E-01  6.16849E-01  5.27290E-01  4.47382E-01  3.75809E-01  3.11517E-01  2.53725E-01
   2.01763E-01  1.54914E-01  1.12432E-01  7.36946E-02  3.83071E-02  6.02396E-03 -2.34260E-02 -5.04265E-02 -7.53783E-02 -9.85398E-02
  -1.19996E-01 -1.39787E-01 -1.58064E-01 -1.75087E-01 -1.91080E-01 -2.06107E-01 -2.20122E-01 -2.33128E-01 -2.45267E-01 -2.56746E-01
  -2.67673E-01 -2.78006E-01 -2.87660E-01 -2.96660E-01 -3.05160E-01 -3.13311E-01 -3.21131E-01 -3.28523E-01 -3.35420E-01 -3.41893E-01
  -3.48098E-01 -3.54119E-01 -3.59897E-01 -3.65317E-01 -3.70359E-01 -3.75136E-01 -3.79783E-01 -3.84315E-01 -3.88629E-01 -3.92634E-01
  -3.96365E-01 -3.99958E-01 -4.03500E-01 -4.06939E-01 -4.10153E-01 -4.13095E-01 -4.15856E-01 -4.18560E-01 -4.21234E-01 -4.23778E-01
  -4.26085E-01 -4.28168E-01 -4.30146E-01 -4.32109E-01 -4.34017E-01 -4.35745E-01 -4.37226E-01 -4.38524E-01
 NY background values follow
     2.055E+01    2.038E+01    2.020E+01    2.002E+01    1.985E+01    1.967E+01    1.950E+01    1.932E+01    1.915E+01    1.897E+01
     1.879E+01    1.862E+01    1.844E+01    1.826E+01    1.809E+01    1.791E+01    1.774E+01    1.756E+01    1.739E+01    1.721E+01
     1.703E+01    1.686E+01    1.668E+01    1.651E+01    1.633E+01    1.616E+01    1.598E+01    1.581E+01    1.564E+01    1.546E+01
     1.529E+01    1.512E+01    1.494E+01    1.477E+01    1.460E+01    1.443E+01    1.425E+01    1.408E+01    1.391E+01    1.374E+01
     1.357E+01    1.340E+01    1.323E+01    1.306E+01    1.289E+01    1.273E+01    1.256E+01    1.239E+01    1.222E+01    1.206E+01
     1.189E+01    1.173E+01    1.156E+01    1.140E+01    1.124E+01    1.107E+01    1.091E+01    1.075E+01    1.059E+01    1.043E+01
     1.027E+01    1.011E+01    9.951E+00    9.794E+00    9.637E+00    9.481E+00    9.326E+00    9.171E+00    9.017E+00    8.865E+00
     8.712E+00    8.561E+00    8.411E+00    8.261E+00    8.112E+00    7.965E+00    7.818E+00    7.672E+00    7.527E+00    7.382E+00
     7.239E+00    7.097E+00    6.956E+00    6.815E+00    6.676E+00    6.538E+00    6.401E+00    6.265E+00    6.129E+00    5.995E+00
     5.862E+00    5.731E+00    5.600E+00    5.470E+00    5.342E+00    5.215E+00    5.088E+00    4.963E+00    4.839E+00    4.716E+00
     4.595E+00    4.474E+00    4.355E+00    4.236E+00    4.119E+00    4.003E+00    3.888E+00    3.775E+00    3.662E+00    3.551E+00
     3.441E+00    3.332E+00    3.224E+00    3.117E+00    3.011E+00    2.907E+00    2.804E+00    2.702E+00    2.601E+00    2.502E+00
     2.403E+00    2.306E+00    2.210E+00    2.115E+00    2.021E+00    1.929E+00    1.838E+00    1.748E+00    1.659E+00    1.571E+00
     1.485E+00    1.400E+00    1.316E+00    1.233E+00    1.151E+00    1.071E+00    9.920E-01    9.142E-01    8.376E-01    7.623E-01
     6.881E-01    6.152E-01    5.435E-01    4.730E-01    4.037E-01    3.356E-01    2.687E-01    2.030E-01    1.385E-01    7.514E-02
     1.298E-02   -4.800E-02   -1.078E-01   -1.665E-01   -2.239E-01   -2.803E-01   -3.354E-01   -3.894E-01   -4.423E-01   -4.940E-01
    -5.446E-01   -5.940E-01   -6.424E-01   -6.895E-01   -7.356E-01   -7.805E-01   -8.244E-01   -8.671E-01   -9.087E-01   -9.492E-01
    -9.886E-01   -1.027E+00   -1.064E+00   -1.100E+00   -1.135E+00   -1.169E+00   -1.202E+00   -1.234E+00   -1.265E+00   -1.294E+00
    -1.323E+00   -1.351E+00   -1.377E+00   -1.403E+00   -1.427E+00   -1.451E+00   -1.473E+00   -1.495E+00   -1.516E+00   -1.535E+00
    -1.554E+00   -1.572E+00   -1.589E+00   -1.606E+00   -1.621E+00   -1.636E+00   -1.650E+00   -1.663E+00   -1.676E+00   -1.687E+00
    -1.699E+00   -1.709E+00   -1.719E+00   -1.728E+00   -1.736E+00   -1.744E+00   -1.752E+00   -1.759E+00   -1.765E+00   -1.771E+00
    -1.776E+00   -1.781E+00   -1.785E+00   -1.789E+00   -1.793E+00   -1.796E+00   -1.799E+00   -1.801E+00   -1.803E+00   -1.805E+00
    -1.807E+00   -1.808E+00   -1.809E+00   -1.810E+00   -1.810E+00   -1.811E+00   -1.811E+00   -1.811E+00   -1.811E+00   -1.811E+00
    -1.810E+00   -1.810E+00   -1.809E+00   -1.808E+00   -1.807E+00   -1.806E+00   -1.805E+00   -1.804E+00   -1.802E+00   -1.801E+00
    -1.799E+00   -1.797E+00   -1.795E+00   -1.793E+00   -1.791E+00   -1.789E+00   -1.786E+00   -1.784E+00   -1.781E+00   -1.778E+00
    -1.775E+00   -1.772E+00   -1.769E+00   -1.766E+00   -1.763E+00   -1.760E+00   -1.756E+00   -1.753E+00   -1.749E+00   -1.746E+00
    -1.742E+00   -1.738E+00   -1.734E+00   -1.730E+00   -1.726E+00   -1.722E+00   -1.718E+00   -1.714E+00   -1.710E+00   -1.705E+00
    -1.701E+00   -1.697E+00   -1.692E+00   -1.688E+00   -1.683E+00   -1.678E+00   -1.674E+00   -1.669E+00   -1.664E+00   -1.659E+00
    -1.654E+00   -1.649E+00   -1.644E+00   -1.639E+00   -1.634E+00   -1.629E+00   -1.624E+00   -1.619E+00   -1.614E+00   -1.609E+00
    -1.604E+00   -1.598E+00   -1.593E+00   -1.588E+00   -1.582E+00   -1.577E+00   -1.572E+00   -1.566E+00   -1.561E+00   -1.555E+00
    -1.550E+00   -1.544E+00   -1.539E+00   -1.533E+00   -1.528E+00   -1.522E+00   -1.516E+00   -1.511E+00   -1.505E+00   -1.500E+00
    -1.494E+00   -1.488E+00   -1.483E+00   -1.477E+00   -1.472E+00   -1.466E+00   -1.460E+00   -1.455E+00   -1.449E+00   -1.444E+00
    -1.438E+00   -1.432E+00   -1.427E+00   -1.421E+00   -1.416E+00   -1.410E+00   -1.404E+00   -1.399E+00   -1.393E+00   -1.388E+00
    -1.382E+00   -1.376E+00   -1.371E+00   -1.365E+00   -1.360E+00   -1.354E+00   -1.349E+00   -1.343E+00   -1.338E+00   -1.332E+00
    -1.327E+00   -1.321E+00   -1.316E+00   -1.310E+00   -1.305E+00   -1.300E+00   -1.294E+00   -1.289E+00   -1.283E+00   -1.278E+00
    -1.273E+00   -1.267E+00   -1.262E+00   -1.257E+00   -1.251E+00   -1.246E+00   -1.241E+00   -1.236E+00   -1.230E+00   -1.225E+00
    -1.220E+00   -1.215E+00   -1.210E+00   -1.204E+00   -1.199E+00   -1.194E+00   -1.189E+00   -1.184E+00   -1.179E+00   -1.174E+00
    -1.169E+00   -1.164E+00   -1.159E+00   -1.154E+00   -1.149E+00   -1.144E+00   -1.139E+00   -1.134E+00   -1.129E+00   -1.125E+00
    -1.120E+00   -1.115E+00   -1.110E+00   -1.105E+00   -1.100E+00   -1.096E+00   -1.091E+00   -1.086E+00   -1.081E+00   -1.077E+00
    -1.072E+00   -1.067E+00   -1.063E+00   -1.058E+00   -1.053E+00   -1.049E+00   -1.044E+00   -1.040E+00   -1.035E+00   -1.030E+00
    -1.026E+00   -1.021E+00   -1.017E+00   -1.012E+00   -1.008E+00   -1.003E+00   -9.988E-01   -9.944E-01   -9.899E-01   -9.855E-01
    -9.811E-01   -9.767E-01   -9.723E-01   -9.680E-01   -9.636E-01   -9.593E-01   -9.550E-01   -9.507E-01   -9.464E-01   -9.422E-01
    -9.380E-01   -9.338E-01   -9.296E-01   -9.255E-01   -9.214E-01   -9.173E-01   -9.132E-01   -9.092E-01   -9.052E-01   -9.012E-01
    -8.973E-01   -8.934E-01   -8.895E-01   -8.857E-01   -8.819E-01   -8.782E-01   -8.744E-01   -8.707E-01   -8.671E-01   -8.635E-01
    -8.599E-01   -8.564E-01   -8.529E-01   -8.495E-01   -8.461E-01   -8.427E-01   -8.394E-01   -8.361E-01   -8.329E-01   -8.298E-01
    -8.266E-01   -8.236E-01   -8.206E-01   -8.176E-01   -8.147E-01   -8.118E-01   -8.090E-01   -8.062E-01   -8.035E-01   -8.008E-01
    -7.981E-01   -7.955E-01   -7.929E-01   -7.904E-01   -7.879E-01   -7.854E-01   -7.830E-01   -7.806E-01   -7.782E-01   -7.759E-01
    -7.736E-01   -7.713E-01   -7.690E-01   -7.668E-01   -7.645E-01   -7.623E-01   -7.602E-01   -7.580E-01   -7.558E-01   -7.537E-01
    -7.516E-01   -7.495E-01   -7.474E-01   -7.453E-01   -7.432E-01   -7.411E-01   -7.390E-01   -7.370E-01   -7.349E-01   -7.328E-01
    -7.307E-01   -7.287E-01   -7.266E-01   -7.245E-01   -7.224E-01   -7.203E-01   -7.182E-01   -7.161E-01
 Ala      Conc. = 1.12E+02
