 LCModel (Version 6.3-1L) Copyright: S.W. Provencher.          Ref.: Magn. Reson. Med. 30:672-679 (1993).                
 Slice#1 Row#7 Col#7  PD_24_press_1_raw_act
 36 lines in following concentration table = NCONC+1
    Conc.  %SD /Cr+PCr  Metabolite                                         
    0.000 999%   0.000 Ala                                                 
   61.913 186%   0.154 Asp                                                 
  401.804  17%   1.000 Cr                                                  
    0.000 999%   0.000 PCr                                                 
   79.386  88%   0.198 GABA                                                
   39.372 178% 9.8E-02 Glc                                                 
    0.000 999%   0.000 Gln                                                 
  805.925  39%   2.006 Glu                                                 
    0.000 999%   0.000 GPC                                                 
  208.208  13%   0.518 PCh                                                 
   31.241 307% 7.8E-02 GSH                                                 
  397.019  76%   0.988 Ins                                                 
    0.000 999%   0.000 Lac                                                 
  568.206  18%   1.414 NAA                                                 
  381.732  28%   0.950 NAAG                                                
    0.000 999%   0.000 Scyllo                                              
    0.000 999%   0.000 Tau                                                 
  256.778  40%   0.639 -CrCH2                                              
  208.208  13%   0.518 GPC+PCh                                             
  949.938  10%   2.364 NAA+NAAG                                            
  401.804  17%   1.000 Cr+PCr                                              
  805.925  39%   2.006 Glu+Gln                                             
    0.000 999%   0.000 Lip13a                                              
 1.59E+03   9%   3.961 Lip13b                                              
  241.993  70%   0.602 Lip09                                               
   70.443 143%   0.175 MM09                                                
  413.528  34%   1.029 Lip20                                               
  181.426  94%   0.452 MM20                                                
   17.425 221% 4.3E-02 MM12                                                
    0.000 999%   0.000 MM14                                                
    0.000 999%   0.000 MM17                                                
 1.59E+03   9%   3.961 Lip13a+Lip13b                                       
 1.61E+03  10%   4.004 MM14+Lip13a+Lip13b+MM12                             
  312.436  56%   0.778 MM09+Lip09                                          
  594.954  36%   1.481 MM20+Lip20                                          
   6 lines in following misc. output table
  FWHM = 0.054 ppm    S/N =   2                                            
  Data shift = 0.015 ppm                                                   
  Ph:  23 deg      31.6 deg/ppm                                            
  alphaB,S = 8.5E+01,   6.9E+01                                            
   14 spline knots.   Ns = 5(1)                                            
  ( 7) 2 infls.   ( 5) 1 extrs.                                            
  498 points on ppm-axis = NY
      4.000000     3.992357     3.984714     3.977070     3.969427     3.961784     3.954141     3.946497     3.938854     3.931211
      3.923568     3.915925     3.908281     3.900638     3.892995     3.885352     3.877708     3.870065     3.862422     3.854779
      3.847136     3.839492     3.831849     3.824206     3.816563     3.808919     3.801276     3.793633     3.785990     3.778347
      3.770703     3.763060     3.755417     3.747774     3.740130     3.732487     3.724844     3.717201     3.709558     3.701914
      3.694271     3.686628     3.678985     3.671341     3.663698     3.656055     3.648412     3.640769     3.633125     3.625482
      3.617839     3.610196     3.602552     3.594909     3.587266     3.579623     3.571980     3.564336     3.556693     3.549050
      3.541407     3.533763     3.526120     3.518477     3.510834     3.503191     3.495547     3.487904     3.480261     3.472618
      3.464974     3.457331     3.449688     3.442045     3.434402     3.426758     3.419115     3.411472     3.403829     3.396185
      3.388542     3.380899     3.373256     3.365613     3.357969     3.350326     3.342683     3.335040     3.327396     3.319753
      3.312110     3.304467     3.296824     3.289180     3.281537     3.273894     3.266251     3.258607     3.250964     3.243321
      3.235678     3.228034     3.220391     3.212748     3.205105     3.197462     3.189818     3.182175     3.174532     3.166889
      3.159245     3.151602     3.143959     3.136316     3.128673     3.121029     3.113386     3.105743     3.098100     3.090456
      3.082813     3.075170     3.067527     3.059884     3.052240     3.044597     3.036954     3.029311     3.021667     3.014024
      3.006381     2.998738     2.991095     2.983451     2.975808     2.968165     2.960522     2.952878     2.945235     2.937592
      2.929949     2.922306     2.914662     2.907019     2.899376     2.891733     2.884089     2.876446     2.868803     2.861160
      2.853517     2.845873     2.838230     2.830587     2.822944     2.815300     2.807657     2.800014     2.792371     2.784728
      2.777084     2.769441     2.761798     2.754155     2.746511     2.738868     2.731225     2.723582     2.715939     2.708295
      2.700652     2.693009     2.685366     2.677722     2.670079     2.662436     2.654793     2.647150     2.639506     2.631863
      2.624220     2.616577     2.608933     2.601290     2.593647     2.586004     2.578361     2.570717     2.563074     2.555431
      2.547788     2.540144     2.532501     2.524858     2.517215     2.509572     2.501928     2.494285     2.486642     2.478999
      2.471355     2.463712     2.456069     2.448426     2.440783     2.433139     2.425496     2.417853     2.410210     2.402566
      2.394923     2.387280     2.379637     2.371994     2.364350     2.356707     2.349064     2.341421     2.333777     2.326134
      2.318491     2.310848     2.303205     2.295561     2.287918     2.280275     2.272632     2.264988     2.257345     2.249702
      2.242059     2.234416     2.226772     2.219129     2.211486     2.203843     2.196199     2.188556     2.180913     2.173270
      2.165627     2.157983     2.150340     2.142697     2.135054     2.127410     2.119767     2.112124     2.104481     2.096838
      2.089194     2.081551     2.073908     2.066265     2.058621     2.050978     2.043335     2.035692     2.028049     2.020405
      2.012762     2.005119     1.997476     1.989833     1.982190     1.974546     1.966903     1.959260     1.951617     1.943974
      1.936331     1.928688     1.921045     1.913402     1.905759     1.898115     1.890472     1.882829     1.875186     1.867543
      1.859900     1.852257     1.844614     1.836971     1.829327     1.821684     1.814041     1.806398     1.798755     1.791112
      1.783469     1.775826     1.768183     1.760540     1.752896     1.745253     1.737610     1.729967     1.722324     1.714681
      1.707038     1.699395     1.691752     1.684108     1.676465     1.668822     1.661179     1.653536     1.645893     1.638250
      1.630607     1.622964     1.615321     1.607677     1.600034     1.592391     1.584748     1.577105     1.569462     1.561819
      1.554176     1.546533     1.538890     1.531246     1.523603     1.515960     1.508317     1.500674     1.493031     1.485388
      1.477745     1.470102     1.462458     1.454815     1.447172     1.439529     1.431886     1.424243     1.416600     1.408957
      1.401314     1.393671     1.386027     1.378384     1.370741     1.363098     1.355455     1.347812     1.340169     1.332526
      1.324883     1.317240     1.309596     1.301953     1.294310     1.286667     1.279024     1.271381     1.263738     1.256095
      1.248452     1.240808     1.233165     1.225522     1.217879     1.210236     1.202593     1.194950     1.187307     1.179664
      1.172021     1.164377     1.156734     1.149091     1.141448     1.133805     1.126162     1.118519     1.110876     1.103233
      1.095590     1.087946     1.080303     1.072660     1.065017     1.057374     1.049731     1.042088     1.034445     1.026802
      1.019158     1.011515     1.003872     0.996229     0.988586     0.980943     0.973300     0.965657     0.958014     0.950371
      0.942727     0.935084     0.927441     0.919798     0.912155     0.904512     0.896869     0.889226     0.881583     0.873940
      0.866296     0.858653     0.851010     0.843367     0.835724     0.828081     0.820438     0.812795     0.805152     0.797508
      0.789865     0.782222     0.774579     0.766936     0.759293     0.751650     0.744007     0.736364     0.728721     0.721077
      0.713434     0.705791     0.698148     0.690505     0.682862     0.675219     0.667576     0.659933     0.652290     0.644646
      0.637003     0.629360     0.621717     0.614074     0.606431     0.598788     0.591145     0.583502     0.575858     0.568215
      0.560572     0.552929     0.545286     0.537643     0.530000     0.522357     0.514714     0.507071     0.499427     0.491784
      0.484141     0.476498     0.468855     0.461212     0.453569     0.445925     0.438282     0.430639     0.422996     0.415353
      0.407710     0.400067     0.392424     0.384780     0.377137     0.369494     0.361851     0.354208     0.346565     0.338922
      0.331278     0.323635     0.315992     0.308349     0.300706     0.293063     0.285420     0.277777     0.270133     0.262490
      0.254847     0.247204     0.239561     0.231918     0.224275     0.216631     0.208988     0.201345
 NY phased data points follow
  -3.26361E+00  4.17969E+00  3.97375E-01 -2.77298E-01  1.39781E+00  1.93212E+00  4.46659E+00  4.75185E+00 -8.22701E+00  7.17376E+00
  -1.71694E+00  1.06902E+01  1.16988E+00  1.19513E+01  3.66172E+00  1.18307E+01 -6.38110E+00  2.00756E+00  5.92382E+00 -2.48596E+00
   8.18250E+00  5.72163E+00  1.59318E+00  9.34431E-01  3.42410E+00  1.27466E+01 -7.70617E+00  6.85300E+00 -1.45721E+00  3.47347E+00
   1.44765E+00  2.32524E+00  1.03640E+00  8.90182E+00  6.10201E+00  6.38643E+00  2.02325E+00  1.26199E+00  4.91789E+00  1.32698E+01
   1.11113E+01  5.37962E+00  3.55238E+00  6.19114E+00  5.23637E-01  2.35439E+00  8.15655E+00  7.86205E+00  7.02101E+00  6.61558E+00
   1.44042E+01  1.04684E+01  7.36733E+00  1.04879E+01  6.42018E+00  7.99526E+00  7.60135E-01 -3.30196E+00 -3.54903E-01  7.43185E+00
   9.33231E-01  8.57111E+00 -7.25405E+00  4.86805E+00 -2.90156E+00 -3.62014E+00  5.98872E+00 -4.29679E+00 -3.50951E+00  7.17579E-01
  -1.57513E+00 -4.45737E+00 -8.24837E+00  1.15894E+00 -4.24220E+00  2.23190E+00  6.93822E+00 -1.15362E+00 -5.62929E+00 -2.38170E+00
   8.62709E-01 -2.41588E+00 -1.82545E+00  1.63535E+00 -8.84148E-01 -4.94247E-01  8.36473E-01  6.21792E-01 -4.99875E+00 -8.38525E+00
  -5.00109E+00 -1.77493E+00 -5.63717E+00 -1.78305E+00  7.08365E+00  1.25839E+01 -6.27651E+00  6.20825E+00 -3.14401E-01  1.02668E+01
   2.97024E+00  1.09974E+01  1.93799E+01  3.02149E+01  2.44452E+01  1.61713E+01  1.62140E+01  1.56285E+01  1.10592E+01 -4.31755E-01
   3.76534E+00  5.31975E+00  8.09825E-01  1.58344E+00  6.15507E+00  7.54422E-02 -9.92956E-01  1.07913E+00 -8.55718E-02  6.96133E+00
  -1.24384E+00 -4.35895E+00  2.07395E+00  2.04244E-01 -9.52415E+00  6.24943E+00  1.79049E+01  1.86550E+01  1.75223E+01  1.79960E+01
   1.27606E+01  1.22441E+01  1.26958E+01  4.09898E+00  8.75492E-01 -8.82064E-01 -8.34477E-01  1.47123E+00 -2.71275E+00 -6.33263E+00
  -5.16693E+00 -8.42308E-01 -2.61277E-01 -6.45529E-01  1.68812E+00 -4.58211E+00  9.79579E+00  2.42159E+00 -2.10281E+00 -2.41892E+00
  -1.99829E+00 -8.17179E+00  3.09717E+00 -1.45591E+00 -2.46894E+00 -4.08663E+00  2.58024E+00  6.27603E-01  7.25811E+00  4.72087E+00
   5.66082E+00  2.25615E+00 -3.90270E+00  1.81818E+00 -4.29847E-01  4.17497E+00 -1.13824E+01  6.49734E+00 -7.43728E+00 -3.71804E+00
  -1.90530E+00  8.31261E-01 -6.44736E+00 -7.47372E+00 -5.81989E+00 -2.27001E+00 -1.22621E+01 -5.45351E+00 -5.27563E+00 -3.05387E+00
  -8.83550E-01 -1.28472E+00 -9.85516E+00  2.23435E+00 -7.70671E+00 -7.42120E+00 -4.32823E+00 -2.04231E+00 -3.70893E+00 -3.37116E-01
   7.29365E-01 -5.93851E+00 -5.38475E+00 -1.43020E+00  1.20262E-01  1.36338E+00 -2.00320E+00 -1.31288E+00 -2.97634E+00  4.29680E+00
  -5.42003E+00 -5.11412E+00 -1.10951E+00  7.54633E+00  4.49610E+00  8.68497E+00  4.11799E+00 -1.47333E+00 -8.36960E+00 -6.09933E+00
  -2.43941E+00 -3.28048E+00  1.85847E+00  4.15474E+00  7.83040E+00  6.73916E-01  1.91644E+00 -4.82169E+00  9.88941E-01  5.85393E+00
  -6.58186E+00 -2.70803E+00 -5.29411E+00 -8.73563E+00 -3.51125E+00 -1.82383E+00 -3.70640E+00 -4.04638E+00  5.75600E+00  3.02843E+00
   1.98819E+00 -1.79830E+00 -2.93301E+00  4.70596E+00  3.01116E+00  8.00497E+00  4.87061E+00  6.59544E+00  3.59528E+00  1.61233E+00
  -5.27327E+00 -2.76935E+00 -4.69103E+00  2.53218E+00 -7.78509E+00 -5.64640E-01  7.56388E+00  9.54627E+00  6.02105E+00  8.45105E+00
  -4.69648E-01  1.52214E+00  1.07788E+01  1.45095E+01  1.19810E+01  8.93675E+00  1.03295E+01  9.10698E+00  1.62178E+01  2.83011E+01
   3.73287E+01  3.33149E+01  2.40661E+01  1.35668E+01  1.30402E+01  7.81543E+00  3.95208E-01  2.44216E-01 -7.73673E-01 -3.40008E+00
   1.18112E+00 -1.40776E+00  3.05527E+00 -1.95950E+00  8.47293E+00 -7.42019E+00  3.99586E+00 -1.16859E-01 -2.06675E+00  8.07318E+00
   4.80485E+00 -8.12124E-02  5.39656E+00 -7.60135E+00  4.59265E+00  3.68889E+00  1.18729E+01 -2.59603E+00  2.12369E+00  9.79020E+00
   3.08689E+00 -1.26611E-01  3.08780E+00  7.55656E+00 -2.61036E+00  2.33072E+00  7.46919E-01 -2.91718E-01 -2.72564E-01 -1.33656E-01
  -2.39703E+00  2.28773E+00  2.04992E-01  6.04692E+00 -6.00960E-01 -7.16718E-01 -2.62021E+00 -5.88735E+00 -2.40251E+00  6.25004E+00
  -1.00357E+01  3.14368E+00 -5.57874E+00 -9.75898E+00 -6.12217E+00 -1.21675E+00 -5.27970E+00 -5.44552E+00 -1.74531E-01 -1.20044E+01
  -9.58504E+00 -1.27735E+01 -2.40021E+01 -2.05945E+01 -9.76111E+00 -1.78769E+01 -2.03764E+01 -1.73584E+01 -1.75638E+01 -2.48113E+01
  -1.61826E+01 -1.34995E+01 -5.54390E+00 -9.00774E+00 -5.53140E+00 -1.22186E+01 -4.32923E+00 -6.42400E+00 -4.63784E+00 -3.26838E+00
  -4.85680E+00 -3.40208E+00 -1.19359E+01 -1.58826E+01 -1.07716E+01 -1.02333E+01 -1.45144E+01 -7.51946E+00 -1.52020E+01 -9.61057E+00
  -2.05895E+01 -9.31009E+00 -1.25869E+01  7.33198E-01  4.68292E+00  1.72685E+00  7.93533E+00  8.21756E+00  1.01798E+01  2.00460E+01
   1.34274E+01  1.83684E+01  1.92639E+01  1.47952E+01  1.23952E+01  1.13995E+01  1.12525E+01  1.10045E+01  4.81333E+00  3.41879E+00
  -1.01831E+00 -2.26162E+00 -4.84338E+00  3.07358E+00  5.90401E+00 -4.41900E+00  8.87135E-01 -3.10625E-01 -2.05508E+00 -2.33841E+00
  -8.68004E+00 -1.05536E+01 -1.60749E+01 -1.20081E+01 -1.90844E+01 -6.84483E+00 -1.23518E+01 -1.25571E+01 -9.58544E-01  1.08700E+01
  -2.77445E+00  1.66792E+00 -6.32904E+00 -3.59098E+00  3.40325E+00 -4.11540E+00 -1.72173E+00 -5.36916E+00 -5.61614E+00 -3.31027E+00
  -2.95525E+00 -4.52292E-01 -2.73315E+00 -5.82174E+00 -4.63542E+00 -9.66342E+00 -4.87181E-01 -7.11077E+00 -9.31433E+00 -1.97197E+00
  -6.53472E+00 -1.44152E+00 -2.52637E+00 -1.26270E+01 -7.66669E+00 -1.30247E+00 -1.31454E+01 -1.19822E+01 -7.62241E+00 -6.85046E+00
  -6.23406E+00 -7.64881E+00 -3.25305E+00  4.32235E+00 -5.37807E+00 -4.33038E+00 -8.86025E+00 -6.29133E+00 -1.62133E+00 -1.82071E+00
  -5.07181E+00 -5.35602E+00  1.19358E+00  2.32824E+00  4.22915E+00  4.75259E+00 -3.01265E+00  3.13784E+00 -8.08211E+00 -3.23832E+00
  -2.01287E+00 -5.32363E+00  2.95187E+00  8.41452E-01 -5.11629E-01  3.82345E+00  4.89854E-01 -3.84478E+00 -3.78503E+00 -2.05446E+00
   2.74704E+00  1.21263E+00  3.62362E+00 -5.43644E+00 -1.72229E+00 -7.14056E+00 -1.27855E+00 -1.87554E+00 -2.27883E+00 -6.59294E+00
   4.12847E+00  1.88143E+00 -7.02669E-01  2.50550E+00 -2.63644E+00 -4.73076E+00  1.33820E-01 -8.62900E+00 -5.22829E+00 -8.58835E+00
   3.61088E+00 -3.39338E+00 -8.33461E-01 -7.13281E+00 -1.10276E+00 -1.12632E+01 -1.75887E+00 -1.47667E+00  1.81625E+00  1.79100E+00
  -1.12219E+01 -5.87621E-01  7.49019E+00 -2.85691E+00 -1.18829E+01  8.89411E-02 -3.92702E+00 -4.41609E+00 -1.17051E+00 -1.86961E+00
  -4.97195E+00 -4.64583E+00 -9.06641E+00 -4.67714E+00 -3.53713E+00 -1.62299E+00 -3.95728E+00  4.96897E+00
 NY points of the fit to the data follow
   3.87565E+00  3.64030E+00  3.44081E+00  3.21901E+00  2.73954E+00  1.92283E+00  1.05840E+00  8.27963E-01  1.74732E+00  3.85581E+00
   6.50402E+00  8.71873E+00  9.87338E+00  9.95570E+00  9.21048E+00  7.78823E+00  5.87969E+00  4.13775E+00  3.17442E+00  3.04544E+00
   3.21953E+00  3.46002E+00  3.70822E+00  3.86441E+00  3.84537E+00  3.63001E+00  3.30672E+00  3.07843E+00  3.14862E+00  3.58214E+00
   4.26472E+00  4.98337E+00  5.51091E+00  5.63584E+00  5.23769E+00  4.43652E+00  3.55412E+00  2.85496E+00  2.44798E+00  2.35940E+00
   2.51306E+00  2.77804E+00  3.08326E+00  3.48766E+00  4.04590E+00  4.69188E+00  5.25329E+00  5.53123E+00  5.38073E+00  4.83201E+00
   4.05428E+00  3.24402E+00  2.52907E+00  2.01239E+00  1.81420E+00  1.94777E+00  2.27107E+00  2.64729E+00  2.99047E+00  3.24187E+00
   3.34344E+00  3.25139E+00  2.99397E+00  2.64993E+00  2.30382E+00  2.02891E+00  1.89009E+00  1.91656E+00  2.07198E+00  2.29861E+00
   2.52383E+00  2.68852E+00  2.75899E+00  2.73377E+00  2.64395E+00  2.52138E+00  2.38332E+00  2.24112E+00  2.10856E+00  2.00489E+00
   1.91855E+00  1.83068E+00  1.71846E+00  1.55386E+00  1.31274E+00  1.00027E+00  6.65176E-01  3.82394E-01  2.20388E-01  2.15758E-01
   3.65616E-01  6.41039E-01  9.98432E-01  1.36665E+00  1.66639E+00  1.85953E+00  1.97488E+00  2.15773E+00  2.92867E+00  5.18344E+00
   9.17256E+00  1.44070E+01  1.95039E+01  2.27705E+01  2.32376E+01  2.11186E+01  1.73136E+01  1.26705E+01  7.85929E+00  3.73072E+00
   1.23737E+00  4.81639E-01  3.25927E-01  2.85200E-01  2.74630E-01  2.65116E-01  2.45263E-01  2.15501E-01  1.82480E-01  1.62293E-01
   1.82631E-01  3.07792E-01  8.18680E-01  2.29470E+00  4.94524E+00  8.50380E+00  1.21065E+01  1.46178E+01  1.53224E+01  1.42733E+01
   1.19934E+01  9.02186E+00  5.78872E+00  2.84925E+00  8.80236E-01  8.80952E-02 -1.99409E-01 -3.11551E-01 -3.14282E-01 -2.52314E-01
  -1.63730E-01 -7.60380E-02 -6.00989E-03  4.25305E-02  5.95121E-02  4.24728E-02  6.55812E-03 -3.66718E-02 -8.33509E-02 -1.44987E-01
  -2.36270E-01 -3.54315E-01 -4.79200E-01 -5.72490E-01 -5.99052E-01 -5.64836E-01 -5.22838E-01 -5.40981E-01 -6.58094E-01 -8.55121E-01
  -1.05897E+00 -1.21277E+00 -1.29251E+00 -1.31825E+00 -1.34011E+00 -1.39888E+00 -1.50947E+00 -1.67905E+00 -1.87746E+00 -2.03847E+00
  -2.13528E+00 -2.20701E+00 -2.30819E+00 -2.47025E+00 -2.65147E+00 -2.78144E+00 -2.84705E+00 -2.88954E+00 -2.94298E+00 -3.00299E+00
  -3.03047E+00 -2.98880E+00 -2.90369E+00 -2.81341E+00 -2.70212E+00 -2.52529E+00 -2.26039E+00 -1.91619E+00 -1.55915E+00 -1.25341E+00
  -1.02834E+00 -8.87377E-01 -8.40778E-01 -9.02577E-01 -1.04842E+00 -1.21053E+00 -1.34767E+00 -1.44675E+00 -1.48385E+00 -1.43793E+00
  -1.32269E+00 -1.14103E+00 -9.17159E-01 -7.20364E-01 -6.60317E-01 -8.55047E-01 -1.31143E+00 -1.97237E+00 -2.75782E+00 -3.49730E+00
  -3.94382E+00 -3.78962E+00 -2.93384E+00 -1.52277E+00  3.29535E-02  1.21138E+00  1.57943E+00  9.21382E-01 -6.90878E-01 -2.96507E+00
  -5.40059E+00 -7.31930E+00 -8.12257E+00 -7.64118E+00 -6.31260E+00 -4.64822E+00 -3.02211E+00 -1.72972E+00 -1.01393E+00 -9.66968E-01
  -1.33562E+00 -1.70418E+00 -1.85057E+00 -1.78633E+00 -1.57076E+00 -1.32468E+00 -1.17986E+00 -1.26181E+00 -1.66183E+00 -2.30153E+00
  -2.99132E+00 -3.51921E+00 -3.71958E+00 -3.55673E+00 -3.14115E+00 -2.65930E+00 -2.29508E+00 -2.20133E+00 -2.43114E+00 -2.91117E+00
  -3.32570E+00 -2.92648E+00 -1.23087E+00  1.71954E+00  5.36016E+00  9.16605E+00  1.30400E+01  1.70316E+01  2.11451E+01  2.46565E+01
   2.63388E+01  2.55840E+01  2.30247E+01  1.96887E+01  1.57050E+01  1.11751E+01  6.88926E+00  3.91086E+00  2.35615E+00  1.39021E+00
   7.41246E-01  3.55855E-01  1.58303E-01  6.99998E-02  3.03985E-02 -3.14840E-02 -1.61093E-01 -3.71171E-01 -6.43684E-01 -9.45859E-01
  -1.23152E+00 -1.45698E+00 -1.61237E+00 -1.71702E+00 -1.79737E+00 -1.87137E+00 -1.95295E+00 -2.05065E+00 -2.16248E+00 -2.27105E+00
  -2.35850E+00 -2.42229E+00 -2.47091E+00 -2.51139E+00 -2.55570E+00 -2.61446E+00 -2.69319E+00 -2.79282E+00 -2.90346E+00 -3.00661E+00
  -3.09313E+00 -3.16417E+00 -3.22240E+00 -3.27088E+00 -3.31355E+00 -3.35666E+00 -3.40570E+00 -3.45961E+00 -3.51593E+00 -3.57379E+00
  -3.63194E+00 -3.69022E+00 -3.74873E+00 -3.80791E+00 -3.86781E+00 -3.92861E+00 -3.99013E+00 -4.05249E+00 -4.11554E+00 -4.17950E+00
  -4.24437E+00 -4.31060E+00 -4.37821E+00 -4.44753E+00 -4.51861E+00 -4.59191E+00 -4.66757E+00 -4.74603E+00 -4.82748E+00 -4.91246E+00
  -5.00134E+00 -5.09488E+00 -5.19356E+00 -5.29828E+00 -5.40981E+00 -5.52948E+00 -5.65856E+00 -5.79888E+00 -5.95219E+00 -6.12064E+00
  -6.30592E+00 -6.50922E+00 -6.72932E+00 -6.96120E+00 -7.19256E+00 -7.40074E+00 -7.54822E+00 -7.57991E+00 -7.42162E+00 -6.98376E+00
  -6.16978E+00 -4.89224E+00 -3.09280E+00 -7.65074E-01  2.02758E+00  5.14320E+00  8.36857E+00  1.14423E+01  1.40927E+01  1.60813E+01
   1.72435E+01  1.75144E+01  1.69359E+01  1.56426E+01  1.38318E+01  1.17252E+01  9.53360E+00  7.42884E+00  5.52992E+00  3.90084E+00
   2.55897E+00  1.48765E+00  6.50824E-01  4.45794E-03 -4.94382E-01 -8.83186E-01 -1.19156E+00 -1.44180E+00 -1.64954E+00 -1.82571E+00
  -1.97747E+00 -2.10974E+00 -2.22553E+00 -2.32701E+00 -2.41536E+00 -2.49157E+00 -2.55605E+00 -2.60922E+00 -2.65106E+00 -2.68171E+00
  -2.70103E+00 -2.70916E+00 -2.70605E+00 -2.69201E+00 -2.66721E+00 -2.63226E+00 -2.58778E+00 -2.53487E+00 -2.47465E+00 -2.40866E+00
  -2.33843E+00 -2.26593E+00 -2.19301E+00 -2.12186E+00 -2.05440E+00 -1.99268E+00 -1.93837E+00 -1.89317E+00 -1.85830E+00 -1.83487E+00
  -1.82338E+00 -1.82423E+00 -1.83720E+00 -1.86201E+00 -1.89788E+00 -1.94397E+00 -1.99903E+00 -2.06188E+00 -2.13108E+00 -2.20540E+00
  -2.28343E+00 -2.36402E+00 -2.44589E+00 -2.52812E+00 -2.60973E+00 -2.69010E+00 -2.76855E+00 -2.84469E+00 -2.91808E+00 -2.98859E+00
  -3.05600E+00 -3.12037E+00 -3.18162E+00 -3.23988E+00 -3.29513E+00 -3.34762E+00 -3.39740E+00 -3.44472E+00 -3.48962E+00 -3.53235E+00
  -3.57294E+00 -3.61165E+00 -3.64853E+00 -3.68380E+00 -3.71747E+00 -3.74972E+00 -3.78056E+00 -3.81021E+00 -3.83865E+00 -3.86606E+00
  -3.89238E+00 -3.91777E+00 -3.94221E+00 -3.96586E+00 -3.98867E+00 -4.01078E+00 -4.03210E+00 -4.05278E+00 -4.07278E+00 -4.09223E+00
  -4.11106E+00 -4.12938E+00 -4.14712E+00 -4.16439E+00 -4.18116E+00 -4.19752E+00 -4.21340E+00 -4.22890E+00 -4.24394E+00 -4.25865E+00
  -4.27296E+00 -4.28698E+00 -4.30061E+00 -4.31394E+00 -4.32691E+00 -4.33964E+00 -4.35205E+00 -4.36424E+00 -4.37611E+00 -4.38777E+00
  -4.39916E+00 -4.41038E+00 -4.42136E+00 -4.43219E+00 -4.44278E+00 -4.45324E+00 -4.46350E+00 -4.47369E+00 -4.48371E+00 -4.49367E+00
  -4.50348E+00 -4.51327E+00 -4.52298E+00 -4.53272E+00 -4.54242E+00 -4.55219E+00 -4.56198E+00 -4.57191E+00
 NY background values follow
     2.473E+00    2.453E+00    2.433E+00    2.413E+00    2.393E+00    2.372E+00    2.352E+00    2.332E+00    2.311E+00    2.291E+00
     2.270E+00    2.250E+00    2.229E+00    2.209E+00    2.188E+00    2.167E+00    2.146E+00    2.126E+00    2.105E+00    2.084E+00
     2.063E+00    2.042E+00    2.021E+00    2.000E+00    1.979E+00    1.957E+00    1.936E+00    1.915E+00    1.894E+00    1.872E+00
     1.851E+00    1.830E+00    1.808E+00    1.787E+00    1.765E+00    1.744E+00    1.722E+00    1.700E+00    1.679E+00    1.657E+00
     1.635E+00    1.613E+00    1.591E+00    1.570E+00    1.548E+00    1.526E+00    1.504E+00    1.482E+00    1.460E+00    1.438E+00
     1.416E+00    1.394E+00    1.371E+00    1.349E+00    1.327E+00    1.305E+00    1.282E+00    1.260E+00    1.238E+00    1.215E+00
     1.193E+00    1.171E+00    1.148E+00    1.126E+00    1.103E+00    1.081E+00    1.058E+00    1.035E+00    1.013E+00    9.902E-01
     9.676E-01    9.449E-01    9.222E-01    8.995E-01    8.767E-01    8.540E-01    8.312E-01    8.084E-01    7.855E-01    7.627E-01
     7.398E-01    7.169E-01    6.940E-01    6.711E-01    6.481E-01    6.252E-01    6.022E-01    5.792E-01    5.562E-01    5.332E-01
     5.101E-01    4.870E-01    4.640E-01    4.409E-01    4.178E-01    3.946E-01    3.715E-01    3.484E-01    3.252E-01    3.020E-01
     2.788E-01    2.556E-01    2.324E-01    2.092E-01    1.860E-01    1.628E-01    1.395E-01    1.163E-01    9.300E-02    6.973E-02
     4.645E-02    2.317E-02   -1.239E-04   -2.342E-02   -4.673E-02   -7.004E-02   -9.335E-02   -1.167E-01   -1.400E-01   -1.633E-01
    -1.866E-01   -2.100E-01   -2.333E-01   -2.567E-01   -2.800E-01   -3.033E-01   -3.267E-01   -3.500E-01   -3.734E-01   -3.967E-01
    -4.201E-01   -4.434E-01   -4.667E-01   -4.901E-01   -5.134E-01   -5.367E-01   -5.601E-01   -5.834E-01   -6.067E-01   -6.300E-01
    -6.533E-01   -6.766E-01   -6.999E-01   -7.232E-01   -7.465E-01   -7.698E-01   -7.931E-01   -8.163E-01   -8.396E-01   -8.628E-01
    -8.861E-01   -9.093E-01   -9.325E-01   -9.557E-01   -9.789E-01   -1.002E+00   -1.025E+00   -1.048E+00   -1.072E+00   -1.095E+00
    -1.118E+00   -1.141E+00   -1.164E+00   -1.187E+00   -1.210E+00   -1.233E+00   -1.256E+00   -1.279E+00   -1.302E+00   -1.325E+00
    -1.348E+00   -1.371E+00   -1.394E+00   -1.417E+00   -1.440E+00   -1.463E+00   -1.486E+00   -1.509E+00   -1.531E+00   -1.554E+00
    -1.577E+00   -1.600E+00   -1.622E+00   -1.645E+00   -1.668E+00   -1.691E+00   -1.713E+00   -1.736E+00   -1.758E+00   -1.781E+00
    -1.803E+00   -1.826E+00   -1.848E+00   -1.871E+00   -1.893E+00   -1.916E+00   -1.938E+00   -1.960E+00   -1.983E+00   -2.005E+00
    -2.027E+00   -2.050E+00   -2.072E+00   -2.094E+00   -2.116E+00   -2.138E+00   -2.160E+00   -2.182E+00   -2.204E+00   -2.226E+00
    -2.248E+00   -2.270E+00   -2.292E+00   -2.314E+00   -2.336E+00   -2.357E+00   -2.379E+00   -2.401E+00   -2.423E+00   -2.444E+00
    -2.466E+00   -2.487E+00   -2.509E+00   -2.530E+00   -2.552E+00   -2.573E+00   -2.594E+00   -2.616E+00   -2.637E+00   -2.658E+00
    -2.679E+00   -2.701E+00   -2.722E+00   -2.743E+00   -2.764E+00   -2.785E+00   -2.806E+00   -2.826E+00   -2.847E+00   -2.868E+00
    -2.889E+00   -2.910E+00   -2.930E+00   -2.951E+00   -2.971E+00   -2.992E+00   -3.012E+00   -3.033E+00   -3.053E+00   -3.073E+00
    -3.094E+00   -3.114E+00   -3.134E+00   -3.154E+00   -3.174E+00   -3.194E+00   -3.214E+00   -3.234E+00   -3.254E+00   -3.274E+00
    -3.294E+00   -3.313E+00   -3.333E+00   -3.353E+00   -3.372E+00   -3.392E+00   -3.411E+00   -3.430E+00   -3.450E+00   -3.469E+00
    -3.488E+00   -3.507E+00   -3.526E+00   -3.545E+00   -3.564E+00   -3.583E+00   -3.602E+00   -3.621E+00   -3.640E+00   -3.658E+00
    -3.677E+00   -3.695E+00   -3.714E+00   -3.732E+00   -3.751E+00   -3.769E+00   -3.787E+00   -3.805E+00   -3.823E+00   -3.841E+00
    -3.859E+00   -3.877E+00   -3.895E+00   -3.913E+00   -3.931E+00   -3.948E+00   -3.966E+00   -3.983E+00   -4.001E+00   -4.018E+00
    -4.036E+00   -4.053E+00   -4.070E+00   -4.087E+00   -4.104E+00   -4.121E+00   -4.138E+00   -4.155E+00   -4.172E+00   -4.188E+00
    -4.205E+00   -4.221E+00   -4.238E+00   -4.254E+00   -4.271E+00   -4.287E+00   -4.303E+00   -4.319E+00   -4.335E+00   -4.351E+00
    -4.367E+00   -4.383E+00   -4.398E+00   -4.414E+00   -4.430E+00   -4.445E+00   -4.461E+00   -4.476E+00   -4.491E+00   -4.506E+00
    -4.521E+00   -4.536E+00   -4.551E+00   -4.566E+00   -4.581E+00   -4.596E+00   -4.610E+00   -4.625E+00   -4.639E+00   -4.654E+00
    -4.668E+00   -4.682E+00   -4.696E+00   -4.710E+00   -4.724E+00   -4.738E+00   -4.752E+00   -4.766E+00   -4.779E+00   -4.793E+00
    -4.806E+00   -4.820E+00   -4.833E+00   -4.846E+00   -4.859E+00   -4.872E+00   -4.885E+00   -4.898E+00   -4.911E+00   -4.924E+00
    -4.936E+00   -4.949E+00   -4.961E+00   -4.974E+00   -4.986E+00   -4.998E+00   -5.010E+00   -5.022E+00   -5.034E+00   -5.046E+00
    -5.057E+00   -5.069E+00   -5.080E+00   -5.092E+00   -5.103E+00   -5.114E+00   -5.125E+00   -5.136E+00   -5.147E+00   -5.158E+00
    -5.169E+00   -5.180E+00   -5.190E+00   -5.201E+00   -5.211E+00   -5.221E+00   -5.232E+00   -5.242E+00   -5.252E+00   -5.262E+00
    -5.271E+00   -5.281E+00   -5.291E+00   -5.300E+00   -5.310E+00   -5.319E+00   -5.328E+00   -5.337E+00   -5.346E+00   -5.355E+00
    -5.364E+00   -5.373E+00   -5.381E+00   -5.390E+00   -5.398E+00   -5.406E+00   -5.415E+00   -5.423E+00   -5.431E+00   -5.439E+00
    -5.446E+00   -5.454E+00   -5.462E+00   -5.469E+00   -5.477E+00   -5.484E+00   -5.491E+00   -5.498E+00   -5.505E+00   -5.512E+00
    -5.519E+00   -5.525E+00   -5.532E+00   -5.538E+00   -5.545E+00   -5.551E+00   -5.557E+00   -5.563E+00   -5.569E+00   -5.575E+00
    -5.580E+00   -5.586E+00   -5.591E+00   -5.597E+00   -5.602E+00   -5.607E+00   -5.612E+00   -5.617E+00   -5.622E+00   -5.627E+00
    -5.631E+00   -5.636E+00   -5.640E+00   -5.644E+00   -5.648E+00   -5.652E+00   -5.656E+00   -5.660E+00   -5.664E+00   -5.668E+00
    -5.671E+00   -5.674E+00   -5.678E+00   -5.681E+00   -5.684E+00   -5.687E+00   -5.689E+00   -5.692E+00   -5.695E+00   -5.697E+00
    -5.700E+00   -5.702E+00   -5.704E+00   -5.706E+00   -5.708E+00   -5.709E+00   -5.711E+00   -5.713E+00   -5.714E+00   -5.715E+00
    -5.717E+00   -5.718E+00   -5.719E+00   -5.719E+00   -5.720E+00   -5.721E+00   -5.721E+00   -5.722E+00   -5.722E+00   -5.722E+00
    -5.722E+00   -5.722E+00   -5.722E+00   -5.721E+00   -5.721E+00   -5.720E+00   -5.719E+00   -5.719E+00   -5.718E+00   -5.717E+00
    -5.715E+00   -5.714E+00   -5.713E+00   -5.711E+00   -5.709E+00   -5.708E+00   -5.706E+00   -5.704E+00
 Asp      Conc. = 6.19E+01
