 LCModel (Version 6.3-1L) Copyright: S.W. Provencher.          Ref.: Magn. Reson. Med. 30:672-679 (1993).                
 Slice#3 Row#9 Col#8  PD_24_press_1_raw_act
 36 lines in following concentration table = NCONC+1
    Conc.  %SD /Cr+PCr  Metabolite                                         
    0.000 999%   0.000 Ala                                                 
  100.060 227% 5.6E-02 Asp                                                 
  811.700  24%   0.455 Cr                                                  
  970.968  20%   0.545 PCr                                                 
    0.000 999%   0.000 GABA                                                
    0.000 999%   0.000 Glc                                                 
  322.237  61%   0.181 Gln                                                 
 1.59E+03  14%   0.892 Glu                                                 
  661.573   3%   0.371 GPC                                                 
    0.000 999%   0.000 PCh                                                 
  543.874  13%   0.305 GSH                                                 
 1.00E+03  23%   0.563 Ins                                                 
  244.259  43%   0.137 Lac                                                 
 1.92E+03   5%   1.075 NAA                                                 
  168.990  62% 9.5E-02 NAAG                                                
   27.950  92% 1.6E-02 Scyllo                                              
    0.000 999%   0.000 Tau                                                 
    0.000 999%   0.000 -CrCH2                                              
  661.573   3%   0.371 GPC+PCh                                             
 2.08E+03   4%   1.170 NAA+NAAG                                            
 1.78E+03   3%   1.000 Cr+PCr                                              
 1.91E+03  16%   1.072 Glu+Gln                                             
 1.98E+03  29%   1.108 Lip13a                                              
    0.000 999%   0.000 Lip13b                                              
  376.222  75%   0.211 Lip09                                               
 1.15E+03  26%   0.644 MM09                                                
  416.456  48%   0.234 Lip20                                               
 2.22E+03  19%   1.247 MM20                                                
  444.245  45%   0.249 MM12                                                
  156.825 224% 8.8E-02 MM14                                                
 1.01E+03  24%   0.568 MM17                                                
 1.98E+03  29%   1.108 Lip13a+Lip13b                                       
 2.58E+03  20%   1.446 MM14+Lip13a+Lip13b+MM12                             
 1.52E+03  15%   0.855 MM09+Lip09                                          
 2.64E+03  15%   1.480 MM20+Lip20                                          
   6 lines in following misc. output table
  FWHM = 0.046 ppm    S/N =  11                                            
  Data shift = 0.015 ppm                                                   
  Ph: -10 deg      -3.3 deg/ppm                                            
  alphaB,S = 9.3E-01,   9.5E+01                                            
   14 spline knots.   Ns = 6(1)                                            
  ( 9) 2 infls.   ( 5) 1 extrs.                                            
  498 points on ppm-axis = NY
      4.000000     3.992357     3.984714     3.977070     3.969427     3.961784     3.954141     3.946497     3.938854     3.931211
      3.923568     3.915925     3.908281     3.900638     3.892995     3.885352     3.877708     3.870065     3.862422     3.854779
      3.847136     3.839492     3.831849     3.824206     3.816563     3.808919     3.801276     3.793633     3.785990     3.778347
      3.770703     3.763060     3.755417     3.747774     3.740130     3.732487     3.724844     3.717201     3.709558     3.701914
      3.694271     3.686628     3.678985     3.671341     3.663698     3.656055     3.648412     3.640769     3.633125     3.625482
      3.617839     3.610196     3.602552     3.594909     3.587266     3.579623     3.571980     3.564336     3.556693     3.549050
      3.541407     3.533763     3.526120     3.518477     3.510834     3.503191     3.495547     3.487904     3.480261     3.472618
      3.464974     3.457331     3.449688     3.442045     3.434402     3.426758     3.419115     3.411472     3.403829     3.396185
      3.388542     3.380899     3.373256     3.365613     3.357969     3.350326     3.342683     3.335040     3.327396     3.319753
      3.312110     3.304467     3.296824     3.289180     3.281537     3.273894     3.266251     3.258607     3.250964     3.243321
      3.235678     3.228034     3.220391     3.212748     3.205105     3.197462     3.189818     3.182175     3.174532     3.166889
      3.159245     3.151602     3.143959     3.136316     3.128673     3.121029     3.113386     3.105743     3.098100     3.090456
      3.082813     3.075170     3.067527     3.059884     3.052240     3.044597     3.036954     3.029311     3.021667     3.014024
      3.006381     2.998738     2.991095     2.983451     2.975808     2.968165     2.960522     2.952878     2.945235     2.937592
      2.929949     2.922306     2.914662     2.907019     2.899376     2.891733     2.884089     2.876446     2.868803     2.861160
      2.853517     2.845873     2.838230     2.830587     2.822944     2.815300     2.807657     2.800014     2.792371     2.784728
      2.777084     2.769441     2.761798     2.754155     2.746511     2.738868     2.731225     2.723582     2.715939     2.708295
      2.700652     2.693009     2.685366     2.677722     2.670079     2.662436     2.654793     2.647150     2.639506     2.631863
      2.624220     2.616577     2.608933     2.601290     2.593647     2.586004     2.578361     2.570717     2.563074     2.555431
      2.547788     2.540144     2.532501     2.524858     2.517215     2.509572     2.501928     2.494285     2.486642     2.478999
      2.471355     2.463712     2.456069     2.448426     2.440783     2.433139     2.425496     2.417853     2.410210     2.402566
      2.394923     2.387280     2.379637     2.371994     2.364350     2.356707     2.349064     2.341421     2.333777     2.326134
      2.318491     2.310848     2.303205     2.295561     2.287918     2.280275     2.272632     2.264988     2.257345     2.249702
      2.242059     2.234416     2.226772     2.219129     2.211486     2.203843     2.196199     2.188556     2.180913     2.173270
      2.165627     2.157983     2.150340     2.142697     2.135054     2.127410     2.119767     2.112124     2.104481     2.096838
      2.089194     2.081551     2.073908     2.066265     2.058621     2.050978     2.043335     2.035692     2.028049     2.020405
      2.012762     2.005119     1.997476     1.989833     1.982190     1.974546     1.966903     1.959260     1.951617     1.943974
      1.936331     1.928688     1.921045     1.913402     1.905759     1.898115     1.890472     1.882829     1.875186     1.867543
      1.859900     1.852257     1.844614     1.836971     1.829327     1.821684     1.814041     1.806398     1.798755     1.791112
      1.783469     1.775826     1.768183     1.760540     1.752896     1.745253     1.737610     1.729967     1.722324     1.714681
      1.707038     1.699395     1.691752     1.684108     1.676465     1.668822     1.661179     1.653536     1.645893     1.638250
      1.630607     1.622964     1.615321     1.607677     1.600034     1.592391     1.584748     1.577105     1.569462     1.561819
      1.554176     1.546533     1.538890     1.531246     1.523603     1.515960     1.508317     1.500674     1.493031     1.485388
      1.477745     1.470102     1.462458     1.454815     1.447172     1.439529     1.431886     1.424243     1.416600     1.408957
      1.401314     1.393671     1.386027     1.378384     1.370741     1.363098     1.355455     1.347812     1.340169     1.332526
      1.324883     1.317240     1.309596     1.301953     1.294310     1.286667     1.279024     1.271381     1.263738     1.256095
      1.248452     1.240808     1.233165     1.225522     1.217879     1.210236     1.202593     1.194950     1.187307     1.179664
      1.172021     1.164377     1.156734     1.149091     1.141448     1.133805     1.126162     1.118519     1.110876     1.103233
      1.095590     1.087946     1.080303     1.072660     1.065017     1.057374     1.049731     1.042088     1.034445     1.026802
      1.019158     1.011515     1.003872     0.996229     0.988586     0.980943     0.973300     0.965657     0.958014     0.950371
      0.942727     0.935084     0.927441     0.919798     0.912155     0.904512     0.896869     0.889226     0.881583     0.873940
      0.866296     0.858653     0.851010     0.843367     0.835724     0.828081     0.820438     0.812795     0.805152     0.797508
      0.789865     0.782222     0.774579     0.766936     0.759293     0.751650     0.744007     0.736364     0.728721     0.721077
      0.713434     0.705791     0.698148     0.690505     0.682862     0.675219     0.667576     0.659933     0.652290     0.644646
      0.637003     0.629360     0.621717     0.614074     0.606431     0.598788     0.591145     0.583502     0.575858     0.568215
      0.560572     0.552929     0.545286     0.537643     0.530000     0.522357     0.514714     0.507071     0.499427     0.491784
      0.484141     0.476498     0.468855     0.461212     0.453569     0.445925     0.438282     0.430639     0.422996     0.415353
      0.407710     0.400067     0.392424     0.384780     0.377137     0.369494     0.361851     0.354208     0.346565     0.338922
      0.331278     0.323635     0.315992     0.308349     0.300706     0.293063     0.285420     0.277777     0.270133     0.262490
      0.254847     0.247204     0.239561     0.231918     0.224275     0.216631     0.208988     0.201345
 NY phased data points follow
   5.51143E+01  4.84908E+01  4.95340E+01  4.89020E+01  5.40750E+01  6.26904E+01  6.99243E+01  7.03775E+01  8.42665E+01  8.66395E+01
   9.66535E+01  8.69679E+01  9.01820E+01  8.04632E+01  8.27224E+01  7.12116E+01  6.29887E+01  5.37197E+01  5.30657E+01  4.39155E+01
   4.45038E+01  4.46441E+01  4.71353E+01  3.53719E+01  4.75997E+01  4.53479E+01  4.43412E+01  4.32761E+01  5.00549E+01  4.90702E+01
   5.73038E+01  4.81401E+01  5.27668E+01  5.17021E+01  5.66888E+01  4.71071E+01  4.45042E+01  3.81770E+01  4.15708E+01  3.51539E+01
   4.25068E+01  3.60520E+01  3.48004E+01  3.64317E+01  4.23990E+01  4.29836E+01  4.49230E+01  4.31632E+01  4.99091E+01  4.54705E+01
   4.06546E+01  3.89467E+01  3.14581E+01  2.82591E+01  3.44782E+01  3.12229E+01  3.47061E+01  3.08336E+01  3.24970E+01  3.66621E+01
   3.49199E+01  2.62286E+01  2.54966E+01  2.76061E+01  2.25898E+01  1.98886E+01  1.76340E+01  1.58810E+01  1.57055E+01  1.58023E+01
   1.69895E+01  2.10236E+01  2.16288E+01  2.25230E+01  2.16583E+01  2.42651E+01  2.07766E+01  2.31314E+01  1.96554E+01  1.22468E+01
   1.55938E+01  1.65360E+01  1.88831E+01  1.70652E+01  1.99836E+01  1.93693E+01  2.05706E+01  1.83409E+01  1.96300E+01  1.46679E+01
   1.44670E+01  1.58393E+01  1.84923E+01  9.35958E+00  1.78125E+01  1.40159E+01  1.67684E+01  1.50008E+01  1.97883E+01  2.46972E+01
   4.27121E+01  6.40770E+01  7.98287E+01  8.38207E+01  8.40528E+01  7.12733E+01  6.11186E+01  4.66999E+01  3.16557E+01  2.54812E+01
   2.86410E+01  1.92053E+01  1.61082E+01  1.90669E+01  1.38997E+01  1.09430E+01  1.50860E+01  9.19663E+00  1.63868E+01  1.15452E+01
   1.20131E+01  1.57076E+01  1.61782E+01  1.80107E+01  3.18239E+01  5.48840E+01  6.51981E+01  6.92855E+01  7.17216E+01  6.48337E+01
   5.56041E+01  4.23972E+01  3.18420E+01  2.49136E+01  2.59061E+01  1.79991E+01  1.54704E+01  6.60361E+00  9.73761E+00  1.25008E+01
   1.40534E+01  1.06208E+01  9.04102E+00  9.94252E+00  1.00317E+01  1.42109E+01  1.10984E+01  8.16639E+00  9.55089E+00  8.57251E+00
   7.99325E+00  9.32593E+00  3.40893E+00  5.88062E+00  7.38844E+00  5.24177E+00  3.67975E+00  7.18611E+00  1.75974E+00  8.09696E-01
   3.92434E+00  4.11165E+00  1.89393E+00 -1.29153E+00  9.23146E+00  6.83172E+00  1.12503E+01  5.05221E+00  7.87409E+00  6.60969E+00
   1.86783E+00  5.09767E-01 -2.69099E+00  3.53387E+00 -6.40121E+00  2.66364E-02 -4.90115E+00 -6.69739E+00 -3.52307E+00  1.83836E+00
   2.24802E+00 -6.50323E+00 -5.77306E+00 -4.33759E+00 -4.45456E+00 -7.41452E+00 -3.57573E+00  3.63965E+00 -8.64476E-01  3.32349E+00
   1.46742E+01  9.58131E+00  8.30457E+00  1.25391E+01  9.09995E+00  9.49374E+00  6.67019E+00  4.91709E+00  4.36861E+00  2.67205E+00
   5.74265E+00  3.14870E+00  2.61648E+00  2.34213E+00  5.63330E+00 -1.95861E-01  2.37938E+00 -3.19140E+00  2.51044E+00 -5.18773E+00
  -1.44716E+00 -1.88898E+00  5.08310E+00  3.59985E+00  1.36281E+01  1.17905E+01  1.91371E+01  1.45905E+01  8.37492E+00  5.92803E+00
  -2.40778E+00 -3.36188E+00 -4.39999E+00 -9.77333E-01  3.62117E+00  8.61094E-01  7.68032E+00  7.81843E+00  1.02874E+01  9.49591E+00
   6.33027E+00  7.84632E+00  7.18979E+00  4.31116E+00  6.24131E+00  7.99877E+00  9.04409E+00  6.60539E+00  8.05960E+00  7.56984E+00
   6.24969E+00  3.80386E+00 -2.91055E+00  5.61168E+00  7.29380E+00  4.97253E+00  7.35255E+00  6.29986E+00  1.26003E+01  1.11488E+01
   1.45015E+01  8.35091E+00  1.61113E+01  8.95366E+00  2.16987E+01  2.04962E+01  2.89197E+01  4.16458E+01  6.25626E+01  7.99187E+01
   8.40206E+01  7.79243E+01  6.59550E+01  4.82137E+01  3.95571E+01  2.63990E+01  1.97641E+01  1.68446E+01  1.26534E+01  8.06036E+00
   3.77906E+00  5.54685E+00  4.97468E+00 -2.56961E+00  2.94601E+00  6.40323E+00  2.21188E+00  6.22063E-01  3.11204E+00 -2.29064E+00
   1.76161E+00  1.99652E+00  1.59565E+00 -3.01767E-01 -7.17915E-01 -2.22599E+00  2.39090E+00  3.41798E+00  3.59511E+00  8.88723E-01
   1.75947E+00 -3.69902E+00  3.16130E+00 -8.12691E-01 -4.19285E+00 -2.67715E+00  3.54952E+00  3.65649E+00  2.41464E+00  2.33916E+00
  -5.31078E-01  3.16112E+00  3.60272E+00 -1.83409E+00  8.45949E-01  5.14037E+00  6.89463E+00  5.39077E+00  4.96809E+00  4.64779E+00
   7.84410E+00  8.11129E+00  1.22209E+01  5.58539E+00  1.19631E+01  5.25296E+00  8.51342E+00  6.66676E+00  6.61473E+00  3.87767E+00
   8.46896E+00  2.98344E+00  3.34939E+00  5.99649E+00  1.10012E+00  4.58888E+00  6.59176E-02 -4.34181E-01  6.24355E-01  6.76209E+00
  -2.10463E+00  1.18563E+00  1.28296E+00  2.72466E+00  7.95114E+00  4.75515E+00  5.56282E+00  3.95823E+00  6.12253E+00 -1.63379E+00
   7.57622E-01  2.77898E+00  5.66582E+00  9.49125E+00  6.62555E+00  6.10970E+00  4.25340E+00  9.09526E+00  6.07022E+00  3.66141E-01
   4.63933E+00  2.75836E+00  4.79859E+00  2.40122E+00  7.16107E+00  1.22647E+01  8.37742E+00  6.53451E+00  7.98975E+00  1.26037E+01
   9.64755E+00  1.37644E+01  8.47134E+00  7.23453E+00  1.05117E+01  1.38637E+00  5.18628E+00  9.49860E+00  1.22152E+01  1.22257E+01
   1.27583E+01  5.80375E+00  7.85215E+00  9.12724E+00  1.09048E+01  7.63453E+00  8.48688E+00  4.92696E+00  4.24158E+00  6.29574E+00
   2.39170E+00  3.78432E+00  2.06476E+00  5.56122E-01  2.95996E+00  8.00611E+00  1.30759E+00  4.28066E-01  2.83460E+00  2.27169E+00
   3.42987E+00 -5.27665E-01  7.29718E+00 -1.29965E+00  5.97001E+00  5.22701E+00  6.29881E+00  7.21074E+00  1.37629E+01  4.23890E+00
   1.23576E+01  7.30917E+00  1.40183E+01  8.77847E+00  1.16966E+01  1.22263E+01  1.17565E+01  1.52980E+01  9.52426E+00  1.07746E+01
   1.11363E+01  8.56134E+00  1.06780E+01  1.19205E+01  5.61584E+00  6.97857E+00  9.56978E+00  8.22375E+00  6.21894E+00  6.94235E+00
   6.71992E+00  3.93325E+00  6.14796E+00  1.00951E+01  3.23644E+00  4.36935E+00  6.27910E+00  4.27682E+00  4.16610E+00 -3.16862E-01
   1.83577E+00  1.42963E+00  7.22833E+00  4.19219E+00  3.97097E+00  4.85827E+00  3.17613E+00 -1.09222E+00  4.95542E+00  4.95068E+00
   1.61309E+00  1.81383E+00  1.74770E+00  3.62919E+00  4.10868E-01  4.82685E+00 -1.33270E+00 -3.72331E-01  1.20212E+00 -2.50554E-01
   1.13488E+00 -1.72476E+00  3.69328E+00 -1.79311E+00  8.47328E+00  8.08608E-01 -1.76849E+00 -1.41756E+00  5.83099E+00 -3.29247E+00
   1.92155E+00  5.90711E-01  3.60605E+00  2.33197E+00  3.94659E+00  1.32501E+00  5.62265E+00  6.88818E+00  2.59695E+00  4.66156E+00
   2.23237E+00 -1.85650E+00  1.29373E+00  7.94938E-01  2.67747E+00  3.51647E+00  3.63919E+00  6.07137E-01  7.29510E+00  1.28271E+00
   2.13854E+00  3.82362E+00  2.71546E+00  1.43513E+00 -3.41687E+00 -2.01512E+00 -8.69149E-01 -2.85375E-01  1.14734E+00  4.79265E+00
   1.47295E+00  1.43873E+00  2.12191E+00 -1.81496E-01 -5.30162E-01 -9.23735E-01  3.52187E+00 -3.91444E+00
 NY points of the fit to the data follow
   5.06283E+01  5.00919E+01  4.99968E+01  5.04539E+01  5.20168E+01  5.54077E+01  6.12377E+01  6.90032E+01  7.72677E+01  8.42509E+01
   8.81788E+01  8.80274E+01  8.41815E+01  7.80025E+01  7.11289E+01  6.46516E+01  5.88317E+01  5.41635E+01  5.10080E+01  4.84561E+01
   4.68042E+01  4.57941E+01  4.48592E+01  4.38377E+01  4.27372E+01  4.18510E+01  4.18645E+01  4.35686E+01  4.68971E+01  5.07827E+01
   5.39114E+01  5.54178E+01  5.49169E+01  5.25236E+01  4.89752E+01  4.53460E+01  4.22370E+01  3.97331E+01  3.79843E+01  3.73127E+01
   3.72504E+01  3.74618E+01  3.78728E+01  3.87327E+01  4.01162E+01  4.17359E+01  4.30008E+01  4.33055E+01  4.25869E+01  4.09951E+01
   3.87657E+01  3.64212E+01  3.44579E+01  3.28836E+01  3.15988E+01  3.07581E+01  3.04996E+01  3.06524E+01  3.09358E+01  3.11030E+01
   3.09016E+01  3.02347E+01  2.91636E+01  2.79093E+01  2.67670E+01  2.59312E+01  2.54128E+01  2.51644E+01  2.51624E+01  2.52981E+01
   2.54579E+01  2.54810E+01  2.52869E+01  2.48883E+01  2.43407E+01  2.37304E+01  2.31388E+01  2.26101E+01  2.21476E+01  2.17045E+01
   2.13345E+01  2.10639E+01  2.08885E+01  2.07272E+01  2.03888E+01  1.97171E+01  1.87445E+01  1.76784E+01  1.67652E+01  1.61747E+01
   1.59674E+01  1.60920E+01  1.63906E+01  1.66823E+01  1.68994E+01  1.69743E+01  1.69870E+01  1.77498E+01  2.10818E+01  2.95071E+01
   4.45613E+01  6.30864E+01  7.84891E+01  8.56292E+01  8.33887E+01  7.38567E+01  6.06458E+01  4.72713E+01  3.62829E+01  2.81648E+01
   2.13122E+01  1.62185E+01  1.44867E+01  1.38453E+01  1.34639E+01  1.31873E+01  1.29625E+01  1.27634E+01  1.26001E+01  1.25333E+01
   1.27321E+01  1.38009E+01  1.71004E+01  2.45566E+01  3.75296E+01  5.38395E+01  6.81148E+01  7.56683E+01  7.50916E+01  6.78965E+01
   5.71643E+01  4.59038E+01  3.61175E+01  2.81836E+01  2.09523E+01  1.46758E+01  1.12443E+01  9.62327E+00  9.09197E+00  9.39363E+00
   1.01137E+01  1.07977E+01  1.12559E+01  1.14158E+01  1.12123E+01  1.07621E+01  1.02041E+01  9.59544E+00  9.01980E+00  8.45671E+00
   7.93763E+00  7.47378E+00  7.04997E+00  6.70354E+00  6.47696E+00  6.33443E+00  6.15160E+00  5.77837E+00  5.18232E+00  4.52523E+00
   4.06186E+00  3.96822E+00  4.18276E+00  4.43654E+00  4.48022E+00  4.23233E+00  3.74117E+00  3.17356E+00  2.68330E+00  2.25314E+00
   1.85912E+00  1.41025E+00  8.15063E-01  1.88187E-01 -3.17242E-01 -5.55512E-01 -5.30014E-01 -4.39017E-01 -4.65089E-01 -6.06571E-01
  -7.54931E-01 -8.62204E-01 -9.52580E-01 -1.08349E+00 -1.26549E+00 -1.27009E+00 -7.50270E-01  3.90388E-01  2.02618E+00  3.75040E+00
   5.14551E+00  5.93089E+00  6.02515E+00  5.55228E+00  4.59952E+00  3.26264E+00  1.96749E+00  1.20427E+00  1.18459E+00  1.90156E+00
   3.21767E+00  4.83482E+00  6.29866E+00  7.18608E+00  7.23318E+00  6.47579E+00  4.89542E+00  2.73077E+00  5.83095E-01 -1.03916E+00
  -1.74582E+00 -1.15675E+00  9.69930E-01  4.27662E+00  7.75237E+00  1.01623E+01  1.07106E+01  9.28763E+00  6.00679E+00  1.59694E+00
  -2.76185E+00 -5.86152E+00 -6.88363E+00 -5.89917E+00 -3.31524E+00  1.10774E-01  3.29714E+00  5.58818E+00  6.72535E+00  6.91130E+00
   6.51615E+00  5.85547E+00  5.39648E+00  5.60313E+00  6.48077E+00  7.74500E+00  8.86289E+00  9.26535E+00  8.75070E+00  7.44837E+00
   5.70113E+00  4.13453E+00  3.40545E+00  3.75223E+00  4.92225E+00  6.47197E+00  7.96249E+00  9.03407E+00  9.46964E+00  9.44706E+00
   9.46366E+00  9.89238E+00  1.10625E+01  1.30287E+01  1.61088E+01  2.13384E+01  3.09239E+01  4.60242E+01  6.32318E+01  7.63998E+01
   8.13008E+01  7.74513E+01  6.70054E+01  5.33548E+01  4.00220E+01  2.92880E+01  2.10995E+01  1.38296E+01  8.73135E+00  6.70778E+00
   5.66049E+00  4.99847E+00  4.61661E+00  4.42021E+00  4.23064E+00  4.00484E+00  3.71952E+00  3.36603E+00  2.96967E+00  2.58251E+00
   2.22787E+00  1.91415E+00  1.65662E+00  1.45496E+00  1.28792E+00  1.13221E+00  9.80770E-01  8.43210E-01  7.33298E-01  6.52559E-01
   6.08911E-01  6.08737E-01  6.52131E-01  7.32997E-01  8.48501E-01  9.98274E-01  1.18505E+00  1.41421E+00  1.69155E+00  2.01889E+00
   2.39728E+00  2.82189E+00  3.28280E+00  3.76741E+00  4.26153E+00  4.75141E+00  5.22342E+00  5.66182E+00  6.05336E+00  6.38578E+00
   6.64717E+00  6.82838E+00  6.92387E+00  6.93113E+00  6.85139E+00  6.68930E+00  6.45276E+00  6.15264E+00  5.80203E+00  5.41533E+00
   5.00737E+00  4.59265E+00  4.18469E+00  3.79574E+00  3.43630E+00  3.11475E+00  2.83720E+00  2.60760E+00  2.42820E+00  2.29983E+00
   2.22222E+00  2.19415E+00  2.21381E+00  2.27929E+00  2.38907E+00  2.54235E+00  2.73938E+00  2.98183E+00  3.27406E+00  3.62591E+00
   4.06091E+00  4.63113E+00  5.38482E+00  6.31783E+00  7.24139E+00  7.78256E+00  7.67638E+00  6.96160E+00  5.88679E+00  4.77988E+00
   3.96344E+00  3.77252E+00  4.40851E+00  5.69424E+00  7.21329E+00  8.69780E+00  9.85459E+00  1.04792E+01  1.06494E+01  1.05277E+01
   1.02871E+01  9.98423E+00  9.55398E+00  9.13392E+00  8.78741E+00  8.46034E+00  8.13103E+00  7.79336E+00  7.44697E+00  7.09413E+00
   6.73843E+00  6.38410E+00  6.03569E+00  5.69776E+00  5.37467E+00  5.07045E+00  4.78874E+00  4.53289E+00  4.30591E+00  4.11053E+00
   3.94922E+00  3.82413E+00  3.73727E+00  3.69058E+00  3.68593E+00  3.72511E+00  3.80974E+00  3.94122E+00  4.12067E+00  4.34884E+00
   4.62592E+00  4.95130E+00  5.32333E+00  5.73916E+00  6.19459E+00  6.68396E+00  7.20007E+00  7.73408E+00  8.27567E+00  8.81326E+00
   9.33439E+00  9.82612E+00  1.02755E+01  1.06700E+01  1.09983E+01  1.12507E+01  1.14195E+01  1.14997E+01  1.14890E+01  1.13880E+01
   1.11998E+01  1.09305E+01  1.05883E+01  1.01832E+01  9.72643E+00  9.23003E+00  8.70613E+00  8.16656E+00  7.62244E+00  7.08370E+00
   6.55884E+00  6.05485E+00  5.57718E+00  5.12977E+00  4.71515E+00  4.33454E+00  3.98805E+00  3.67493E+00  3.39380E+00  3.14283E+00
   2.91986E+00  2.72254E+00  2.54842E+00  2.39513E+00  2.26046E+00  2.14234E+00  2.03885E+00  1.94820E+00  1.86881E+00  1.79931E+00
   1.73854E+00  1.68545E+00  1.63911E+00  1.59868E+00  1.56344E+00  1.53282E+00  1.50632E+00  1.48350E+00  1.46393E+00  1.44721E+00
   1.43305E+00  1.42122E+00  1.41151E+00  1.40369E+00  1.39757E+00  1.39295E+00  1.38973E+00  1.38782E+00  1.38711E+00  1.38747E+00
   1.38878E+00  1.39095E+00  1.39396E+00  1.39776E+00  1.40229E+00  1.40746E+00  1.41318E+00  1.41945E+00  1.42624E+00  1.43355E+00
   1.44131E+00  1.44945E+00  1.45795E+00  1.46681E+00  1.47604E+00  1.48562E+00  1.49549E+00  1.50560E+00  1.51595E+00  1.52655E+00
   1.53742E+00  1.54852E+00  1.55979E+00  1.57122E+00  1.58283E+00  1.59464E+00  1.60665E+00  1.61880E+00  1.63107E+00  1.64345E+00
   1.65598E+00  1.66867E+00  1.68149E+00  1.69441E+00  1.70740E+00  1.72049E+00  1.73371E+00  1.74706E+00
 NY background values follow
     4.761E+01    4.723E+01    4.685E+01    4.647E+01    4.609E+01    4.571E+01    4.533E+01    4.495E+01    4.457E+01    4.419E+01
     4.381E+01    4.343E+01    4.305E+01    4.267E+01    4.229E+01    4.191E+01    4.153E+01    4.115E+01    4.077E+01    4.039E+01
     4.001E+01    3.963E+01    3.925E+01    3.888E+01    3.850E+01    3.813E+01    3.775E+01    3.738E+01    3.700E+01    3.663E+01
     3.626E+01    3.589E+01    3.552E+01    3.515E+01    3.478E+01    3.441E+01    3.404E+01    3.368E+01    3.331E+01    3.295E+01
     3.259E+01    3.222E+01    3.186E+01    3.151E+01    3.115E+01    3.079E+01    3.044E+01    3.008E+01    2.973E+01    2.938E+01
     2.903E+01    2.868E+01    2.834E+01    2.799E+01    2.765E+01    2.731E+01    2.697E+01    2.663E+01    2.630E+01    2.596E+01
     2.563E+01    2.530E+01    2.497E+01    2.464E+01    2.432E+01    2.400E+01    2.368E+01    2.336E+01    2.304E+01    2.272E+01
     2.241E+01    2.210E+01    2.179E+01    2.149E+01    2.118E+01    2.088E+01    2.058E+01    2.028E+01    1.999E+01    1.970E+01
     1.941E+01    1.912E+01    1.884E+01    1.855E+01    1.827E+01    1.800E+01    1.772E+01    1.745E+01    1.718E+01    1.691E+01
     1.665E+01    1.639E+01    1.613E+01    1.587E+01    1.562E+01    1.537E+01    1.512E+01    1.488E+01    1.464E+01    1.440E+01
     1.416E+01    1.393E+01    1.370E+01    1.347E+01    1.324E+01    1.302E+01    1.280E+01    1.258E+01    1.236E+01    1.215E+01
     1.194E+01    1.173E+01    1.152E+01    1.132E+01    1.112E+01    1.092E+01    1.072E+01    1.053E+01    1.034E+01    1.015E+01
     9.962E+00    9.778E+00    9.596E+00    9.416E+00    9.239E+00    9.064E+00    8.891E+00    8.721E+00    8.553E+00    8.387E+00
     8.223E+00    8.061E+00    7.902E+00    7.745E+00    7.590E+00    7.437E+00    7.286E+00    7.138E+00    6.991E+00    6.847E+00
     6.704E+00    6.564E+00    6.425E+00    6.289E+00    6.155E+00    6.022E+00    5.892E+00    5.763E+00    5.636E+00    5.511E+00
     5.388E+00    5.267E+00    5.148E+00    5.030E+00    4.914E+00    4.800E+00    4.687E+00    4.577E+00    4.467E+00    4.360E+00
     4.254E+00    4.150E+00    4.047E+00    3.946E+00    3.846E+00    3.748E+00    3.651E+00    3.556E+00    3.462E+00    3.370E+00
     3.279E+00    3.190E+00    3.101E+00    3.015E+00    2.929E+00    2.845E+00    2.762E+00    2.680E+00    2.600E+00    2.520E+00
     2.442E+00    2.365E+00    2.289E+00    2.215E+00    2.141E+00    2.069E+00    1.997E+00    1.927E+00    1.857E+00    1.789E+00
     1.721E+00    1.655E+00    1.589E+00    1.525E+00    1.461E+00    1.398E+00    1.336E+00    1.275E+00    1.214E+00    1.155E+00
     1.096E+00    1.038E+00    9.805E-01    9.238E-01    8.678E-01    8.124E-01    7.577E-01    7.036E-01    6.502E-01    5.972E-01
     5.449E-01    4.931E-01    4.418E-01    3.910E-01    3.406E-01    2.907E-01    2.413E-01    1.922E-01    1.436E-01    9.529E-02
     4.735E-02   -2.621E-04   -4.757E-02   -9.459E-02   -1.413E-01   -1.879E-01   -2.341E-01   -2.802E-01   -3.261E-01   -3.717E-01
    -4.171E-01   -4.623E-01   -5.072E-01   -5.519E-01   -5.963E-01   -6.404E-01   -6.842E-01   -7.277E-01   -7.709E-01   -8.137E-01
    -8.563E-01   -8.985E-01   -9.404E-01   -9.819E-01   -1.023E+00   -1.064E+00   -1.104E+00   -1.144E+00   -1.184E+00   -1.223E+00
    -1.262E+00   -1.300E+00   -1.338E+00   -1.375E+00   -1.412E+00   -1.449E+00   -1.485E+00   -1.520E+00   -1.555E+00   -1.589E+00
    -1.623E+00   -1.657E+00   -1.690E+00   -1.722E+00   -1.754E+00   -1.785E+00   -1.816E+00   -1.846E+00   -1.875E+00   -1.904E+00
    -1.932E+00   -1.960E+00   -1.987E+00   -2.013E+00   -2.039E+00   -2.064E+00   -2.088E+00   -2.112E+00   -2.135E+00   -2.158E+00
    -2.180E+00   -2.201E+00   -2.222E+00   -2.242E+00   -2.262E+00   -2.280E+00   -2.299E+00   -2.316E+00   -2.333E+00   -2.350E+00
    -2.366E+00   -2.381E+00   -2.396E+00   -2.410E+00   -2.424E+00   -2.436E+00   -2.449E+00   -2.461E+00   -2.472E+00   -2.482E+00
    -2.493E+00   -2.502E+00   -2.511E+00   -2.519E+00   -2.527E+00   -2.534E+00   -2.541E+00   -2.547E+00   -2.553E+00   -2.558E+00
    -2.562E+00   -2.566E+00   -2.569E+00   -2.572E+00   -2.574E+00   -2.576E+00   -2.577E+00   -2.578E+00   -2.578E+00   -2.578E+00
    -2.577E+00   -2.576E+00   -2.574E+00   -2.571E+00   -2.568E+00   -2.565E+00   -2.561E+00   -2.557E+00   -2.552E+00   -2.546E+00
    -2.541E+00   -2.534E+00   -2.528E+00   -2.520E+00   -2.513E+00   -2.505E+00   -2.496E+00   -2.487E+00   -2.478E+00   -2.468E+00
    -2.458E+00   -2.448E+00   -2.437E+00   -2.425E+00   -2.414E+00   -2.402E+00   -2.389E+00   -2.376E+00   -2.363E+00   -2.349E+00
    -2.336E+00   -2.321E+00   -2.307E+00   -2.292E+00   -2.276E+00   -2.261E+00   -2.245E+00   -2.229E+00   -2.212E+00   -2.195E+00
    -2.178E+00   -2.160E+00   -2.143E+00   -2.125E+00   -2.106E+00   -2.088E+00   -2.069E+00   -2.050E+00   -2.030E+00   -2.011E+00
    -1.991E+00   -1.970E+00   -1.950E+00   -1.929E+00   -1.908E+00   -1.887E+00   -1.866E+00   -1.844E+00   -1.822E+00   -1.800E+00
    -1.778E+00   -1.755E+00   -1.732E+00   -1.709E+00   -1.686E+00   -1.663E+00   -1.639E+00   -1.615E+00   -1.591E+00   -1.567E+00
    -1.543E+00   -1.518E+00   -1.493E+00   -1.469E+00   -1.443E+00   -1.418E+00   -1.393E+00   -1.367E+00   -1.341E+00   -1.315E+00
    -1.289E+00   -1.263E+00   -1.237E+00   -1.210E+00   -1.184E+00   -1.157E+00   -1.130E+00   -1.103E+00   -1.076E+00   -1.048E+00
    -1.021E+00   -9.934E-01   -9.658E-01   -9.381E-01   -9.103E-01   -8.825E-01   -8.546E-01   -8.266E-01   -7.986E-01   -7.705E-01
    -7.424E-01   -7.143E-01   -6.861E-01   -6.579E-01   -6.297E-01   -6.015E-01   -5.733E-01   -5.452E-01   -5.170E-01   -4.888E-01
    -4.607E-01   -4.327E-01   -4.046E-01   -3.766E-01   -3.487E-01   -3.209E-01   -2.931E-01   -2.654E-01   -2.378E-01   -2.103E-01
    -1.828E-01   -1.555E-01   -1.283E-01   -1.012E-01   -7.430E-02   -4.749E-02   -2.083E-02    5.688E-03    3.205E-02    5.824E-02
     8.427E-02    1.101E-01    1.358E-01    1.612E-01    1.865E-01    2.116E-01    2.366E-01    2.613E-01    2.859E-01    3.103E-01
     3.345E-01    3.586E-01    3.825E-01    4.063E-01    4.299E-01    4.534E-01    4.767E-01    4.999E-01    5.230E-01    5.459E-01
     5.687E-01    5.914E-01    6.139E-01    6.363E-01    6.587E-01    6.809E-01    7.030E-01    7.250E-01    7.468E-01    7.686E-01
     7.903E-01    8.120E-01    8.335E-01    8.549E-01    8.763E-01    8.976E-01    9.188E-01    9.400E-01    9.611E-01    9.821E-01
     1.003E+00    1.024E+00    1.045E+00    1.066E+00    1.087E+00    1.107E+00    1.128E+00    1.149E+00
 Asp      Conc. = 1.00E+02
