 LCModel (Version 6.3-1L) Copyright: S.W. Provencher.          Ref.: Magn. Reson. Med. 30:672-679 (1993).                
 Slice#2 Row#8 Col#8  PD_24_press_1_raw_act
 Data of: Institute of Biomedical Engineering, Bogazici University, Istanbul
 07-January-2018  10:22
 36 lines in following concentration table = NCONC+1
    Conc.  %SD /Cr+PCr  Metabolite                                         
  189.933  92%   0.119 Ala                                                 
   19.901 999% 1.2E-02 Asp                                                 
 1.59E+03   5%   1.000 Cr                                                  
    0.000 999%   0.000 PCr                                                 
  120.337 156% 7.5E-02 GABA                                                
    0.000 999%   0.000 Glc                                                 
  797.310  46%   0.500 Gln                                                 
 1.93E+03  22%   1.211 Glu                                                 
  739.230   4%   0.464 GPC                                                 
    0.000 999%   0.000 PCh                                                 
  658.087  16%   0.413 GSH                                                 
 2.52E+03  15%   1.580 Ins                                                 
    0.000 999%   0.000 Lac                                                 
 1.88E+03   8%   1.177 NAA                                                 
  263.996  63%   0.166 NAAG                                                
   24.635 143% 1.5E-02 Scyllo                                              
    0.000 999%   0.000 Tau                                                 
    0.000 999%   0.000 -CrCH2                                              
  739.230   4%   0.464 GPC+PCh                                             
 2.14E+03   5%   1.342 NAA+NAAG                                            
 1.59E+03   5%   1.000 Cr+PCr                                              
 2.73E+03  22%   1.711 Glu+Gln                                             
 2.61E+03  17%   1.636 Lip13a                                              
    0.000 999%   0.000 Lip13b                                              
  430.401  79%   0.270 Lip09                                               
 1.49E+03  23%   0.933 MM09                                                
  414.855  63%   0.260 Lip20                                               
 3.17E+03  15%   1.988 MM20                                                
  497.991  49%   0.312 MM12                                                
    0.000 999%   0.000 MM14                                                
 1.01E+03  28%   0.635 MM17                                                
 2.61E+03  17%   1.636 Lip13a+Lip13b                                       
 3.11E+03  12%   1.948 MM14+Lip13a+Lip13b+MM12                             
 1.92E+03  13%   1.203 MM09+Lip09                                          
 3.59E+03  14%   2.248 MM20+Lip20                                          
   6 lines in following misc. output table
  FWHM = 0.061 ppm    S/N =   7                                            
  Data shift = 0.008 ppm                                                   
  Ph:  -3 deg       9.6 deg/ppm                                            
  alphaB,S = 1.8E+00,   9.8E+01                                            
   14 spline knots.   Ns = 7(1)                                            
  (11) 4 infls.   (11) 1 extrs.                                            
  498 points on ppm-axis = NY
      4.000000     3.992357     3.984714     3.977070     3.969427     3.961784     3.954141     3.946497     3.938854     3.931211
      3.923568     3.915925     3.908281     3.900638     3.892995     3.885352     3.877708     3.870065     3.862422     3.854779
      3.847136     3.839492     3.831849     3.824206     3.816563     3.808919     3.801276     3.793633     3.785990     3.778347
      3.770703     3.763060     3.755417     3.747774     3.740130     3.732487     3.724844     3.717201     3.709558     3.701914
      3.694271     3.686628     3.678985     3.671341     3.663698     3.656055     3.648412     3.640769     3.633125     3.625482
      3.617839     3.610196     3.602552     3.594909     3.587266     3.579623     3.571980     3.564336     3.556693     3.549050
      3.541407     3.533763     3.526120     3.518477     3.510834     3.503191     3.495547     3.487904     3.480261     3.472618
      3.464974     3.457331     3.449688     3.442045     3.434402     3.426758     3.419115     3.411472     3.403829     3.396185
      3.388542     3.380899     3.373256     3.365613     3.357969     3.350326     3.342683     3.335040     3.327396     3.319753
      3.312110     3.304467     3.296824     3.289180     3.281537     3.273894     3.266251     3.258607     3.250964     3.243321
      3.235678     3.228034     3.220391     3.212748     3.205105     3.197462     3.189818     3.182175     3.174532     3.166889
      3.159245     3.151602     3.143959     3.136316     3.128673     3.121029     3.113386     3.105743     3.098100     3.090456
      3.082813     3.075170     3.067527     3.059884     3.052240     3.044597     3.036954     3.029311     3.021667     3.014024
      3.006381     2.998738     2.991095     2.983451     2.975808     2.968165     2.960522     2.952878     2.945235     2.937592
      2.929949     2.922306     2.914662     2.907019     2.899376     2.891733     2.884089     2.876446     2.868803     2.861160
      2.853517     2.845873     2.838230     2.830587     2.822944     2.815300     2.807657     2.800014     2.792371     2.784728
      2.777084     2.769441     2.761798     2.754155     2.746511     2.738868     2.731225     2.723582     2.715939     2.708295
      2.700652     2.693009     2.685366     2.677722     2.670079     2.662436     2.654793     2.647150     2.639506     2.631863
      2.624220     2.616577     2.608933     2.601290     2.593647     2.586004     2.578361     2.570717     2.563074     2.555431
      2.547788     2.540144     2.532501     2.524858     2.517215     2.509572     2.501928     2.494285     2.486642     2.478999
      2.471355     2.463712     2.456069     2.448426     2.440783     2.433139     2.425496     2.417853     2.410210     2.402566
      2.394923     2.387280     2.379637     2.371994     2.364350     2.356707     2.349064     2.341421     2.333777     2.326134
      2.318491     2.310848     2.303205     2.295561     2.287918     2.280275     2.272632     2.264988     2.257345     2.249702
      2.242059     2.234416     2.226772     2.219129     2.211486     2.203843     2.196199     2.188556     2.180913     2.173270
      2.165627     2.157983     2.150340     2.142697     2.135054     2.127410     2.119767     2.112124     2.104481     2.096838
      2.089194     2.081551     2.073908     2.066265     2.058621     2.050978     2.043335     2.035692     2.028049     2.020405
      2.012762     2.005119     1.997476     1.989833     1.982190     1.974546     1.966903     1.959260     1.951617     1.943974
      1.936331     1.928688     1.921045     1.913402     1.905759     1.898115     1.890472     1.882829     1.875186     1.867543
      1.859900     1.852257     1.844614     1.836971     1.829327     1.821684     1.814041     1.806398     1.798755     1.791112
      1.783469     1.775826     1.768183     1.760540     1.752896     1.745253     1.737610     1.729967     1.722324     1.714681
      1.707038     1.699395     1.691752     1.684108     1.676465     1.668822     1.661179     1.653536     1.645893     1.638250
      1.630607     1.622964     1.615321     1.607677     1.600034     1.592391     1.584748     1.577105     1.569462     1.561819
      1.554176     1.546533     1.538890     1.531246     1.523603     1.515960     1.508317     1.500674     1.493031     1.485388
      1.477745     1.470102     1.462458     1.454815     1.447172     1.439529     1.431886     1.424243     1.416600     1.408957
      1.401314     1.393671     1.386027     1.378384     1.370741     1.363098     1.355455     1.347812     1.340169     1.332526
      1.324883     1.317240     1.309596     1.301953     1.294310     1.286667     1.279024     1.271381     1.263738     1.256095
      1.248452     1.240808     1.233165     1.225522     1.217879     1.210236     1.202593     1.194950     1.187307     1.179664
      1.172021     1.164377     1.156734     1.149091     1.141448     1.133805     1.126162     1.118519     1.110876     1.103233
      1.095590     1.087946     1.080303     1.072660     1.065017     1.057374     1.049731     1.042088     1.034445     1.026802
      1.019158     1.011515     1.003872     0.996229     0.988586     0.980943     0.973300     0.965657     0.958014     0.950371
      0.942727     0.935084     0.927441     0.919798     0.912155     0.904512     0.896869     0.889226     0.881583     0.873940
      0.866296     0.858653     0.851010     0.843367     0.835724     0.828081     0.820438     0.812795     0.805152     0.797508
      0.789865     0.782222     0.774579     0.766936     0.759293     0.751650     0.744007     0.736364     0.728721     0.721077
      0.713434     0.705791     0.698148     0.690505     0.682862     0.675219     0.667576     0.659933     0.652290     0.644646
      0.637003     0.629360     0.621717     0.614074     0.606431     0.598788     0.591145     0.583502     0.575858     0.568215
      0.560572     0.552929     0.545286     0.537643     0.530000     0.522357     0.514714     0.507071     0.499427     0.491784
      0.484141     0.476498     0.468855     0.461212     0.453569     0.445925     0.438282     0.430639     0.422996     0.415353
      0.407710     0.400067     0.392424     0.384780     0.377137     0.369494     0.361851     0.354208     0.346565     0.338922
      0.331278     0.323635     0.315992     0.308349     0.300706     0.293063     0.285420     0.277777     0.270133     0.262490
      0.254847     0.247204     0.239561     0.231918     0.224275     0.216631     0.208988     0.201345
 NY phased data points follow
   1.97038E+01  2.61121E+01  2.46193E+01  2.88195E+01  2.66709E+01  4.01640E+01  4.35751E+01  4.40703E+01  5.58627E+01  6.35305E+01
   6.19779E+01  6.82564E+01  5.82631E+01  5.98762E+01  5.78940E+01  5.59607E+01  4.45272E+01  5.13880E+01  4.03049E+01  4.45942E+01
   3.39939E+01  3.16571E+01  2.88302E+01  3.66014E+01  2.91469E+01  3.38446E+01  3.54087E+01  4.23141E+01  2.81866E+01  3.88947E+01
   3.09424E+01  3.61077E+01  3.82378E+01  3.66524E+01  3.60926E+01  3.01866E+01  2.82825E+01  3.25226E+01  2.68486E+01  2.80187E+01
   2.70386E+01  3.36460E+01  2.72081E+01  3.41680E+01  3.37888E+01  3.46453E+01  3.81959E+01  4.59484E+01  3.73717E+01  3.46788E+01
   3.14575E+01  3.23321E+01  3.18923E+01  3.17833E+01  2.75250E+01  2.73228E+01  2.40472E+01  3.34204E+01  2.42275E+01  3.37458E+01
   3.18206E+01  3.06059E+01  2.10310E+01  1.39383E+01  1.62895E+01  1.93073E+01  1.68186E+01  1.53336E+01  9.41397E+00  1.59409E+01
   1.46140E+01  2.00234E+01  1.60035E+01  8.02382E+00  1.72552E+01  1.87006E+01  2.14466E+01  1.74397E+01  1.01296E+01  2.05676E+01
   1.19645E+01  9.36476E+00  2.09407E+01  1.79371E+01  1.40257E+01  1.24943E+01  1.04451E+01  1.83219E+01  1.42084E+01  1.38394E+01
   1.85228E+00  7.23615E+00  7.34430E+00  4.77596E+00  1.06518E+01  1.73548E+01  8.07487E+00  1.65236E+01  1.86812E+01  3.52382E+01
   4.46110E+01  6.73986E+01  7.51347E+01  7.37256E+01  7.43613E+01  6.32552E+01  5.25979E+01  5.01566E+01  3.59923E+01  3.43211E+01
   2.64428E+01  2.54373E+01  2.54733E+01  1.91245E+01  1.27664E+01  1.91867E+01  1.16233E+01  1.46687E+01  8.25901E+00  1.63246E+01
   8.30940E+00  1.52975E+01  1.88126E+01  2.68425E+01  2.56790E+01  4.16863E+01  5.73284E+01  6.08433E+01  4.84473E+01  4.31253E+01
   5.11444E+01  4.15338E+01  4.14019E+01  3.45863E+01  2.88594E+01  1.78177E+01  1.20440E+01  1.37757E+01  5.17183E+00  7.15969E+00
   1.35096E+01  1.65291E+01  9.77349E+00  1.12209E+01  1.10222E+01  8.37169E+00  1.12206E+01  3.55948E+00  1.15919E+01  1.91030E+01
   3.81696E+00  1.05475E+01 -5.87361E-01  9.78656E+00  1.08678E+00  2.73091E+00  7.34539E+00  7.70505E+00  8.85566E+00  3.30308E+00
   2.86887E+00  1.26954E-01  5.42231E+00 -1.18635E+00  1.59834E+00  1.57722E+01  4.20312E+00  3.46010E+00  9.25650E+00  8.48487E+00
   1.22907E+00  3.39661E+00  2.15090E+00  4.38954E+00  4.07266E-01 -4.16481E+00 -6.26112E+00 -6.98583E+00 -5.04505E+00 -9.28452E+00
  -3.18795E+00 -3.46458E+00 -3.40921E+00 -6.38154E+00 -5.62865E+00 -5.57264E+00 -7.59853E+00  4.71637E+00  4.81755E+00  4.05772E+00
   7.33678E+00  6.92790E+00  6.88607E+00  9.39502E+00  8.74451E+00  9.51462E+00  1.03859E+01  5.60740E+00  5.48692E+00  4.45411E+00
  -6.25386E-01  9.33525E+00  6.45548E+00  6.04922E+00  7.33699E-01  3.83772E+00  4.36805E+00  9.33858E-01 -6.42264E+00  4.11172E-01
  -7.18070E-02  7.40588E+00  3.20895E+00  8.41910E+00  1.15211E+01  1.93841E+01  1.49527E+01  1.63311E+01  3.95759E+00  1.25359E+01
  -8.17518E-01  3.56780E+00  5.45644E+00  3.85481E+00  1.08404E+01  1.80868E+00  6.26839E+00  1.29205E+01  7.26688E+00  8.54934E+00
   6.70421E+00  9.15977E+00  1.52072E+01  1.04600E+01  1.16926E+01  1.61079E+01  1.07341E+01  1.36167E+01  1.26524E+01  9.83356E+00
   5.82571E+00  9.00552E+00  6.49633E+00  8.53489E+00  1.41163E+01  9.19937E+00  1.53447E+01  1.87335E+01  2.32286E+01  1.63776E+01
   1.43040E+01  1.52550E+01  2.35724E+01  3.18726E+01  2.84336E+01  2.90452E+01  3.50061E+01  5.96625E+01  7.09135E+01  8.20646E+01
   7.61050E+01  6.37697E+01  5.58825E+01  5.70198E+01  4.19311E+01  3.59062E+01  2.24106E+01  9.01977E+00  9.27049E+00  6.44722E+00
   1.13828E+01  1.24956E+01  8.36670E+00  3.30089E+00  5.64109E+00  3.40228E+00  9.96113E+00  2.95696E+00  7.89233E+00  3.12342E+00
   2.82166E+00  1.61582E+00 -1.50799E+00  5.14717E+00  7.42060E+00 -2.74414E+00  5.44238E+00  6.79760E+00  2.74093E+00  4.30699E+00
   9.58016E+00  1.21465E+00 -4.24986E+00  1.00663E+01  1.87718E+00  5.11357E+00  1.47687E-01 -4.45671E+00  7.10651E+00  2.65154E+00
   2.55737E+00  7.01183E+00  3.73229E+00  9.36403E+00  6.55707E+00  2.38634E+00  3.35197E+00  4.30991E+00  6.57278E+00  3.97259E+00
   2.51375E+00  1.02264E+00  1.35478E+01  9.23260E+00  1.53410E+00  3.18648E+00  2.86007E+00  5.40833E+00  8.86645E+00  4.02919E+00
   3.13551E+00  2.26159E+00  5.34361E+00 -3.05583E-01  4.43832E+00  7.08817E+00 -2.11404E+00 -3.06675E+00 -3.19553E+00 -2.97260E+00
  -2.70832E+00 -9.68653E+00 -3.85415E+00  2.05867E-01 -2.33462E+00 -9.04841E+00 -4.54640E+00 -5.73011E+00 -1.57780E+00 -3.34723E+00
  -1.01066E+01 -6.85658E+00 -3.25761E+00  3.96931E+00  5.71908E+00  8.21934E+00  1.00609E+01  3.89703E+00  7.86671E+00  8.04858E+00
   1.10823E+01  1.03375E+01  1.77350E+01  1.51790E+01  1.52581E+01  1.77519E+01  1.69512E+01  1.97283E+01  1.57498E+01  2.38085E+01
   1.81936E+01  2.19286E+01  1.30209E+01  1.48306E+01  1.61313E+01  1.49871E+01  1.64399E+01  8.53637E+00  2.16134E+01  1.72788E+01
   1.05637E+01  8.87382E+00  1.23698E+01  7.40619E+00  7.16882E+00  6.23647E+00  3.53451E+00  4.90433E+00  2.92588E+00 -4.67351E+00
   5.98630E+00 -1.76887E+00 -2.49830E+00  6.74238E+00  2.05666E+00  6.41920E+00  8.72080E-01 -1.37922E+00  7.39884E+00  5.76302E+00
   1.10113E+00  9.54713E+00  2.72985E+00  8.39366E+00  3.24902E+00  8.69752E+00  8.22988E+00  2.08315E+00  1.29895E+01  6.93789E+00
   8.78311E+00  1.30186E+01  7.18842E+00  1.28824E+01  1.15181E+01  1.64023E+01  1.19128E+01  9.21957E+00  1.33842E+01  9.35512E+00
   6.66253E+00  2.91001E+00  2.57544E+00  4.08908E+00 -1.57753E+00  8.94845E+00  2.45291E+00  5.43420E+00  3.61350E+00  1.02261E+01
  -7.88750E-01 -1.12221E+00 -5.07659E-01  5.81082E+00  4.59768E+00  6.09304E+00 -6.26358E-01 -4.80394E+00  2.28663E-01  2.96231E+00
  -2.86554E+00 -3.01606E+00 -1.38305E+00 -2.86962E+00 -4.50611E+00 -2.23090E+00 -3.74757E+00 -6.35042E+00 -1.44830E+00  4.03186E-02
  -5.40709E+00 -1.63213E-01 -4.69687E+00  8.01369E+00 -3.72383E+00 -4.09261E-01 -2.99239E+00  1.31090E+00 -2.80126E+00 -2.09164E+00
  -3.12362E+00 -5.07664E+00 -2.85560E+00 -2.09441E+00 -3.72132E-01 -7.99755E-01 -5.40684E+00 -5.13792E+00 -6.81257E+00 -3.10433E+00
  -6.60983E+00 -4.67176E+00 -6.50029E+00  2.73039E+00  4.15584E+00  8.91302E+00 -7.00730E+00 -2.18095E-01 -4.38726E+00 -3.70431E+00
  -6.08505E+00 -9.61675E+00 -8.15393E-01  9.15713E-01 -9.43640E+00  1.12378E+00 -4.84301E+00 -2.22659E+00 -6.54708E-01 -6.11353E-01
  -3.75626E+00  5.35717E-01 -3.15487E+00 -3.86722E+00 -8.29286E+00  2.40881E+00 -2.22283E+00  2.02955E+00 -6.98694E+00 -2.83306E+00
  -1.95107E+00 -5.03633E+00  5.56824E-01 -8.21713E-01 -8.10803E+00 -7.85584E+00 -1.05059E+00 -6.37778E+00
 NY points of the fit to the data follow
   3.09843E+01  2.99111E+01  2.94623E+01  2.95082E+01  3.01049E+01  3.19161E+01  3.50345E+01  3.96075E+01  4.60512E+01  5.34459E+01
   5.92646E+01  6.13563E+01  5.97393E+01  5.62726E+01  5.27063E+01  4.93267E+01  4.57229E+01  4.18503E+01  3.79089E+01  3.40183E+01
   3.05441E+01  2.84431E+01  2.76111E+01  2.73724E+01  2.75591E+01  2.86335E+01  3.09807E+01  3.41517E+01  3.69927E+01  3.86383E+01
   3.90857E+01  3.87724E+01  3.78410E+01  3.62425E+01  3.42378E+01  3.20608E+01  2.99123E+01  2.78087E+01  2.60215E+01  2.51179E+01
   2.50481E+01  2.58835E+01  2.76867E+01  3.06122E+01  3.44626E+01  3.80156E+01  3.97941E+01  3.91630E+01  3.67656E+01  3.39128E+01
   3.13288E+01  2.88981E+01  2.66540E+01  2.48014E+01  2.33025E+01  2.23100E+01  2.23247E+01  2.33882E+01  2.46489E+01  2.52117E+01
   2.48724E+01  2.38722E+01  2.26279E+01  2.14956E+01  2.06886E+01  2.02949E+01  2.01756E+01  2.01807E+01  2.03813E+01  2.08361E+01
   2.13353E+01  2.16636E+01  2.16725E+01  2.14271E+01  2.10539E+01  2.05917E+01  2.00698E+01  1.95286E+01  1.89972E+01  1.84961E+01
   1.79781E+01  1.74990E+01  1.69391E+01  1.60831E+01  1.47856E+01  1.31841E+01  1.17019E+01  1.07699E+01  1.05316E+01  1.08565E+01
   1.15371E+01  1.23864E+01  1.32767E+01  1.40798E+01  1.46899E+01  1.51864E+01  1.61915E+01  1.92500E+01  2.48425E+01  3.43770E+01
   4.84263E+01  6.36699E+01  7.41380E+01  7.63031E+01  7.16077E+01  6.44032E+01  5.75732E+01  5.09203E+01  4.37495E+01  3.61664E+01
   2.84119E+01  2.08903E+01  1.49159E+01  1.26014E+01  1.21252E+01  1.19841E+01  1.19065E+01  1.18754E+01  1.19549E+01  1.22597E+01
   1.31449E+01  1.55587E+01  1.98512E+01  2.66931E+01  3.67347E+01  4.82545E+01  5.72836E+01  6.07487E+01  5.88779E+01  5.44177E+01
   4.95917E+01  4.44124E+01  3.82640E+01  3.13497E+01  2.43401E+01  1.79214E+01  1.29744E+01  1.09350E+01  1.08719E+01  1.11607E+01
   1.13206E+01  1.13214E+01  1.13228E+01  1.13659E+01  1.13156E+01  1.11139E+01  1.07358E+01  1.01719E+01  9.53115E+00  8.89654E+00
   8.35253E+00  7.93682E+00  7.63361E+00  7.43909E+00  7.29645E+00  7.13996E+00  6.86622E+00  6.42506E+00  5.92523E+00  5.53313E+00
   5.41084E+00  5.53876E+00  5.66949E+00  5.54219E+00  5.13274E+00  4.61528E+00  4.15584E+00  3.82272E+00  3.57646E+00  3.30400E+00
   2.88601E+00  2.32144E+00  1.65181E+00  1.05851E+00  7.70970E-01  7.80164E-01  8.79933E-01  8.30880E-01  5.69700E-01  2.81177E-01
   1.28559E-01  1.12413E-01  1.17952E-01  1.34383E-01  3.57469E-01  1.01642E+00  2.18982E+00  3.71881E+00  5.19861E+00  6.21501E+00
   6.52631E+00  6.19654E+00  5.49909E+00  4.65391E+00  3.82127E+00  3.21997E+00  3.06400E+00  3.52127E+00  4.49596E+00  5.74976E+00
   7.09853E+00  8.35586E+00  9.20721E+00  9.26801E+00  8.45517E+00  6.79645E+00  4.52392E+00  2.18645E+00  5.18065E-01 -5.95324E-02
   5.19242E-01  2.11807E+00  4.67539E+00  7.77897E+00  1.04004E+01  1.15375E+01  1.09579E+01  9.09959E+00  6.49642E+00  3.40476E+00
   6.42717E-01 -8.55308E-01 -8.39598E-01  2.75240E-01  1.77951E+00  3.37195E+00  4.97895E+00  6.25220E+00  7.12161E+00  7.80811E+00
   8.61989E+00  9.44958E+00  1.00499E+01  1.06008E+01  1.13561E+01  1.20769E+01  1.23698E+01  1.21001E+01  1.13883E+01  1.04496E+01
   9.48209E+00  8.88770E+00  9.04616E+00  9.82421E+00  1.07314E+01  1.14470E+01  1.20925E+01  1.27261E+01  1.33427E+01  1.41981E+01
   1.54902E+01  1.73264E+01  1.97789E+01  2.35323E+01  2.86423E+01  3.54239E+01  4.54712E+01  5.83110E+01  6.97044E+01  7.48544E+01
   7.27458E+01  6.63247E+01  5.90837E+01  5.20234E+01  4.46812E+01  3.71851E+01  2.95918E+01  2.18878E+01  1.46871E+01  1.01796E+01
   8.48534E+00  7.65387E+00  7.14564E+00  6.79153E+00  6.47348E+00  6.09199E+00  5.68730E+00  5.27769E+00  4.85451E+00  4.42762E+00
   4.02444E+00  3.64811E+00  3.30328E+00  3.01281E+00  2.78588E+00  2.61513E+00  2.49041E+00  2.40936E+00  2.37776E+00  2.39543E+00
   2.44454E+00  2.51884E+00  2.61928E+00  2.74594E+00  2.89901E+00  3.07986E+00  3.28541E+00  3.51301E+00  3.75972E+00  4.01887E+00
   4.27928E+00  4.53268E+00  4.77009E+00  4.98005E+00  5.15302E+00  5.28173E+00  5.36039E+00  5.38382E+00  5.34743E+00  5.25194E+00
   5.10020E+00  4.89620E+00  4.64639E+00  4.35915E+00  4.04357E+00  3.70963E+00  3.36826E+00  3.03196E+00  2.71650E+00  2.44666E+00
   2.26275E+00  2.16026E+00  2.12337E+00  2.12520E+00  2.01427E+00  1.58934E+00  7.95241E-01 -2.15222E-01 -1.18503E+00 -1.95195E+00
  -2.51481E+00 -2.80233E+00 -2.68700E+00 -2.20017E+00 -1.55736E+00 -9.51837E-01 -3.96130E-01  1.31910E-01  6.27360E-01  1.11222E+00
   1.59442E+00  2.08612E+00  2.59024E+00  3.10918E+00  3.73249E+00  4.56715E+00  5.57696E+00  6.72638E+00  7.98969E+00  9.34015E+00
   1.07470E+01  1.21749E+01  1.35848E+01  1.49349E+01  1.61827E+01  1.72866E+01  1.82086E+01  1.89165E+01  1.93858E+01  1.96010E+01
   1.95564E+01  1.92568E+01  1.87166E+01  1.79593E+01  1.70156E+01  1.59214E+01  1.47159E+01  1.34390E+01  1.21297E+01  1.08243E+01
   9.55482E+00  8.34819E+00  7.22560E+00  6.20267E+00  5.28983E+00  4.49286E+00  3.81356E+00  3.25060E+00  2.80043E+00  2.45821E+00
   2.21848E+00  2.07565E+00  2.02427E+00  2.05924E+00  2.17596E+00  2.37028E+00  2.63832E+00  2.97606E+00  3.37902E+00  3.84192E+00
   4.35847E+00  4.92114E+00  5.52092E+00  6.14713E+00  6.78746E+00  7.42820E+00  8.05467E+00  8.65156E+00  9.20347E+00  9.69536E+00
   1.01133E+01  1.04451E+01  1.06809E+01  1.08137E+01  1.08396E+01  1.07578E+01  1.05707E+01  1.02838E+01  9.90552E+00  9.44639E+00
   8.91867E+00  8.33560E+00  7.71097E+00  7.05850E+00  6.39134E+00  5.72155E+00  5.05972E+00  4.41484E+00  3.79424E+00  3.20363E+00
   2.64707E+00  2.12709E+00  1.64483E+00  1.20035E+00  7.92879E-01  4.21002E-01  8.27924E-02 -2.24059E-01 -5.02075E-01 -7.53794E-01
  -9.81656E-01 -1.18798E+00 -1.37502E+00 -1.54489E+00 -1.69956E+00 -1.84072E+00 -1.96983E+00 -2.08822E+00 -2.19710E+00 -2.29759E+00
  -2.39066E+00 -2.47706E+00 -2.55745E+00 -2.63244E+00 -2.70262E+00 -2.76852E+00 -2.83056E+00 -2.88907E+00 -2.94432E+00 -2.99662E+00
  -3.04628E+00 -3.09357E+00 -3.13865E+00 -3.18166E+00 -3.22272E+00 -3.26203E+00 -3.29976E+00 -3.33607E+00 -3.37100E+00 -3.40461E+00
  -3.43698E+00 -3.46825E+00 -3.49853E+00 -3.52789E+00 -3.55632E+00 -3.58386E+00 -3.61058E+00 -3.63660E+00 -3.66199E+00 -3.68673E+00
  -3.71081E+00 -3.73427E+00 -3.75719E+00 -3.77965E+00 -3.80167E+00 -3.82321E+00 -3.84429E+00 -3.86493E+00 -3.88523E+00 -3.90523E+00
  -3.92492E+00 -3.94426E+00 -3.96327E+00 -3.98201E+00 -4.00055E+00 -4.01890E+00 -4.03703E+00 -4.05492E+00 -4.07259E+00 -4.09013E+00
  -4.10759E+00 -4.12494E+00 -4.14216E+00 -4.15925E+00 -4.17626E+00 -4.19326E+00 -4.21029E+00 -4.22732E+00
 NY background values follow
     2.211E+01    2.200E+01    2.188E+01    2.177E+01    2.165E+01    2.153E+01    2.142E+01    2.130E+01    2.119E+01    2.107E+01
     2.096E+01    2.084E+01    2.072E+01    2.061E+01    2.049E+01    2.038E+01    2.026E+01    2.015E+01    2.003E+01    1.991E+01
     1.980E+01    1.968E+01    1.957E+01    1.945E+01    1.934E+01    1.922E+01    1.910E+01    1.899E+01    1.887E+01    1.876E+01
     1.864E+01    1.853E+01    1.841E+01    1.830E+01    1.818E+01    1.807E+01    1.795E+01    1.784E+01    1.772E+01    1.761E+01
     1.749E+01    1.738E+01    1.726E+01    1.715E+01    1.703E+01    1.692E+01    1.680E+01    1.669E+01    1.657E+01    1.646E+01
     1.635E+01    1.623E+01    1.612E+01    1.601E+01    1.589E+01    1.578E+01    1.567E+01    1.555E+01    1.544E+01    1.533E+01
     1.521E+01    1.510E+01    1.499E+01    1.488E+01    1.477E+01    1.465E+01    1.454E+01    1.443E+01    1.432E+01    1.421E+01
     1.410E+01    1.399E+01    1.388E+01    1.377E+01    1.366E+01    1.355E+01    1.344E+01    1.333E+01    1.322E+01    1.311E+01
     1.300E+01    1.290E+01    1.279E+01    1.268E+01    1.257E+01    1.247E+01    1.236E+01    1.226E+01    1.215E+01    1.204E+01
     1.194E+01    1.183E+01    1.173E+01    1.162E+01    1.152E+01    1.142E+01    1.131E+01    1.121E+01    1.111E+01    1.101E+01
     1.090E+01    1.080E+01    1.070E+01    1.060E+01    1.050E+01    1.040E+01    1.030E+01    1.020E+01    1.010E+01    1.000E+01
     9.904E+00    9.806E+00    9.708E+00    9.611E+00    9.514E+00    9.417E+00    9.321E+00    9.225E+00    9.129E+00    9.034E+00
     8.939E+00    8.845E+00    8.751E+00    8.657E+00    8.564E+00    8.471E+00    8.378E+00    8.286E+00    8.194E+00    8.103E+00
     8.012E+00    7.921E+00    7.831E+00    7.741E+00    7.651E+00    7.562E+00    7.473E+00    7.385E+00    7.297E+00    7.210E+00
     7.122E+00    7.036E+00    6.949E+00    6.863E+00    6.778E+00    6.693E+00    6.608E+00    6.523E+00    6.439E+00    6.356E+00
     6.273E+00    6.190E+00    6.107E+00    6.025E+00    5.944E+00    5.862E+00    5.781E+00    5.701E+00    5.621E+00    5.541E+00
     5.462E+00    5.383E+00    5.305E+00    5.227E+00    5.149E+00    5.072E+00    4.995E+00    4.918E+00    4.842E+00    4.766E+00
     4.691E+00    4.616E+00    4.542E+00    4.468E+00    4.394E+00    4.320E+00    4.248E+00    4.175E+00    4.103E+00    4.031E+00
     3.960E+00    3.889E+00    3.818E+00    3.748E+00    3.678E+00    3.609E+00    3.540E+00    3.472E+00    3.403E+00    3.335E+00
     3.268E+00    3.201E+00    3.134E+00    3.068E+00    3.002E+00    2.936E+00    2.871E+00    2.806E+00    2.742E+00    2.678E+00
     2.614E+00    2.550E+00    2.487E+00    2.424E+00    2.362E+00    2.300E+00    2.238E+00    2.177E+00    2.116E+00    2.055E+00
     1.994E+00    1.934E+00    1.874E+00    1.815E+00    1.756E+00    1.697E+00    1.638E+00    1.580E+00    1.522E+00    1.465E+00
     1.407E+00    1.350E+00    1.294E+00    1.237E+00    1.181E+00    1.125E+00    1.070E+00    1.014E+00    9.594E-01    9.047E-01
     8.503E-01    7.962E-01    7.423E-01    6.887E-01    6.354E-01    5.824E-01    5.297E-01    4.773E-01    4.251E-01    3.732E-01
     3.217E-01    2.703E-01    2.193E-01    1.686E-01    1.181E-01    6.795E-02    1.806E-02   -3.155E-02   -8.087E-02   -1.299E-01
    -1.787E-01   -2.271E-01   -2.753E-01   -3.232E-01   -3.709E-01   -4.182E-01   -4.653E-01   -5.120E-01   -5.585E-01   -6.047E-01
    -6.507E-01   -6.963E-01   -7.417E-01   -7.868E-01   -8.315E-01   -8.761E-01   -9.203E-01   -9.642E-01   -1.008E+00   -1.051E+00
    -1.094E+00   -1.137E+00   -1.180E+00   -1.222E+00   -1.264E+00   -1.306E+00   -1.347E+00   -1.388E+00   -1.429E+00   -1.470E+00
    -1.510E+00   -1.550E+00   -1.590E+00   -1.629E+00   -1.668E+00   -1.707E+00   -1.746E+00   -1.784E+00   -1.822E+00   -1.860E+00
    -1.897E+00   -1.934E+00   -1.971E+00   -2.008E+00   -2.044E+00   -2.080E+00   -2.116E+00   -2.152E+00   -2.187E+00   -2.222E+00
    -2.257E+00   -2.291E+00   -2.325E+00   -2.359E+00   -2.393E+00   -2.426E+00   -2.459E+00   -2.492E+00   -2.525E+00   -2.557E+00
    -2.589E+00   -2.620E+00   -2.652E+00   -2.683E+00   -2.714E+00   -2.744E+00   -2.775E+00   -2.805E+00   -2.835E+00   -2.864E+00
    -2.893E+00   -2.922E+00   -2.951E+00   -2.980E+00   -3.008E+00   -3.036E+00   -3.063E+00   -3.091E+00   -3.118E+00   -3.145E+00
    -3.172E+00   -3.198E+00   -3.224E+00   -3.250E+00   -3.276E+00   -3.301E+00   -3.326E+00   -3.351E+00   -3.376E+00   -3.400E+00
    -3.424E+00   -3.448E+00   -3.472E+00   -3.495E+00   -3.518E+00   -3.541E+00   -3.564E+00   -3.586E+00   -3.609E+00   -3.631E+00
    -3.652E+00   -3.674E+00   -3.695E+00   -3.716E+00   -3.737E+00   -3.758E+00   -3.778E+00   -3.798E+00   -3.818E+00   -3.838E+00
    -3.857E+00   -3.877E+00   -3.896E+00   -3.915E+00   -3.933E+00   -3.952E+00   -3.970E+00   -3.988E+00   -4.006E+00   -4.023E+00
    -4.041E+00   -4.058E+00   -4.075E+00   -4.092E+00   -4.108E+00   -4.124E+00   -4.141E+00   -4.157E+00   -4.172E+00   -4.188E+00
    -4.204E+00   -4.219E+00   -4.234E+00   -4.249E+00   -4.264E+00   -4.278E+00   -4.292E+00   -4.307E+00   -4.321E+00   -4.335E+00
    -4.348E+00   -4.362E+00   -4.375E+00   -4.388E+00   -4.401E+00   -4.414E+00   -4.427E+00   -4.440E+00   -4.452E+00   -4.464E+00
    -4.476E+00   -4.488E+00   -4.500E+00   -4.512E+00   -4.523E+00   -4.535E+00   -4.546E+00   -4.557E+00   -4.568E+00   -4.579E+00
    -4.590E+00   -4.600E+00   -4.611E+00   -4.621E+00   -4.632E+00   -4.642E+00   -4.652E+00   -4.662E+00   -4.671E+00   -4.681E+00
    -4.691E+00   -4.700E+00   -4.710E+00   -4.719E+00   -4.728E+00   -4.737E+00   -4.746E+00   -4.755E+00   -4.764E+00   -4.772E+00
    -4.781E+00   -4.789E+00   -4.798E+00   -4.806E+00   -4.815E+00   -4.823E+00   -4.831E+00   -4.839E+00   -4.847E+00   -4.855E+00
    -4.863E+00   -4.870E+00   -4.878E+00   -4.886E+00   -4.893E+00   -4.901E+00   -4.908E+00   -4.916E+00   -4.923E+00   -4.930E+00
    -4.938E+00   -4.945E+00   -4.952E+00   -4.959E+00   -4.966E+00   -4.974E+00   -4.981E+00   -4.988E+00   -4.995E+00   -5.001E+00
    -5.008E+00   -5.015E+00   -5.022E+00   -5.029E+00   -5.036E+00   -5.042E+00   -5.049E+00   -5.056E+00   -5.062E+00   -5.069E+00
    -5.076E+00   -5.082E+00   -5.089E+00   -5.096E+00   -5.102E+00   -5.109E+00   -5.115E+00   -5.122E+00   -5.128E+00   -5.135E+00
    -5.141E+00   -5.148E+00   -5.154E+00   -5.161E+00   -5.167E+00   -5.173E+00   -5.180E+00   -5.186E+00   -5.193E+00   -5.199E+00
    -5.206E+00   -5.212E+00   -5.218E+00   -5.225E+00   -5.231E+00   -5.238E+00   -5.244E+00   -5.251E+00
