 LCModel (Version 6.3-1L) Copyright: S.W. Provencher.          Ref.: Magn. Reson. Med. 30:672-679 (1993).                
 Slice#1 Row#2 Col#2  PD_24_press_1_raw_act
 36 lines in following concentration table = NCONC+1
    Conc.  %SD /Cr+PCr  Metabolite                                         
   21.469 219%   5.949 Ala                                                 
    2.370 292%   0.657 Asp                                                 
    3.609 599%   1.000 Cr                                                  
    0.000 999%   0.000 PCr                                                 
    1.219 340%   0.338 GABA                                                
    1.101 378%   0.305 Glc                                                 
    0.000 999%   0.000 Gln                                                 
  164.003  65%  45.443 Glu                                                 
    0.000 999%   0.000 GPC                                                 
    7.445 113%   2.063 PCh                                                 
    5.769 549%   1.598 GSH                                                 
    0.000 999%   0.000 Ins                                                 
  160.542  35%  44.484 Lac                                                 
   20.374 128%   5.645 NAA                                                 
    0.000 999%   0.000 NAAG                                                
    0.581 238%   0.161 Scyllo                                              
    2.645 261%   0.733 Tau                                                 
    3.533 241%   0.979 -CrCH2                                              
    7.445 113%   2.063 GPC+PCh                                             
   20.374 128%   5.645 NAA+NAAG                                            
    3.609 599%   1.000 Cr+PCr                                              
  164.003  65%  45.443 Glu+Gln                                             
    0.000 999%   0.000 Lip13a                                              
    0.000 999%   0.000 Lip13b                                              
    0.000 999%   0.000 Lip09                                               
  766.787  10% 212.465 MM09                                                
   22.981 300%   6.368 Lip20                                               
 1.15E+03  10% 318.699 MM20                                                
  230.043  10%  63.742 MM12                                                
  575.334  10% 159.417 MM14                                                
  287.769  10%  79.737 MM17                                                
    0.000 999%   0.000 Lip13a+Lip13b                                       
  805.377  10% 223.158 MM14+Lip13a+Lip13b+MM12                             
  766.787  10% 212.465 MM09+Lip09                                          
 1.17E+03  10% 325.067 MM20+Lip20                                          
   6 lines in following misc. output table
  FWHM = 0.054 ppm    S/N =   1                                            
  Data shift = 0.069 ppm                                                   
  Ph: 119 deg    -113.4 deg/ppm                                            
  alphaB,S = 8.5E+01,   4.0E+01                                            
   14 spline knots.   Ns = 5(1)                                            
   2 inflections.     1 extrema                                            
  498 points on ppm-axis = NY
      4.000000     3.992357     3.984714     3.977070     3.969427     3.961784     3.954141     3.946497     3.938854     3.931211
      3.923568     3.915925     3.908281     3.900638     3.892995     3.885352     3.877708     3.870065     3.862422     3.854779
      3.847136     3.839492     3.831849     3.824206     3.816563     3.808919     3.801276     3.793633     3.785990     3.778347
      3.770703     3.763060     3.755417     3.747774     3.740130     3.732487     3.724844     3.717201     3.709558     3.701914
      3.694271     3.686628     3.678985     3.671341     3.663698     3.656055     3.648412     3.640769     3.633125     3.625482
      3.617839     3.610196     3.602552     3.594909     3.587266     3.579623     3.571980     3.564336     3.556693     3.549050
      3.541407     3.533763     3.526120     3.518477     3.510834     3.503191     3.495547     3.487904     3.480261     3.472618
      3.464974     3.457331     3.449688     3.442045     3.434402     3.426758     3.419115     3.411472     3.403829     3.396185
      3.388542     3.380899     3.373256     3.365613     3.357969     3.350326     3.342683     3.335040     3.327396     3.319753
      3.312110     3.304467     3.296824     3.289180     3.281537     3.273894     3.266251     3.258607     3.250964     3.243321
      3.235678     3.228034     3.220391     3.212748     3.205105     3.197462     3.189818     3.182175     3.174532     3.166889
      3.159245     3.151602     3.143959     3.136316     3.128673     3.121029     3.113386     3.105743     3.098100     3.090456
      3.082813     3.075170     3.067527     3.059884     3.052240     3.044597     3.036954     3.029311     3.021667     3.014024
      3.006381     2.998738     2.991095     2.983451     2.975808     2.968165     2.960522     2.952878     2.945235     2.937592
      2.929949     2.922306     2.914662     2.907019     2.899376     2.891733     2.884089     2.876446     2.868803     2.861160
      2.853517     2.845873     2.838230     2.830587     2.822944     2.815300     2.807657     2.800014     2.792371     2.784728
      2.777084     2.769441     2.761798     2.754155     2.746511     2.738868     2.731225     2.723582     2.715939     2.708295
      2.700652     2.693009     2.685366     2.677722     2.670079     2.662436     2.654793     2.647150     2.639506     2.631863
      2.624220     2.616577     2.608933     2.601290     2.593647     2.586004     2.578361     2.570717     2.563074     2.555431
      2.547788     2.540144     2.532501     2.524858     2.517215     2.509572     2.501928     2.494285     2.486642     2.478999
      2.471355     2.463712     2.456069     2.448426     2.440783     2.433139     2.425496     2.417853     2.410210     2.402566
      2.394923     2.387280     2.379637     2.371994     2.364350     2.356707     2.349064     2.341421     2.333777     2.326134
      2.318491     2.310848     2.303205     2.295561     2.287918     2.280275     2.272632     2.264988     2.257345     2.249702
      2.242059     2.234416     2.226772     2.219129     2.211486     2.203843     2.196199     2.188556     2.180913     2.173270
      2.165627     2.157983     2.150340     2.142697     2.135054     2.127410     2.119767     2.112124     2.104481     2.096838
      2.089194     2.081551     2.073908     2.066265     2.058621     2.050978     2.043335     2.035692     2.028049     2.020405
      2.012762     2.005119     1.997476     1.989833     1.982190     1.974546     1.966903     1.959260     1.951617     1.943974
      1.936331     1.928688     1.921045     1.913402     1.905759     1.898115     1.890472     1.882829     1.875186     1.867543
      1.859900     1.852257     1.844614     1.836971     1.829327     1.821684     1.814041     1.806398     1.798755     1.791112
      1.783469     1.775826     1.768183     1.760540     1.752896     1.745253     1.737610     1.729967     1.722324     1.714681
      1.707038     1.699395     1.691752     1.684108     1.676465     1.668822     1.661179     1.653536     1.645893     1.638250
      1.630607     1.622964     1.615321     1.607677     1.600034     1.592391     1.584748     1.577105     1.569462     1.561819
      1.554176     1.546533     1.538890     1.531246     1.523603     1.515960     1.508317     1.500674     1.493031     1.485388
      1.477745     1.470102     1.462458     1.454815     1.447172     1.439529     1.431886     1.424243     1.416600     1.408957
      1.401314     1.393671     1.386027     1.378384     1.370741     1.363098     1.355455     1.347812     1.340169     1.332526
      1.324883     1.317240     1.309596     1.301953     1.294310     1.286667     1.279024     1.271381     1.263738     1.256095
      1.248452     1.240808     1.233165     1.225522     1.217879     1.210236     1.202593     1.194950     1.187307     1.179664
      1.172021     1.164377     1.156734     1.149091     1.141448     1.133805     1.126162     1.118519     1.110876     1.103233
      1.095590     1.087946     1.080303     1.072660     1.065017     1.057374     1.049731     1.042088     1.034445     1.026802
      1.019158     1.011515     1.003872     0.996229     0.988586     0.980943     0.973300     0.965657     0.958014     0.950371
      0.942727     0.935084     0.927441     0.919798     0.912155     0.904512     0.896869     0.889226     0.881583     0.873940
      0.866296     0.858653     0.851010     0.843367     0.835724     0.828081     0.820438     0.812795     0.805152     0.797508
      0.789865     0.782222     0.774579     0.766936     0.759293     0.751650     0.744007     0.736364     0.728721     0.721077
      0.713434     0.705791     0.698148     0.690505     0.682862     0.675219     0.667576     0.659933     0.652290     0.644646
      0.637003     0.629360     0.621717     0.614074     0.606431     0.598788     0.591145     0.583502     0.575858     0.568215
      0.560572     0.552929     0.545286     0.537643     0.530000     0.522357     0.514714     0.507071     0.499427     0.491784
      0.484141     0.476498     0.468855     0.461212     0.453569     0.445925     0.438282     0.430639     0.422996     0.415353
      0.407710     0.400067     0.392424     0.384780     0.377137     0.369494     0.361851     0.354208     0.346565     0.338922
      0.331278     0.323635     0.315992     0.308349     0.300706     0.293063     0.285420     0.277777     0.270133     0.262490
      0.254847     0.247204     0.239561     0.231918     0.224275     0.216631     0.208988     0.201345
 NY phased data points follow
   3.27203E+00  2.86603E+00  1.06743E+00  2.68877E-01  1.78959E+00  8.03324E-01 -4.34761E-01 -1.95842E+00  6.16123E+00  9.51895E-01
   1.96413E+00  1.14253E+00  3.01216E+00  1.01696E+00 -1.66065E-01  9.21458E-01  2.22573E+00  2.45542E+00  3.68580E+00  9.81863E-01
   2.39710E+00  1.72311E+00  1.49605E+00  3.22430E+00  2.75982E+00  1.73211E+00  1.87547E+00  2.63459E+00 -2.06491E+00  2.72420E+00
   5.41234E+00  4.42105E+00  3.87276E+00  1.48932E+00 -7.41009E-01  6.62229E-01  2.94977E+00  2.63937E-01  2.21187E+00  3.20475E+00
   9.70843E-01  2.55924E+00  2.24719E+00  1.81191E+00  2.15363E+00  6.67158E+00  2.08582E+00  9.93341E-04  3.44710E+00  2.84011E+00
   8.63631E-01  1.62521E+00  1.20950E+00  3.09049E-01 -2.57193E-01  3.79894E+00  3.83517E+00  1.20903E+00  1.57644E+00  4.96897E-01
   2.11156E+00  3.78220E+00  3.12185E+00  2.03904E+00  2.39014E+00  4.46189E+00  1.58506E+00  4.56148E+00 -5.02877E-02  2.47856E+00
   3.38071E+00 -2.49543E-01  2.01087E+00  2.95953E+00 -4.40617E-01  2.37103E+00  1.62661E+00  9.74937E-01  1.60378E-01  2.79295E+00
   6.19727E-01  3.70464E+00  2.62389E+00  1.47831E+00  3.15058E+00  3.43888E+00  8.85917E-01  5.34003E+00  2.84364E+00  1.18086E+00
   8.40180E-01  2.21169E+00  6.05390E-01  5.87978E+00  5.16393E+00  4.76627E+00  1.68101E+00  5.91464E+00  3.48226E+00  3.21079E+00
   8.95980E-01  2.32628E+00  3.33708E+00  5.04759E+00  2.20388E+00  9.45539E-01  3.52773E+00  9.53684E-01  3.03687E+00  5.03415E+00
  -3.02278E-01  2.20232E+00  2.57604E+00  2.56087E+00  3.59115E+00  4.06630E+00 -4.05053E-01  2.46116E+00  1.97891E+00  1.66262E+00
   2.78236E+00  3.70766E+00  4.14059E+00  3.19736E+00  3.59925E+00  4.15874E+00  2.72159E+00  3.55731E+00  3.43708E+00  3.41505E+00
   2.21148E-01  1.46851E+00  5.36601E+00  5.19916E+00  1.38189E+00  5.36836E+00  1.72205E+00  3.78261E+00  1.64572E+00  4.66361E+00
   1.40110E+00  4.39703E+00 -5.68409E-01  3.79258E+00  4.40040E+00  1.73485E+00  2.69147E+00  1.43998E+00  3.29994E+00  1.98552E-01
   5.20578E-01  2.40329E+00  3.72949E+00  1.36214E+00  1.64409E+00  1.91773E+00  4.62787E+00 -9.62346E-01  2.05148E+00  4.34663E+00
   5.36006E-01  3.29244E+00  1.94628E+00  7.96160E-01  3.31207E+00  5.97940E-01  2.86942E+00  2.42193E+00  5.62214E+00  2.62119E+00
   7.46842E-01  1.12205E+00  1.53519E+00  4.32050E+00  2.66201E+00  9.79054E-01  1.97288E+00  2.11158E-01  1.30459E+00  2.87740E+00
   1.41266E+00  2.31373E+00  2.86857E+00  1.69434E+00  2.79693E+00  1.10373E+00  9.81820E-01  2.42342E+00  2.20794E+00  2.82677E+00
   9.64508E-01  2.81899E+00  2.42821E+00  2.87153E+00  2.45051E+00 -3.15952E-01  4.24503E+00  4.92212E-01  4.30053E+00  3.29175E+00
   2.92661E+00 -8.03167E-02  4.16934E+00  3.08040E+00  1.87961E+00  3.84788E+00  5.61847E+00  3.19615E+00  2.97061E+00  3.57972E+00
   2.19819E+00  4.53439E+00  2.44820E+00  3.13311E+00  2.81218E+00  1.06074E+00  2.64348E+00 -5.18890E-01  3.20265E+00 -2.59409E-01
   2.38585E+00  3.54056E+00  8.22865E-01  1.29251E+00  3.03497E+00  5.60631E+00  1.76012E+00  2.52506E+00  2.74837E+00  4.53074E+00
   3.16497E+00  6.45632E+00  4.82194E+00  3.21963E+00  1.84260E+00  5.39087E+00  3.35121E+00  5.00338E+00  3.91455E+00  3.41572E+00
   2.06699E+00  5.04341E+00  3.93788E+00  5.28564E+00  5.75870E+00  6.46168E+00  5.13264E+00  5.42739E+00  3.19501E+00  1.91646E+00
  -8.81610E-01  3.45049E+00  3.00670E+00  3.11606E+00  6.29933E+00  3.82728E+00  4.49863E+00  3.68818E+00  6.99578E+00  6.03576E+00
   6.88842E+00  4.51109E+00  5.86547E+00  6.30095E+00  3.41056E+00  1.94577E+00  6.17654E+00  6.86769E-01  6.19790E+00  7.81957E+00
   5.30394E+00  6.25282E+00  4.97881E+00  1.16744E+00  3.17308E+00  4.65407E+00  4.04205E+00  5.31121E+00  3.81103E+00  3.00023E+00
   6.30960E+00  4.46667E+00  5.97576E+00  2.06428E+00  2.40458E+00  4.56555E+00  5.90495E+00  4.95309E+00  5.56193E+00  2.23060E+00
   3.64218E+00  3.74507E+00  4.68087E+00  3.67013E+00  3.29716E+00  5.21267E+00  2.55943E+00  3.93084E+00  5.85347E+00  3.58398E+00
   3.85625E+00  3.72301E+00  3.98973E+00  4.11494E+00  3.91363E+00  2.56128E+00  5.76994E+00  5.90309E+00  1.10793E+00  2.97487E+00
   1.36812E+00  5.34997E+00  7.04001E+00  2.40210E+00  4.28633E+00  5.34037E+00  4.94035E+00  3.48524E+00  4.34468E+00  2.84499E+00
   5.55328E+00  1.91772E+00  2.83313E+00  3.80716E+00  4.49706E+00  6.55707E+00  3.98062E+00  5.69018E+00  4.37333E+00  5.39564E+00
   4.49952E+00  3.32658E+00  7.35069E+00  5.34423E+00  6.13588E+00  2.05035E+00  6.68887E+00  7.75451E+00  4.62873E+00  4.96483E+00
   6.59418E+00  6.43669E+00  1.93235E+00  4.38655E+00  4.46422E+00  2.85004E+00  1.88451E+00  7.25412E-01 -3.95834E-01  3.12341E+00
  -7.09577E-01 -1.33485E+00 -2.93593E+00  2.05660E-01  4.95394E+00  2.88286E+00  1.98507E+00  1.86972E+00  1.79959E+00  2.26047E+00
   3.04413E+00  4.74727E+00  1.18381E+00  3.10318E+00  3.97852E+00  2.10807E+00  5.46420E+00  4.10771E+00  4.03904E+00  3.43120E+00
   6.31138E+00  4.15118E+00  2.46654E+00  1.07043E+00  4.37667E+00  6.70456E+00  9.31963E+00  5.78445E+00  4.60644E+00  5.66409E+00
   3.75607E+00  4.30721E+00  3.29633E+00  4.07434E+00  5.99899E+00  4.66164E+00  1.36911E+00  1.53843E+00  3.37764E+00  4.31434E+00
   2.85693E+00  3.50490E+00  5.54144E+00  3.45591E+00  4.58325E+00  2.98365E+00  5.15002E+00  3.52685E+00  2.38771E+00  3.27370E+00
   4.04509E+00  1.17809E+00 -1.49773E+00  3.42828E+00  3.69449E+00  4.82326E+00  7.10391E+00  4.71649E+00  3.44659E+00  1.87191E+00
   4.95562E+00  1.26581E+00  3.06563E+00  2.46686E+00 -4.38659E-01  3.82870E+00  3.58148E-01  2.26790E+00  1.72302E+00  2.43083E+00
   1.45690E-01  2.70903E+00  3.66875E-01  4.43722E+00 -5.17341E-01  2.01986E+00  2.77960E+00  9.98223E-01  3.48501E-01 -2.59576E-01
  -9.39167E-01  1.52147E+00  8.65162E-01  8.81893E-01  1.47931E-01  9.47087E-01  2.63161E+00 -2.10918E+00 -1.02624E+00  3.78740E-01
   1.93514E+00  8.86021E-01  1.10092E+00  4.14990E-01 -3.21009E-01  8.30282E-01  2.33807E+00 -3.45621E-01 -1.47530E+00 -1.01754E+00
  -5.56309E-01  1.33039E-01 -2.81271E+00 -4.13467E-01 -8.12033E-01 -3.01233E+00 -1.25638E+00  1.92999E+00  4.85590E-01 -1.59782E+00
   1.10932E+00 -3.42112E-01 -8.21127E-01  3.61590E-01  1.46149E+00 -1.05270E+00  2.53309E-01  6.56896E-01 -2.53896E+00 -1.52290E+00
  -4.44966E-01  1.35311E+00 -6.00165E-01 -1.37012E+00  1.23934E+00  1.15152E+00 -1.65949E+00 -2.25521E+00  4.40511E+00 -9.19652E-01
  -2.30866E+00  2.41945E+00 -4.78651E-01  1.58701E+00  1.85252E+00  2.39479E+00 -2.48086E+00  1.15883E-01 -1.24563E+00  1.20186E+00
  -5.82222E-02  2.04273E+00  2.93223E+00 -2.10363E-01  2.89397E-01 -1.59923E-01  9.87725E-01  1.03471E+00
 NY points of the fit to the data follow
   2.33411E+00  2.35961E+00  2.38832E+00  2.41185E+00  2.41568E+00  2.39935E+00  2.38575E+00  2.38830E+00  2.40398E+00  2.42428E+00
   2.44072E+00  2.44941E+00  2.45089E+00  2.44586E+00  2.43713E+00  2.42753E+00  2.42024E+00  2.42223E+00  2.43889E+00  2.46978E+00
   2.51612E+00  2.57598E+00  2.61549E+00  2.58759E+00  2.49233E+00  2.37042E+00  2.26979E+00  2.23739E+00  2.30062E+00  2.45195E+00
   2.62832E+00  2.75931E+00  2.80136E+00  2.73672E+00  2.58917E+00  2.42713E+00  2.30603E+00  2.24534E+00  2.23283E+00  2.25101E+00
   2.28622E+00  2.32811E+00  2.36072E+00  2.37559E+00  2.37091E+00  2.34786E+00  2.31679E+00  2.29135E+00  2.27239E+00  2.25853E+00
   2.24799E+00  2.23966E+00  2.23216E+00  2.22467E+00  2.21732E+00  2.21007E+00  2.20290E+00  2.19597E+00  2.18913E+00  2.18277E+00
   2.17735E+00  2.17287E+00  2.16920E+00  2.16550E+00  2.16153E+00  2.15680E+00  2.15105E+00  2.14471E+00  2.13841E+00  2.13255E+00
   2.12865E+00  2.12791E+00  2.12887E+00  2.12938E+00  2.12770E+00  2.12286E+00  2.11577E+00  2.10841E+00  2.10232E+00  2.09812E+00
   2.09629E+00  2.09932E+00  2.10764E+00  2.11751E+00  2.12475E+00  2.12706E+00  2.12448E+00  2.11892E+00  2.11208E+00  2.10443E+00
   2.09624E+00  2.08837E+00  2.08261E+00  2.08201E+00  2.08795E+00  2.09891E+00  2.11493E+00  2.14488E+00  2.23611E+00  2.42366E+00
   2.64778E+00  2.83584E+00  2.93740E+00  2.93949E+00  2.86590E+00  2.75525E+00  2.63508E+00  2.51851E+00  2.41465E+00  2.33489E+00
   2.29759E+00  2.30133E+00  2.31865E+00  2.34046E+00  2.36475E+00  2.39035E+00  2.41655E+00  2.44323E+00  2.47026E+00  2.49784E+00
   2.52680E+00  2.55980E+00  2.60604E+00  2.66497E+00  2.72409E+00  2.77192E+00  2.80172E+00  2.81331E+00  2.81293E+00  2.80693E+00
   2.79462E+00  2.77337E+00  2.74296E+00  2.70647E+00  2.67135E+00  2.64131E+00  2.61618E+00  2.59645E+00  2.57942E+00  2.56185E+00
   2.54175E+00  2.51815E+00  2.48966E+00  2.45626E+00  2.41917E+00  2.37950E+00  2.33882E+00  2.29863E+00  2.25966E+00  2.22237E+00
   2.18639E+00  2.15209E+00  2.12006E+00  2.09053E+00  2.06311E+00  2.03668E+00  2.00915E+00  1.98025E+00  1.95199E+00  1.92696E+00
   1.90771E+00  1.89321E+00  1.88057E+00  1.86784E+00  1.85421E+00  1.83996E+00  1.82571E+00  1.81163E+00  1.79739E+00  1.78339E+00
   1.76988E+00  1.75581E+00  1.74120E+00  1.72849E+00  1.71932E+00  1.71360E+00  1.70868E+00  1.70285E+00  1.69680E+00  1.69221E+00
   1.68959E+00  1.68749E+00  1.68357E+00  1.67856E+00  1.67696E+00  1.68300E+00  1.69734E+00  1.71726E+00  1.73757E+00  1.75448E+00
   1.76675E+00  1.77474E+00  1.77939E+00  1.78011E+00  1.77954E+00  1.78180E+00  1.78968E+00  1.80421E+00  1.82672E+00  1.85971E+00
   1.90442E+00  1.95777E+00  1.99923E+00  2.02214E+00  2.01731E+00  1.97272E+00  1.90127E+00  1.82716E+00  1.78173E+00  1.80640E+00
   1.94532E+00  2.23491E+00  2.58498E+00  2.87836E+00  3.02852E+00  3.00512E+00  2.80636E+00  2.44170E+00  1.98869E+00  1.59143E+00
   1.37089E+00  1.37292E+00  1.58602E+00  1.94300E+00  2.33544E+00  2.69796E+00  2.99261E+00  3.20130E+00  3.32316E+00  3.37138E+00
   3.39017E+00  3.42846E+00  3.50018E+00  3.59693E+00  3.70804E+00  3.80927E+00  3.88914E+00  3.94571E+00  3.98299E+00  4.03494E+00
   4.13506E+00  4.28743E+00  4.47654E+00  4.68574E+00  4.88697E+00  5.04623E+00  5.14359E+00  5.18534E+00  5.20327E+00  5.22289E+00
   5.25627E+00  5.30355E+00  5.34701E+00  5.35641E+00  5.34040E+00  5.36558E+00  5.47890E+00  5.62566E+00  5.73722E+00  5.76787E+00
   5.69060E+00  5.51724E+00  5.28619E+00  5.02515E+00  4.74898E+00  4.46807E+00  4.20112E+00  3.97255E+00  3.79189E+00  3.64408E+00
   3.52474E+00  3.42855E+00  3.34257E+00  3.25995E+00  3.17850E+00  3.09485E+00  3.00846E+00  2.92211E+00  2.83918E+00  2.76392E+00
   2.70165E+00  2.65502E+00  2.62332E+00  2.60517E+00  2.59990E+00  2.60709E+00  2.62595E+00  2.65516E+00  2.69410E+00  2.74233E+00
   2.79866E+00  2.86144E+00  2.92868E+00  2.99809E+00  3.06713E+00  3.13317E+00  3.19379E+00  3.24685E+00  3.29052E+00  3.32337E+00
   3.34443E+00  3.35328E+00  3.35009E+00  3.33571E+00  3.31165E+00  3.27997E+00  3.24322E+00  3.20426E+00  3.16615E+00  3.13196E+00
   3.10474E+00  3.08725E+00  3.08194E+00  3.09084E+00  3.11544E+00  3.15668E+00  3.21499E+00  3.29029E+00  3.38221E+00  3.49034E+00
   3.61512E+00  3.76087E+00  3.93611E+00  4.11282E+00  4.24635E+00  4.31806E+00  4.33146E+00  4.30486E+00  4.25841E+00  4.20256E+00
   4.16465E+00  4.17932E+00  4.24501E+00  4.34087E+00  4.43719E+00  4.49779E+00  4.50820E+00  4.48090E+00  4.43347E+00  4.38522E+00
   4.36520E+00  4.43929E+00  4.71892E+00  5.02454E+00  5.03496E+00  4.62545E+00  3.84164E+00  2.84347E+00  1.80441E+00  8.69129E-01
   3.42756E-01  3.81016E-01  8.94625E-01  1.69321E+00  2.55120E+00  3.21679E+00  3.59725E+00  3.75791E+00  3.75985E+00  3.64172E+00
   3.43276E+00  3.19104E+00  3.02837E+00  2.94873E+00  2.90780E+00  2.88678E+00  2.87734E+00  2.87514E+00  2.87789E+00  2.88450E+00
   2.89475E+00  2.90894E+00  2.92772E+00  2.95194E+00  2.98262E+00  3.02087E+00  3.06779E+00  3.12437E+00  3.19140E+00  3.26938E+00
   3.35856E+00  3.45886E+00  3.56981E+00  3.69052E+00  3.81966E+00  3.95546E+00  4.09576E+00  4.23807E+00  4.37961E+00  4.51730E+00
   4.64793E+00  4.76824E+00  4.87507E+00  4.96546E+00  5.03672E+00  5.08656E+00  5.11317E+00  5.11532E+00  5.09244E+00  5.04455E+00
   4.97232E+00  4.87699E+00  4.76031E+00  4.62454E+00  4.47225E+00  4.30629E+00  4.12961E+00  3.94517E+00  3.75588E+00  3.56447E+00
   3.37349E+00  3.18516E+00  3.00137E+00  2.82369E+00  2.65334E+00  2.49127E+00  2.33808E+00  2.19412E+00  2.05950E+00  1.93412E+00
   1.81777E+00  1.71010E+00  1.61068E+00  1.51900E+00  1.43453E+00  1.35673E+00  1.28507E+00  1.21904E+00  1.15815E+00  1.10192E+00
   1.04990E+00  1.00171E+00  9.56984E-01  9.15404E-01  8.76661E-01  8.40476E-01  8.06604E-01  7.74835E-01  7.44985E-01  7.16877E-01
   6.90350E-01  6.65255E-01  6.41470E-01  6.18890E-01  5.97420E-01  5.76964E-01  5.57434E-01  5.38750E-01  5.20853E-01  5.03689E-01
   4.87206E-01  4.71347E-01  4.56062E-01  4.41308E-01  4.27056E-01  4.13277E-01  3.99937E-01  3.86999E-01  3.74434E-01  3.62220E-01
   3.50344E-01  3.38785E-01  3.27521E-01  3.16526E-01  3.05786E-01  2.95289E-01  2.85028E-01  2.74989E-01  2.65153E-01  2.55504E-01
   2.46036E-01  2.36744E-01  2.27624E-01  2.18662E-01  2.09845E-01  2.01163E-01  1.92614E-01  1.84197E-01  1.75906E-01  1.67729E-01
   1.59658E-01  1.51687E-01  1.43819E-01  1.36051E-01  1.28378E-01  1.20788E-01  1.13279E-01  1.05847E-01  9.84973E-02  9.12244E-02
   8.40233E-02  7.68855E-02  6.98106E-02  6.27993E-02  5.58540E-02  4.89692E-02  4.21403E-02  3.53622E-02
 NY background values follow
     2.404E+00    2.399E+00    2.394E+00    2.389E+00    2.384E+00    2.379E+00    2.374E+00    2.369E+00    2.364E+00    2.359E+00
     2.354E+00    2.349E+00    2.344E+00    2.339E+00    2.334E+00    2.329E+00    2.324E+00    2.319E+00    2.314E+00    2.309E+00
     2.304E+00    2.299E+00    2.294E+00    2.289E+00    2.284E+00    2.279E+00    2.274E+00    2.269E+00    2.265E+00    2.260E+00
     2.255E+00    2.250E+00    2.245E+00    2.240E+00    2.235E+00    2.230E+00    2.225E+00    2.220E+00    2.215E+00    2.210E+00
     2.205E+00    2.200E+00    2.195E+00    2.190E+00    2.185E+00    2.180E+00    2.175E+00    2.170E+00    2.165E+00    2.160E+00
     2.155E+00    2.150E+00    2.145E+00    2.140E+00    2.135E+00    2.130E+00    2.125E+00    2.120E+00    2.115E+00    2.110E+00
     2.105E+00    2.100E+00    2.095E+00    2.091E+00    2.086E+00    2.081E+00    2.076E+00    2.071E+00    2.066E+00    2.061E+00
     2.056E+00    2.051E+00    2.046E+00    2.041E+00    2.036E+00    2.031E+00    2.026E+00    2.021E+00    2.016E+00    2.011E+00
     2.006E+00    2.001E+00    1.996E+00    1.991E+00    1.986E+00    1.981E+00    1.976E+00    1.971E+00    1.966E+00    1.961E+00
     1.956E+00    1.951E+00    1.946E+00    1.941E+00    1.936E+00    1.931E+00    1.926E+00    1.921E+00    1.917E+00    1.912E+00
     1.907E+00    1.902E+00    1.897E+00    1.892E+00    1.887E+00    1.882E+00    1.877E+00    1.872E+00    1.867E+00    1.862E+00
     1.857E+00    1.852E+00    1.847E+00    1.842E+00    1.837E+00    1.832E+00    1.827E+00    1.822E+00    1.817E+00    1.812E+00
     1.807E+00    1.802E+00    1.797E+00    1.792E+00    1.787E+00    1.782E+00    1.777E+00    1.772E+00    1.767E+00    1.762E+00
     1.757E+00    1.752E+00    1.747E+00    1.743E+00    1.738E+00    1.733E+00    1.728E+00    1.723E+00    1.718E+00    1.713E+00
     1.708E+00    1.703E+00    1.698E+00    1.693E+00    1.688E+00    1.683E+00    1.678E+00    1.673E+00    1.668E+00    1.663E+00
     1.658E+00    1.653E+00    1.648E+00    1.643E+00    1.638E+00    1.633E+00    1.628E+00    1.623E+00    1.618E+00    1.613E+00
     1.608E+00    1.603E+00    1.598E+00    1.593E+00    1.588E+00    1.583E+00    1.578E+00    1.573E+00    1.568E+00    1.564E+00
     1.559E+00    1.554E+00    1.549E+00    1.544E+00    1.539E+00    1.534E+00    1.529E+00    1.524E+00    1.519E+00    1.514E+00
     1.509E+00    1.504E+00    1.499E+00    1.494E+00    1.489E+00    1.484E+00    1.479E+00    1.474E+00    1.469E+00    1.464E+00
     1.459E+00    1.454E+00    1.449E+00    1.444E+00    1.439E+00    1.434E+00    1.429E+00    1.424E+00    1.419E+00    1.414E+00
     1.409E+00    1.404E+00    1.399E+00    1.394E+00    1.389E+00    1.385E+00    1.380E+00    1.375E+00    1.370E+00    1.365E+00
     1.360E+00    1.355E+00    1.350E+00    1.345E+00    1.340E+00    1.335E+00    1.330E+00    1.325E+00    1.320E+00    1.315E+00
     1.310E+00    1.305E+00    1.300E+00    1.295E+00    1.290E+00    1.285E+00    1.280E+00    1.275E+00    1.270E+00    1.265E+00
     1.260E+00    1.255E+00    1.250E+00    1.245E+00    1.240E+00    1.235E+00    1.230E+00    1.225E+00    1.220E+00    1.215E+00
     1.210E+00    1.205E+00    1.201E+00    1.196E+00    1.191E+00    1.186E+00    1.181E+00    1.176E+00    1.171E+00    1.166E+00
     1.161E+00    1.156E+00    1.151E+00    1.146E+00    1.141E+00    1.136E+00    1.131E+00    1.126E+00    1.121E+00    1.116E+00
     1.111E+00    1.106E+00    1.101E+00    1.096E+00    1.091E+00    1.086E+00    1.081E+00    1.076E+00    1.071E+00    1.066E+00
     1.061E+00    1.056E+00    1.051E+00    1.046E+00    1.041E+00    1.036E+00    1.031E+00    1.026E+00    1.021E+00    1.017E+00
     1.012E+00    1.007E+00    1.002E+00    9.966E-01    9.916E-01    9.867E-01    9.817E-01    9.767E-01    9.717E-01    9.668E-01
     9.618E-01    9.568E-01    9.518E-01    9.469E-01    9.419E-01    9.369E-01    9.320E-01    9.270E-01    9.220E-01    9.170E-01
     9.121E-01    9.071E-01    9.021E-01    8.971E-01    8.922E-01    8.872E-01    8.822E-01    8.772E-01    8.723E-01    8.673E-01
     8.623E-01    8.573E-01    8.524E-01    8.474E-01    8.424E-01    8.374E-01    8.325E-01    8.275E-01    8.225E-01    8.176E-01
     8.126E-01    8.076E-01    8.026E-01    7.977E-01    7.927E-01    7.877E-01    7.827E-01    7.778E-01    7.728E-01    7.678E-01
     7.628E-01    7.579E-01    7.529E-01    7.479E-01    7.429E-01    7.380E-01    7.330E-01    7.280E-01    7.230E-01    7.181E-01
     7.131E-01    7.081E-01    7.032E-01    6.982E-01    6.932E-01    6.882E-01    6.833E-01    6.783E-01    6.733E-01    6.683E-01
     6.634E-01    6.584E-01    6.534E-01    6.484E-01    6.435E-01    6.385E-01    6.335E-01    6.285E-01    6.236E-01    6.186E-01
     6.136E-01    6.086E-01    6.037E-01    5.987E-01    5.937E-01    5.887E-01    5.838E-01    5.788E-01    5.738E-01    5.688E-01
     5.639E-01    5.589E-01    5.539E-01    5.489E-01    5.440E-01    5.390E-01    5.340E-01    5.291E-01    5.241E-01    5.191E-01
     5.141E-01    5.092E-01    5.042E-01    4.992E-01    4.942E-01    4.893E-01    4.843E-01    4.793E-01    4.743E-01    4.694E-01
     4.644E-01    4.594E-01    4.544E-01    4.495E-01    4.445E-01    4.395E-01    4.345E-01    4.296E-01    4.246E-01    4.196E-01
     4.146E-01    4.097E-01    4.047E-01    3.997E-01    3.947E-01    3.898E-01    3.848E-01    3.798E-01    3.748E-01    3.699E-01
     3.649E-01    3.599E-01    3.549E-01    3.500E-01    3.450E-01    3.400E-01    3.350E-01    3.301E-01    3.251E-01    3.201E-01
     3.151E-01    3.102E-01    3.052E-01    3.002E-01    2.953E-01    2.903E-01    2.853E-01    2.803E-01    2.754E-01    2.704E-01
     2.654E-01    2.604E-01    2.555E-01    2.505E-01    2.455E-01    2.405E-01    2.356E-01    2.306E-01    2.256E-01    2.206E-01
     2.157E-01    2.107E-01    2.057E-01    2.007E-01    1.958E-01    1.908E-01    1.858E-01    1.808E-01    1.759E-01    1.709E-01
     1.659E-01    1.609E-01    1.560E-01    1.510E-01    1.460E-01    1.410E-01    1.361E-01    1.311E-01    1.261E-01    1.211E-01
     1.162E-01    1.112E-01    1.062E-01    1.012E-01    9.627E-02    9.130E-02    8.632E-02    8.135E-02    7.637E-02    7.140E-02
     6.642E-02    6.145E-02    5.647E-02    5.150E-02    4.653E-02    4.155E-02    3.658E-02    3.160E-02    2.663E-02    2.165E-02
     1.668E-02    1.170E-02    6.730E-03    1.755E-03   -3.219E-03   -8.194E-03   -1.317E-02   -1.814E-02   -2.312E-02   -2.809E-02
    -3.307E-02   -3.804E-02   -4.302E-02   -4.799E-02   -5.296E-02   -5.794E-02   -6.291E-02   -6.789E-02
 Ala      Conc. = 2.15E+01
