 LCModel (Version 6.3-1L) Copyright: S.W. Provencher.          Ref.: Magn. Reson. Med. 30:672-679 (1993).                
 Slice#3 Row#10 Col#12  PD_24_press_1_raw_act
 36 lines in following concentration table = NCONC+1
    Conc.  %SD /Cr+PCr  Metabolite                                         
   54.699  88%   0.188 Ala                                                 
   50.364 142%   0.173 Asp                                                 
    0.000 999%   0.000 Cr                                                  
  291.180  10%   1.000 PCr                                                 
    0.000 999%   0.000 GABA                                                
   64.774  69%   0.222 Glc                                                 
  109.006  87%   0.374 Gln                                                 
  465.403  24%   1.598 Glu                                                 
   90.200  12%   0.310 GPC                                                 
    0.000 999%   0.000 PCh                                                 
   50.223  69%   0.172 GSH                                                 
  249.754  48%   0.858 Ins                                                 
    8.207 632% 2.8E-02 Lac                                                 
  590.581   6%   2.028 NAA                                                 
    0.000 999%   0.000 NAAG                                                
   36.407  31%   0.125 Scyllo                                              
   81.136  88%   0.279 Tau                                                 
  136.553  34%   0.469 -CrCH2                                              
   90.200  12%   0.310 GPC+PCh                                             
  590.581   6%   2.028 NAA+NAAG                                            
  291.180  10%   1.000 Cr+PCr                                              
  574.409  25%   1.973 Glu+Gln                                             
 2.32E+04   4%  79.653 Lip13a                                              
    0.000 999%   0.000 Lip13b                                              
    0.000 999%   0.000 Lip09                                               
    0.000 999%   0.000 MM09                                                
   51.568 554%   0.177 Lip20                                               
   48.236 367%   0.166 MM20                                                
    0.000 999%   0.000 MM12                                                
  539.019  35%   1.851 MM14                                                
    0.000 999%   0.000 MM17                                                
 2.32E+04   4%  79.653 Lip13a+Lip13b                                       
 2.37E+04   4%  81.504 MM14+Lip13a+Lip13b+MM12                             
    0.000 999%   0.000 MM09+Lip09                                          
   99.805 233%   0.343 MM20+Lip20                                          
   6 lines in following misc. output table
  FWHM = 0.054 ppm    S/N =  15                                            
  Data shift = 0.000 ppm                                                   
  Ph:-154 deg     -65.4 deg/ppm                                            
  alphaB,S = 8.8E-01,   5.0E+01                                            
   14 spline knots.   Ns = 6(1)                                            
  ( 4) 2 infls.   ( 1) 1 extrs.                                            
  498 points on ppm-axis = NY
      4.000000     3.992357     3.984714     3.977070     3.969427     3.961784     3.954141     3.946497     3.938854     3.931211
      3.923568     3.915925     3.908281     3.900638     3.892995     3.885352     3.877708     3.870065     3.862422     3.854779
      3.847136     3.839492     3.831849     3.824206     3.816563     3.808919     3.801276     3.793633     3.785990     3.778347
      3.770703     3.763060     3.755417     3.747774     3.740130     3.732487     3.724844     3.717201     3.709558     3.701914
      3.694271     3.686628     3.678985     3.671341     3.663698     3.656055     3.648412     3.640769     3.633125     3.625482
      3.617839     3.610196     3.602552     3.594909     3.587266     3.579623     3.571980     3.564336     3.556693     3.549050
      3.541407     3.533763     3.526120     3.518477     3.510834     3.503191     3.495547     3.487904     3.480261     3.472618
      3.464974     3.457331     3.449688     3.442045     3.434402     3.426758     3.419115     3.411472     3.403829     3.396185
      3.388542     3.380899     3.373256     3.365613     3.357969     3.350326     3.342683     3.335040     3.327396     3.319753
      3.312110     3.304467     3.296824     3.289180     3.281537     3.273894     3.266251     3.258607     3.250964     3.243321
      3.235678     3.228034     3.220391     3.212748     3.205105     3.197462     3.189818     3.182175     3.174532     3.166889
      3.159245     3.151602     3.143959     3.136316     3.128673     3.121029     3.113386     3.105743     3.098100     3.090456
      3.082813     3.075170     3.067527     3.059884     3.052240     3.044597     3.036954     3.029311     3.021667     3.014024
      3.006381     2.998738     2.991095     2.983451     2.975808     2.968165     2.960522     2.952878     2.945235     2.937592
      2.929949     2.922306     2.914662     2.907019     2.899376     2.891733     2.884089     2.876446     2.868803     2.861160
      2.853517     2.845873     2.838230     2.830587     2.822944     2.815300     2.807657     2.800014     2.792371     2.784728
      2.777084     2.769441     2.761798     2.754155     2.746511     2.738868     2.731225     2.723582     2.715939     2.708295
      2.700652     2.693009     2.685366     2.677722     2.670079     2.662436     2.654793     2.647150     2.639506     2.631863
      2.624220     2.616577     2.608933     2.601290     2.593647     2.586004     2.578361     2.570717     2.563074     2.555431
      2.547788     2.540144     2.532501     2.524858     2.517215     2.509572     2.501928     2.494285     2.486642     2.478999
      2.471355     2.463712     2.456069     2.448426     2.440783     2.433139     2.425496     2.417853     2.410210     2.402566
      2.394923     2.387280     2.379637     2.371994     2.364350     2.356707     2.349064     2.341421     2.333777     2.326134
      2.318491     2.310848     2.303205     2.295561     2.287918     2.280275     2.272632     2.264988     2.257345     2.249702
      2.242059     2.234416     2.226772     2.219129     2.211486     2.203843     2.196199     2.188556     2.180913     2.173270
      2.165627     2.157983     2.150340     2.142697     2.135054     2.127410     2.119767     2.112124     2.104481     2.096838
      2.089194     2.081551     2.073908     2.066265     2.058621     2.050978     2.043335     2.035692     2.028049     2.020405
      2.012762     2.005119     1.997476     1.989833     1.982190     1.974546     1.966903     1.959260     1.951617     1.943974
      1.936331     1.928688     1.921045     1.913402     1.905759     1.898115     1.890472     1.882829     1.875186     1.867543
      1.859900     1.852257     1.844614     1.836971     1.829327     1.821684     1.814041     1.806398     1.798755     1.791112
      1.783469     1.775826     1.768183     1.760540     1.752896     1.745253     1.737610     1.729967     1.722324     1.714681
      1.707038     1.699395     1.691752     1.684108     1.676465     1.668822     1.661179     1.653536     1.645893     1.638250
      1.630607     1.622964     1.615321     1.607677     1.600034     1.592391     1.584748     1.577105     1.569462     1.561819
      1.554176     1.546533     1.538890     1.531246     1.523603     1.515960     1.508317     1.500674     1.493031     1.485388
      1.477745     1.470102     1.462458     1.454815     1.447172     1.439529     1.431886     1.424243     1.416600     1.408957
      1.401314     1.393671     1.386027     1.378384     1.370741     1.363098     1.355455     1.347812     1.340169     1.332526
      1.324883     1.317240     1.309596     1.301953     1.294310     1.286667     1.279024     1.271381     1.263738     1.256095
      1.248452     1.240808     1.233165     1.225522     1.217879     1.210236     1.202593     1.194950     1.187307     1.179664
      1.172021     1.164377     1.156734     1.149091     1.141448     1.133805     1.126162     1.118519     1.110876     1.103233
      1.095590     1.087946     1.080303     1.072660     1.065017     1.057374     1.049731     1.042088     1.034445     1.026802
      1.019158     1.011515     1.003872     0.996229     0.988586     0.980943     0.973300     0.965657     0.958014     0.950371
      0.942727     0.935084     0.927441     0.919798     0.912155     0.904512     0.896869     0.889226     0.881583     0.873940
      0.866296     0.858653     0.851010     0.843367     0.835724     0.828081     0.820438     0.812795     0.805152     0.797508
      0.789865     0.782222     0.774579     0.766936     0.759293     0.751650     0.744007     0.736364     0.728721     0.721077
      0.713434     0.705791     0.698148     0.690505     0.682862     0.675219     0.667576     0.659933     0.652290     0.644646
      0.637003     0.629360     0.621717     0.614074     0.606431     0.598788     0.591145     0.583502     0.575858     0.568215
      0.560572     0.552929     0.545286     0.537643     0.530000     0.522357     0.514714     0.507071     0.499427     0.491784
      0.484141     0.476498     0.468855     0.461212     0.453569     0.445925     0.438282     0.430639     0.422996     0.415353
      0.407710     0.400067     0.392424     0.384780     0.377137     0.369494     0.361851     0.354208     0.346565     0.338922
      0.331278     0.323635     0.315992     0.308349     0.300706     0.293063     0.285420     0.277777     0.270133     0.262490
      0.254847     0.247204     0.239561     0.231918     0.224275     0.216631     0.208988     0.201345
 NY phased data points follow
   4.54106E+00  8.83717E+00  6.40510E+00  7.52645E+00  3.87157E+00  6.65857E+00  6.18009E+00  8.71650E+00  8.71761E+00  1.45763E+01
   1.07611E+01  9.11304E+00  1.00968E+01  8.96418E+00  9.99358E+00  1.05326E+01  6.04028E+00  9.94086E+00  5.83601E+00  6.98651E+00
   7.73531E+00  9.00686E+00  7.86793E+00  1.31445E+01  8.38650E+00  9.40562E+00  1.07351E+01  1.26433E+01  9.81943E+00  1.02328E+01
   1.09622E+01  1.09179E+01  1.20184E+01  1.15276E+01  1.20155E+01  1.41506E+01  1.26626E+01  1.27825E+01  1.01473E+01  1.42550E+01
   1.18820E+01  9.59171E+00  1.39041E+01  1.26582E+01  1.26529E+01  1.64971E+01  1.56190E+01  1.61023E+01  1.57799E+01  1.51470E+01
   1.52554E+01  1.32036E+01  1.58486E+01  1.74771E+01  1.37973E+01  1.67005E+01  1.24550E+01  1.42546E+01  1.23331E+01  1.78505E+01
   1.46080E+01  1.38165E+01  1.35582E+01  1.64689E+01  1.54495E+01  1.84009E+01  1.79585E+01  1.58545E+01  1.48074E+01  1.45011E+01
   1.53052E+01  1.71206E+01  1.90880E+01  1.85339E+01  1.74699E+01  2.07865E+01  1.61702E+01  2.07593E+01  1.94114E+01  1.98016E+01
   2.01000E+01  2.10848E+01  2.04068E+01  1.91773E+01  1.87764E+01  2.17748E+01  1.91755E+01  2.26718E+01  2.13197E+01  2.37631E+01
   2.21255E+01  2.38538E+01  2.18388E+01  2.19462E+01  2.16774E+01  2.19308E+01  2.09907E+01  1.95771E+01  2.18589E+01  2.01698E+01
   2.22055E+01  2.50869E+01  2.95354E+01  3.15886E+01  3.19914E+01  3.05563E+01  3.16694E+01  3.15127E+01  2.67149E+01  2.55489E+01
   2.27558E+01  2.36833E+01  2.10371E+01  2.35278E+01  2.27024E+01  2.74697E+01  2.53557E+01  2.49526E+01  2.47187E+01  2.44499E+01
   2.34681E+01  2.57778E+01  2.44870E+01  2.81600E+01  2.61364E+01  3.09847E+01  3.32252E+01  3.62023E+01  3.94023E+01  3.75490E+01
   3.58900E+01  3.44378E+01  3.26423E+01  3.15329E+01  3.09146E+01  2.70557E+01  2.91163E+01  3.01163E+01  3.06626E+01  2.98055E+01
   2.60939E+01  3.07531E+01  2.53821E+01  2.93107E+01  2.91359E+01  2.93350E+01  2.68491E+01  2.95385E+01  3.12798E+01  2.98662E+01
   3.12791E+01  3.31904E+01  3.13125E+01  3.29036E+01  3.13482E+01  3.25100E+01  3.04999E+01  3.34256E+01  3.50316E+01  3.44595E+01
   3.39317E+01  3.53430E+01  3.56031E+01  3.44595E+01  3.43080E+01  3.42319E+01  3.58432E+01  3.62580E+01  3.46823E+01  3.70288E+01
   3.51019E+01  3.29497E+01  3.81703E+01  3.43940E+01  3.60972E+01  3.59104E+01  3.75747E+01  3.86618E+01  3.50582E+01  3.77741E+01
   3.76556E+01  4.13386E+01  3.99824E+01  3.95426E+01  4.18521E+01  4.12569E+01  4.04983E+01  3.99243E+01  4.15792E+01  4.55982E+01
   4.18227E+01  4.58326E+01  4.44188E+01  4.59732E+01  4.59956E+01  4.82744E+01  4.81120E+01  4.62553E+01  4.60666E+01  4.63620E+01
   4.60877E+01  4.47435E+01  4.69423E+01  4.86420E+01  4.97838E+01  5.09485E+01  4.76673E+01  4.97529E+01  5.25398E+01  4.95543E+01
   5.39378E+01  4.96315E+01  5.00316E+01  5.38484E+01  5.15358E+01  5.41869E+01  5.58651E+01  5.64405E+01  5.93176E+01  5.86847E+01
   5.26050E+01  5.79606E+01  5.41064E+01  5.26187E+01  5.43941E+01  5.21144E+01  5.40445E+01  5.47086E+01  5.51926E+01  5.61864E+01
   5.73929E+01  5.79188E+01  5.83538E+01  5.64536E+01  5.81755E+01  5.95052E+01  5.70111E+01  5.84366E+01  5.77732E+01  5.75603E+01
   6.02359E+01  5.86312E+01  6.00540E+01  5.83407E+01  5.79839E+01  5.94115E+01  5.81329E+01  5.82893E+01  6.03229E+01  5.83063E+01
   6.03527E+01  6.29157E+01  5.99857E+01  5.78804E+01  5.92587E+01  6.11386E+01  6.00602E+01  6.36942E+01  6.26416E+01  6.76161E+01
   7.19191E+01  7.55933E+01  8.40917E+01  8.19225E+01  8.27844E+01  8.08822E+01  7.87612E+01  7.57008E+01  7.43677E+01  7.22277E+01
   7.02239E+01  6.58101E+01  6.56906E+01  6.68727E+01  6.55999E+01  6.46981E+01  6.52959E+01  6.37954E+01  6.45685E+01  6.40139E+01
   6.32582E+01  6.40827E+01  6.43176E+01  6.46265E+01  6.59554E+01  6.41641E+01  6.63850E+01  6.36602E+01  6.31399E+01  6.63011E+01
   6.44478E+01  6.47292E+01  6.66626E+01  6.30849E+01  6.85832E+01  6.46822E+01  6.20014E+01  6.89164E+01  6.77305E+01  6.65813E+01
   6.73377E+01  6.45792E+01  6.94924E+01  6.73861E+01  7.21122E+01  6.95596E+01  6.95243E+01  6.83868E+01  6.92359E+01  6.97113E+01
   7.16414E+01  7.21774E+01  7.20619E+01  7.16822E+01  7.32317E+01  7.12710E+01  7.18659E+01  7.31290E+01  7.15349E+01  7.48254E+01
   7.68313E+01  7.63286E+01  7.74601E+01  7.73163E+01  7.97937E+01  7.83876E+01  7.83699E+01  7.80001E+01  7.89551E+01  7.76373E+01
   7.96580E+01  7.92081E+01  8.37317E+01  8.27619E+01  8.33407E+01  8.42059E+01  8.44218E+01  8.52495E+01  8.91064E+01  8.85838E+01
   9.04923E+01  8.98844E+01  9.23521E+01  9.20796E+01  9.51092E+01  9.36755E+01  9.49445E+01  9.79018E+01  1.03071E+02  1.01961E+02
   1.02685E+02  1.04681E+02  1.01568E+02  1.06164E+02  1.07122E+02  1.04768E+02  1.08961E+02  1.08749E+02  1.09796E+02  1.10080E+02
   1.11528E+02  1.12701E+02  1.13793E+02  1.13080E+02  1.13428E+02  1.14099E+02  1.14812E+02  1.14568E+02  1.15657E+02  1.10178E+02
   1.11905E+02  1.09900E+02  1.09810E+02  1.10951E+02  1.07101E+02  1.05054E+02  1.05355E+02  9.85101E+01  9.99701E+01  9.91343E+01
   9.37684E+01  9.29269E+01  9.11501E+01  8.90725E+01  8.58957E+01  8.52995E+01  8.49585E+01  8.13148E+01  7.76449E+01  7.75093E+01
   7.47673E+01  7.31142E+01  7.12437E+01  6.84410E+01  6.66668E+01  6.46400E+01  6.65198E+01  6.49148E+01  6.22084E+01  6.42660E+01
   6.43645E+01  6.27266E+01  5.97767E+01  6.05111E+01  5.60317E+01  5.64721E+01  5.69960E+01  5.36445E+01  5.26351E+01  5.49505E+01
   5.36183E+01  5.31202E+01  5.28919E+01  5.13671E+01  5.51423E+01  5.20989E+01  4.94121E+01  5.13296E+01  4.82268E+01  5.12414E+01
   4.83076E+01  4.88879E+01  4.75728E+01  4.79683E+01  4.76314E+01  4.52187E+01  4.41543E+01  4.62333E+01  4.46715E+01  4.42614E+01
   4.52281E+01  4.50926E+01  4.38871E+01  4.21433E+01  4.24242E+01  4.06675E+01  4.07108E+01  3.90050E+01  4.06232E+01  3.92156E+01
   4.18534E+01  3.97754E+01  3.82133E+01  3.74465E+01  3.81397E+01  3.57261E+01  3.88119E+01  3.55202E+01  3.65320E+01  3.52725E+01
   3.77620E+01  3.62192E+01  3.68921E+01  3.68814E+01  3.48695E+01  3.47386E+01  3.26022E+01  3.27500E+01  3.59755E+01  3.40913E+01
   3.37451E+01  3.50308E+01  3.42537E+01  3.39633E+01  3.23424E+01  3.39721E+01  3.30743E+01  3.16666E+01  3.17393E+01  2.96069E+01
   3.03447E+01  3.34607E+01  2.92517E+01  3.08157E+01  2.98077E+01  3.13547E+01  2.92682E+01  2.94138E+01  2.99104E+01  2.99239E+01
   2.87623E+01  2.88820E+01  2.70404E+01  2.94196E+01  2.73459E+01  2.80591E+01  2.89806E+01  2.63788E+01  2.60066E+01  2.72135E+01
   2.71362E+01  2.62973E+01  2.80420E+01  2.74176E+01  2.72134E+01  2.60948E+01  2.57304E+01  2.59893E+01
 NY points of the fit to the data follow
   5.64925E+00  5.61246E+00  5.57030E+00  5.55191E+00  5.79939E+00  6.36383E+00  7.28054E+00  8.50615E+00  9.79587E+00  1.07324E+01
   1.10724E+01  1.09892E+01  1.07807E+01  1.04346E+01  9.77922E+00  8.83177E+00  8.33219E+00  8.50449E+00  8.59185E+00  8.64227E+00
   8.75521E+00  8.93496E+00  9.15297E+00  9.40977E+00  9.67960E+00  9.94244E+00  1.01254E+01  1.01958E+01  1.01998E+01  1.02821E+01
   1.05737E+01  1.10641E+01  1.16513E+01  1.23041E+01  1.29328E+01  1.34202E+01  1.35456E+01  1.32605E+01  1.28743E+01  1.24718E+01
   1.20685E+01  1.18554E+01  1.18925E+01  1.21862E+01  1.26220E+01  1.32130E+01  1.39767E+01  1.47415E+01  1.52973E+01  1.56026E+01
   1.56910E+01  1.56443E+01  1.54581E+01  1.51461E+01  1.47752E+01  1.44847E+01  1.44153E+01  1.45728E+01  1.48662E+01  1.52303E+01
   1.56112E+01  1.59271E+01  1.61348E+01  1.62475E+01  1.63171E+01  1.63658E+01  1.63702E+01  1.63890E+01  1.64766E+01  1.66383E+01
   1.68708E+01  1.71487E+01  1.74542E+01  1.77605E+01  1.80581E+01  1.83633E+01  1.86225E+01  1.88084E+01  1.88804E+01  1.88599E+01
   1.88361E+01  1.88300E+01  1.88767E+01  1.90713E+01  1.95105E+01  2.01506E+01  2.08573E+01  2.14314E+01  2.16941E+01  2.16748E+01
   2.15565E+01  2.14144E+01  2.11542E+01  2.07284E+01  2.04197E+01  2.04660E+01  2.05530E+01  2.06296E+01  2.09733E+01  2.18206E+01
   2.33904E+01  2.57196E+01  2.83934E+01  3.05895E+01  3.16423E+01  3.16240E+01  3.10462E+01  3.01161E+01  2.85008E+01  2.61747E+01
   2.44252E+01  2.40055E+01  2.39645E+01  2.40092E+01  2.40949E+01  2.41876E+01  2.43052E+01  2.44351E+01  2.45649E+01  2.46812E+01
   2.47172E+01  2.47699E+01  2.51614E+01  2.61450E+01  2.79346E+01  3.05446E+01  3.35069E+01  3.59177E+01  3.70658E+01  3.70809E+01
   3.65064E+01  3.54888E+01  3.37172E+01  3.12343E+01  2.94248E+01  2.89602E+01  2.88630E+01  2.88639E+01  2.89353E+01  2.90653E+01
   2.92434E+01  2.94824E+01  2.97928E+01  3.01256E+01  3.04448E+01  3.07423E+01  3.09988E+01  3.12135E+01  3.14121E+01  3.16130E+01
   3.18331E+01  3.20542E+01  3.22745E+01  3.25021E+01  3.27523E+01  3.30226E+01  3.33048E+01  3.35930E+01  3.38647E+01  3.40990E+01
   3.42811E+01  3.44246E+01  3.45701E+01  3.47722E+01  3.50744E+01  3.54639E+01  3.58766E+01  3.62556E+01  3.65949E+01  3.69263E+01
   3.72021E+01  3.74000E+01  3.75394E+01  3.76452E+01  3.77959E+01  3.79863E+01  3.81733E+01  3.83850E+01  3.86584E+01  3.90019E+01
   3.93668E+01  3.97066E+01  4.00437E+01  4.04315E+01  4.08565E+01  4.12139E+01  4.14568E+01  4.17302E+01  4.21415E+01  4.27146E+01
   4.33470E+01  4.39372E+01  4.44791E+01  4.49817E+01  4.54569E+01  4.58816E+01  4.61799E+01  4.63941E+01  4.66443E+01  4.69503E+01
   4.73209E+01  4.77615E+01  4.82761E+01  4.88545E+01  4.94549E+01  4.99977E+01  5.03982E+01  5.05710E+01  5.04941E+01  5.02489E+01
   4.99382E+01  4.96704E+01  4.96222E+01  4.99846E+01  5.07873E+01  5.19631E+01  5.32939E+01  5.44881E+01  5.50833E+01  5.50068E+01
   5.45027E+01  5.36660E+01  5.25472E+01  5.14897E+01  5.10836E+01  5.15962E+01  5.25661E+01  5.36995E+01  5.49107E+01  5.61405E+01
   5.71348E+01  5.75836E+01  5.76056E+01  5.75719E+01  5.75926E+01  5.76635E+01  5.78257E+01  5.81008E+01  5.84565E+01  5.87665E+01
   5.89128E+01  5.89332E+01  5.89094E+01  5.88833E+01  5.88886E+01  5.90273E+01  5.93198E+01  5.96676E+01  6.00145E+01  6.03400E+01
   6.06428E+01  6.08183E+01  6.09174E+01  6.10868E+01  6.13366E+01  6.14783E+01  6.16181E+01  6.23659E+01  6.41877E+01  6.74233E+01
   7.20934E+01  7.74000E+01  8.17392E+01  8.37247E+01  8.34387E+01  8.18528E+01  7.93273E+01  7.53851E+01  7.01917E+01  6.60563E+01
   6.46147E+01  6.41925E+01  6.40626E+01  6.41053E+01  6.42084E+01  6.43524E+01  6.45217E+01  6.46914E+01  6.48535E+01  6.50019E+01
   6.51129E+01  6.51849E+01  6.52529E+01  6.53423E+01  6.54487E+01  6.55649E+01  6.56898E+01  6.58254E+01  6.59686E+01  6.61078E+01
   6.62430E+01  6.63797E+01  6.65192E+01  6.66623E+01  6.68098E+01  6.69632E+01  6.71222E+01  6.72857E+01  6.74544E+01  6.76296E+01
   6.78110E+01  6.79994E+01  6.81958E+01  6.84014E+01  6.86169E+01  6.88430E+01  6.90803E+01  6.93303E+01  6.95939E+01  6.98727E+01
   7.01674E+01  7.04797E+01  7.08113E+01  7.11637E+01  7.15378E+01  7.19350E+01  7.23562E+01  7.28023E+01  7.32742E+01  7.37728E+01
   7.42979E+01  7.48526E+01  7.54580E+01  7.61239E+01  7.68403E+01  7.75842E+01  7.83062E+01  7.89437E+01  7.94600E+01  7.98806E+01
   8.02847E+01  8.07340E+01  8.12461E+01  8.18667E+01  8.27065E+01  8.38445E+01  8.50995E+01  8.63089E+01  8.74602E+01  8.85893E+01
   8.97065E+01  9.07656E+01  9.17322E+01  9.27393E+01  9.38730E+01  9.50903E+01  9.63624E+01  9.76682E+01  9.89893E+01  1.00316E+02
   1.01648E+02  1.02988E+02  1.04326E+02  1.05652E+02  1.06964E+02  1.08260E+02  1.09508E+02  1.10657E+02  1.11688E+02  1.12588E+02
   1.13345E+02  1.13938E+02  1.14350E+02  1.14589E+02  1.14660E+02  1.14551E+02  1.14257E+02  1.13775E+02  1.13108E+02  1.12261E+02
   1.11240E+02  1.10056E+02  1.08720E+02  1.07245E+02  1.05647E+02  1.03942E+02  1.02145E+02  1.00274E+02  9.83446E+01  9.63741E+01
   9.43773E+01  9.23692E+01  9.03629E+01  8.83709E+01  8.64037E+01  8.44709E+01  8.25803E+01  8.07388E+01  7.89512E+01  7.72219E+01
   7.55535E+01  7.39479E+01  7.24059E+01  7.09277E+01  6.95127E+01  6.81598E+01  6.68673E+01  6.56334E+01  6.44557E+01  6.33321E+01
   6.22598E+01  6.12363E+01  6.02590E+01  5.93254E+01  5.84327E+01  5.75788E+01  5.67610E+01  5.59773E+01  5.52252E+01  5.45029E+01
   5.38084E+01  5.31399E+01  5.24957E+01  5.18742E+01  5.12738E+01  5.06933E+01  5.01313E+01  4.95868E+01  4.90583E+01  4.85451E+01
   4.80461E+01  4.75606E+01  4.70875E+01  4.66262E+01  4.61759E+01  4.57361E+01  4.53061E+01  4.48854E+01  4.44733E+01  4.40695E+01
   4.36734E+01  4.32848E+01  4.29032E+01  4.25282E+01  4.21595E+01  4.17968E+01  4.14398E+01  4.10883E+01  4.07419E+01  4.04006E+01
   4.00639E+01  3.97319E+01  3.94042E+01  3.90807E+01  3.87613E+01  3.84458E+01  3.81341E+01  3.78260E+01  3.75214E+01  3.72203E+01
   3.69224E+01  3.66279E+01  3.63363E+01  3.60480E+01  3.57624E+01  3.54798E+01  3.51998E+01  3.49225E+01  3.46476E+01  3.43752E+01
   3.41051E+01  3.38373E+01  3.35716E+01  3.33080E+01  3.30464E+01  3.27867E+01  3.25289E+01  3.22730E+01  3.20187E+01  3.17661E+01
   3.15151E+01  3.12658E+01  3.10179E+01  3.07715E+01  3.05264E+01  3.02827E+01  3.00403E+01  2.97993E+01  2.95593E+01  2.93207E+01
   2.90830E+01  2.88466E+01  2.86111E+01  2.83768E+01  2.81433E+01  2.79108E+01  2.76792E+01  2.74485E+01  2.72187E+01  2.69897E+01
   2.67614E+01  2.65339E+01  2.63071E+01  2.60811E+01  2.58557E+01  2.56310E+01  2.54069E+01  2.51834E+01
 NY background values follow
     5.603E+00    5.757E+00    5.911E+00    6.065E+00    6.219E+00    6.374E+00    6.529E+00    6.683E+00    6.838E+00    6.994E+00
     7.149E+00    7.304E+00    7.460E+00    7.615E+00    7.771E+00    7.927E+00    8.083E+00    8.240E+00    8.396E+00    8.553E+00
     8.709E+00    8.866E+00    9.023E+00    9.180E+00    9.337E+00    9.494E+00    9.652E+00    9.809E+00    9.967E+00    1.012E+01
     1.028E+01    1.044E+01    1.060E+01    1.076E+01    1.092E+01    1.107E+01    1.123E+01    1.139E+01    1.155E+01    1.171E+01
     1.187E+01    1.203E+01    1.219E+01    1.235E+01    1.251E+01    1.267E+01    1.283E+01    1.299E+01    1.314E+01    1.330E+01
     1.347E+01    1.363E+01    1.379E+01    1.395E+01    1.411E+01    1.427E+01    1.443E+01    1.459E+01    1.475E+01    1.491E+01
     1.507E+01    1.523E+01    1.539E+01    1.555E+01    1.571E+01    1.587E+01    1.603E+01    1.620E+01    1.636E+01    1.652E+01
     1.668E+01    1.684E+01    1.700E+01    1.716E+01    1.732E+01    1.748E+01    1.764E+01    1.780E+01    1.796E+01    1.813E+01
     1.829E+01    1.845E+01    1.861E+01    1.877E+01    1.893E+01    1.909E+01    1.925E+01    1.941E+01    1.957E+01    1.973E+01
     1.989E+01    2.005E+01    2.021E+01    2.037E+01    2.053E+01    2.069E+01    2.085E+01    2.101E+01    2.117E+01    2.133E+01
     2.149E+01    2.165E+01    2.182E+01    2.198E+01    2.214E+01    2.231E+01    2.247E+01    2.264E+01    2.281E+01    2.298E+01
     2.315E+01    2.332E+01    2.349E+01    2.366E+01    2.384E+01    2.401E+01    2.419E+01    2.437E+01    2.455E+01    2.473E+01
     2.492E+01    2.510E+01    2.529E+01    2.548E+01    2.567E+01    2.586E+01    2.606E+01    2.626E+01    2.646E+01    2.666E+01
     2.687E+01    2.707E+01    2.728E+01    2.750E+01    2.771E+01    2.793E+01    2.815E+01    2.837E+01    2.860E+01    2.883E+01
     2.906E+01    2.929E+01    2.953E+01    2.977E+01    3.001E+01    3.026E+01    3.050E+01    3.075E+01    3.101E+01    3.126E+01
     3.152E+01    3.177E+01    3.203E+01    3.230E+01    3.256E+01    3.283E+01    3.310E+01    3.337E+01    3.365E+01    3.392E+01
     3.420E+01    3.448E+01    3.476E+01    3.504E+01    3.533E+01    3.561E+01    3.590E+01    3.619E+01    3.648E+01    3.678E+01
     3.707E+01    3.737E+01    3.767E+01    3.796E+01    3.827E+01    3.857E+01    3.887E+01    3.918E+01    3.948E+01    3.979E+01
     4.010E+01    4.041E+01    4.072E+01    4.103E+01    4.134E+01    4.165E+01    4.197E+01    4.228E+01    4.260E+01    4.291E+01
     4.323E+01    4.354E+01    4.386E+01    4.417E+01    4.449E+01    4.480E+01    4.511E+01    4.543E+01    4.574E+01    4.605E+01
     4.636E+01    4.667E+01    4.697E+01    4.728E+01    4.758E+01    4.789E+01    4.819E+01    4.849E+01    4.878E+01    4.908E+01
     4.937E+01    4.966E+01    4.994E+01    5.023E+01    5.051E+01    5.079E+01    5.106E+01    5.134E+01    5.160E+01    5.187E+01
     5.213E+01    5.239E+01    5.264E+01    5.289E+01    5.314E+01    5.338E+01    5.362E+01    5.385E+01    5.408E+01    5.431E+01
     5.453E+01    5.475E+01    5.496E+01    5.517E+01    5.537E+01    5.557E+01    5.576E+01    5.596E+01    5.614E+01    5.633E+01
     5.651E+01    5.668E+01    5.685E+01    5.702E+01    5.718E+01    5.734E+01    5.750E+01    5.765E+01    5.780E+01    5.795E+01
     5.809E+01    5.822E+01    5.836E+01    5.849E+01    5.862E+01    5.874E+01    5.886E+01    5.898E+01    5.909E+01    5.920E+01
     5.931E+01    5.941E+01    5.951E+01    5.960E+01    5.970E+01    5.979E+01    5.988E+01    5.996E+01    6.004E+01    6.012E+01
     6.019E+01    6.027E+01    6.033E+01    6.040E+01    6.046E+01    6.052E+01    6.058E+01    6.063E+01    6.069E+01    6.073E+01
     6.078E+01    6.082E+01    6.086E+01    6.090E+01    6.093E+01    6.096E+01    6.099E+01    6.101E+01    6.104E+01    6.105E+01
     6.107E+01    6.108E+01    6.109E+01    6.110E+01    6.110E+01    6.110E+01    6.110E+01    6.110E+01    6.109E+01    6.108E+01
     6.107E+01    6.105E+01    6.103E+01    6.101E+01    6.098E+01    6.095E+01    6.092E+01    6.089E+01    6.085E+01    6.081E+01
     6.077E+01    6.072E+01    6.067E+01    6.062E+01    6.056E+01    6.050E+01    6.044E+01    6.038E+01    6.031E+01    6.024E+01
     6.017E+01    6.009E+01    6.002E+01    5.993E+01    5.985E+01    5.976E+01    5.967E+01    5.958E+01    5.949E+01    5.939E+01
     5.929E+01    5.919E+01    5.908E+01    5.897E+01    5.886E+01    5.875E+01    5.863E+01    5.851E+01    5.839E+01    5.827E+01
     5.815E+01    5.802E+01    5.789E+01    5.776E+01    5.762E+01    5.748E+01    5.734E+01    5.720E+01    5.706E+01    5.691E+01
     5.677E+01    5.662E+01    5.646E+01    5.631E+01    5.615E+01    5.600E+01    5.583E+01    5.567E+01    5.551E+01    5.534E+01
     5.517E+01    5.500E+01    5.483E+01    5.466E+01    5.448E+01    5.431E+01    5.413E+01    5.395E+01    5.376E+01    5.358E+01
     5.340E+01    5.321E+01    5.302E+01    5.283E+01    5.264E+01    5.244E+01    5.225E+01    5.205E+01    5.185E+01    5.165E+01
     5.145E+01    5.125E+01    5.105E+01    5.084E+01    5.064E+01    5.043E+01    5.022E+01    5.001E+01    4.980E+01    4.959E+01
     4.938E+01    4.916E+01    4.895E+01    4.873E+01    4.851E+01    4.829E+01    4.807E+01    4.785E+01    4.763E+01    4.741E+01
     4.718E+01    4.696E+01    4.674E+01    4.651E+01    4.628E+01    4.605E+01    4.583E+01    4.560E+01    4.537E+01    4.514E+01
     4.491E+01    4.467E+01    4.444E+01    4.421E+01    4.398E+01    4.374E+01    4.351E+01    4.327E+01    4.304E+01    4.280E+01
     4.257E+01    4.233E+01    4.210E+01    4.186E+01    4.162E+01    4.139E+01    4.115E+01    4.091E+01    4.068E+01    4.044E+01
     4.020E+01    3.996E+01    3.973E+01    3.949E+01    3.925E+01    3.902E+01    3.878E+01    3.855E+01    3.831E+01    3.807E+01
     3.784E+01    3.760E+01    3.737E+01    3.714E+01    3.690E+01    3.667E+01    3.644E+01    3.620E+01    3.597E+01    3.574E+01
     3.551E+01    3.528E+01    3.505E+01    3.483E+01    3.460E+01    3.437E+01    3.415E+01    3.392E+01    3.370E+01    3.347E+01
     3.325E+01    3.302E+01    3.280E+01    3.258E+01    3.236E+01    3.214E+01    3.192E+01    3.170E+01    3.148E+01    3.126E+01
     3.105E+01    3.083E+01    3.061E+01    3.039E+01    3.018E+01    2.996E+01    2.975E+01    2.953E+01    2.932E+01    2.910E+01
     2.889E+01    2.868E+01    2.846E+01    2.825E+01    2.804E+01    2.783E+01    2.761E+01    2.740E+01    2.719E+01    2.698E+01
     2.677E+01    2.656E+01    2.635E+01    2.614E+01    2.593E+01    2.572E+01    2.551E+01    2.530E+01
 Ala      Conc. = 5.47E+01
