 LCModel (Version 6.3-1L) Copyright: S.W. Provencher.          Ref.: Magn. Reson. Med. 30:672-679 (1993).                
 Slice#2 Row#3 Col#7  PD_24_press_1_raw_act
 36 lines in following concentration table = NCONC+1
    Conc.  %SD /Cr+PCr  Metabolite                                         
  282.277  50%   0.215 Ala                                                 
   73.394 305% 5.6E-02 Asp                                                 
  694.253  32%   0.530 Cr                                                  
  616.291  38%   0.470 PCr                                                 
  130.921 118%   0.100 GABA                                                
   14.386 999% 1.1E-02 Glc                                                 
 1.09E+03  25%   0.831 Gln                                                 
 1.89E+03  17%   1.440 Glu                                                 
  572.608   5%   0.437 GPC                                                 
    0.000 999%   0.000 PCh                                                 
  443.645  19%   0.339 GSH                                                 
 1.14E+03  26%   0.872 Ins                                                 
  372.367  55%   0.284 Lac                                                 
 2.01E+03   6%   1.537 NAA                                                 
   67.355 175% 5.1E-02 NAAG                                                
   83.897  35% 6.4E-02 Scyllo                                              
    0.000 999%   0.000 Tau                                                 
    0.000 999%   0.000 -CrCH2                                              
  572.608   5%   0.437 GPC+PCh                                             
 2.08E+03   4%   1.588 NAA+NAAG                                            
 1.31E+03   5%   1.000 Cr+PCr                                              
 2.98E+03  16%   2.271 Glu+Gln                                             
    0.000 999%   0.000 Lip13a                                              
 1.55E+03  22%   1.183 Lip13b                                              
    0.000 999%   0.000 Lip09                                               
 1.68E+03  13%   1.280 MM09                                                
  235.253  59%   0.180 Lip20                                               
 4.19E+03  10%   3.195 MM20                                                
  355.141  42%   0.271 MM12                                                
 2.44E+03  18%   1.859 MM14                                                
 2.02E+03  15%   1.541 MM17                                                
 1.55E+03  22%   1.183 Lip13a+Lip13b                                       
 4.34E+03   9%   3.313 MM14+Lip13a+Lip13b+MM12                             
 1.68E+03  13%   1.280 MM09+Lip09                                          
 4.42E+03   9%   3.374 MM20+Lip20                                          
   6 lines in following misc. output table
  FWHM = 0.046 ppm    S/N =  11                                            
  Data shift =-0.023 ppm                                                   
  Ph: -22 deg      -6.1 deg/ppm                                            
  alphaB,S = 9.3E-01,   2.5E+01                                            
   14 spline knots.   Ns = 8(1)                                            
  (13) 6 infls.   ( 9) 3 extrs.                                            
  498 points on ppm-axis = NY
      4.000000     3.992357     3.984714     3.977070     3.969427     3.961784     3.954141     3.946497     3.938854     3.931211
      3.923568     3.915925     3.908281     3.900638     3.892995     3.885352     3.877708     3.870065     3.862422     3.854779
      3.847136     3.839492     3.831849     3.824206     3.816563     3.808919     3.801276     3.793633     3.785990     3.778347
      3.770703     3.763060     3.755417     3.747774     3.740130     3.732487     3.724844     3.717201     3.709558     3.701914
      3.694271     3.686628     3.678985     3.671341     3.663698     3.656055     3.648412     3.640769     3.633125     3.625482
      3.617839     3.610196     3.602552     3.594909     3.587266     3.579623     3.571980     3.564336     3.556693     3.549050
      3.541407     3.533763     3.526120     3.518477     3.510834     3.503191     3.495547     3.487904     3.480261     3.472618
      3.464974     3.457331     3.449688     3.442045     3.434402     3.426758     3.419115     3.411472     3.403829     3.396185
      3.388542     3.380899     3.373256     3.365613     3.357969     3.350326     3.342683     3.335040     3.327396     3.319753
      3.312110     3.304467     3.296824     3.289180     3.281537     3.273894     3.266251     3.258607     3.250964     3.243321
      3.235678     3.228034     3.220391     3.212748     3.205105     3.197462     3.189818     3.182175     3.174532     3.166889
      3.159245     3.151602     3.143959     3.136316     3.128673     3.121029     3.113386     3.105743     3.098100     3.090456
      3.082813     3.075170     3.067527     3.059884     3.052240     3.044597     3.036954     3.029311     3.021667     3.014024
      3.006381     2.998738     2.991095     2.983451     2.975808     2.968165     2.960522     2.952878     2.945235     2.937592
      2.929949     2.922306     2.914662     2.907019     2.899376     2.891733     2.884089     2.876446     2.868803     2.861160
      2.853517     2.845873     2.838230     2.830587     2.822944     2.815300     2.807657     2.800014     2.792371     2.784728
      2.777084     2.769441     2.761798     2.754155     2.746511     2.738868     2.731225     2.723582     2.715939     2.708295
      2.700652     2.693009     2.685366     2.677722     2.670079     2.662436     2.654793     2.647150     2.639506     2.631863
      2.624220     2.616577     2.608933     2.601290     2.593647     2.586004     2.578361     2.570717     2.563074     2.555431
      2.547788     2.540144     2.532501     2.524858     2.517215     2.509572     2.501928     2.494285     2.486642     2.478999
      2.471355     2.463712     2.456069     2.448426     2.440783     2.433139     2.425496     2.417853     2.410210     2.402566
      2.394923     2.387280     2.379637     2.371994     2.364350     2.356707     2.349064     2.341421     2.333777     2.326134
      2.318491     2.310848     2.303205     2.295561     2.287918     2.280275     2.272632     2.264988     2.257345     2.249702
      2.242059     2.234416     2.226772     2.219129     2.211486     2.203843     2.196199     2.188556     2.180913     2.173270
      2.165627     2.157983     2.150340     2.142697     2.135054     2.127410     2.119767     2.112124     2.104481     2.096838
      2.089194     2.081551     2.073908     2.066265     2.058621     2.050978     2.043335     2.035692     2.028049     2.020405
      2.012762     2.005119     1.997476     1.989833     1.982190     1.974546     1.966903     1.959260     1.951617     1.943974
      1.936331     1.928688     1.921045     1.913402     1.905759     1.898115     1.890472     1.882829     1.875186     1.867543
      1.859900     1.852257     1.844614     1.836971     1.829327     1.821684     1.814041     1.806398     1.798755     1.791112
      1.783469     1.775826     1.768183     1.760540     1.752896     1.745253     1.737610     1.729967     1.722324     1.714681
      1.707038     1.699395     1.691752     1.684108     1.676465     1.668822     1.661179     1.653536     1.645893     1.638250
      1.630607     1.622964     1.615321     1.607677     1.600034     1.592391     1.584748     1.577105     1.569462     1.561819
      1.554176     1.546533     1.538890     1.531246     1.523603     1.515960     1.508317     1.500674     1.493031     1.485388
      1.477745     1.470102     1.462458     1.454815     1.447172     1.439529     1.431886     1.424243     1.416600     1.408957
      1.401314     1.393671     1.386027     1.378384     1.370741     1.363098     1.355455     1.347812     1.340169     1.332526
      1.324883     1.317240     1.309596     1.301953     1.294310     1.286667     1.279024     1.271381     1.263738     1.256095
      1.248452     1.240808     1.233165     1.225522     1.217879     1.210236     1.202593     1.194950     1.187307     1.179664
      1.172021     1.164377     1.156734     1.149091     1.141448     1.133805     1.126162     1.118519     1.110876     1.103233
      1.095590     1.087946     1.080303     1.072660     1.065017     1.057374     1.049731     1.042088     1.034445     1.026802
      1.019158     1.011515     1.003872     0.996229     0.988586     0.980943     0.973300     0.965657     0.958014     0.950371
      0.942727     0.935084     0.927441     0.919798     0.912155     0.904512     0.896869     0.889226     0.881583     0.873940
      0.866296     0.858653     0.851010     0.843367     0.835724     0.828081     0.820438     0.812795     0.805152     0.797508
      0.789865     0.782222     0.774579     0.766936     0.759293     0.751650     0.744007     0.736364     0.728721     0.721077
      0.713434     0.705791     0.698148     0.690505     0.682862     0.675219     0.667576     0.659933     0.652290     0.644646
      0.637003     0.629360     0.621717     0.614074     0.606431     0.598788     0.591145     0.583502     0.575858     0.568215
      0.560572     0.552929     0.545286     0.537643     0.530000     0.522357     0.514714     0.507071     0.499427     0.491784
      0.484141     0.476498     0.468855     0.461212     0.453569     0.445925     0.438282     0.430639     0.422996     0.415353
      0.407710     0.400067     0.392424     0.384780     0.377137     0.369494     0.361851     0.354208     0.346565     0.338922
      0.331278     0.323635     0.315992     0.308349     0.300706     0.293063     0.285420     0.277777     0.270133     0.262490
      0.254847     0.247204     0.239561     0.231918     0.224275     0.216631     0.208988     0.201345
 NY phased data points follow
   2.46013E+01  2.04712E+01  2.67972E+01  2.42759E+01  2.93315E+01  3.18574E+01  3.00207E+01  3.83536E+01  4.38730E+01  4.75778E+01
   4.95373E+01  4.65127E+01  4.22573E+01  3.77785E+01  3.25607E+01  3.52980E+01  3.43317E+01  3.31393E+01  3.62673E+01  3.23381E+01
   2.86333E+01  2.84098E+01  3.15751E+01  2.45232E+01  2.56703E+01  2.76702E+01  2.65819E+01  2.67048E+01  2.81715E+01  2.60570E+01
   3.19856E+01  3.03252E+01  2.96396E+01  2.52364E+01  3.18469E+01  2.08265E+01  2.59691E+01  2.20692E+01  2.46879E+01  2.27598E+01
   2.11308E+01  2.62580E+01  2.17688E+01  2.90258E+01  2.38877E+01  2.92315E+01  2.82602E+01  2.72697E+01  2.90906E+01  2.54417E+01
   2.15115E+01  2.16662E+01  2.08406E+01  2.34256E+01  2.21078E+01  2.63431E+01  2.82371E+01  2.29004E+01  1.97499E+01  2.25268E+01
   1.63822E+01  1.67542E+01  1.41823E+01  1.41076E+01  1.37930E+01  7.71036E+00  9.63868E+00  1.23893E+01  1.26082E+01  1.10957E+01
   1.44635E+01  1.37096E+01  1.40360E+01  1.08656E+01  1.41157E+01  1.53876E+01  1.54591E+01  1.43014E+01  1.21935E+01  1.31379E+01
   1.55043E+01  1.12549E+01  1.51471E+01  1.93028E+01  1.73957E+01  9.21917E+00  1.41410E+01  1.42580E+01  1.27822E+01  7.99274E+00
   1.38253E+01  1.64622E+01  1.88824E+01  1.70852E+01  1.54286E+01  1.37121E+01  1.46033E+01  1.56724E+01  1.72883E+01  2.30930E+01
   3.46678E+01  4.90030E+01  5.54117E+01  5.79860E+01  5.45885E+01  4.71465E+01  4.19925E+01  2.92207E+01  3.35953E+01  2.96350E+01
   3.06586E+01  2.55389E+01  2.28621E+01  2.58072E+01  2.14720E+01  1.55458E+01  1.82549E+01  1.41116E+01  1.49647E+01  1.20582E+01
   1.36929E+01  1.40484E+01  1.99180E+01  2.55273E+01  3.80596E+01  4.30793E+01  4.93827E+01  5.16853E+01  4.75477E+01  4.12249E+01
   3.00975E+01  3.14217E+01  2.78257E+01  3.22251E+01  2.57821E+01  1.55847E+01  1.83719E+01  1.73830E+01  1.76898E+01  1.67140E+01
   1.63121E+01  1.46145E+01  7.20310E+00  6.26336E+00  9.28911E+00  4.35057E+00  4.70431E+00  8.70488E+00  6.37062E+00  6.20176E+00
   4.31481E+00  3.67684E+00  6.21766E+00  9.55942E+00  8.09121E+00  8.67613E+00  1.65569E+01  4.42890E+00  2.84286E+00  2.42645E+00
   4.14682E+00  4.06121E+00  4.46822E+00  9.72512E+00  3.58933E+00  6.92461E+00  6.22175E+00 -1.26884E+00  2.44169E+00  1.71709E+00
   1.80422E+00 -3.15170E+00 -1.55293E+00 -3.25516E+00 -7.10796E-01  8.09438E-01 -4.20311E+00  1.32937E+00  1.21819E+00 -3.63982E+00
  -1.13415E+00 -3.00105E+00 -1.04057E+00 -1.99838E+00 -3.22141E-01  2.88760E-01 -3.93956E+00  5.18692E-01 -2.09497E-01 -1.65727E+00
   3.75944E+00  7.65740E+00  7.87739E+00  4.97910E+00  4.82669E+00  2.31349E+00  6.31998E+00  5.44202E+00  4.72000E+00  3.06758E+00
   5.97300E+00  7.70855E+00  9.35161E+00  1.06807E+01  1.20334E+01  3.87662E+00  5.89029E+00  3.91451E-01  4.10496E+00  4.91592E+00
   4.55859E+00  1.10020E+00  1.08054E+01  7.26036E+00  1.29160E+01  1.69994E+01  1.54720E+01  1.32236E+01  1.05809E+01  3.92681E+00
   4.53285E+00  9.17744E-01  5.73549E+00  8.81593E+00  1.14584E+01  1.05613E+01  1.35946E+01  1.26849E+01  8.37487E+00  7.73978E+00
   1.12932E+01  1.17068E+01  1.20183E+01  6.93583E+00  1.07278E+01  1.44053E+01  1.00653E+01  1.58413E+01  1.22146E+01  1.36463E+01
   1.43919E+01  1.03131E+01  1.56874E+01  1.27108E+01  1.71096E+01  1.62004E+01  1.66530E+01  1.89991E+01  1.94951E+01  2.28291E+01
   2.37639E+01  2.32873E+01  2.72638E+01  2.54785E+01  2.58527E+01  3.30834E+01  4.09949E+01  5.44438E+01  6.35387E+01  7.09007E+01
   8.14732E+01  7.24715E+01  6.38565E+01  4.77184E+01  4.58829E+01  4.08745E+01  3.62179E+01  3.73604E+01  2.73433E+01  2.44724E+01
   2.18533E+01  1.79105E+01  1.30382E+01  1.85360E+01  1.81175E+01  1.08259E+01  1.44640E+01  1.02026E+01  7.80284E+00  7.59290E+00
   8.94777E+00  7.35564E+00  7.82770E+00  9.40113E+00  1.30168E+01  1.24868E+01  8.25621E+00  9.96211E+00  9.65034E+00  1.02364E+01
   7.01882E+00  7.79028E+00  5.55877E+00  9.97066E+00  7.99461E+00  7.69465E+00  1.07966E+01  1.21642E+01  8.66214E+00  1.10425E+01
   1.04357E+01  1.10242E+01  1.41836E+01  1.32431E+01  1.22052E+01  1.72052E+01  1.49257E+01  1.13401E+01  1.99477E+01  1.13572E+01
   1.35044E+01  1.54662E+01  1.50956E+01  1.56722E+01  1.58688E+01  1.36771E+01  1.04306E+01  1.28401E+01  1.90549E+01  7.17649E+00
   7.91563E+00  7.44892E+00  1.19926E+01  1.17732E+01  9.29128E+00  1.14508E+01  1.05954E+01  1.12696E+01  1.02605E+01  1.03229E+01
   1.02554E+01  9.89992E+00  1.14465E+01  8.93103E+00  1.37094E+01  1.65479E+01  1.61540E+01  1.09882E+01  1.41239E+01  1.60441E+01
   1.71553E+01  1.93276E+01  2.26028E+01  2.04948E+01  2.13273E+01  2.16249E+01  2.14094E+01  2.17473E+01  1.96317E+01  2.35013E+01
   2.40240E+01  2.45514E+01  2.29053E+01  2.59966E+01  2.43549E+01  2.36110E+01  2.23412E+01  1.56470E+01  2.03727E+01  1.21781E+01
   1.01705E+01  1.34929E+01  8.50009E+00  7.96390E+00  5.56696E+00  4.40332E+00  1.35362E+00 -1.62761E+00 -1.19112E+00 -2.40674E-01
   1.14528E+00 -2.07933E+00  5.26118E-01 -5.37320E-02  1.09858E+00 -5.12389E+00  3.34051E-01 -3.66027E+00 -4.77698E+00 -7.79349E+00
  -3.48634E+00 -1.98487E-01 -2.39045E+00 -4.65865E+00 -3.10739E+00 -4.88209E+00 -7.07163E-01  4.47059E-01 -1.96652E-01 -8.05209E-01
   4.26632E+00 -7.95194E-01  3.33431E+00  7.58083E-02  5.12174E+00  4.80181E+00  3.57958E+00  5.57616E+00  3.87850E+00  3.11221E+00
   5.22939E+00  4.02887E+00  5.61666E+00  7.48826E+00  4.16466E+00  9.49549E+00  8.68060E+00  9.68283E+00  1.18978E+01  6.90648E+00
   6.40752E+00  9.01635E+00  7.90233E+00  7.08673E+00  3.51037E+00  3.76785E+00  5.76278E+00  3.13741E+00  5.12672E+00  5.43174E+00
   2.13319E+00  2.27051E+00 -7.66467E-01 -1.37898E+00  1.61438E+00  5.89833E-01 -2.92913E+00 -8.45466E-01 -2.51991E+00 -1.65379E+00
  -1.27305E-01  6.70226E-01 -3.12208E+00  4.46512E+00 -1.30244E+00 -4.44076E+00 -2.97763E+00 -4.85856E+00 -2.70161E+00 -9.96680E-01
  -1.08579E-02 -5.34283E+00 -2.34825E+00 -7.22291E+00 -4.20912E+00 -9.95598E+00 -6.33582E+00 -3.38574E+00 -6.37716E+00 -6.73094E+00
  -4.32042E+00 -9.95738E+00 -5.49495E+00 -7.92212E+00 -2.48231E+00 -5.91617E+00 -4.94461E+00 -8.19094E+00  3.82871E-02 -4.49874E+00
  -1.92931E+00 -3.88079E+00 -6.39830E+00 -3.27940E+00 -7.61384E+00 -4.19253E+00 -1.64005E-01  1.33651E+00 -9.43492E+00 -1.89061E-01
  -8.63158E-01 -2.96969E+00  5.17082E+00 -4.61859E+00 -3.24823E+00 -5.31708E+00 -3.46124E+00 -1.94430E+00 -2.55932E+00 -7.25822E+00
  -2.51155E+00 -4.25449E+00 -6.16284E+00 -4.36759E+00 -2.42689E+00 -6.36564E+00 -1.90926E-01 -4.16575E+00 -2.19734E+00 -7.55261E+00
  -1.61998E+00 -3.48280E-01 -5.01192E+00  1.25811E+00 -4.28936E+00 -6.27937E+00 -3.58893E+00 -1.66320E+00
 NY points of the fit to the data follow
   2.39459E+01  2.40989E+01  2.42349E+01  2.45610E+01  2.62604E+01  2.87438E+01  3.28784E+01  3.81964E+01  4.33630E+01  4.69544E+01
   4.78673E+01  4.62349E+01  4.27773E+01  3.92940E+01  3.68001E+01  3.57292E+01  3.50860E+01  3.43108E+01  3.28514E+01  2.99911E+01
   2.82499E+01  2.62171E+01  2.53878E+01  2.43681E+01  2.39827E+01  2.43632E+01  2.50825E+01  2.61242E+01  2.77167E+01  2.97762E+01
   3.10686E+01  3.10986E+01  3.02329E+01  2.91600E+01  2.71820E+01  2.50398E+01  2.34194E+01  2.25661E+01  2.27934E+01  2.25830E+01
   2.31558E+01  2.32997E+01  2.31575E+01  2.40287E+01  2.52642E+01  2.64691E+01  2.72026E+01  2.71717E+01  2.61460E+01  2.42984E+01
   2.22769E+01  2.14802E+01  2.14830E+01  2.11900E+01  2.06145E+01  2.03744E+01  2.00895E+01  1.94917E+01  1.91855E+01  1.92463E+01
   1.88697E+01  1.80556E+01  1.71033E+01  1.63829E+01  1.61325E+01  1.61025E+01  1.61889E+01  1.64435E+01  1.65767E+01  1.64411E+01
   1.62608E+01  1.60248E+01  1.58391E+01  1.56099E+01  1.53326E+01  1.51628E+01  1.50337E+01  1.49508E+01  1.49246E+01  1.47218E+01
   1.45401E+01  1.46733E+01  1.52097E+01  1.56959E+01  1.58127E+01  1.55680E+01  1.48710E+01  1.37406E+01  1.26579E+01  1.21802E+01
   1.23671E+01  1.27889E+01  1.30074E+01  1.28324E+01  1.26686E+01  1.28219E+01  1.42919E+01  1.49072E+01  1.69785E+01  2.42393E+01
   3.53610E+01  4.64140E+01  5.46661E+01  5.90237E+01  5.71675E+01  4.91261E+01  3.90906E+01  3.29062E+01  3.14392E+01  3.15751E+01
   3.03914E+01  2.71361E+01  2.47368E+01  1.88063E+01  1.38033E+01  1.23316E+01  1.18224E+01  1.16164E+01  1.17467E+01  1.30465E+01
   1.46337E+01  1.53017E+01  1.92708E+01  2.72585E+01  3.66493E+01  4.45596E+01  4.97684E+01  5.10708E+01  4.70227E+01  3.95635E+01
   3.28643E+01  3.00388E+01  2.93274E+01  2.81662E+01  2.49792E+01  2.18696E+01  1.89833E+01  1.40222E+01  1.27087E+01  1.26307E+01
   1.24200E+01  1.19659E+01  1.12400E+01  1.05334E+01  1.03065E+01  1.02424E+01  1.01174E+01  1.00118E+01  9.61497E+00  9.18206E+00
   8.64727E+00  8.16141E+00  7.84681E+00  7.57994E+00  7.36849E+00  7.24113E+00  7.00356E+00  6.58764E+00  5.99811E+00  5.41534E+00
   5.10351E+00  5.09312E+00  5.30201E+00  5.55028E+00  5.63769E+00  5.31317E+00  4.64902E+00  3.94410E+00  3.47237E+00  3.24123E+00
   3.17322E+00  3.04088E+00  2.48109E+00  1.81874E+00  1.29385E+00  1.01661E+00  1.03616E+00  1.13368E+00  1.22318E+00  1.14440E+00
   8.44488E-01  6.12504E-01  5.30433E-01  6.49854E-01  9.75637E-01  1.43787E+00  2.33854E+00  3.44041E+00  4.56872E+00  5.42685E+00
   5.71434E+00  5.39901E+00  4.48052E+00  3.54286E+00  3.15220E+00  3.21915E+00  3.75150E+00  4.91515E+00  6.11241E+00  7.31582E+00
   8.46756E+00  9.49783E+00  9.93531E+00  9.98408E+00  9.37926E+00  7.45381E+00  4.87227E+00  2.49634E+00  9.38757E-01  5.15744E-01
   1.12522E+00  3.43401E+00  6.88370E+00  9.97913E+00  1.16112E+01  1.20498E+01  1.15655E+01  9.88118E+00  6.41323E+00  3.26886E+00
   2.11194E+00  1.91985E+00  2.78661E+00  4.71582E+00  7.08672E+00  9.37876E+00  9.55462E+00  9.10818E+00  8.57761E+00  8.76410E+00
   9.46319E+00  1.02691E+01  1.17578E+01  1.34876E+01  1.43851E+01  1.45198E+01  1.49879E+01  1.56024E+01  1.57348E+01  1.51080E+01
   1.44243E+01  1.42037E+01  1.41685E+01  1.45747E+01  1.54929E+01  1.70755E+01  1.81317E+01  1.82391E+01  1.83767E+01  1.86785E+01
   1.95117E+01  2.06592E+01  2.35700E+01  2.78390E+01  2.92652E+01  3.26242E+01  4.17226E+01  5.42618E+01  6.56822E+01  7.40039E+01
   7.78119E+01  7.36539E+01  6.24267E+01  4.98173E+01  4.26034E+01  4.01550E+01  3.90146E+01  3.58720E+01  3.11941E+01  2.73892E+01
   1.88426E+01  1.34834E+01  1.18931E+01  1.12126E+01  1.06012E+01  1.01375E+01  9.61778E+00  8.97204E+00  8.39863E+00  7.97592E+00
   7.62963E+00  7.35826E+00  7.19417E+00  7.04979E+00  6.90183E+00  6.79732E+00  6.73986E+00  6.75093E+00  6.84750E+00  7.00467E+00
   7.25543E+00  7.58427E+00  7.95122E+00  8.36634E+00  8.82828E+00  9.32291E+00  9.85351E+00  1.04108E+01  1.09813E+01  1.15456E+01
   1.20927E+01  1.26081E+01  1.30677E+01  1.34637E+01  1.37807E+01  1.40078E+01  1.41394E+01  1.41735E+01  1.41141E+01  1.39643E+01
   1.37321E+01  1.34309E+01  1.30774E+01  1.26882E+01  1.22854E+01  1.18912E+01  1.15292E+01  1.12271E+01  1.10254E+01  1.09673E+01
   1.08820E+01  1.09333E+01  1.13872E+01  1.19039E+01  1.21064E+01  1.18772E+01  1.13060E+01  1.05367E+01  9.66567E+00  8.88378E+00
   8.88043E+00  9.76831E+00  1.10574E+01  1.23331E+01  1.35240E+01  1.47057E+01  1.52507E+01  1.52958E+01  1.55070E+01  1.59729E+01
   1.65392E+01  1.73642E+01  1.85950E+01  1.99605E+01  2.09430E+01  2.10465E+01  2.10239E+01  2.10121E+01  2.07267E+01  2.06591E+01
   2.16046E+01  2.33408E+01  2.49157E+01  2.57021E+01  2.56303E+01  2.47222E+01  2.23557E+01  1.91312E+01  1.62254E+01  1.36500E+01
   1.14799E+01  9.58389E+00  7.76330E+00  6.43193E+00  4.95780E+00  3.51752E+00  2.55683E+00  1.88776E+00  1.39874E+00  1.02940E+00
   7.41272E-01  5.09249E-01  3.17266E-01  1.55405E-01  1.78181E-02 -9.86987E-02 -1.95613E-01 -2.73238E-01 -3.31127E-01 -3.68343E-01
  -3.83613E-01 -3.75385E-01 -3.41855E-01 -2.80980E-01 -1.90535E-01 -6.81870E-02  8.84403E-02  2.81701E-01  5.13833E-01  7.86801E-01
   1.10211E+00  1.46055E+00  1.86203E+00  2.30530E+00  2.78777E+00  3.30530E+00  3.85202E+00  4.42025E+00  5.00053E+00  5.58179E+00
   6.15152E+00  6.69620E+00  7.20171E+00  7.65393E+00  8.03933E+00  8.34567E+00  8.56259E+00  8.68211E+00  8.69911E+00  8.61159E+00
   8.42082E+00  8.13126E+00  7.75033E+00  7.28797E+00  6.75616E+00  6.16829E+00  5.53852E+00  4.88117E+00  4.21006E+00  3.53802E+00
   2.87650E+00  2.23528E+00  1.62230E+00  1.04363E+00  5.03494E-01  4.41873E-03 -4.52571E-01 -8.67693E-01 -1.24217E+00 -1.57800E+00
  -1.87769E+00 -2.14412E+00 -2.38029E+00 -2.58924E+00 -2.77389E+00 -2.93703E+00 -3.08123E+00 -3.20884E+00 -3.32194E+00 -3.42235E+00
  -3.51171E+00 -3.59141E+00 -3.66268E+00 -3.72657E+00 -3.78399E+00 -3.83569E+00 -3.88235E+00 -3.92453E+00 -3.96273E+00 -3.99738E+00
  -4.02882E+00 -4.05738E+00 -4.08333E+00 -4.10691E+00 -4.12834E+00 -4.14780E+00 -4.16546E+00 -4.18146E+00 -4.19594E+00 -4.20903E+00
  -4.22082E+00 -4.23139E+00 -4.24084E+00 -4.24924E+00 -4.25666E+00 -4.26318E+00 -4.26887E+00 -4.27376E+00 -4.27790E+00 -4.28135E+00
  -4.28413E+00 -4.28631E+00 -4.28789E+00 -4.28893E+00 -4.28944E+00 -4.28946E+00 -4.28902E+00 -4.28816E+00 -4.28689E+00 -4.28522E+00
  -4.28318E+00 -4.28080E+00 -4.27808E+00 -4.27506E+00 -4.27173E+00 -4.26812E+00 -4.26424E+00 -4.26010E+00 -4.25572E+00 -4.25110E+00
  -4.24625E+00 -4.24116E+00 -4.23586E+00 -4.23035E+00 -4.22462E+00 -4.21867E+00 -4.21249E+00 -4.20608E+00
 NY background values follow
     2.067E+01    2.055E+01    2.044E+01    2.033E+01    2.022E+01    2.011E+01    1.999E+01    1.988E+01    1.977E+01    1.966E+01
     1.954E+01    1.943E+01    1.932E+01    1.920E+01    1.909E+01    1.898E+01    1.887E+01    1.875E+01    1.864E+01    1.853E+01
     1.842E+01    1.830E+01    1.819E+01    1.808E+01    1.797E+01    1.786E+01    1.774E+01    1.763E+01    1.752E+01    1.741E+01
     1.729E+01    1.718E+01    1.707E+01    1.696E+01    1.685E+01    1.674E+01    1.663E+01    1.651E+01    1.640E+01    1.629E+01
     1.618E+01    1.607E+01    1.596E+01    1.585E+01    1.574E+01    1.563E+01    1.552E+01    1.541E+01    1.530E+01    1.519E+01
     1.508E+01    1.497E+01    1.486E+01    1.476E+01    1.465E+01    1.454E+01    1.443E+01    1.432E+01    1.422E+01    1.411E+01
     1.400E+01    1.389E+01    1.379E+01    1.368E+01    1.357E+01    1.347E+01    1.336E+01    1.326E+01    1.315E+01    1.305E+01
     1.294E+01    1.284E+01    1.274E+01    1.263E+01    1.253E+01    1.243E+01    1.232E+01    1.222E+01    1.212E+01    1.202E+01
     1.191E+01    1.181E+01    1.171E+01    1.161E+01    1.151E+01    1.141E+01    1.131E+01    1.121E+01    1.112E+01    1.102E+01
     1.092E+01    1.082E+01    1.072E+01    1.063E+01    1.053E+01    1.044E+01    1.034E+01    1.024E+01    1.015E+01    1.006E+01
     9.962E+00    9.868E+00    9.775E+00    9.683E+00    9.590E+00    9.499E+00    9.407E+00    9.317E+00    9.226E+00    9.136E+00
     9.047E+00    8.958E+00    8.869E+00    8.781E+00    8.694E+00    8.607E+00    8.520E+00    8.434E+00    8.349E+00    8.263E+00
     8.179E+00    8.095E+00    8.011E+00    7.928E+00    7.846E+00    7.764E+00    7.682E+00    7.602E+00    7.521E+00    7.441E+00
     7.362E+00    7.283E+00    7.205E+00    7.128E+00    7.051E+00    6.974E+00    6.898E+00    6.823E+00    6.749E+00    6.674E+00
     6.601E+00    6.528E+00    6.456E+00    6.384E+00    6.313E+00    6.243E+00    6.173E+00    6.103E+00    6.035E+00    5.967E+00
     5.900E+00    5.833E+00    5.767E+00    5.701E+00    5.637E+00    5.573E+00    5.509E+00    5.446E+00    5.384E+00    5.323E+00
     5.262E+00    5.202E+00    5.143E+00    5.084E+00    5.026E+00    4.968E+00    4.912E+00    4.856E+00    4.801E+00    4.746E+00
     4.692E+00    4.639E+00    4.587E+00    4.535E+00    4.485E+00    4.434E+00    4.385E+00    4.336E+00    4.289E+00    4.241E+00
     4.195E+00    4.149E+00    4.105E+00    4.060E+00    4.017E+00    3.974E+00    3.932E+00    3.891E+00    3.850E+00    3.810E+00
     3.771E+00    3.732E+00    3.694E+00    3.657E+00    3.619E+00    3.583E+00    3.547E+00    3.512E+00    3.477E+00    3.442E+00
     3.408E+00    3.375E+00    3.341E+00    3.309E+00    3.276E+00    3.244E+00    3.213E+00    3.181E+00    3.150E+00    3.120E+00
     3.089E+00    3.059E+00    3.030E+00    3.000E+00    2.971E+00    2.942E+00    2.913E+00    2.884E+00    2.855E+00    2.827E+00
     2.798E+00    2.770E+00    2.742E+00    2.714E+00    2.686E+00    2.658E+00    2.630E+00    2.602E+00    2.574E+00    2.546E+00
     2.518E+00    2.490E+00    2.462E+00    2.434E+00    2.406E+00    2.378E+00    2.350E+00    2.322E+00    2.293E+00    2.265E+00
     2.236E+00    2.208E+00    2.179E+00    2.150E+00    2.121E+00    2.092E+00    2.063E+00    2.033E+00    2.004E+00    1.974E+00
     1.944E+00    1.914E+00    1.884E+00    1.853E+00    1.822E+00    1.792E+00    1.760E+00    1.729E+00    1.697E+00    1.666E+00
     1.634E+00    1.601E+00    1.569E+00    1.536E+00    1.502E+00    1.469E+00    1.435E+00    1.401E+00    1.367E+00    1.332E+00
     1.297E+00    1.262E+00    1.226E+00    1.190E+00    1.153E+00    1.116E+00    1.079E+00    1.042E+00    1.004E+00    9.661E-01
     9.277E-01    8.889E-01    8.499E-01    8.106E-01    7.709E-01    7.310E-01    6.907E-01    6.502E-01    6.094E-01    5.683E-01
     5.269E-01    4.853E-01    4.434E-01    4.012E-01    3.587E-01    3.160E-01    2.731E-01    2.299E-01    1.864E-01    1.427E-01
     9.876E-02    5.459E-02    1.018E-02   -3.445E-02   -7.931E-02   -1.244E-01   -1.697E-01   -2.152E-01   -2.609E-01   -3.068E-01
    -3.529E-01   -3.992E-01   -4.457E-01   -4.924E-01   -5.392E-01   -5.863E-01   -6.335E-01   -6.809E-01   -7.285E-01   -7.762E-01
    -8.240E-01   -8.719E-01   -9.200E-01   -9.682E-01   -1.016E+00   -1.065E+00   -1.113E+00   -1.161E+00   -1.210E+00   -1.258E+00
    -1.307E+00   -1.355E+00   -1.404E+00   -1.452E+00   -1.500E+00   -1.548E+00   -1.597E+00   -1.645E+00   -1.693E+00   -1.740E+00
    -1.788E+00   -1.836E+00   -1.883E+00   -1.930E+00   -1.977E+00   -2.024E+00   -2.071E+00   -2.117E+00   -2.163E+00   -2.209E+00
    -2.255E+00   -2.300E+00   -2.345E+00   -2.390E+00   -2.435E+00   -2.479E+00   -2.523E+00   -2.566E+00   -2.609E+00   -2.652E+00
    -2.694E+00   -2.736E+00   -2.777E+00   -2.818E+00   -2.859E+00   -2.899E+00   -2.938E+00   -2.978E+00   -3.016E+00   -3.055E+00
    -3.092E+00   -3.130E+00   -3.167E+00   -3.203E+00   -3.239E+00   -3.274E+00   -3.309E+00   -3.344E+00   -3.378E+00   -3.411E+00
    -3.444E+00   -3.477E+00   -3.509E+00   -3.540E+00   -3.571E+00   -3.602E+00   -3.631E+00   -3.661E+00   -3.690E+00   -3.718E+00
    -3.746E+00   -3.773E+00   -3.799E+00   -3.825E+00   -3.851E+00   -3.876E+00   -3.900E+00   -3.924E+00   -3.947E+00   -3.970E+00
    -3.992E+00   -4.014E+00   -4.035E+00   -4.055E+00   -4.075E+00   -4.094E+00   -4.112E+00   -4.130E+00   -4.147E+00   -4.164E+00
    -4.180E+00   -4.196E+00   -4.210E+00   -4.225E+00   -4.239E+00   -4.252E+00   -4.264E+00   -4.276E+00   -4.288E+00   -4.299E+00
    -4.310E+00   -4.320E+00   -4.329E+00   -4.338E+00   -4.347E+00   -4.355E+00   -4.362E+00   -4.369E+00   -4.376E+00   -4.382E+00
    -4.387E+00   -4.393E+00   -4.397E+00   -4.402E+00   -4.406E+00   -4.409E+00   -4.412E+00   -4.415E+00   -4.417E+00   -4.419E+00
    -4.421E+00   -4.422E+00   -4.423E+00   -4.423E+00   -4.423E+00   -4.423E+00   -4.423E+00   -4.422E+00   -4.420E+00   -4.419E+00
    -4.417E+00   -4.415E+00   -4.412E+00   -4.410E+00   -4.407E+00   -4.403E+00   -4.400E+00   -4.396E+00   -4.392E+00   -4.388E+00
    -4.383E+00   -4.378E+00   -4.373E+00   -4.368E+00   -4.363E+00   -4.357E+00   -4.352E+00   -4.346E+00   -4.339E+00   -4.333E+00
    -4.327E+00   -4.320E+00   -4.314E+00   -4.307E+00   -4.300E+00   -4.293E+00   -4.285E+00   -4.278E+00   -4.271E+00   -4.263E+00
    -4.256E+00   -4.248E+00   -4.241E+00   -4.233E+00   -4.225E+00   -4.217E+00   -4.209E+00   -4.201E+00   -4.194E+00   -4.186E+00
    -4.178E+00   -4.170E+00   -4.162E+00   -4.154E+00   -4.146E+00   -4.139E+00   -4.131E+00   -4.123E+00
 Ala      Conc. = 2.82E+02
