 LCModel (Version 6.3-1L) Copyright: S.W. Provencher.          Ref.: Magn. Reson. Med. 30:672-679 (1993).                
 Slice#1 Row#8 Col#2  PD_24_press_1_raw_act
 36 lines in following concentration table = NCONC+1
    Conc.  %SD /Cr+PCr  Metabolite                                         
   31.206 118%   0.138 Ala                                                 
   43.282  94%   0.191 Asp                                                 
   56.542  84%   0.250 Cr                                                  
  169.728  30%   0.750 PCr                                                 
   14.891 162% 6.6E-02 GABA                                                
   42.974  58%   0.190 Glc                                                 
    0.000 999%   0.000 Gln                                                 
  270.762  30%   1.197 Glu                                                 
   99.688  10%   0.441 GPC                                                 
    0.000 999%   0.000 PCh                                                 
  144.779  20%   0.640 GSH                                                 
  434.878  23%   1.922 Ins                                                 
    0.000 999%   0.000 Lac                                                 
  293.942   9%   1.299 NAA                                                 
    0.000 999%   0.000 NAAG                                                
   10.209  70% 4.5E-02 Scyllo                                              
  108.350  36%   0.479 Tau                                                 
   68.019  57%   0.301 -CrCH2                                              
   99.688  10%   0.441 GPC+PCh                                             
  293.942   9%   1.299 NAA+NAAG                                            
  226.270  11%   1.000 Cr+PCr                                              
  270.762  30%   1.197 Glu+Gln                                             
    0.000 999%   0.000 Lip13a                                              
    0.000 999%   0.000 Lip13b                                              
    0.000 999%   0.000 Lip09                                               
  144.601  57%   0.639 MM09                                                
 1.30E-04 999% 5.7E-07 Lip20                                               
  234.137  54%   1.035 MM20                                                
   42.121  66%   0.186 MM12                                                
   94.604  84%   0.418 MM14                                                
   44.637 105%   0.197 MM17                                                
    0.000 999%   0.000 Lip13a+Lip13b                                       
  136.725  74%   0.604 MM14+Lip13a+Lip13b+MM12                             
  144.601  57%   0.639 MM09+Lip09                                          
  234.137  54%   1.035 MM20+Lip20                                          
   6 lines in following misc. output table
  FWHM = 0.046 ppm    S/N =   3                                            
  Data shift = 0.015 ppm                                                   
  Ph:-108 deg     -30.8 deg/ppm                                            
  alphaB,S = 6.9E-01,   2.4E+01                                            
   14 spline knots.   Ns = 5(1)                                            
  (11) 2 infls.   ( 6) 2 extrs.                                            
  498 points on ppm-axis = NY
      4.000000     3.992357     3.984714     3.977070     3.969427     3.961784     3.954141     3.946497     3.938854     3.931211
      3.923568     3.915925     3.908281     3.900638     3.892995     3.885352     3.877708     3.870065     3.862422     3.854779
      3.847136     3.839492     3.831849     3.824206     3.816563     3.808919     3.801276     3.793633     3.785990     3.778347
      3.770703     3.763060     3.755417     3.747774     3.740130     3.732487     3.724844     3.717201     3.709558     3.701914
      3.694271     3.686628     3.678985     3.671341     3.663698     3.656055     3.648412     3.640769     3.633125     3.625482
      3.617839     3.610196     3.602552     3.594909     3.587266     3.579623     3.571980     3.564336     3.556693     3.549050
      3.541407     3.533763     3.526120     3.518477     3.510834     3.503191     3.495547     3.487904     3.480261     3.472618
      3.464974     3.457331     3.449688     3.442045     3.434402     3.426758     3.419115     3.411472     3.403829     3.396185
      3.388542     3.380899     3.373256     3.365613     3.357969     3.350326     3.342683     3.335040     3.327396     3.319753
      3.312110     3.304467     3.296824     3.289180     3.281537     3.273894     3.266251     3.258607     3.250964     3.243321
      3.235678     3.228034     3.220391     3.212748     3.205105     3.197462     3.189818     3.182175     3.174532     3.166889
      3.159245     3.151602     3.143959     3.136316     3.128673     3.121029     3.113386     3.105743     3.098100     3.090456
      3.082813     3.075170     3.067527     3.059884     3.052240     3.044597     3.036954     3.029311     3.021667     3.014024
      3.006381     2.998738     2.991095     2.983451     2.975808     2.968165     2.960522     2.952878     2.945235     2.937592
      2.929949     2.922306     2.914662     2.907019     2.899376     2.891733     2.884089     2.876446     2.868803     2.861160
      2.853517     2.845873     2.838230     2.830587     2.822944     2.815300     2.807657     2.800014     2.792371     2.784728
      2.777084     2.769441     2.761798     2.754155     2.746511     2.738868     2.731225     2.723582     2.715939     2.708295
      2.700652     2.693009     2.685366     2.677722     2.670079     2.662436     2.654793     2.647150     2.639506     2.631863
      2.624220     2.616577     2.608933     2.601290     2.593647     2.586004     2.578361     2.570717     2.563074     2.555431
      2.547788     2.540144     2.532501     2.524858     2.517215     2.509572     2.501928     2.494285     2.486642     2.478999
      2.471355     2.463712     2.456069     2.448426     2.440783     2.433139     2.425496     2.417853     2.410210     2.402566
      2.394923     2.387280     2.379637     2.371994     2.364350     2.356707     2.349064     2.341421     2.333777     2.326134
      2.318491     2.310848     2.303205     2.295561     2.287918     2.280275     2.272632     2.264988     2.257345     2.249702
      2.242059     2.234416     2.226772     2.219129     2.211486     2.203843     2.196199     2.188556     2.180913     2.173270
      2.165627     2.157983     2.150340     2.142697     2.135054     2.127410     2.119767     2.112124     2.104481     2.096838
      2.089194     2.081551     2.073908     2.066265     2.058621     2.050978     2.043335     2.035692     2.028049     2.020405
      2.012762     2.005119     1.997476     1.989833     1.982190     1.974546     1.966903     1.959260     1.951617     1.943974
      1.936331     1.928688     1.921045     1.913402     1.905759     1.898115     1.890472     1.882829     1.875186     1.867543
      1.859900     1.852257     1.844614     1.836971     1.829327     1.821684     1.814041     1.806398     1.798755     1.791112
      1.783469     1.775826     1.768183     1.760540     1.752896     1.745253     1.737610     1.729967     1.722324     1.714681
      1.707038     1.699395     1.691752     1.684108     1.676465     1.668822     1.661179     1.653536     1.645893     1.638250
      1.630607     1.622964     1.615321     1.607677     1.600034     1.592391     1.584748     1.577105     1.569462     1.561819
      1.554176     1.546533     1.538890     1.531246     1.523603     1.515960     1.508317     1.500674     1.493031     1.485388
      1.477745     1.470102     1.462458     1.454815     1.447172     1.439529     1.431886     1.424243     1.416600     1.408957
      1.401314     1.393671     1.386027     1.378384     1.370741     1.363098     1.355455     1.347812     1.340169     1.332526
      1.324883     1.317240     1.309596     1.301953     1.294310     1.286667     1.279024     1.271381     1.263738     1.256095
      1.248452     1.240808     1.233165     1.225522     1.217879     1.210236     1.202593     1.194950     1.187307     1.179664
      1.172021     1.164377     1.156734     1.149091     1.141448     1.133805     1.126162     1.118519     1.110876     1.103233
      1.095590     1.087946     1.080303     1.072660     1.065017     1.057374     1.049731     1.042088     1.034445     1.026802
      1.019158     1.011515     1.003872     0.996229     0.988586     0.980943     0.973300     0.965657     0.958014     0.950371
      0.942727     0.935084     0.927441     0.919798     0.912155     0.904512     0.896869     0.889226     0.881583     0.873940
      0.866296     0.858653     0.851010     0.843367     0.835724     0.828081     0.820438     0.812795     0.805152     0.797508
      0.789865     0.782222     0.774579     0.766936     0.759293     0.751650     0.744007     0.736364     0.728721     0.721077
      0.713434     0.705791     0.698148     0.690505     0.682862     0.675219     0.667576     0.659933     0.652290     0.644646
      0.637003     0.629360     0.621717     0.614074     0.606431     0.598788     0.591145     0.583502     0.575858     0.568215
      0.560572     0.552929     0.545286     0.537643     0.530000     0.522357     0.514714     0.507071     0.499427     0.491784
      0.484141     0.476498     0.468855     0.461212     0.453569     0.445925     0.438282     0.430639     0.422996     0.415353
      0.407710     0.400067     0.392424     0.384780     0.377137     0.369494     0.361851     0.354208     0.346565     0.338922
      0.331278     0.323635     0.315992     0.308349     0.300706     0.293063     0.285420     0.277777     0.270133     0.262490
      0.254847     0.247204     0.239561     0.231918     0.224275     0.216631     0.208988     0.201345
 NY phased data points follow
  -7.07415E+01 -6.69546E+01 -6.63122E+01 -6.84931E+01 -6.25985E+01 -6.46859E+01 -6.08683E+01 -5.63117E+01 -5.91384E+01 -5.92719E+01
  -4.93634E+01 -5.37419E+01 -5.33662E+01 -5.67443E+01 -5.70301E+01 -5.23150E+01 -5.43965E+01 -5.65770E+01 -5.81073E+01 -6.02779E+01
  -5.27049E+01 -5.35097E+01 -5.27073E+01 -5.69555E+01 -5.04701E+01 -4.95179E+01 -5.33871E+01 -5.25295E+01 -5.04407E+01 -4.93782E+01
  -4.61056E+01 -4.58629E+01 -4.15681E+01 -4.15599E+01 -4.56747E+01 -4.87325E+01 -4.54345E+01 -4.55542E+01 -4.33486E+01 -4.48880E+01
  -4.45287E+01 -4.36013E+01 -4.47110E+01 -4.63372E+01 -4.36404E+01 -4.04402E+01 -4.08019E+01 -3.88577E+01 -3.88347E+01 -3.87467E+01
  -3.89118E+01 -3.98475E+01 -3.94764E+01 -3.84352E+01 -4.36942E+01 -4.16560E+01 -3.83728E+01 -3.93984E+01 -4.37650E+01 -3.63487E+01
  -3.76698E+01 -3.60040E+01 -3.81043E+01 -3.61059E+01 -3.47895E+01 -3.38166E+01 -3.33614E+01 -3.60499E+01 -3.27485E+01 -3.51364E+01
  -3.51216E+01 -3.57477E+01 -3.27653E+01 -3.15360E+01 -3.07173E+01 -3.28537E+01 -2.60505E+01 -2.96695E+01 -2.84063E+01 -2.89582E+01
  -3.04774E+01 -3.21342E+01 -2.98778E+01 -3.14067E+01 -2.83855E+01 -3.19766E+01 -3.12459E+01 -2.98613E+01 -2.90611E+01 -3.03785E+01
  -2.87672E+01 -2.76729E+01 -2.89707E+01 -2.49350E+01 -2.41944E+01 -2.98222E+01 -2.63093E+01 -2.79159E+01 -3.02191E+01 -3.04014E+01
  -2.12095E+01 -1.62033E+01 -1.30036E+01 -1.51207E+01 -1.22137E+01 -1.65576E+01 -1.67281E+01 -2.25573E+01 -2.19177E+01 -2.37975E+01
  -1.98043E+01 -2.39069E+01 -2.47711E+01 -2.07522E+01 -2.09836E+01 -1.96612E+01 -2.38018E+01 -2.14431E+01 -1.96021E+01 -2.01132E+01
  -2.29846E+01 -2.48707E+01 -2.33263E+01 -2.43790E+01 -1.73795E+01 -1.63106E+01 -1.19150E+01 -1.14658E+01 -6.93494E+00 -1.21677E+01
  -1.39705E+01 -1.36981E+01 -1.56717E+01 -1.40911E+01 -1.74239E+01 -1.85544E+01 -1.48445E+01 -1.83097E+01 -1.71112E+01 -1.82579E+01
  -1.91281E+01 -2.03389E+01 -1.70941E+01 -1.63277E+01 -1.78393E+01 -1.43652E+01 -1.83405E+01 -1.65651E+01 -2.04265E+01 -1.74788E+01
  -1.76036E+01 -1.87100E+01 -1.40111E+01 -1.32992E+01 -1.52442E+01 -1.56421E+01 -1.72802E+01 -1.51965E+01 -1.08331E+01 -1.21438E+01
  -1.55238E+01 -1.70973E+01 -1.70308E+01 -1.42975E+01 -1.65349E+01 -1.42006E+01 -1.70422E+01 -1.37880E+01 -1.40387E+01 -1.38047E+01
  -1.36125E+01 -1.59180E+01 -1.48362E+01 -1.51212E+01 -1.43966E+01 -1.58488E+01 -1.56358E+01 -1.65550E+01 -1.27586E+01 -1.39882E+01
  -1.22330E+01 -1.70866E+01 -1.42430E+01 -1.20139E+01 -1.02702E+01 -1.32291E+01 -1.17841E+01 -1.38533E+01 -1.47218E+01 -1.12229E+01
  -1.03686E+01 -1.08465E+01 -1.18052E+01 -1.09314E+01 -1.03698E+01 -8.41643E+00 -9.22737E+00 -8.93659E+00 -1.09759E+01 -9.98253E+00
  -1.09224E+01 -7.84632E+00 -8.76182E+00 -9.40339E+00 -8.00089E+00 -7.89995E+00 -9.72821E+00 -6.37588E+00 -5.91317E+00 -8.51275E+00
  -1.03858E+01 -9.30509E+00 -1.00196E+01 -8.40059E+00 -5.66873E+00 -7.18731E+00 -4.61376E+00 -5.55556E+00 -4.40194E+00 -6.31130E+00
  -9.10523E+00 -7.28572E+00 -1.03216E+01 -7.06850E+00 -6.58770E+00 -8.04694E+00 -3.80250E+00 -7.34395E+00 -8.03389E+00 -3.63122E+00
  -2.17566E+00 -2.70698E+00 -6.03590E+00 -2.45524E+00 -3.84381E+00 -5.75505E+00 -2.56295E+00 -2.41930E+00 -3.97405E+00 -2.60868E+00
  -2.99366E+00 -5.32483E+00 -4.84396E+00 -5.31101E+00 -6.27472E+00 -1.67022E+00 -2.10655E+00 -8.55348E-01  1.57026E+00 -2.79648E+00
  -6.78106E+00 -2.90801E+00 -4.33047E+00 -5.83980E+00 -6.68177E+00 -4.91208E+00 -3.58833E+00 -5.95443E+00 -3.13104E-01  3.34431E+00
   9.74896E+00  1.20255E+01  1.06404E+01  7.84368E+00  2.09707E+00  2.64259E+00  8.15573E-01 -4.50173E+00 -8.65405E-01 -3.65285E+00
   2.48873E-01 -5.20152E+00 -2.10535E+00 -5.44869E-01 -4.88860E+00  1.82888E-01 -5.22214E+00 -2.85164E+00 -4.82552E+00 -2.59120E+00
  -2.55075E+00 -4.13272E-01 -2.84417E+00  6.40381E-01 -1.39638E+00 -1.77581E+00 -2.43991E+00 -1.73475E+00 -3.03267E+00 -3.78224E+00
   1.71571E+00  8.44492E-01 -1.77035E+00 -1.66701E+00 -2.21685E+00  1.41042E+00 -2.30178E+00 -2.22194E+00 -4.22836E+00 -4.05324E+00
  -4.03394E-01 -7.58817E-01 -2.13691E+00  3.21028E-01 -1.40742E+00 -1.81461E+00 -3.29206E+00 -3.29862E+00  4.10352E-02 -8.18242E-01
  -1.88424E+00 -4.47778E+00 -2.75968E+00 -7.58434E-01 -1.85627E+00 -3.76250E+00 -3.37069E+00 -7.79284E-01  8.57226E-01 -2.49596E+00
  -1.70514E+00  5.93092E-01  6.06295E-01 -3.64208E+00 -2.66702E-01 -1.90070E+00  2.01018E-01 -1.25968E-01 -2.11883E+00  1.07499E+00
  -5.02257E-02 -2.28510E+00 -4.53889E+00  6.68909E-01 -1.23885E+00  1.06454E+00  1.77546E+00  5.22851E-01  2.18450E-01 -9.81043E-01
  -6.50517E-01 -3.71201E-01 -4.65063E-01  2.17995E+00 -1.41123E+00  1.02475E+00 -2.90849E-01 -2.46861E+00 -2.12295E+00  9.88150E-01
   2.22813E+00  1.56800E+00 -2.48245E-01  3.14426E+00  3.08335E-01 -2.65924E+00  1.47444E+00  3.55093E+00 -2.46861E+00 -3.72245E-02
  -7.11507E-01 -1.03820E+00 -7.44452E-01  4.88494E-01 -7.40170E-01  2.05543E-01  1.98693E+00 -1.33154E+00 -8.92647E-01  5.92151E-01
  -4.41588E+00  1.59485E+00 -4.42600E-01 -1.49232E+00  8.14051E-01  3.81511E-01  2.15786E+00  3.98546E+00  2.47646E+00  1.47150E-01
   1.78798E+00 -4.61827E-02 -4.82295E+00  3.22384E-01  7.44310E-01  2.40748E+00  3.76443E+00  1.26403E+00  4.48807E+00  5.43515E+00
   3.10666E+00  5.23328E+00 -9.15354E-01  6.74459E-01  3.94037E-03  1.38679E+00  1.17281E+00  1.88523E+00  4.53899E+00  2.53565E+00
  -3.36344E-01  5.37080E+00 -5.73363E-01  1.88287E+00  2.39487E+00  2.44339E+00  6.50219E-01  1.82054E+00  9.22159E-01  3.35424E+00
   2.29834E+00  2.74573E+00  3.17213E+00  3.04521E+00  1.95784E+00  4.75016E+00  1.25615E+00  2.41479E+00  5.91252E+00  2.43645E+00
   2.53990E+00  1.96659E-01 -1.25545E+00  1.78041E+00  2.96672E+00  5.60228E+00  1.92116E+00  5.08839E+00  1.21875E+00  7.34182E+00
   3.02384E+00  4.68161E+00  6.63781E+00  1.15355E+00  2.53067E-01  5.50402E+00  3.01147E+00  2.46033E+00  1.04318E+00  4.74862E-01
   1.64960E+00  2.26815E+00  5.27005E+00  2.90216E+00  2.51940E+00  1.44580E+00  3.73445E+00  5.71647E+00  6.97858E-01  5.20063E+00
   2.61775E+00  3.13657E+00  5.23631E-01  5.68019E+00  1.30198E+00  8.96277E-01  5.03138E+00  3.52232E+00  2.27425E+00  4.07420E+00
   5.88012E+00  2.61329E+00  4.89809E+00  3.52165E+00  1.99378E+00  2.34913E+00  1.65986E+00  1.64916E+00 -5.60758E-01  1.59182E+00
   2.84126E+00  1.96092E+00  4.22798E+00  3.90741E+00  3.64139E+00  1.40635E+00  6.40656E-01  3.61493E+00  4.57336E+00  1.58563E+00
   3.11231E+00  1.23156E+00  1.20688E+00  1.51119E+00  3.33391E+00  1.34474E+00  3.31445E+00  3.26390E+00  6.81259E+00  2.28791E+00
   3.46084E+00  1.25114E+00  3.19774E+00  4.63215E-01  4.28733E+00  3.88616E+00  3.84647E+00  6.03807E+00
 NY points of the fit to the data follow
  -6.22344E+01 -6.21112E+01 -6.18910E+01 -6.15833E+01 -6.12920E+01 -6.06818E+01 -5.95445E+01 -5.80724E+01 -5.64645E+01 -5.49703E+01
  -5.39281E+01 -5.35639E+01 -5.37154E+01 -5.40633E+01 -5.44532E+01 -5.47742E+01 -5.48919E+01 -5.49229E+01 -5.48535E+01 -5.45874E+01
  -5.41668E+01 -5.36981E+01 -5.32442E+01 -5.27617E+01 -5.23571E+01 -5.23606E+01 -5.26602E+01 -5.22645E+01 -5.07128E+01 -4.85312E+01
  -4.64104E+01 -4.47799E+01 -4.39793E+01 -4.41017E+01 -4.46794E+01 -4.52804E+01 -4.58321E+01 -4.62714E+01 -4.64423E+01 -4.64151E+01
  -4.62394E+01 -4.60299E+01 -4.58851E+01 -4.56128E+01 -4.47108E+01 -4.29552E+01 -4.08319E+01 -3.91010E+01 -3.82566E+01 -3.83479E+01
  -3.90963E+01 -4.00884E+01 -4.09105E+01 -4.13477E+01 -4.14333E+01 -4.12323E+01 -4.07467E+01 -3.99804E+01 -3.89870E+01 -3.79455E+01
  -3.70945E+01 -3.66194E+01 -3.65643E+01 -3.67284E+01 -3.69013E+01 -3.69220E+01 -3.66945E+01 -3.63111E+01 -3.58353E+01 -3.52520E+01
  -3.46548E+01 -3.41681E+01 -3.37119E+01 -3.31605E+01 -3.25677E+01 -3.20918E+01 -3.17879E+01 -3.17157E+01 -3.18479E+01 -3.19695E+01
  -3.19314E+01 -3.17515E+01 -3.13932E+01 -3.08134E+01 -3.02341E+01 -2.99375E+01 -2.99854E+01 -3.02400E+01 -3.04839E+01 -3.04964E+01
  -3.01953E+01 -2.97224E+01 -2.92218E+01 -2.87364E+01 -2.83613E+01 -2.80875E+01 -2.79065E+01 -2.83411E+01 -2.89426E+01 -2.73845E+01
  -2.30503E+01 -1.78724E+01 -1.39874E+01 -1.23244E+01 -1.29779E+01 -1.53645E+01 -1.81765E+01 -2.05444E+01 -2.24032E+01 -2.34732E+01
  -2.36476E+01 -2.35823E+01 -2.34609E+01 -2.33042E+01 -2.31415E+01 -2.29554E+01 -2.27583E+01 -2.25787E+01 -2.24239E+01 -2.22881E+01
  -2.21970E+01 -2.23716E+01 -2.29680E+01 -2.25733E+01 -1.99479E+01 -1.58599E+01 -1.20994E+01 -9.88484E+00 -9.55785E+00 -1.09190E+01
  -1.30163E+01 -1.47839E+01 -1.60177E+01 -1.69299E+01 -1.74286E+01 -1.79169E+01 -1.85364E+01 -1.90783E+01 -1.92788E+01 -1.90374E+01
  -1.84668E+01 -1.77539E+01 -1.71060E+01 -1.66517E+01 -1.64077E+01 -1.63350E+01 -1.63491E+01 -1.63553E+01 -1.63449E+01 -1.62980E+01
  -1.62209E+01 -1.61386E+01 -1.60718E+01 -1.60026E+01 -1.59008E+01 -1.57508E+01 -1.55461E+01 -1.53396E+01 -1.52195E+01 -1.52042E+01
  -1.52413E+01 -1.52175E+01 -1.50568E+01 -1.47891E+01 -1.44947E+01 -1.42450E+01 -1.40628E+01 -1.39413E+01 -1.38646E+01 -1.37973E+01
  -1.37068E+01 -1.35762E+01 -1.34238E+01 -1.33569E+01 -1.33850E+01 -1.33958E+01 -1.32914E+01 -1.30944E+01 -1.29057E+01 -1.27795E+01
  -1.26918E+01 -1.25637E+01 -1.23771E+01 -1.22277E+01 -1.22107E+01 -1.22704E+01 -1.22892E+01 -1.21364E+01 -1.17323E+01 -1.10925E+01
  -1.03603E+01 -9.73377E+00 -9.33014E+00 -9.12542E+00 -9.14159E+00 -9.44989E+00 -9.91042E+00 -1.02665E+01 -1.03714E+01 -1.02512E+01
  -9.92321E+00 -9.42454E+00 -8.85078E+00 -8.32304E+00 -7.92518E+00 -7.70079E+00 -7.66012E+00 -7.76095E+00 -7.94775E+00 -8.20083E+00
  -8.50038E+00 -8.77146E+00 -8.68179E+00 -8.00549E+00 -6.98823E+00 -6.05003E+00 -5.45786E+00 -5.29916E+00 -5.65223E+00 -6.57656E+00
  -7.84177E+00 -8.91928E+00 -9.41991E+00 -9.20414E+00 -8.45178E+00 -7.44067E+00 -6.42774E+00 -5.60287E+00 -5.12675E+00 -5.11459E+00
  -5.45109E+00 -5.83449E+00 -6.04288E+00 -6.01140E+00 -5.64063E+00 -4.91200E+00 -4.09170E+00 -3.56012E+00 -3.49925E+00 -3.90606E+00
  -4.61885E+00 -5.38296E+00 -5.88270E+00 -5.92878E+00 -5.53653E+00 -4.81824E+00 -4.00639E+00 -3.39353E+00 -3.13930E+00 -3.19361E+00
  -3.41760E+00 -3.64742E+00 -3.77701E+00 -3.74527E+00 -3.71108E+00 -4.26931E+00 -5.18783E+00 -4.14351E+00 -1.77970E-01  4.99782E+00
   9.13881E+00  1.10903E+01  1.06072E+01  8.14286E+00  4.97297E+00  2.13258E+00 -1.77219E-01 -1.72394E+00 -2.29618E+00 -2.55155E+00
  -2.71526E+00 -2.78300E+00 -2.76455E+00 -2.69084E+00 -2.58206E+00 -2.47038E+00 -2.38396E+00 -2.33887E+00 -2.33298E+00 -2.35551E+00
  -2.38696E+00 -2.40964E+00 -2.41554E+00 -2.40021E+00 -2.36632E+00 -2.32278E+00 -2.27479E+00 -2.22552E+00 -2.17939E+00 -2.13587E+00
  -2.09347E+00 -2.05176E+00 -2.01029E+00 -1.96787E+00 -1.92386E+00 -1.87893E+00 -1.83324E+00 -1.78672E+00 -1.74035E+00 -1.69489E+00
  -1.64990E+00 -1.60547E+00 -1.56185E+00 -1.51964E+00 -1.47943E+00 -1.44151E+00 -1.40575E+00 -1.37166E+00 -1.33878E+00 -1.30686E+00
  -1.27549E+00 -1.24431E+00 -1.21295E+00 -1.18096E+00 -1.14796E+00 -1.11358E+00 -1.07743E+00 -1.03907E+00 -9.98122E-01 -9.54455E-01
  -9.08734E-01 -8.64959E-01 -8.23600E-01 -7.12273E-01 -4.89685E-01 -2.59274E-01 -1.51168E-01 -2.01088E-01 -3.63282E-01 -5.76845E-01
  -8.21146E-01 -1.05991E+00 -1.17725E+00 -1.08837E+00 -8.08260E-01 -4.55550E-01 -1.39633E-01  8.26090E-02  1.86603E-01  2.02609E-01
   1.75454E-01  1.21324E-01  7.00368E-02  4.86594E-02  4.31866E-02  4.52771E-02  5.18119E-02  6.13811E-02  7.32804E-02  8.71424E-02
   1.02823E-01  1.20277E-01  1.39491E-01  1.60391E-01  1.82876E-01  2.06829E-01  2.32160E-01  2.58757E-01  2.86469E-01  3.15075E-01
   3.44358E-01  3.74124E-01  4.04234E-01  4.34548E-01  4.64918E-01  4.95191E-01  5.25279E-01  5.55157E-01  5.84873E-01  6.14482E-01
   6.44052E-01  6.73668E-01  7.03488E-01  7.33720E-01  7.64613E-01  7.96391E-01  8.29284E-01  8.63535E-01  8.99447E-01  9.37341E-01
   9.77541E-01  1.02033E+00  1.06599E+00  1.11481E+00  1.16710E+00  1.22313E+00  1.28313E+00  1.34721E+00  1.41541E+00  1.48770E+00
   1.56396E+00  1.64387E+00  1.72697E+00  1.81255E+00  1.89980E+00  1.98774E+00  2.07527E+00  2.16111E+00  2.24393E+00  2.32233E+00
   2.39500E+00  2.46074E+00  2.51849E+00  2.56737E+00  2.60678E+00  2.63636E+00  2.65615E+00  2.66645E+00  2.66785E+00  2.66119E+00
   2.64747E+00  2.62790E+00  2.60379E+00  2.57646E+00  2.54720E+00  2.51719E+00  2.48749E+00  2.45906E+00  2.43268E+00  2.40895E+00
   2.38828E+00  2.37090E+00  2.35694E+00  2.34643E+00  2.33928E+00  2.33532E+00  2.33432E+00  2.33601E+00  2.34012E+00  2.34641E+00
   2.35463E+00  2.36451E+00  2.37579E+00  2.38827E+00  2.40177E+00  2.41615E+00  2.43125E+00  2.44693E+00  2.46306E+00  2.47957E+00
   2.49638E+00  2.51343E+00  2.53067E+00  2.54801E+00  2.56541E+00  2.58284E+00  2.60028E+00  2.61771E+00  2.63510E+00  2.65238E+00
   2.66956E+00  2.68663E+00  2.70359E+00  2.72041E+00  2.73709E+00  2.75361E+00  2.76998E+00  2.78622E+00  2.80234E+00  2.81832E+00
   2.83415E+00  2.84983E+00  2.86538E+00  2.88082E+00  2.89616E+00  2.91137E+00  2.92646E+00  2.94143E+00  2.95632E+00  2.97113E+00
   2.98585E+00  3.00049E+00  3.01504E+00  3.02952E+00  3.04396E+00  3.05835E+00  3.07271E+00  3.08701E+00  3.10128E+00  3.11552E+00
   3.12977E+00  3.14402E+00  3.15826E+00  3.17249E+00  3.18674E+00  3.20103E+00  3.21536E+00  3.22973E+00  3.24415E+00  3.25861E+00
   3.27314E+00  3.28775E+00  3.30246E+00  3.31725E+00  3.33214E+00  3.34713E+00  3.36224E+00  3.37750E+00
 NY background values follow
    -6.335E+01   -6.294E+01   -6.252E+01   -6.210E+01   -6.169E+01   -6.127E+01   -6.086E+01   -6.044E+01   -6.002E+01   -5.961E+01
    -5.919E+01   -5.878E+01   -5.836E+01   -5.795E+01   -5.753E+01   -5.712E+01   -5.671E+01   -5.629E+01   -5.588E+01   -5.547E+01
    -5.506E+01   -5.465E+01   -5.424E+01   -5.383E+01   -5.342E+01   -5.301E+01   -5.261E+01   -5.220E+01   -5.180E+01   -5.139E+01
    -5.099E+01   -5.059E+01   -5.019E+01   -4.979E+01   -4.939E+01   -4.899E+01   -4.859E+01   -4.820E+01   -4.781E+01   -4.742E+01
    -4.702E+01   -4.664E+01   -4.625E+01   -4.586E+01   -4.548E+01   -4.510E+01   -4.471E+01   -4.434E+01   -4.396E+01   -4.358E+01
    -4.321E+01   -4.284E+01   -4.246E+01   -4.210E+01   -4.173E+01   -4.136E+01   -4.100E+01   -4.064E+01   -4.028E+01   -3.992E+01
    -3.957E+01   -3.921E+01   -3.886E+01   -3.851E+01   -3.817E+01   -3.782E+01   -3.748E+01   -3.714E+01   -3.680E+01   -3.646E+01
    -3.612E+01   -3.579E+01   -3.546E+01   -3.513E+01   -3.481E+01   -3.448E+01   -3.416E+01   -3.384E+01   -3.352E+01   -3.321E+01
    -3.290E+01   -3.259E+01   -3.228E+01   -3.197E+01   -3.167E+01   -3.137E+01   -3.107E+01   -3.078E+01   -3.049E+01   -3.019E+01
    -2.991E+01   -2.962E+01   -2.934E+01   -2.906E+01   -2.878E+01   -2.851E+01   -2.823E+01   -2.796E+01   -2.769E+01   -2.743E+01
    -2.717E+01   -2.691E+01   -2.665E+01   -2.639E+01   -2.614E+01   -2.589E+01   -2.564E+01   -2.539E+01   -2.515E+01   -2.490E+01
    -2.466E+01   -2.442E+01   -2.419E+01   -2.396E+01   -2.372E+01   -2.349E+01   -2.327E+01   -2.304E+01   -2.282E+01   -2.260E+01
    -2.238E+01   -2.216E+01   -2.195E+01   -2.173E+01   -2.152E+01   -2.131E+01   -2.110E+01   -2.090E+01   -2.070E+01   -2.049E+01
    -2.029E+01   -2.010E+01   -1.990E+01   -1.970E+01   -1.951E+01   -1.932E+01   -1.913E+01   -1.894E+01   -1.876E+01   -1.857E+01
    -1.839E+01   -1.821E+01   -1.803E+01   -1.785E+01   -1.767E+01   -1.750E+01   -1.733E+01   -1.715E+01   -1.698E+01   -1.681E+01
    -1.665E+01   -1.648E+01   -1.631E+01   -1.615E+01   -1.599E+01   -1.583E+01   -1.567E+01   -1.551E+01   -1.535E+01   -1.519E+01
    -1.504E+01   -1.488E+01   -1.473E+01   -1.458E+01   -1.443E+01   -1.428E+01   -1.413E+01   -1.398E+01   -1.383E+01   -1.369E+01
    -1.354E+01   -1.340E+01   -1.326E+01   -1.311E+01   -1.297E+01   -1.283E+01   -1.269E+01   -1.255E+01   -1.241E+01   -1.228E+01
    -1.214E+01   -1.200E+01   -1.187E+01   -1.173E+01   -1.160E+01   -1.146E+01   -1.133E+01   -1.120E+01   -1.106E+01   -1.093E+01
    -1.080E+01   -1.067E+01   -1.055E+01   -1.042E+01   -1.029E+01   -1.016E+01   -1.004E+01   -9.913E+00   -9.788E+00   -9.665E+00
    -9.543E+00   -9.421E+00   -9.301E+00   -9.181E+00   -9.062E+00   -8.944E+00   -8.827E+00   -8.711E+00   -8.595E+00   -8.481E+00
    -8.368E+00   -8.255E+00   -8.144E+00   -8.034E+00   -7.924E+00   -7.816E+00   -7.708E+00   -7.602E+00   -7.497E+00   -7.393E+00
    -7.289E+00   -7.187E+00   -7.086E+00   -6.987E+00   -6.888E+00   -6.790E+00   -6.694E+00   -6.598E+00   -6.504E+00   -6.411E+00
    -6.319E+00   -6.228E+00   -6.138E+00   -6.050E+00   -5.962E+00   -5.875E+00   -5.790E+00   -5.705E+00   -5.622E+00   -5.540E+00
    -5.458E+00   -5.378E+00   -5.299E+00   -5.221E+00   -5.143E+00   -5.067E+00   -4.992E+00   -4.917E+00   -4.844E+00   -4.771E+00
    -4.700E+00   -4.629E+00   -4.559E+00   -4.491E+00   -4.423E+00   -4.356E+00   -4.290E+00   -4.224E+00   -4.160E+00   -4.097E+00
    -4.034E+00   -3.972E+00   -3.911E+00   -3.851E+00   -3.791E+00   -3.733E+00   -3.675E+00   -3.618E+00   -3.562E+00   -3.506E+00
    -3.452E+00   -3.398E+00   -3.344E+00   -3.292E+00   -3.240E+00   -3.189E+00   -3.139E+00   -3.089E+00   -3.040E+00   -2.991E+00
    -2.944E+00   -2.896E+00   -2.850E+00   -2.804E+00   -2.758E+00   -2.713E+00   -2.669E+00   -2.625E+00   -2.582E+00   -2.539E+00
    -2.497E+00   -2.455E+00   -2.414E+00   -2.373E+00   -2.332E+00   -2.292E+00   -2.252E+00   -2.213E+00   -2.174E+00   -2.136E+00
    -2.097E+00   -2.060E+00   -2.022E+00   -1.985E+00   -1.948E+00   -1.911E+00   -1.875E+00   -1.839E+00   -1.803E+00   -1.767E+00
    -1.732E+00   -1.696E+00   -1.661E+00   -1.626E+00   -1.592E+00   -1.557E+00   -1.522E+00   -1.488E+00   -1.454E+00   -1.420E+00
    -1.386E+00   -1.352E+00   -1.318E+00   -1.284E+00   -1.250E+00   -1.216E+00   -1.183E+00   -1.149E+00   -1.116E+00   -1.083E+00
    -1.049E+00   -1.016E+00   -9.827E-01   -9.495E-01   -9.164E-01   -8.832E-01   -8.502E-01   -8.171E-01   -7.841E-01   -7.511E-01
    -7.181E-01   -6.852E-01   -6.522E-01   -6.192E-01   -5.863E-01   -5.533E-01   -5.203E-01   -4.874E-01   -4.544E-01   -4.213E-01
    -3.883E-01   -3.552E-01   -3.221E-01   -2.890E-01   -2.558E-01   -2.225E-01   -1.893E-01   -1.559E-01   -1.225E-01   -8.909E-02
    -5.557E-02   -2.198E-02    1.168E-02    4.541E-02    7.921E-02    1.131E-01    1.470E-01    1.809E-01    2.149E-01    2.490E-01
     2.830E-01    3.171E-01    3.512E-01    3.853E-01    4.193E-01    4.534E-01    4.875E-01    5.216E-01    5.556E-01    5.896E-01
     6.235E-01    6.574E-01    6.913E-01    7.251E-01    7.588E-01    7.925E-01    8.260E-01    8.595E-01    8.929E-01    9.262E-01
     9.594E-01    9.925E-01    1.025E+00    1.058E+00    1.091E+00    1.124E+00    1.156E+00    1.188E+00    1.220E+00    1.252E+00
     1.284E+00    1.316E+00    1.347E+00    1.378E+00    1.409E+00    1.440E+00    1.471E+00    1.501E+00    1.532E+00    1.561E+00
     1.591E+00    1.621E+00    1.650E+00    1.679E+00    1.708E+00    1.736E+00    1.765E+00    1.793E+00    1.821E+00    1.849E+00
     1.876E+00    1.903E+00    1.930E+00    1.957E+00    1.983E+00    2.010E+00    2.036E+00    2.061E+00    2.087E+00    2.112E+00
     2.137E+00    2.162E+00    2.186E+00    2.211E+00    2.235E+00    2.259E+00    2.282E+00    2.305E+00    2.328E+00    2.351E+00
     2.374E+00    2.396E+00    2.418E+00    2.439E+00    2.461E+00    2.482E+00    2.503E+00    2.524E+00    2.544E+00    2.564E+00
     2.584E+00    2.604E+00    2.623E+00    2.642E+00    2.661E+00    2.679E+00    2.697E+00    2.715E+00    2.733E+00    2.751E+00
     2.768E+00    2.785E+00    2.802E+00    2.819E+00    2.836E+00    2.852E+00    2.869E+00    2.885E+00    2.901E+00    2.917E+00
     2.932E+00    2.948E+00    2.963E+00    2.979E+00    2.994E+00    3.009E+00    3.025E+00    3.040E+00    3.055E+00    3.070E+00
     3.085E+00    3.100E+00    3.115E+00    3.130E+00    3.145E+00    3.160E+00    3.174E+00    3.189E+00    3.204E+00    3.219E+00
     3.235E+00    3.250E+00    3.265E+00    3.280E+00    3.296E+00    3.311E+00    3.327E+00    3.342E+00
 Ala      Conc. = 3.12E+01
