 LCModel (Version 6.3-1L) Copyright: S.W. Provencher.          Ref.: Magn. Reson. Med. 30:672-679 (1993).                
 Slice#2 Row#10 Col#7  PD_24_press_1_raw_act
 36 lines in following concentration table = NCONC+1
    Conc.  %SD /Cr+PCr  Metabolite                                         
  132.641  97% 7.1E-02 Ala                                                 
    0.000 999%   0.000 Asp                                                 
 1.61E+03  15%   0.862 Cr                                                  
  256.907  95%   0.138 PCr                                                 
   64.700 289% 3.5E-02 GABA                                                
   61.327 302% 3.3E-02 Glc                                                 
  585.701  45%   0.314 Gln                                                 
 2.18E+03  15%   1.167 Glu                                                 
  715.390   4%   0.383 GPC                                                 
    0.000 999%   0.000 PCh                                                 
  772.146  12%   0.413 GSH                                                 
 2.24E+03  14%   1.199 Ins                                                 
  128.677 108% 6.9E-02 Lac                                                 
 2.64E+03   5%   1.413 NAA                                                 
  187.998  76%   0.101 NAAG                                                
  127.329  25% 6.8E-02 Scyllo                                              
    0.000 999%   0.000 Tau                                                 
    0.000 999%   0.000 -CrCH2                                              
  715.390   4%   0.383 GPC+PCh                                             
 2.83E+03   4%   1.514 NAA+NAAG                                            
 1.87E+03   4%   1.000 Cr+PCr                                              
 2.76E+03  15%   1.480 Glu+Gln                                             
 2.80E+03  28%   1.497 Lip13a                                              
    0.000 999%   0.000 Lip13b                                              
  334.809 112%   0.179 Lip09                                               
 1.85E+03  22%   0.990 MM09                                                
  453.344  58%   0.243 Lip20                                               
 3.34E+03  15%   1.787 MM20                                                
  698.026  37%   0.374 MM12                                                
 2.21E+03  24%   1.182 MM14                                                
 1.61E+03  22%   0.860 MM17                                                
 2.80E+03  28%   1.497 Lip13a+Lip13b                                       
 5.70E+03  10%   3.052 MM14+Lip13a+Lip13b+MM12                             
 2.18E+03  11%   1.169 MM09+Lip09                                          
 3.79E+03  13%   2.030 MM20+Lip20                                          
   6 lines in following misc. output table
  FWHM = 0.046 ppm    S/N =  11                                            
  Data shift = 0.008 ppm                                                   
  Ph:  13 deg       7.3 deg/ppm                                            
  alphaB,S = 2.4E+00,   9.3E+01                                            
   14 spline knots.   Ns = 6(1)                                            
  (10) 2 infls.   ( 5) 1 extrs.                                            
  498 points on ppm-axis = NY
      4.000000     3.992357     3.984714     3.977070     3.969427     3.961784     3.954141     3.946497     3.938854     3.931211
      3.923568     3.915925     3.908281     3.900638     3.892995     3.885352     3.877708     3.870065     3.862422     3.854779
      3.847136     3.839492     3.831849     3.824206     3.816563     3.808919     3.801276     3.793633     3.785990     3.778347
      3.770703     3.763060     3.755417     3.747774     3.740130     3.732487     3.724844     3.717201     3.709558     3.701914
      3.694271     3.686628     3.678985     3.671341     3.663698     3.656055     3.648412     3.640769     3.633125     3.625482
      3.617839     3.610196     3.602552     3.594909     3.587266     3.579623     3.571980     3.564336     3.556693     3.549050
      3.541407     3.533763     3.526120     3.518477     3.510834     3.503191     3.495547     3.487904     3.480261     3.472618
      3.464974     3.457331     3.449688     3.442045     3.434402     3.426758     3.419115     3.411472     3.403829     3.396185
      3.388542     3.380899     3.373256     3.365613     3.357969     3.350326     3.342683     3.335040     3.327396     3.319753
      3.312110     3.304467     3.296824     3.289180     3.281537     3.273894     3.266251     3.258607     3.250964     3.243321
      3.235678     3.228034     3.220391     3.212748     3.205105     3.197462     3.189818     3.182175     3.174532     3.166889
      3.159245     3.151602     3.143959     3.136316     3.128673     3.121029     3.113386     3.105743     3.098100     3.090456
      3.082813     3.075170     3.067527     3.059884     3.052240     3.044597     3.036954     3.029311     3.021667     3.014024
      3.006381     2.998738     2.991095     2.983451     2.975808     2.968165     2.960522     2.952878     2.945235     2.937592
      2.929949     2.922306     2.914662     2.907019     2.899376     2.891733     2.884089     2.876446     2.868803     2.861160
      2.853517     2.845873     2.838230     2.830587     2.822944     2.815300     2.807657     2.800014     2.792371     2.784728
      2.777084     2.769441     2.761798     2.754155     2.746511     2.738868     2.731225     2.723582     2.715939     2.708295
      2.700652     2.693009     2.685366     2.677722     2.670079     2.662436     2.654793     2.647150     2.639506     2.631863
      2.624220     2.616577     2.608933     2.601290     2.593647     2.586004     2.578361     2.570717     2.563074     2.555431
      2.547788     2.540144     2.532501     2.524858     2.517215     2.509572     2.501928     2.494285     2.486642     2.478999
      2.471355     2.463712     2.456069     2.448426     2.440783     2.433139     2.425496     2.417853     2.410210     2.402566
      2.394923     2.387280     2.379637     2.371994     2.364350     2.356707     2.349064     2.341421     2.333777     2.326134
      2.318491     2.310848     2.303205     2.295561     2.287918     2.280275     2.272632     2.264988     2.257345     2.249702
      2.242059     2.234416     2.226772     2.219129     2.211486     2.203843     2.196199     2.188556     2.180913     2.173270
      2.165627     2.157983     2.150340     2.142697     2.135054     2.127410     2.119767     2.112124     2.104481     2.096838
      2.089194     2.081551     2.073908     2.066265     2.058621     2.050978     2.043335     2.035692     2.028049     2.020405
      2.012762     2.005119     1.997476     1.989833     1.982190     1.974546     1.966903     1.959260     1.951617     1.943974
      1.936331     1.928688     1.921045     1.913402     1.905759     1.898115     1.890472     1.882829     1.875186     1.867543
      1.859900     1.852257     1.844614     1.836971     1.829327     1.821684     1.814041     1.806398     1.798755     1.791112
      1.783469     1.775826     1.768183     1.760540     1.752896     1.745253     1.737610     1.729967     1.722324     1.714681
      1.707038     1.699395     1.691752     1.684108     1.676465     1.668822     1.661179     1.653536     1.645893     1.638250
      1.630607     1.622964     1.615321     1.607677     1.600034     1.592391     1.584748     1.577105     1.569462     1.561819
      1.554176     1.546533     1.538890     1.531246     1.523603     1.515960     1.508317     1.500674     1.493031     1.485388
      1.477745     1.470102     1.462458     1.454815     1.447172     1.439529     1.431886     1.424243     1.416600     1.408957
      1.401314     1.393671     1.386027     1.378384     1.370741     1.363098     1.355455     1.347812     1.340169     1.332526
      1.324883     1.317240     1.309596     1.301953     1.294310     1.286667     1.279024     1.271381     1.263738     1.256095
      1.248452     1.240808     1.233165     1.225522     1.217879     1.210236     1.202593     1.194950     1.187307     1.179664
      1.172021     1.164377     1.156734     1.149091     1.141448     1.133805     1.126162     1.118519     1.110876     1.103233
      1.095590     1.087946     1.080303     1.072660     1.065017     1.057374     1.049731     1.042088     1.034445     1.026802
      1.019158     1.011515     1.003872     0.996229     0.988586     0.980943     0.973300     0.965657     0.958014     0.950371
      0.942727     0.935084     0.927441     0.919798     0.912155     0.904512     0.896869     0.889226     0.881583     0.873940
      0.866296     0.858653     0.851010     0.843367     0.835724     0.828081     0.820438     0.812795     0.805152     0.797508
      0.789865     0.782222     0.774579     0.766936     0.759293     0.751650     0.744007     0.736364     0.728721     0.721077
      0.713434     0.705791     0.698148     0.690505     0.682862     0.675219     0.667576     0.659933     0.652290     0.644646
      0.637003     0.629360     0.621717     0.614074     0.606431     0.598788     0.591145     0.583502     0.575858     0.568215
      0.560572     0.552929     0.545286     0.537643     0.530000     0.522357     0.514714     0.507071     0.499427     0.491784
      0.484141     0.476498     0.468855     0.461212     0.453569     0.445925     0.438282     0.430639     0.422996     0.415353
      0.407710     0.400067     0.392424     0.384780     0.377137     0.369494     0.361851     0.354208     0.346565     0.338922
      0.331278     0.323635     0.315992     0.308349     0.300706     0.293063     0.285420     0.277777     0.270133     0.262490
      0.254847     0.247204     0.239561     0.231918     0.224275     0.216631     0.208988     0.201345
 NY phased data points follow
   1.54119E+01  2.26313E+01  2.17961E+01  1.84889E+01  2.54081E+01  3.78650E+01  3.46591E+01  4.12066E+01  5.26028E+01  7.09848E+01
   6.56216E+01  6.88438E+01  6.83916E+01  6.55755E+01  5.59571E+01  5.28329E+01  3.62464E+01  4.02103E+01  2.67027E+01  2.90233E+01
   2.62472E+01  3.10219E+01  2.63504E+01  3.02785E+01  2.53446E+01  3.30372E+01  3.00407E+01  3.32800E+01  3.72438E+01  3.82538E+01
   4.15879E+01  3.79773E+01  3.63911E+01  3.65929E+01  3.43007E+01  2.93157E+01  3.23825E+01  2.98656E+01  2.21780E+01  2.52556E+01
   2.48917E+01  3.42531E+01  3.15388E+01  2.84152E+01  3.14024E+01  3.15986E+01  3.03047E+01  3.78371E+01  4.06992E+01  3.28580E+01
   3.18469E+01  2.76748E+01  2.86455E+01  2.11198E+01  2.64267E+01  2.67980E+01  2.92254E+01  2.08247E+01  2.72503E+01  2.80694E+01
   3.16638E+01  2.46214E+01  2.11361E+01  1.28527E+01  1.47748E+01  1.17707E+01  1.09943E+01  1.59084E+01  1.22220E+01  1.55529E+01
   9.08313E+00  1.36325E+01  5.13762E+00  1.17866E+01  1.53079E+01  1.79486E+01  1.58819E+01  1.89034E+01  6.96181E+00  1.21356E+01
   9.04491E+00  8.86036E+00  1.59208E+01  1.75833E+01  1.74608E+01  1.86396E+01  1.65498E+01  1.41057E+01  1.51399E+01  1.21600E+01
   1.80444E+01  1.65748E+01  1.13980E+01  1.31733E+01  1.82723E+01  1.64803E+01  6.49637E+00  1.08733E+01  1.33708E+01  3.06419E+01
   3.84592E+01  5.20690E+01  7.48817E+01  7.90104E+01  7.77029E+01  7.85022E+01  6.10506E+01  4.37605E+01  3.49448E+01  2.66107E+01
   1.42712E+01  1.47318E+01  1.81709E+01  1.25755E+01  1.60553E+01  8.25652E+00  1.09593E+01  3.71646E+00  1.29383E+01  5.40935E+00
   6.04729E+00  1.26318E+01  1.42482E+01  2.31925E+01  4.26120E+01  5.41380E+01  7.24039E+01  7.04240E+01  6.73387E+01  7.18958E+01
   5.94274E+01  3.89944E+01  3.35579E+01  2.47743E+01  1.63568E+01  1.07197E+01  7.19894E+00  1.10710E+01  4.76919E+00  1.03887E+01
   8.29545E+00  9.44262E+00  1.08324E+01  1.04797E+01  4.18418E+00  1.10443E+01  2.00026E+00  2.95671E+00  7.82778E-01  9.00840E+00
   8.99996E+00  5.26334E+00  5.27165E+00  5.60234E+00  3.95909E+00  9.67936E+00  9.56854E+00  5.51067E+00  6.81474E+00  1.35298E+00
   2.69469E+00  4.20656E+00  2.98652E+00  6.44666E+00  8.66454E+00  9.24746E+00  1.05701E+01  6.97378E+00  1.51215E+00  3.65669E+00
  -3.43822E+00 -4.50527E+00 -7.59336E+00 -6.96771E+00 -2.09092E+00 -7.12833E+00 -2.63442E+00 -1.03222E+01 -7.22664E+00 -5.82788E+00
  -1.48730E+00 -1.38971E+01 -8.17356E+00 -1.05391E+01 -6.66545E+00 -8.26035E+00 -3.80664E+00  4.39435E-01 -3.72273E+00  1.29789E-01
   2.55160E+00  6.60339E+00  6.64537E+00  1.12805E+01  9.37233E+00  6.75012E+00  1.33408E+00  1.66633E+00 -2.89471E-01  7.15103E-01
  -3.01103E+00 -4.45085E+00 -3.43040E+00  4.62707E+00  4.99444E+00  3.74186E+00  8.21007E+00  2.41059E+00  3.19378E+00 -3.12003E+00
  -4.60137E+00 -3.04232E+00  2.07999E-01  1.37590E+01  1.14947E+01  2.05319E+01  1.59658E+01  1.62194E+01  1.22137E+01  3.43373E+00
   2.24560E+00 -6.81419E+00 -2.91651E+00 -5.53968E+00  2.52913E+00  7.10661E+00  1.49942E+01  1.71008E+01  1.04581E+01  8.43730E+00
   9.10137E+00  8.80931E+00  2.02868E+01  1.22179E+01  9.50615E+00  1.07833E+01  1.65019E+01  1.41293E+01  8.40841E+00  9.30032E+00
   1.14619E+01  8.91500E+00  5.55253E+00  6.01572E+00  7.31114E+00  1.41262E+01  7.15103E+00  1.59886E+01  1.52290E+01  1.75154E+01
   1.73559E+01  1.71109E+01  2.26898E+01  2.57781E+01  2.29140E+01  3.26438E+01  4.45886E+01  6.35308E+01  8.24467E+01  9.97761E+01
   1.10513E+02  1.11879E+02  9.87949E+01  7.20988E+01  5.03058E+01  3.77264E+01  2.51918E+01  2.66015E+01  1.67913E+01  1.70901E+01
   1.41123E+01  6.71036E+00  7.43928E+00  9.47518E+00  2.17824E+00  7.06633E+00  4.67616E+00  6.27015E+00  6.59513E+00 -1.17482E+00
  -2.49140E+00  4.58286E+00  2.15650E+00  3.39416E+00  7.41533E+00 -3.93250E+00  1.54783E+00  4.21048E+00  8.00371E+00  8.19725E+00
   5.12086E+00  5.79855E+00  4.07182E+00  4.97351E+00  1.70300E+00  5.86190E+00  2.58471E+00  3.18671E+00 -4.28587E+00  3.19257E+00
   4.65161E+00  9.34730E+00  1.09228E+01  7.74684E+00  9.36854E+00  1.01224E+01  1.19249E+01  1.28770E+01  1.46127E+01  1.30270E+01
   8.91296E+00  1.62244E+01  7.95104E+00  1.05490E+01  2.26822E+01  1.16382E+01  1.32229E+01  1.72745E+01  1.03842E+01  1.07395E+01
   1.33644E+01  1.33278E+01  1.79907E+01  6.54637E+00  9.96864E+00  1.36493E+01  1.15412E+01  1.03287E+01  1.29787E+01  7.99384E+00
   8.58670E+00  8.46486E+00  1.34266E+01  1.33499E+01  1.30649E+01  2.19007E+01  1.65803E+01  1.52097E+01  1.31360E+01  1.46863E+01
   1.46888E+01  1.47618E+01  1.01194E+01  1.80337E+01  1.17882E+01  1.60207E+01  1.38547E+01  1.70170E+01  1.63134E+01  8.11101E+00
   1.82026E+01  9.30886E+00  1.77282E+01  6.96178E+00  8.29463E+00  1.75732E+01  2.08444E+01  1.26693E+01  1.55848E+01  1.46132E+01
   1.35366E+01  1.14863E+01  7.95791E+00  6.20447E+00  1.91409E+01  9.58997E+00  8.09407E+00  1.34795E+01  9.95219E+00  1.57723E+01
   1.29489E+01  1.23059E+01  1.38190E+01  3.66236E+00  1.24942E+01  6.81529E+00  1.02766E+01  1.01562E+01  8.20045E+00  1.21370E+01
   4.56087E+00  4.39813E+00  9.18944E-01  6.74631E+00  5.50159E+00  2.58206E+00  2.75995E+00  1.27600E+01 -1.70564E+00  9.68918E+00
   3.49383E+00  1.03736E+01  7.55317E+00  2.24300E+00  9.00931E+00  4.29227E+00  7.29921E+00  1.05821E+01  7.86789E+00  6.89734E+00
   1.52007E+01  1.29773E+01  1.71259E+01  6.08513E+00  1.12585E+01  1.83322E+01  1.63602E+01  1.23503E+01  1.54043E+01  2.09053E+01
   1.50695E+01  1.23962E+01  1.71620E+01  1.26643E+01  8.63651E+00  1.10358E+01  9.68909E+00  9.31126E+00  9.36290E-01 -5.13263E-01
   6.60882E+00  5.10689E+00 -5.35707E+00  3.96527E+00 -9.53902E-01  5.98013E+00  2.45983E+00  2.36219E+00 -4.85292E+00  7.01431E+00
  -1.35140E+00  1.99533E+00 -2.81244E+00 -3.68551E+00 -1.29321E+00 -1.44717E+00 -7.44180E+00 -4.66984E+00 -5.59874E+00 -2.79062E+00
  -4.78290E+00 -3.78649E+00 -4.29103E+00 -5.22306E+00 -6.00578E+00 -1.88155E+00 -2.99263E+00  4.25700E+00 -7.60620E+00  1.07453E+00
  -8.57544E+00 -3.63169E+00 -3.35993E+00 -7.76447E+00 -1.74591E-01 -2.72733E-01  4.95264E+00  2.85168E+00 -1.10530E+00 -2.76709E+00
  -4.88832E+00 -3.61077E+00 -1.61647E+00  5.60008E+00 -8.03782E+00 -3.56873E+00  4.20946E+00 -4.19608E-01  1.51789E+00 -3.40192E+00
   3.87724E+00 -5.17092E+00 -2.50052E+00 -1.55570E+00 -5.74756E+00 -3.58916E+00 -5.32052E+00 -5.63422E+00 -4.08920E+00  1.92974E+00
   4.14898E+00 -5.07102E+00  2.19629E+00 -1.30267E+00  3.71974E+00  5.14315E-01 -8.08927E+00 -3.38385E+00 -5.15486E+00 -2.17069E+00
  -4.51966E+00 -1.58711E+00  4.61413E+00 -5.35334E+00 -8.50308E+00 -5.49893E+00  1.24237E+00 -9.24427E-01
 NY points of the fit to the data follow
   2.48926E+01  2.42741E+01  2.41722E+01  2.47004E+01  2.61490E+01  2.88524E+01  3.35612E+01  4.05210E+01  4.90306E+01  5.75793E+01
   6.42266E+01  6.72923E+01  6.61670E+01  6.11299E+01  5.32556E+01  4.48182E+01  3.79481E+01  3.31250E+01  2.94150E+01  2.65824E+01
   2.53532E+01  2.47643E+01  2.42204E+01  2.36926E+01  2.36695E+01  2.46779E+01  2.69805E+01  3.04162E+01  3.44029E+01  3.81547E+01
   4.09106E+01  4.18345E+01  4.03623E+01  3.71034E+01  3.32308E+01  2.93596E+01  2.55096E+01  2.23024E+01  2.06822E+01  2.01581E+01
   2.03597E+01  2.15171E+01  2.37963E+01  2.70471E+01  3.07834E+01  3.43406E+01  3.67152E+01  3.71426E+01  3.55960E+01  3.22481E+01
   2.77936E+01  2.36174E+01  2.06921E+01  1.88784E+01  1.78845E+01  1.79757E+01  1.91281E+01  2.06844E+01  2.19822E+01  2.27152E+01
   2.26589E+01  2.17324E+01  2.01106E+01  1.82825E+01  1.68039E+01  1.59544E+01  1.57717E+01  1.62136E+01  1.70614E+01  1.80140E+01
   1.88150E+01  1.92634E+01  1.93207E+01  1.90056E+01  1.83854E+01  1.76600E+01  1.70063E+01  1.64984E+01  1.60668E+01  1.57142E+01
   1.55904E+01  1.58001E+01  1.63054E+01  1.69034E+01  1.73105E+01  1.72530E+01  1.66004E+01  1.54523E+01  1.40432E+01  1.27342E+01
   1.20100E+01  1.20509E+01  1.25083E+01  1.28966E+01  1.30939E+01  1.31878E+01  1.31723E+01  1.40730E+01  1.82714E+01  2.73744E+01
   4.10713E+01  5.70263E+01  7.14647E+01  8.05965E+01  8.22628E+01  7.58043E+01  6.26400E+01  4.73727E+01  3.46452E+01  2.54695E+01
   1.82840E+01  1.29670E+01  1.10494E+01  1.06057E+01  1.04566E+01  1.03747E+01  1.03112E+01  1.02702E+01  1.03032E+01  1.05213E+01
   1.12099E+01  1.34767E+01  1.91946E+01  2.92095E+01  4.26733E+01  5.71732E+01  6.93774E+01  7.63655E+01  7.66447E+01  6.99553E+01
   5.80109E+01  4.48695E+01  3.37839E+01  2.48888E+01  1.70032E+01  1.10174E+01  8.30991E+00  7.50253E+00  7.91657E+00  9.02640E+00
   1.02616E+01  1.12559E+01  1.17938E+01  1.17346E+01  1.12221E+01  1.05095E+01  9.75190E+00  9.05826E+00  8.42321E+00  7.85001E+00
   7.36145E+00  6.91808E+00  6.54823E+00  6.30008E+00  6.17476E+00  6.07320E+00  5.87157E+00  5.49597E+00  4.94039E+00  4.34853E+00
   3.92186E+00  3.76708E+00  3.85834E+00  4.07611E+00  4.21224E+00  4.03831E+00  3.49223E+00  2.73064E+00  2.00287E+00  1.38431E+00
   8.14837E-01  1.61542E-01 -5.81833E-01 -1.23178E+00 -1.71140E+00 -1.99850E+00 -2.08158E+00 -2.00731E+00 -1.84663E+00 -1.72495E+00
  -1.79053E+00 -2.07214E+00 -2.40641E+00 -2.56792E+00 -2.45943E+00 -1.97067E+00 -8.32539E-01  1.02023E+00  3.35627E+00  5.63266E+00
   7.29096E+00  7.96088E+00  7.55413E+00  6.30417E+00  4.65115E+00  3.01191E+00  1.85238E+00  1.50987E+00  2.05807E+00  3.44727E+00
   5.48370E+00  7.68343E+00  9.47518E+00  1.05005E+01  1.04930E+01  9.25851E+00  6.82925E+00  3.72855E+00  6.65698E-01 -1.58566E+00
  -2.28601E+00 -1.00978E+00  2.18355E+00  6.49424E+00  1.06721E+01  1.34822E+01  1.40791E+01  1.20658E+01  7.52135E+00  1.79316E+00
  -3.24329E+00 -6.42452E+00 -7.28612E+00 -5.85470E+00 -2.31007E+00  2.26751E+00  6.28618E+00  8.81251E+00  9.88816E+00  1.00745E+01
   9.74078E+00  9.23684E+00  9.17171E+00  9.91754E+00  1.11700E+01  1.23756E+01  1.30380E+01  1.29056E+01  1.20205E+01  1.05203E+01
   8.82165E+00  7.63441E+00  7.47230E+00  8.34730E+00  9.86660E+00  1.17080E+01  1.34431E+01  1.45249E+01  1.48451E+01  1.48461E+01
   1.51549E+01  1.59821E+01  1.74917E+01  1.98941E+01  2.44258E+01  3.32379E+01  4.73268E+01  6.55741E+01  8.47007E+01  1.00269E+02
   1.08463E+02  1.07176E+02  9.57663E+01  7.69843E+01  5.74157E+01  4.18355E+01  3.00171E+01  2.00075E+01  1.31195E+01  1.03528E+01
   8.97281E+00  8.11243E+00  7.63440E+00  7.39380E+00  7.20055E+00  6.97599E+00  6.63725E+00  6.16739E+00  5.62251E+00  5.07531E+00
   4.55620E+00  4.09678E+00  3.73647E+00  3.48063E+00  3.30092E+00  3.16270E+00  3.05171E+00  2.97470E+00  2.93736E+00  2.93692E+00
   2.98681E+00  3.09798E+00  3.27070E+00  3.50033E+00  3.78587E+00  4.12661E+00  4.52297E+00  4.97766E+00  5.49214E+00  6.06232E+00
   6.68317E+00  7.34569E+00  8.03378E+00  8.72827E+00  9.41056E+00  1.00636E+01  1.06713E+01  1.12180E+01  1.16927E+01  1.20869E+01
   1.23940E+01  1.26118E+01  1.27425E+01  1.27919E+01  1.27700E+01  1.26901E+01  1.25685E+01  1.24241E+01  1.22775E+01  1.21532E+01
   1.20846E+01  1.21186E+01  1.22616E+01  1.24547E+01  1.26018E+01  1.26044E+01  1.24006E+01  1.19936E+01  1.14361E+01  1.08545E+01
   1.04679E+01  1.04578E+01  1.08423E+01  1.15146E+01  1.23557E+01  1.32777E+01  1.41023E+01  1.46655E+01  1.49371E+01  1.50194E+01
   1.50583E+01  1.51371E+01  1.52511E+01  1.54052E+01  1.55571E+01  1.55750E+01  1.53660E+01  1.49083E+01  1.42454E+01  1.35019E+01
   1.28938E+01  1.26269E+01  1.27516E+01  1.31604E+01  1.37082E+01  1.43045E+01  1.48065E+01  1.50339E+01  1.49603E+01  1.46852E+01
   1.43245E+01  1.39109E+01  1.34229E+01  1.29188E+01  1.24357E+01  1.19478E+01  1.14450E+01  1.09264E+01  1.03946E+01  9.85424E+00
   9.31073E+00  8.77004E+00  8.23832E+00  7.72172E+00  7.22624E+00  6.75766E+00  6.32142E+00  5.92261E+00  5.56597E+00  5.25596E+00
   4.99683E+00  4.79259E+00  4.64708E+00  4.56392E+00  4.54656E+00  4.59822E+00  4.72176E+00  4.91951E+00  5.19299E+00  5.54271E+00
   5.96783E+00  6.46590E+00  7.03247E+00  7.66086E+00  8.34192E+00  9.06393E+00  9.81275E+00  1.05719E+01  1.13232E+01  1.20467E+01
   1.27221E+01  1.33293E+01  1.38489E+01  1.42638E+01  1.45596E+01  1.47254E+01  1.47542E+01  1.46436E+01  1.43957E+01  1.40170E+01
   1.35178E+01  1.29119E+01  1.22153E+01  1.14463E+01  1.06236E+01  9.76606E+00  8.89169E+00  8.01701E+00  7.15660E+00  6.32279E+00
   5.52547E+00  4.77201E+00  4.06745E+00  3.41467E+00  2.81473E+00  2.26713E+00  1.77016E+00  1.32117E+00  9.16921E-01  5.53790E-01
   2.28051E-01 -6.40180E-02 -3.26022E-01 -5.61373E-01 -7.73211E-01 -9.64365E-01 -1.13735E+00 -1.29439E+00 -1.43746E+00 -1.56829E+00
  -1.68836E+00 -1.79894E+00 -1.90114E+00 -1.99589E+00 -2.08404E+00 -2.16632E+00 -2.24335E+00 -2.31565E+00 -2.38367E+00 -2.44784E+00
  -2.50852E+00 -2.56605E+00 -2.62069E+00 -2.67266E+00 -2.72217E+00 -2.76943E+00 -2.81464E+00 -2.85795E+00 -2.89950E+00 -2.93941E+00
  -2.97779E+00 -3.01476E+00 -3.05043E+00 -3.08489E+00 -3.11818E+00 -3.15039E+00 -3.18158E+00 -3.21184E+00 -3.24123E+00 -3.26980E+00
  -3.29757E+00 -3.32458E+00 -3.35090E+00 -3.37658E+00 -3.40164E+00 -3.42610E+00 -3.45000E+00 -3.47336E+00 -3.49624E+00 -3.51868E+00
  -3.54068E+00 -3.56226E+00 -3.58343E+00 -3.60424E+00 -3.62471E+00 -3.64486E+00 -3.66470E+00 -3.68424E+00 -3.70351E+00 -3.72252E+00
  -3.74133E+00 -3.75992E+00 -3.77830E+00 -3.79648E+00 -3.81450E+00 -3.83238E+00 -3.85014E+00 -3.86779E+00
 NY background values follow
     1.843E+01    1.833E+01    1.823E+01    1.813E+01    1.804E+01    1.794E+01    1.784E+01    1.774E+01    1.764E+01    1.754E+01
     1.744E+01    1.734E+01    1.724E+01    1.714E+01    1.704E+01    1.694E+01    1.684E+01    1.674E+01    1.664E+01    1.654E+01
     1.644E+01    1.634E+01    1.625E+01    1.615E+01    1.605E+01    1.595E+01    1.585E+01    1.575E+01    1.565E+01    1.555E+01
     1.545E+01    1.535E+01    1.525E+01    1.515E+01    1.505E+01    1.495E+01    1.486E+01    1.476E+01    1.466E+01    1.456E+01
     1.446E+01    1.436E+01    1.426E+01    1.416E+01    1.406E+01    1.396E+01    1.387E+01    1.377E+01    1.367E+01    1.357E+01
     1.347E+01    1.337E+01    1.328E+01    1.318E+01    1.308E+01    1.298E+01    1.288E+01    1.278E+01    1.269E+01    1.259E+01
     1.249E+01    1.239E+01    1.230E+01    1.220E+01    1.210E+01    1.201E+01    1.191E+01    1.181E+01    1.172E+01    1.162E+01
     1.152E+01    1.143E+01    1.133E+01    1.124E+01    1.114E+01    1.104E+01    1.095E+01    1.085E+01    1.076E+01    1.067E+01
     1.057E+01    1.048E+01    1.038E+01    1.029E+01    1.020E+01    1.010E+01    1.001E+01    9.916E+00    9.823E+00    9.731E+00
     9.639E+00    9.547E+00    9.455E+00    9.364E+00    9.273E+00    9.182E+00    9.091E+00    9.001E+00    8.910E+00    8.821E+00
     8.731E+00    8.642E+00    8.553E+00    8.464E+00    8.376E+00    8.287E+00    8.199E+00    8.112E+00    8.024E+00    7.937E+00
     7.851E+00    7.764E+00    7.678E+00    7.592E+00    7.507E+00    7.422E+00    7.337E+00    7.252E+00    7.168E+00    7.084E+00
     7.000E+00    6.917E+00    6.834E+00    6.751E+00    6.669E+00    6.587E+00    6.505E+00    6.424E+00    6.343E+00    6.262E+00
     6.182E+00    6.102E+00    6.022E+00    5.943E+00    5.864E+00    5.785E+00    5.707E+00    5.629E+00    5.552E+00    5.475E+00
     5.398E+00    5.322E+00    5.246E+00    5.170E+00    5.095E+00    5.020E+00    4.945E+00    4.871E+00    4.797E+00    4.724E+00
     4.651E+00    4.578E+00    4.506E+00    4.434E+00    4.362E+00    4.291E+00    4.220E+00    4.150E+00    4.080E+00    4.010E+00
     3.941E+00    3.872E+00    3.803E+00    3.735E+00    3.667E+00    3.600E+00    3.533E+00    3.467E+00    3.400E+00    3.335E+00
     3.269E+00    3.204E+00    3.140E+00    3.075E+00    3.012E+00    2.948E+00    2.885E+00    2.823E+00    2.760E+00    2.699E+00
     2.637E+00    2.576E+00    2.516E+00    2.455E+00    2.396E+00    2.336E+00    2.277E+00    2.219E+00    2.160E+00    2.103E+00
     2.045E+00    1.988E+00    1.931E+00    1.875E+00    1.819E+00    1.764E+00    1.709E+00    1.654E+00    1.599E+00    1.545E+00
     1.491E+00    1.438E+00    1.385E+00    1.332E+00    1.280E+00    1.228E+00    1.177E+00    1.125E+00    1.074E+00    1.024E+00
     9.736E-01    9.236E-01    8.741E-01    8.248E-01    7.759E-01    7.273E-01    6.790E-01    6.311E-01    5.834E-01    5.361E-01
     4.891E-01    4.424E-01    3.960E-01    3.499E-01    3.041E-01    2.586E-01    2.134E-01    1.685E-01    1.239E-01    7.964E-02
     3.563E-02   -8.093E-03   -5.152E-02   -9.467E-02   -1.375E-01   -1.801E-01   -2.224E-01   -2.644E-01   -3.061E-01   -3.475E-01
    -3.887E-01   -4.296E-01   -4.702E-01   -5.105E-01   -5.506E-01   -5.904E-01   -6.299E-01   -6.691E-01   -7.081E-01   -7.468E-01
    -7.852E-01   -8.234E-01   -8.613E-01   -8.989E-01   -9.363E-01   -9.734E-01   -1.010E+00   -1.047E+00   -1.083E+00   -1.119E+00
    -1.155E+00   -1.191E+00   -1.226E+00   -1.261E+00   -1.296E+00   -1.330E+00   -1.365E+00   -1.399E+00   -1.433E+00   -1.466E+00
    -1.500E+00   -1.533E+00   -1.566E+00   -1.598E+00   -1.631E+00   -1.663E+00   -1.695E+00   -1.726E+00   -1.758E+00   -1.789E+00
    -1.820E+00   -1.851E+00   -1.881E+00   -1.912E+00   -1.942E+00   -1.971E+00   -2.001E+00   -2.030E+00   -2.060E+00   -2.089E+00
    -2.117E+00   -2.146E+00   -2.174E+00   -2.202E+00   -2.230E+00   -2.258E+00   -2.285E+00   -2.312E+00   -2.339E+00   -2.366E+00
    -2.393E+00   -2.419E+00   -2.446E+00   -2.472E+00   -2.497E+00   -2.523E+00   -2.548E+00   -2.573E+00   -2.598E+00   -2.623E+00
    -2.648E+00   -2.672E+00   -2.696E+00   -2.721E+00   -2.744E+00   -2.768E+00   -2.791E+00   -2.815E+00   -2.838E+00   -2.861E+00
    -2.883E+00   -2.906E+00   -2.928E+00   -2.950E+00   -2.972E+00   -2.994E+00   -3.016E+00   -3.037E+00   -3.059E+00   -3.080E+00
    -3.101E+00   -3.121E+00   -3.142E+00   -3.162E+00   -3.183E+00   -3.203E+00   -3.223E+00   -3.242E+00   -3.262E+00   -3.281E+00
    -3.301E+00   -3.320E+00   -3.339E+00   -3.358E+00   -3.376E+00   -3.395E+00   -3.413E+00   -3.431E+00   -3.449E+00   -3.467E+00
    -3.485E+00   -3.502E+00   -3.520E+00   -3.537E+00   -3.554E+00   -3.571E+00   -3.588E+00   -3.605E+00   -3.622E+00   -3.638E+00
    -3.654E+00   -3.670E+00   -3.687E+00   -3.702E+00   -3.718E+00   -3.734E+00   -3.749E+00   -3.765E+00   -3.780E+00   -3.795E+00
    -3.810E+00   -3.825E+00   -3.840E+00   -3.854E+00   -3.869E+00   -3.883E+00   -3.897E+00   -3.911E+00   -3.925E+00   -3.939E+00
    -3.953E+00   -3.967E+00   -3.980E+00   -3.993E+00   -4.007E+00   -4.020E+00   -4.033E+00   -4.046E+00   -4.058E+00   -4.071E+00
    -4.084E+00   -4.096E+00   -4.108E+00   -4.120E+00   -4.132E+00   -4.144E+00   -4.156E+00   -4.168E+00   -4.179E+00   -4.191E+00
    -4.202E+00   -4.213E+00   -4.224E+00   -4.235E+00   -4.246E+00   -4.257E+00   -4.268E+00   -4.278E+00   -4.289E+00   -4.299E+00
    -4.309E+00   -4.320E+00   -4.330E+00   -4.340E+00   -4.349E+00   -4.359E+00   -4.369E+00   -4.378E+00   -4.388E+00   -4.397E+00
    -4.406E+00   -4.415E+00   -4.424E+00   -4.433E+00   -4.442E+00   -4.451E+00   -4.460E+00   -4.468E+00   -4.477E+00   -4.485E+00
    -4.494E+00   -4.502E+00   -4.510E+00   -4.518E+00   -4.527E+00   -4.535E+00   -4.542E+00   -4.550E+00   -4.558E+00   -4.566E+00
    -4.573E+00   -4.581E+00   -4.589E+00   -4.596E+00   -4.603E+00   -4.611E+00   -4.618E+00   -4.625E+00   -4.632E+00   -4.639E+00
    -4.646E+00   -4.653E+00   -4.660E+00   -4.667E+00   -4.674E+00   -4.681E+00   -4.688E+00   -4.694E+00   -4.701E+00   -4.708E+00
    -4.714E+00   -4.721E+00   -4.727E+00   -4.734E+00   -4.740E+00   -4.747E+00   -4.753E+00   -4.759E+00   -4.766E+00   -4.772E+00
    -4.778E+00   -4.784E+00   -4.790E+00   -4.797E+00   -4.803E+00   -4.809E+00   -4.815E+00   -4.821E+00   -4.827E+00   -4.833E+00
    -4.839E+00   -4.845E+00   -4.851E+00   -4.857E+00   -4.863E+00   -4.870E+00   -4.876E+00   -4.882E+00   -4.888E+00   -4.894E+00
    -4.900E+00   -4.906E+00   -4.912E+00   -4.918E+00   -4.924E+00   -4.930E+00   -4.936E+00   -4.942E+00
 Ala      Conc. = 1.33E+02
