 LCModel (Version 6.3-1L) Copyright: S.W. Provencher.          Ref.: Magn. Reson. Med. 30:672-679 (1993).                
 Slice#3 Row#10 Col#10  PD_24_press_1_raw_act
 36 lines in following concentration table = NCONC+1
    Conc.  %SD /Cr+PCr  Metabolite                                         
  193.821  42%   0.117 Ala                                                 
   55.231 364% 3.3E-02 Asp                                                 
  816.163  19%   0.493 Cr                                                  
  838.188  18%   0.507 PCr                                                 
    0.000 999%   0.000 GABA                                                
   78.009 175% 4.7E-02 Glc                                                 
  465.249  36%   0.281 Gln                                                 
 1.49E+03  13%   0.901 Glu                                                 
  592.240   3%   0.358 GPC                                                 
    0.000 999%   0.000 PCh                                                 
  458.323  13%   0.277 GSH                                                 
  872.621  22%   0.527 Ins                                                 
   32.573 290% 2.0E-02 Lac                                                 
 2.04E+03   4%   1.234 NAA                                                 
  323.852  26%   0.196 NAAG                                                
   76.569  28% 4.6E-02 Scyllo                                              
    0.000 999%   0.000 Tau                                                 
    0.000 999%   0.000 -CrCH2                                              
  592.240   3%   0.358 GPC+PCh                                             
 2.37E+03   3%   1.430 NAA+NAAG                                            
 1.65E+03   3%   1.000 Cr+PCr                                              
 1.96E+03  13%   1.182 Glu+Gln                                             
    0.000 999%   0.000 Lip13a                                              
 2.01E+03  18%   1.218 Lip13b                                              
    0.000 999%   0.000 Lip09                                               
 1.63E+03  12%   0.988 MM09                                                
  115.490 187% 7.0E-02 Lip20                                               
 3.43E+03  10%   2.071 MM20                                                
  627.615  26%   0.379 MM12                                                
 1.72E+03  22%   1.038 MM14                                                
 1.44E+03  20%   0.869 MM17                                                
 2.01E+03  18%   1.218 Lip13a+Lip13b                                       
 4.36E+03   9%   2.635 MM14+Lip13a+Lip13b+MM12                             
 1.63E+03  12%   0.988 MM09+Lip09                                          
 3.54E+03  10%   2.141 MM20+Lip20                                          
   6 lines in following misc. output table
  FWHM = 0.046 ppm    S/N =  15                                            
  Data shift = 0.023 ppm                                                   
  Ph:   6 deg       0.8 deg/ppm                                            
  alphaB,S = 1.4E+00,   9.4E+01                                            
   14 spline knots.   Ns = 6(1)                                            
  ( 6) 2 infls.   ( 3) 1 extrs.                                            
  498 points on ppm-axis = NY
      4.000000     3.992357     3.984714     3.977070     3.969427     3.961784     3.954141     3.946497     3.938854     3.931211
      3.923568     3.915925     3.908281     3.900638     3.892995     3.885352     3.877708     3.870065     3.862422     3.854779
      3.847136     3.839492     3.831849     3.824206     3.816563     3.808919     3.801276     3.793633     3.785990     3.778347
      3.770703     3.763060     3.755417     3.747774     3.740130     3.732487     3.724844     3.717201     3.709558     3.701914
      3.694271     3.686628     3.678985     3.671341     3.663698     3.656055     3.648412     3.640769     3.633125     3.625482
      3.617839     3.610196     3.602552     3.594909     3.587266     3.579623     3.571980     3.564336     3.556693     3.549050
      3.541407     3.533763     3.526120     3.518477     3.510834     3.503191     3.495547     3.487904     3.480261     3.472618
      3.464974     3.457331     3.449688     3.442045     3.434402     3.426758     3.419115     3.411472     3.403829     3.396185
      3.388542     3.380899     3.373256     3.365613     3.357969     3.350326     3.342683     3.335040     3.327396     3.319753
      3.312110     3.304467     3.296824     3.289180     3.281537     3.273894     3.266251     3.258607     3.250964     3.243321
      3.235678     3.228034     3.220391     3.212748     3.205105     3.197462     3.189818     3.182175     3.174532     3.166889
      3.159245     3.151602     3.143959     3.136316     3.128673     3.121029     3.113386     3.105743     3.098100     3.090456
      3.082813     3.075170     3.067527     3.059884     3.052240     3.044597     3.036954     3.029311     3.021667     3.014024
      3.006381     2.998738     2.991095     2.983451     2.975808     2.968165     2.960522     2.952878     2.945235     2.937592
      2.929949     2.922306     2.914662     2.907019     2.899376     2.891733     2.884089     2.876446     2.868803     2.861160
      2.853517     2.845873     2.838230     2.830587     2.822944     2.815300     2.807657     2.800014     2.792371     2.784728
      2.777084     2.769441     2.761798     2.754155     2.746511     2.738868     2.731225     2.723582     2.715939     2.708295
      2.700652     2.693009     2.685366     2.677722     2.670079     2.662436     2.654793     2.647150     2.639506     2.631863
      2.624220     2.616577     2.608933     2.601290     2.593647     2.586004     2.578361     2.570717     2.563074     2.555431
      2.547788     2.540144     2.532501     2.524858     2.517215     2.509572     2.501928     2.494285     2.486642     2.478999
      2.471355     2.463712     2.456069     2.448426     2.440783     2.433139     2.425496     2.417853     2.410210     2.402566
      2.394923     2.387280     2.379637     2.371994     2.364350     2.356707     2.349064     2.341421     2.333777     2.326134
      2.318491     2.310848     2.303205     2.295561     2.287918     2.280275     2.272632     2.264988     2.257345     2.249702
      2.242059     2.234416     2.226772     2.219129     2.211486     2.203843     2.196199     2.188556     2.180913     2.173270
      2.165627     2.157983     2.150340     2.142697     2.135054     2.127410     2.119767     2.112124     2.104481     2.096838
      2.089194     2.081551     2.073908     2.066265     2.058621     2.050978     2.043335     2.035692     2.028049     2.020405
      2.012762     2.005119     1.997476     1.989833     1.982190     1.974546     1.966903     1.959260     1.951617     1.943974
      1.936331     1.928688     1.921045     1.913402     1.905759     1.898115     1.890472     1.882829     1.875186     1.867543
      1.859900     1.852257     1.844614     1.836971     1.829327     1.821684     1.814041     1.806398     1.798755     1.791112
      1.783469     1.775826     1.768183     1.760540     1.752896     1.745253     1.737610     1.729967     1.722324     1.714681
      1.707038     1.699395     1.691752     1.684108     1.676465     1.668822     1.661179     1.653536     1.645893     1.638250
      1.630607     1.622964     1.615321     1.607677     1.600034     1.592391     1.584748     1.577105     1.569462     1.561819
      1.554176     1.546533     1.538890     1.531246     1.523603     1.515960     1.508317     1.500674     1.493031     1.485388
      1.477745     1.470102     1.462458     1.454815     1.447172     1.439529     1.431886     1.424243     1.416600     1.408957
      1.401314     1.393671     1.386027     1.378384     1.370741     1.363098     1.355455     1.347812     1.340169     1.332526
      1.324883     1.317240     1.309596     1.301953     1.294310     1.286667     1.279024     1.271381     1.263738     1.256095
      1.248452     1.240808     1.233165     1.225522     1.217879     1.210236     1.202593     1.194950     1.187307     1.179664
      1.172021     1.164377     1.156734     1.149091     1.141448     1.133805     1.126162     1.118519     1.110876     1.103233
      1.095590     1.087946     1.080303     1.072660     1.065017     1.057374     1.049731     1.042088     1.034445     1.026802
      1.019158     1.011515     1.003872     0.996229     0.988586     0.980943     0.973300     0.965657     0.958014     0.950371
      0.942727     0.935084     0.927441     0.919798     0.912155     0.904512     0.896869     0.889226     0.881583     0.873940
      0.866296     0.858653     0.851010     0.843367     0.835724     0.828081     0.820438     0.812795     0.805152     0.797508
      0.789865     0.782222     0.774579     0.766936     0.759293     0.751650     0.744007     0.736364     0.728721     0.721077
      0.713434     0.705791     0.698148     0.690505     0.682862     0.675219     0.667576     0.659933     0.652290     0.644646
      0.637003     0.629360     0.621717     0.614074     0.606431     0.598788     0.591145     0.583502     0.575858     0.568215
      0.560572     0.552929     0.545286     0.537643     0.530000     0.522357     0.514714     0.507071     0.499427     0.491784
      0.484141     0.476498     0.468855     0.461212     0.453569     0.445925     0.438282     0.430639     0.422996     0.415353
      0.407710     0.400067     0.392424     0.384780     0.377137     0.369494     0.361851     0.354208     0.346565     0.338922
      0.331278     0.323635     0.315992     0.308349     0.300706     0.293063     0.285420     0.277777     0.270133     0.262490
      0.254847     0.247204     0.239561     0.231918     0.224275     0.216631     0.208988     0.201345
 NY phased data points follow
   1.52761E+01  1.40468E+01  1.98533E+01  1.80300E+01  2.12460E+01  2.49153E+01  3.66595E+01  3.89831E+01  4.28265E+01  5.20436E+01
   5.69384E+01  5.26195E+01  5.13264E+01  4.44571E+01  4.08112E+01  3.34760E+01  2.65353E+01  2.53616E+01  2.28900E+01  1.98378E+01
   2.33167E+01  2.30016E+01  2.07746E+01  2.06619E+01  2.33066E+01  2.52908E+01  2.47143E+01  1.63890E+01  2.55932E+01  1.95416E+01
   2.95554E+01  2.36243E+01  2.84910E+01  2.30909E+01  1.83052E+01  2.21230E+01  2.02089E+01  1.92496E+01  2.17049E+01  1.79062E+01
   2.17935E+01  1.55189E+01  1.93242E+01  1.63294E+01  1.69904E+01  1.89573E+01  2.44202E+01  2.17362E+01  2.56612E+01  2.41067E+01
   1.68513E+01  1.58063E+01  1.95566E+01  1.29851E+01  1.56968E+01  1.72108E+01  1.63095E+01  2.09147E+01  1.80952E+01  1.32208E+01
   1.69506E+01  9.38213E+00  7.07421E+00  5.01037E+00  3.57589E+00  7.00016E+00  3.91169E+00  2.53884E+00  3.95469E+00  4.98058E+00
   8.01353E+00  3.78828E+00  7.51960E+00  7.84848E+00  5.62150E+00  6.31532E+00  6.03826E+00  7.19636E+00  9.09527E+00  8.51560E+00
   1.04588E+01  6.10819E+00  5.58104E+00  8.82018E+00  9.33786E+00  7.58038E+00  1.13996E+01  7.38365E+00  6.76460E+00  9.32279E+00
   1.04154E+01  1.23594E+01  1.17067E+01  7.68209E+00  1.05351E+01  6.86050E+00  1.09196E+01  7.52695E+00  1.16648E+01  2.08596E+01
   3.19050E+01  5.30405E+01  6.34423E+01  6.59324E+01  6.35917E+01  4.99861E+01  3.94768E+01  3.17440E+01  2.43098E+01  2.03666E+01
   1.32237E+01  1.27719E+01  1.18290E+01  6.69652E+00  6.18780E+00  8.78278E+00  9.26488E+00  5.94245E+00  6.75561E+00  6.54973E+00
   2.42273E+00  3.04765E+00  1.33235E+01  1.80219E+01  3.37603E+01  4.92343E+01  6.02604E+01  6.63185E+01  6.16549E+01  5.06618E+01
   4.13153E+01  3.58638E+01  2.81453E+01  1.70939E+01  1.38339E+01  9.08412E+00  9.39329E+00  6.09154E+00  5.59240E+00  2.84182E+00
   4.11197E+00  4.95644E+00  4.99053E+00  4.22471E+00  5.53248E-01  4.15800E+00  3.30285E+00  3.12202E+00  5.42431E+00  3.04310E-01
   1.07567E+00  1.35490E+00  1.49924E+00 -1.58847E+00  1.11617E+00 -2.36488E-01 -1.55068E+00  8.28296E-01 -3.04856E-01 -2.74020E+00
  -3.47447E+00 -6.48139E+00 -2.07027E+00 -4.05760E+00 -2.73318E+00  1.08082E+00 -6.02041E-01 -3.48343E+00 -4.00425E+00 -3.78579E+00
  -4.72430E+00 -9.47240E+00 -5.82121E+00 -1.23401E+01 -9.01630E+00 -1.12298E+01 -1.07608E+01 -8.85153E+00 -6.87086E+00 -9.59939E+00
  -9.23986E+00 -1.12004E+01 -1.04368E+01 -1.09279E+01 -1.14902E+01 -1.07233E+01 -7.27418E+00 -7.80248E+00 -6.13233E+00 -5.48861E+00
  -2.92789E-01  2.50238E+00  4.48831E+00 -3.13489E-01  1.87873E+00  5.20661E-01  3.75732E+00 -3.34567E+00 -3.13832E+00 -6.82502E+00
  -2.55844E+00 -5.37435E+00  1.77945E+00 -1.80799E+00  2.98805E+00  8.80311E-01 -1.06892E+00  5.54220E-01 -3.48780E+00 -6.34387E+00
  -4.90395E+00 -2.83544E+00 -2.47084E+00  4.16152E+00  8.34598E+00  1.13929E+01  1.35901E+01  7.12886E+00  8.67292E+00  3.49845E+00
  -2.89734E-01 -3.62888E+00 -4.11652E+00 -2.87619E+00 -1.32364E+00  2.52268E+00  4.73801E+00  5.47002E+00  8.35207E+00  1.17943E+01
   6.70749E+00  5.59751E+00  8.35447E+00  4.23624E+00  3.84063E+00  5.36474E+00  3.50791E+00  4.20920E+00  7.59204E+00  1.33667E+00
   6.28766E+00  2.79700E+00 -9.06401E-01  3.87562E+00  6.31833E+00  6.62983E+00  1.20951E+01  1.01373E+01  1.31968E+01  1.39751E+01
   1.51099E+01  1.71150E+01  1.91529E+01  2.29291E+01  2.53815E+01  3.04391E+01  3.53057E+01  5.11121E+01  7.30277E+01  8.73556E+01
   9.17398E+01  8.23881E+01  6.57560E+01  5.20913E+01  4.09243E+01  2.77892E+01  1.84239E+01  1.48641E+01  1.14792E+01  5.50071E+00
   5.48275E+00  2.01913E+00  5.52046E+00  3.70579E+00  2.36567E+00  2.95892E+00  1.10294E-01  3.15864E+00  2.71927E+00  3.12805E+00
   2.22035E+00  6.62816E+00 -2.02966E+00  7.32094E-02  2.42637E+00  1.78833E+00  3.28396E+00 -1.57027E+00  3.45271E+00  3.29460E+00
   1.78254E+00  1.97864E+00  1.09239E+00  2.60712E-01  2.20996E+00 -2.10130E+00 -7.06958E-01 -1.74115E+00 -1.67804E-02  4.69508E+00
   3.94985E+00  3.38705E+00  5.89947E+00  8.22150E+00  5.23363E+00  7.02975E+00  7.31735E+00  6.71429E+00  7.29394E+00  4.94665E+00
   6.92894E+00  7.18805E+00  7.36551E+00  9.71427E+00  8.27655E+00  8.36485E+00  8.01151E+00  9.29737E+00  1.06223E+01  9.47313E+00
   8.94606E+00  6.82098E+00  1.35889E+01  7.75608E+00  1.12922E+01  1.12441E+01  8.08921E+00  3.39241E+00  8.31475E+00  5.01987E+00
   5.12581E+00  3.74243E+00  6.11443E+00  6.95807E+00  6.94872E+00  7.97499E+00  5.37984E+00  9.96744E+00  6.23106E+00  7.25303E+00
   5.46359E+00  4.97823E+00  6.88517E+00  6.19204E+00  5.28643E+00  9.69533E+00  1.13781E+01  8.17798E+00  7.25673E+00  7.16560E+00
   8.35817E+00  1.15064E+01  1.21880E+01  1.77133E+01  1.60585E+01  1.55563E+01  1.64911E+01  1.61358E+01  1.55073E+01  1.51459E+01
   1.65131E+01  1.43053E+01  1.20618E+01  1.33743E+01  1.20483E+01  1.18366E+01  9.29091E+00  1.05672E+01  7.84690E+00  8.74238E+00
   7.20285E+00  3.89096E+00  5.85570E+00  5.19860E+00  3.33988E+00  5.87855E+00  6.62866E+00  5.21107E+00  2.77716E+00  2.82305E+00
   1.57623E+00  2.17458E+00  1.06421E+00  3.71925E+00  2.34898E+00  3.19009E+00  3.81521E+00  3.84275E+00  3.79953E+00  2.94029E+00
   2.48944E+00  4.86146E+00  1.14435E+00  4.55341E+00  5.58673E+00  6.92460E+00  6.00255E+00  7.14892E+00  5.81981E+00  6.14485E+00
   6.17956E+00  3.40319E+00  7.77131E+00  7.69323E+00  6.40121E+00  6.79774E+00  8.12402E+00  6.43794E+00  9.31846E+00  8.57725E+00
   9.32210E+00  7.43722E+00  7.05344E+00  3.19565E+00  6.48691E+00  4.39250E+00  5.29748E+00  2.84329E+00 -2.41687E-01  2.13509E+00
   3.25504E+00  2.11806E+00  5.03361E-01  2.43901E+00 -1.59413E+00  1.28316E+00 -4.48859E+00 -2.99009E-01 -1.83188E+00 -9.14664E-01
   7.02402E-01  6.16515E-01  6.01869E-01 -1.45975E+00 -9.33882E-01  1.37850E+00  3.48095E-01 -4.54929E-01 -5.06375E-01 -9.90510E-02
   2.51230E-01 -1.90472E+00  1.06605E+00 -1.62737E+00  1.09948E+00 -4.89564E+00  2.40062E+00 -1.18252E+00 -1.88196E+00 -5.11565E+00
   1.93588E-01 -1.09583E+00 -2.71536E+00  5.47753E-01 -1.75976E-02 -5.06747E+00 -5.33427E-01 -3.68203E+00  1.02698E+00 -8.67112E-01
   1.04448E+00 -2.05333E+00 -2.12144E+00 -8.08623E-01  1.25845E+00 -4.24770E+00  9.29081E-04 -4.87889E+00 -3.58633E+00 -9.86839E-01
  -2.78887E-01 -4.08506E+00 -5.93445E-01 -3.78623E+00  7.03396E-01 -1.21642E+00 -1.46019E+00 -7.51309E-01 -1.02838E+00 -1.15976E+00
  -1.13044E+00  7.49103E-01  1.47723E+00 -7.16014E-01  2.50284E+00 -3.04426E+00  8.81678E-01  7.56500E-01 -7.85816E-01 -1.34932E+00
  -1.93468E+00 -1.55109E+00 -4.49975E+00 -3.73718E+00 -1.16887E+00 -2.33747E+00 -6.82717E-01 -1.27518E+00
 NY points of the fit to the data follow
   1.77170E+01  1.75861E+01  1.78159E+01  1.87239E+01  2.08433E+01  2.47291E+01  3.08213E+01  3.82945E+01  4.56192E+01  5.13588E+01
   5.41502E+01  5.34432E+01  4.98198E+01  4.44286E+01  3.86376E+01  3.33386E+01  2.86745E+01  2.50542E+01  2.24463E+01  2.03343E+01
   1.91988E+01  1.86943E+01  1.82324E+01  1.76713E+01  1.71655E+01  1.69823E+01  1.76212E+01  1.94785E+01  2.21602E+01  2.47893E+01
   2.65915E+01  2.72062E+01  2.66843E+01  2.52581E+01  2.31417E+01  2.06980E+01  1.82456E+01  1.61514E+01  1.50051E+01  1.46440E+01
   1.47225E+01  1.51749E+01  1.59528E+01  1.71928E+01  1.88323E+01  2.05091E+01  2.15898E+01  2.15530E+01  2.04910E+01  1.88920E+01
   1.72081E+01  1.57437E+01  1.45752E+01  1.35784E+01  1.27630E+01  1.23626E+01  1.24448E+01  1.27877E+01  1.31437E+01  1.33008E+01
   1.30515E+01  1.23899E+01  1.14896E+01  1.06146E+01  9.97985E+00  9.62727E+00  9.48815E+00  9.52048E+00  9.70113E+00  9.97272E+00
   1.02444E+01  1.03905E+01  1.03589E+01  1.01705E+01  9.89436E+00  9.60662E+00  9.32783E+00  9.06156E+00  8.79040E+00  8.52617E+00
   8.35602E+00  8.36408E+00  8.62144E+00  9.18503E+00  9.89437E+00  1.03220E+01  1.01399E+01  9.38829E+00  8.40593E+00  7.58786E+00
   7.11655E+00  6.91922E+00  6.84571E+00  6.76833E+00  6.66506E+00  6.68380E+00  6.93942E+00  8.32581E+00  1.24769E+01  2.10849E+01
   3.49793E+01  5.11320E+01  6.34407E+01  6.73335E+01  6.25223E+01  5.25273E+01  4.18009E+01  3.26039E+01  2.50000E+01  1.83596E+01
   1.22431E+01  7.94311E+00  6.44024E+00  5.94042E+00  5.70812E+00  5.58218E+00  5.50764E+00  5.46515E+00  5.48193E+00  5.64204E+00
   6.18325E+00  7.93795E+00  1.22920E+01  2.07565E+01  3.40528E+01  4.94868E+01  6.14661E+01  6.56419E+01  6.16102E+01  5.26113E+01
   4.28222E+01  3.42973E+01  2.68438E+01  1.96887E+01  1.25945E+01  7.12223E+00  4.63361E+00  3.90590E+00  4.02407E+00  4.52739E+00
   5.01787E+00  5.28999E+00  5.34220E+00  5.17017E+00  4.83318E+00  4.42287E+00  3.95696E+00  3.45504E+00  2.95199E+00  2.44848E+00
   1.98840E+00  1.55367E+00  1.17815E+00  9.25390E-01  8.23585E-01  7.99108E-01  7.01263E-01  3.62507E-01 -2.83442E-01 -1.03335E+00
  -1.54790E+00 -1.59153E+00 -1.23474E+00 -8.63498E-01 -8.43409E-01 -1.24544E+00 -1.88516E+00 -2.47678E+00 -2.85335E+00 -3.12198E+00
  -3.43105E+00 -3.88128E+00 -4.52327E+00 -5.22029E+00 -5.74807E+00 -5.90965E+00 -5.69412E+00 -5.38061E+00 -5.30273E+00 -5.49609E+00
  -5.69941E+00 -5.70394E+00 -5.54860E+00 -5.42691E+00 -5.43664E+00 -5.30292E+00 -4.51696E+00 -3.00139E+00 -1.09592E+00  5.91601E-01
   1.57835E+00  1.79963E+00  1.41832E+00  6.75591E-01 -2.22152E-01 -1.16312E+00 -1.89618E+00 -2.09995E+00 -1.67224E+00 -6.75574E-01
   7.17446E-01  2.23140E+00  3.51046E+00  4.23149E+00  4.08696E+00  2.99358E+00  1.03199E+00 -1.40828E+00 -3.69771E+00 -5.27858E+00
  -5.80194E+00 -4.99819E+00 -2.76581E+00  5.89816E-01  4.19504E+00  6.79130E+00  7.44195E+00  6.07078E+00  3.07577E+00 -7.35913E-01
  -4.42552E+00 -7.11996E+00 -8.00945E+00 -6.91999E+00 -4.37323E+00 -1.21666E+00  1.48147E+00  3.33551E+00  4.34927E+00  4.72522E+00
   4.74638E+00  4.63997E+00  4.71195E+00  5.21490E+00  6.07465E+00  7.02253E+00  7.76298E+00  8.00803E+00  7.65526E+00  6.78814E+00
   5.69032E+00  4.88547E+00  4.85052E+00  5.68211E+00  7.03603E+00  8.50476E+00  9.76621E+00  1.05932E+01  1.10328E+01  1.13980E+01
   1.22338E+01  1.39370E+01  1.67998E+01  2.05508E+01  2.49560E+01  3.07611E+01  3.98107E+01  5.43855E+01  7.21748E+01  8.59270E+01
   8.95388E+01  8.22010E+01  6.81587E+01  5.33962E+01  4.12094E+01  3.13001E+01  2.26188E+01  1.43663E+01  8.15969E+00  5.78810E+00
   4.73220E+00  4.08068E+00  3.68419E+00  3.44329E+00  3.18769E+00  2.86632E+00  2.50027E+00  2.11901E+00  1.74567E+00  1.40589E+00
   1.10978E+00  8.57958E-01  6.61944E-01  5.19251E-01  4.00956E-01  2.92315E-01  2.01459E-01  1.43777E-01  1.36424E-01  1.84373E-01
   2.90143E-01  4.54001E-01  6.61187E-01  8.98101E-01  1.16218E+00  1.45376E+00  1.77588E+00  2.13359E+00  2.52898E+00  2.96313E+00
   3.43427E+00  3.93067E+00  4.43893E+00  4.94670E+00  5.44277E+00  5.91786E+00  6.36275E+00  6.76771E+00  7.12847E+00  7.44062E+00
   7.70076E+00  7.90816E+00  8.06508E+00  8.17532E+00  8.24437E+00  8.27941E+00  8.28965E+00  8.28650E+00  8.28395E+00  8.30023E+00
   8.36547E+00  8.52952E+00  8.80821E+00  9.16790E+00  9.44396E+00  9.34050E+00  8.68835E+00  7.59907E+00  6.36030E+00  5.28590E+00
   4.55549E+00  4.25013E+00  4.48074E+00  5.22058E+00  6.22674E+00  7.21732E+00  7.86473E+00  8.07669E+00  8.03931E+00  7.91848E+00
   7.79002E+00  7.67018E+00  7.53807E+00  7.49929E+00  7.64579E+00  7.89500E+00  8.19473E+00  8.55301E+00  9.01302E+00  9.62343E+00
   1.04023E+01  1.13377E+01  1.23988E+01  1.35134E+01  1.45726E+01  1.54737E+01  1.61213E+01  1.64620E+01  1.65000E+01  1.62504E+01
   1.57336E+01  1.49781E+01  1.40247E+01  1.29481E+01  1.18125E+01  1.06613E+01  9.53531E+00  8.46786E+00  7.48244E+00  6.59261E+00
   5.80337E+00  5.11344E+00  4.51759E+00  4.00857E+00  3.57838E+00  3.21916E+00  2.92385E+00  2.68675E+00  2.50363E+00  2.37156E+00
   2.28842E+00  2.25263E+00  2.26305E+00  2.31897E+00  2.41997E+00  2.56551E+00  2.75459E+00  2.98560E+00  3.25637E+00  3.56422E+00
   3.90571E+00  4.27638E+00  4.67057E+00  5.08153E+00  5.50166E+00  5.92270E+00  6.33574E+00  6.73124E+00  7.09932E+00  7.43031E+00
   7.71519E+00  7.94602E+00  8.11598E+00  8.21961E+00  8.25314E+00  8.21483E+00  8.10513E+00  7.92652E+00  7.68320E+00  7.38084E+00
   7.02646E+00  6.62826E+00  6.19521E+00  5.73656E+00  5.26128E+00  4.77785E+00  4.29417E+00  3.81741E+00  3.35381E+00  2.90844E+00
   2.48505E+00  2.08633E+00  1.71409E+00  1.36941E+00  1.05260E+00  7.63184E-01  5.00073E-01  2.61867E-01  4.70803E-02 -1.45832E-01
  -3.18568E-01 -4.72985E-01 -6.10947E-01 -7.34120E-01 -8.43918E-01 -9.41621E-01 -1.02852E+00 -1.10589E+00 -1.17489E+00 -1.23640E+00
  -1.29109E+00 -1.33960E+00 -1.38264E+00 -1.42091E+00 -1.45495E+00 -1.48511E+00 -1.51164E+00 -1.53486E+00 -1.55520E+00 -1.57302E+00
  -1.58855E+00 -1.60187E+00 -1.61307E+00 -1.62237E+00 -1.63005E+00 -1.63629E+00 -1.64115E+00 -1.64461E+00 -1.64674E+00 -1.64772E+00
  -1.64776E+00 -1.64693E+00 -1.64517E+00 -1.64244E+00 -1.63884E+00 -1.63454E+00 -1.62966E+00 -1.62420E+00 -1.61805E+00 -1.61122E+00
  -1.60382E+00 -1.59599E+00 -1.58778E+00 -1.57911E+00 -1.56991E+00 -1.56020E+00 -1.55013E+00 -1.53980E+00 -1.52919E+00 -1.51820E+00
  -1.50677E+00 -1.49500E+00 -1.48302E+00 -1.47086E+00 -1.45845E+00 -1.44570E+00 -1.43260E+00 -1.41927E+00 -1.40581E+00 -1.39220E+00
  -1.37835E+00 -1.36417E+00 -1.34971E+00 -1.33511E+00 -1.32041E+00 -1.30553E+00 -1.29036E+00 -1.27487E+00
 NY background values follow
     1.518E+01    1.507E+01    1.495E+01    1.484E+01    1.472E+01    1.461E+01    1.450E+01    1.438E+01    1.427E+01    1.415E+01
     1.404E+01    1.393E+01    1.381E+01    1.370E+01    1.358E+01    1.347E+01    1.335E+01    1.324E+01    1.313E+01    1.301E+01
     1.290E+01    1.278E+01    1.267E+01    1.256E+01    1.244E+01    1.233E+01    1.221E+01    1.210E+01    1.199E+01    1.187E+01
     1.176E+01    1.165E+01    1.153E+01    1.142E+01    1.130E+01    1.119E+01    1.108E+01    1.096E+01    1.085E+01    1.074E+01
     1.063E+01    1.051E+01    1.040E+01    1.029E+01    1.017E+01    1.006E+01    9.949E+00    9.837E+00    9.724E+00    9.612E+00
     9.500E+00    9.388E+00    9.277E+00    9.165E+00    9.054E+00    8.942E+00    8.831E+00    8.721E+00    8.610E+00    8.499E+00
     8.389E+00    8.279E+00    8.169E+00    8.059E+00    7.949E+00    7.840E+00    7.731E+00    7.622E+00    7.514E+00    7.405E+00
     7.297E+00    7.189E+00    7.082E+00    6.974E+00    6.867E+00    6.761E+00    6.654E+00    6.548E+00    6.442E+00    6.337E+00
     6.231E+00    6.126E+00    6.022E+00    5.917E+00    5.814E+00    5.710E+00    5.607E+00    5.504E+00    5.401E+00    5.299E+00
     5.197E+00    5.096E+00    4.995E+00    4.895E+00    4.794E+00    4.695E+00    4.595E+00    4.496E+00    4.398E+00    4.299E+00
     4.202E+00    4.104E+00    4.007E+00    3.911E+00    3.815E+00    3.719E+00    3.624E+00    3.530E+00    3.435E+00    3.342E+00
     3.248E+00    3.156E+00    3.063E+00    2.971E+00    2.880E+00    2.789E+00    2.699E+00    2.609E+00    2.519E+00    2.430E+00
     2.342E+00    2.254E+00    2.167E+00    2.080E+00    1.993E+00    1.907E+00    1.822E+00    1.737E+00    1.653E+00    1.569E+00
     1.486E+00    1.404E+00    1.322E+00    1.240E+00    1.159E+00    1.079E+00    9.992E-01    9.200E-01    8.414E-01    7.634E-01
     6.860E-01    6.092E-01    5.329E-01    4.573E-01    3.823E-01    3.078E-01    2.340E-01    1.608E-01    8.827E-02    1.632E-02
    -5.500E-02   -1.257E-01   -1.957E-01   -2.651E-01   -3.339E-01   -4.020E-01   -4.695E-01   -5.363E-01   -6.024E-01   -6.679E-01
    -7.327E-01   -7.969E-01   -8.603E-01   -9.231E-01   -9.852E-01   -1.047E+00   -1.107E+00   -1.167E+00   -1.227E+00   -1.285E+00
    -1.343E+00   -1.400E+00   -1.457E+00   -1.513E+00   -1.568E+00   -1.622E+00   -1.676E+00   -1.728E+00   -1.781E+00   -1.832E+00
    -1.883E+00   -1.932E+00   -1.982E+00   -2.030E+00   -2.078E+00   -2.124E+00   -2.171E+00   -2.216E+00   -2.261E+00   -2.305E+00
    -2.348E+00   -2.391E+00   -2.433E+00   -2.474E+00   -2.515E+00   -2.555E+00   -2.594E+00   -2.633E+00   -2.671E+00   -2.709E+00
    -2.745E+00   -2.782E+00   -2.817E+00   -2.852E+00   -2.887E+00   -2.921E+00   -2.954E+00   -2.987E+00   -3.019E+00   -3.050E+00
    -3.081E+00   -3.112E+00   -3.142E+00   -3.171E+00   -3.200E+00   -3.229E+00   -3.257E+00   -3.284E+00   -3.311E+00   -3.338E+00
    -3.364E+00   -3.389E+00   -3.414E+00   -3.439E+00   -3.463E+00   -3.487E+00   -3.510E+00   -3.533E+00   -3.556E+00   -3.578E+00
    -3.600E+00   -3.621E+00   -3.642E+00   -3.662E+00   -3.683E+00   -3.702E+00   -3.722E+00   -3.740E+00   -3.759E+00   -3.777E+00
    -3.795E+00   -3.812E+00   -3.829E+00   -3.846E+00   -3.862E+00   -3.878E+00   -3.893E+00   -3.908E+00   -3.923E+00   -3.938E+00
    -3.952E+00   -3.965E+00   -3.979E+00   -3.992E+00   -4.004E+00   -4.017E+00   -4.029E+00   -4.040E+00   -4.051E+00   -4.062E+00
    -4.073E+00   -4.083E+00   -4.093E+00   -4.103E+00   -4.112E+00   -4.121E+00   -4.130E+00   -4.138E+00   -4.146E+00   -4.154E+00
    -4.162E+00   -4.169E+00   -4.176E+00   -4.182E+00   -4.188E+00   -4.194E+00   -4.200E+00   -4.205E+00   -4.211E+00   -4.215E+00
    -4.220E+00   -4.224E+00   -4.228E+00   -4.232E+00   -4.235E+00   -4.239E+00   -4.241E+00   -4.244E+00   -4.246E+00   -4.249E+00
    -4.250E+00   -4.252E+00   -4.253E+00   -4.255E+00   -4.255E+00   -4.256E+00   -4.256E+00   -4.257E+00   -4.257E+00   -4.256E+00
    -4.256E+00   -4.255E+00   -4.254E+00   -4.253E+00   -4.251E+00   -4.249E+00   -4.247E+00   -4.245E+00   -4.243E+00   -4.240E+00
    -4.238E+00   -4.235E+00   -4.231E+00   -4.228E+00   -4.225E+00   -4.221E+00   -4.217E+00   -4.213E+00   -4.208E+00   -4.204E+00
    -4.199E+00   -4.194E+00   -4.189E+00   -4.184E+00   -4.178E+00   -4.172E+00   -4.167E+00   -4.160E+00   -4.154E+00   -4.148E+00
    -4.141E+00   -4.135E+00   -4.128E+00   -4.121E+00   -4.113E+00   -4.106E+00   -4.098E+00   -4.091E+00   -4.083E+00   -4.075E+00
    -4.066E+00   -4.058E+00   -4.049E+00   -4.041E+00   -4.032E+00   -4.023E+00   -4.014E+00   -4.004E+00   -3.995E+00   -3.985E+00
    -3.976E+00   -3.966E+00   -3.956E+00   -3.945E+00   -3.935E+00   -3.925E+00   -3.914E+00   -3.903E+00   -3.892E+00   -3.881E+00
    -3.870E+00   -3.859E+00   -3.847E+00   -3.836E+00   -3.824E+00   -3.812E+00   -3.801E+00   -3.788E+00   -3.776E+00   -3.764E+00
    -3.752E+00   -3.739E+00   -3.726E+00   -3.714E+00   -3.701E+00   -3.688E+00   -3.674E+00   -3.661E+00   -3.648E+00   -3.634E+00
    -3.621E+00   -3.607E+00   -3.593E+00   -3.579E+00   -3.565E+00   -3.551E+00   -3.536E+00   -3.522E+00   -3.507E+00   -3.493E+00
    -3.478E+00   -3.463E+00   -3.448E+00   -3.433E+00   -3.418E+00   -3.402E+00   -3.387E+00   -3.371E+00   -3.356E+00   -3.340E+00
    -3.324E+00   -3.308E+00   -3.292E+00   -3.276E+00   -3.259E+00   -3.243E+00   -3.226E+00   -3.210E+00   -3.193E+00   -3.176E+00
    -3.159E+00   -3.142E+00   -3.125E+00   -3.108E+00   -3.091E+00   -3.074E+00   -3.056E+00   -3.039E+00   -3.021E+00   -3.003E+00
    -2.985E+00   -2.968E+00   -2.950E+00   -2.932E+00   -2.914E+00   -2.895E+00   -2.877E+00   -2.859E+00   -2.841E+00   -2.822E+00
    -2.804E+00   -2.785E+00   -2.767E+00   -2.748E+00   -2.729E+00   -2.710E+00   -2.692E+00   -2.673E+00   -2.654E+00   -2.635E+00
    -2.616E+00   -2.597E+00   -2.578E+00   -2.559E+00   -2.540E+00   -2.520E+00   -2.501E+00   -2.482E+00   -2.463E+00   -2.443E+00
    -2.424E+00   -2.405E+00   -2.385E+00   -2.366E+00   -2.347E+00   -2.327E+00   -2.308E+00   -2.288E+00   -2.269E+00   -2.249E+00
    -2.230E+00   -2.210E+00   -2.191E+00   -2.171E+00   -2.151E+00   -2.132E+00   -2.112E+00   -2.093E+00   -2.073E+00   -2.053E+00
    -2.034E+00   -2.014E+00   -1.994E+00   -1.975E+00   -1.955E+00   -1.935E+00   -1.916E+00   -1.896E+00   -1.876E+00   -1.857E+00
    -1.837E+00   -1.817E+00   -1.797E+00   -1.778E+00   -1.758E+00   -1.738E+00   -1.719E+00   -1.699E+00   -1.679E+00   -1.659E+00
    -1.640E+00   -1.620E+00   -1.600E+00   -1.581E+00   -1.561E+00   -1.541E+00   -1.522E+00   -1.502E+00
 Ala      Conc. = 1.94E+02
