 LCModel (Version 6.3-1L) Copyright: S.W. Provencher.          Ref.: Magn. Reson. Med. 30:672-679 (1993).                
 Slice#1 Row#4 Col#13  PD_24_press_1_raw_act
 36 lines in following concentration table = NCONC+1
    Conc.  %SD /Cr+PCr  Metabolite                                         
   49.512  96%   1.352 Ala                                                 
    9.792  56%   0.267 Asp                                                 
    0.000 999%   0.000 Cr                                                  
   36.608  72%   1.000 PCr                                                 
    5.931  56%   0.162 GABA                                                
    5.979  56%   0.163 Glc                                                 
    0.000 999%   0.000 Gln                                                 
  164.538  69%   4.495 Glu                                                 
   32.065  39%   0.876 GPC                                                 
    0.000 999%   0.000 PCh                                                 
    7.151 469%   0.195 GSH                                                 
    0.000 999%   0.000 Ins                                                 
  105.419  73%   2.880 Lac                                                 
   65.787  50%   1.797 NAA                                                 
    0.000 999%   0.000 NAAG                                                
    1.996  56% 5.5E-02 Scyllo                                              
    9.915  56%   0.271 Tau                                                 
    3.300 152% 9.0E-02 -CrCH2                                              
   32.065  39%   0.876 GPC+PCh                                             
   65.787  50%   1.797 NAA+NAAG                                            
   36.608  72%   1.000 Cr+PCr                                              
  164.538  69%   4.495 Glu+Gln                                             
 1.46E+05  11% 4.0E+03 Lip13a                                              
  482.991  98%  13.193 Lip13b                                              
    0.000 999%   0.000-Lip09                                               
 1.37E+04  18% 375.096 MM09                                                
    0.000 999%   0.000 Lip20                                               
    0.000 999%   0.000 MM20                                                
    0.000 999%   0.000 MM12                                                
 1.90E+03  74%  51.767 MM14                                                
 2.26E+03  44%  61.784 MM17                                                
 1.47E+05  11% 4.0E+03 Lip13a+Lip13b                                       
 1.49E+05  10% 4.1E+03 MM14+Lip13a+Lip13b+MM12                             
 1.37E+04  18% 375.096 MM09+Lip09                                          
    0.000 999%   0.000 MM20+Lip20                                          
   6 lines in following misc. output table
  FWHM = 0.046 ppm    S/N =  50                                            
  Data shift = 0.031 ppm                                                   
  Ph: -57 deg     -13.0 deg/ppm                                            
  alphaB,S = 3.7E-01,   2.3E+01                                            
   14 spline knots.   Ns = 8(1)                                            
   2 inflections.     2 extrema                                            
  498 points on ppm-axis = NY
      4.000000     3.992357     3.984714     3.977070     3.969427     3.961784     3.954141     3.946497     3.938854     3.931211
      3.923568     3.915925     3.908281     3.900638     3.892995     3.885352     3.877708     3.870065     3.862422     3.854779
      3.847136     3.839492     3.831849     3.824206     3.816563     3.808919     3.801276     3.793633     3.785990     3.778347
      3.770703     3.763060     3.755417     3.747774     3.740130     3.732487     3.724844     3.717201     3.709558     3.701914
      3.694271     3.686628     3.678985     3.671341     3.663698     3.656055     3.648412     3.640769     3.633125     3.625482
      3.617839     3.610196     3.602552     3.594909     3.587266     3.579623     3.571980     3.564336     3.556693     3.549050
      3.541407     3.533763     3.526120     3.518477     3.510834     3.503191     3.495547     3.487904     3.480261     3.472618
      3.464974     3.457331     3.449688     3.442045     3.434402     3.426758     3.419115     3.411472     3.403829     3.396185
      3.388542     3.380899     3.373256     3.365613     3.357969     3.350326     3.342683     3.335040     3.327396     3.319753
      3.312110     3.304467     3.296824     3.289180     3.281537     3.273894     3.266251     3.258607     3.250964     3.243321
      3.235678     3.228034     3.220391     3.212748     3.205105     3.197462     3.189818     3.182175     3.174532     3.166889
      3.159245     3.151602     3.143959     3.136316     3.128673     3.121029     3.113386     3.105743     3.098100     3.090456
      3.082813     3.075170     3.067527     3.059884     3.052240     3.044597     3.036954     3.029311     3.021667     3.014024
      3.006381     2.998738     2.991095     2.983451     2.975808     2.968165     2.960522     2.952878     2.945235     2.937592
      2.929949     2.922306     2.914662     2.907019     2.899376     2.891733     2.884089     2.876446     2.868803     2.861160
      2.853517     2.845873     2.838230     2.830587     2.822944     2.815300     2.807657     2.800014     2.792371     2.784728
      2.777084     2.769441     2.761798     2.754155     2.746511     2.738868     2.731225     2.723582     2.715939     2.708295
      2.700652     2.693009     2.685366     2.677722     2.670079     2.662436     2.654793     2.647150     2.639506     2.631863
      2.624220     2.616577     2.608933     2.601290     2.593647     2.586004     2.578361     2.570717     2.563074     2.555431
      2.547788     2.540144     2.532501     2.524858     2.517215     2.509572     2.501928     2.494285     2.486642     2.478999
      2.471355     2.463712     2.456069     2.448426     2.440783     2.433139     2.425496     2.417853     2.410210     2.402566
      2.394923     2.387280     2.379637     2.371994     2.364350     2.356707     2.349064     2.341421     2.333777     2.326134
      2.318491     2.310848     2.303205     2.295561     2.287918     2.280275     2.272632     2.264988     2.257345     2.249702
      2.242059     2.234416     2.226772     2.219129     2.211486     2.203843     2.196199     2.188556     2.180913     2.173270
      2.165627     2.157983     2.150340     2.142697     2.135054     2.127410     2.119767     2.112124     2.104481     2.096838
      2.089194     2.081551     2.073908     2.066265     2.058621     2.050978     2.043335     2.035692     2.028049     2.020405
      2.012762     2.005119     1.997476     1.989833     1.982190     1.974546     1.966903     1.959260     1.951617     1.943974
      1.936331     1.928688     1.921045     1.913402     1.905759     1.898115     1.890472     1.882829     1.875186     1.867543
      1.859900     1.852257     1.844614     1.836971     1.829327     1.821684     1.814041     1.806398     1.798755     1.791112
      1.783469     1.775826     1.768183     1.760540     1.752896     1.745253     1.737610     1.729967     1.722324     1.714681
      1.707038     1.699395     1.691752     1.684108     1.676465     1.668822     1.661179     1.653536     1.645893     1.638250
      1.630607     1.622964     1.615321     1.607677     1.600034     1.592391     1.584748     1.577105     1.569462     1.561819
      1.554176     1.546533     1.538890     1.531246     1.523603     1.515960     1.508317     1.500674     1.493031     1.485388
      1.477745     1.470102     1.462458     1.454815     1.447172     1.439529     1.431886     1.424243     1.416600     1.408957
      1.401314     1.393671     1.386027     1.378384     1.370741     1.363098     1.355455     1.347812     1.340169     1.332526
      1.324883     1.317240     1.309596     1.301953     1.294310     1.286667     1.279024     1.271381     1.263738     1.256095
      1.248452     1.240808     1.233165     1.225522     1.217879     1.210236     1.202593     1.194950     1.187307     1.179664
      1.172021     1.164377     1.156734     1.149091     1.141448     1.133805     1.126162     1.118519     1.110876     1.103233
      1.095590     1.087946     1.080303     1.072660     1.065017     1.057374     1.049731     1.042088     1.034445     1.026802
      1.019158     1.011515     1.003872     0.996229     0.988586     0.980943     0.973300     0.965657     0.958014     0.950371
      0.942727     0.935084     0.927441     0.919798     0.912155     0.904512     0.896869     0.889226     0.881583     0.873940
      0.866296     0.858653     0.851010     0.843367     0.835724     0.828081     0.820438     0.812795     0.805152     0.797508
      0.789865     0.782222     0.774579     0.766936     0.759293     0.751650     0.744007     0.736364     0.728721     0.721077
      0.713434     0.705791     0.698148     0.690505     0.682862     0.675219     0.667576     0.659933     0.652290     0.644646
      0.637003     0.629360     0.621717     0.614074     0.606431     0.598788     0.591145     0.583502     0.575858     0.568215
      0.560572     0.552929     0.545286     0.537643     0.530000     0.522357     0.514714     0.507071     0.499427     0.491784
      0.484141     0.476498     0.468855     0.461212     0.453569     0.445925     0.438282     0.430639     0.422996     0.415353
      0.407710     0.400067     0.392424     0.384780     0.377137     0.369494     0.361851     0.354208     0.346565     0.338922
      0.331278     0.323635     0.315992     0.308349     0.300706     0.293063     0.285420     0.277777     0.270133     0.262490
      0.254847     0.247204     0.239561     0.231918     0.224275     0.216631     0.208988     0.201345
 NY phased data points follow
   2.80279E+01  2.70327E+01  2.46626E+01  2.61442E+01  2.43918E+01  2.68959E+01  3.04821E+01  2.91086E+01  3.02276E+01  2.61947E+01
   2.88066E+01  2.70217E+01  2.93845E+01  3.09475E+01  2.73536E+01  2.78537E+01  2.74593E+01  2.85832E+01  2.52077E+01  2.58340E+01
   2.76863E+01  2.85471E+01  2.48040E+01  2.87280E+01  2.71328E+01  2.65317E+01  2.78280E+01  2.62448E+01  2.82257E+01  2.89050E+01
   2.74609E+01  2.71204E+01  2.57723E+01  2.71136E+01  2.97227E+01  2.48046E+01  2.77984E+01  2.68741E+01  2.72772E+01  2.73396E+01
   2.76335E+01  2.70862E+01  2.80593E+01  2.83381E+01  2.97966E+01  2.90159E+01  2.85274E+01  2.79440E+01  2.80408E+01  2.79324E+01
   2.87177E+01  2.68882E+01  3.07242E+01  2.90184E+01  2.57285E+01  2.93203E+01  3.03420E+01  3.05327E+01  2.57913E+01  3.00117E+01
   2.95588E+01  3.02739E+01  2.91153E+01  3.23668E+01  3.01380E+01  2.75537E+01  2.57861E+01  3.16955E+01  2.69186E+01  2.74778E+01
   3.14503E+01  2.94217E+01  3.02051E+01  2.98272E+01  3.10492E+01  2.85317E+01  3.23146E+01  2.95748E+01  2.98708E+01  3.23169E+01
   3.22138E+01  2.72435E+01  3.18710E+01  2.96517E+01  3.02242E+01  3.10712E+01  3.10751E+01  3.06055E+01  2.96843E+01  3.04866E+01
   3.38688E+01  3.24994E+01  3.34176E+01  3.39095E+01  3.03156E+01  2.96609E+01  3.17061E+01  3.23549E+01  3.02574E+01  3.16959E+01
   3.44093E+01  3.35236E+01  3.53352E+01  3.54474E+01  3.62402E+01  3.82764E+01  3.79039E+01  3.67903E+01  2.95885E+01  3.10321E+01
   3.39864E+01  3.29974E+01  3.26579E+01  3.33084E+01  3.65059E+01  3.32761E+01  3.19705E+01  3.26412E+01  3.31963E+01  3.30036E+01
   3.26500E+01  3.31224E+01  3.43884E+01  3.69640E+01  3.68813E+01  3.27846E+01  3.66504E+01  3.96298E+01  3.76107E+01  3.50320E+01
   3.37340E+01  3.54084E+01  3.52715E+01  3.42946E+01  3.53820E+01  3.40292E+01  3.61286E+01  3.51983E+01  3.65201E+01  3.65427E+01
   3.79133E+01  3.55961E+01  3.95845E+01  3.92984E+01  3.78448E+01  3.41853E+01  3.94249E+01  3.74035E+01  3.82809E+01  4.23184E+01
   3.76891E+01  3.86442E+01  3.87738E+01  3.91308E+01  4.20045E+01  4.11527E+01  3.96150E+01  3.92491E+01  4.01935E+01  4.06392E+01
   3.97353E+01  3.95768E+01  4.10250E+01  3.74416E+01  4.34908E+01  3.87687E+01  4.01275E+01  4.04557E+01  4.12007E+01  3.79108E+01
   3.84711E+01  4.00417E+01  3.86749E+01  4.11409E+01  4.30268E+01  4.14004E+01  4.06634E+01  4.16222E+01  4.30276E+01  4.12064E+01
   4.28484E+01  4.17478E+01  4.07325E+01  4.56470E+01  4.35975E+01  4.35468E+01  4.19000E+01  4.34746E+01  4.27706E+01  4.57635E+01
   4.24891E+01  4.56467E+01  4.27616E+01  4.37967E+01  4.79368E+01  4.79487E+01  4.60941E+01  4.43652E+01  4.49730E+01  4.62872E+01
   4.29906E+01  4.98412E+01  4.68386E+01  4.62585E+01  4.64602E+01  4.53263E+01  4.75155E+01  4.67554E+01  4.62549E+01  4.56241E+01
   4.73560E+01  4.87317E+01  4.65820E+01  5.00348E+01  4.96038E+01  4.99492E+01  5.04291E+01  5.26064E+01  5.14150E+01  5.17561E+01
   5.09185E+01  4.92147E+01  5.14616E+01  5.17461E+01  5.17284E+01  4.94767E+01  5.08420E+01  5.23866E+01  5.29809E+01  5.55396E+01
   5.38326E+01  5.31483E+01  5.63156E+01  5.24242E+01  5.68518E+01  5.48407E+01  5.50607E+01  5.90125E+01  5.73671E+01  5.94829E+01
   5.83874E+01  5.64609E+01  5.72173E+01  5.81320E+01  5.85995E+01  5.86646E+01  6.05775E+01  6.28034E+01  6.10223E+01  6.60753E+01
   6.40863E+01  6.32376E+01  6.28517E+01  6.38386E+01  6.42624E+01  6.27262E+01  6.19581E+01  6.50149E+01  6.39992E+01  6.86035E+01
   7.23102E+01  7.23266E+01  7.27229E+01  6.97400E+01  7.27858E+01  7.51924E+01  7.55946E+01  7.30717E+01  7.49160E+01  7.56307E+01
   7.16628E+01  7.50949E+01  7.85928E+01  7.84025E+01  7.67653E+01  7.58590E+01  8.08009E+01  8.25161E+01  8.01261E+01  8.28058E+01
   8.52235E+01  8.54622E+01  8.36274E+01  8.62808E+01  8.75534E+01  8.56133E+01  8.82421E+01  9.13950E+01  9.33273E+01  9.23237E+01
   9.24663E+01  9.46606E+01  9.48682E+01  9.70722E+01  1.03551E+02  1.02027E+02  9.99449E+01  1.04742E+02  1.05833E+02  1.06622E+02
   1.06765E+02  1.09775E+02  1.11584E+02  1.12100E+02  1.12732E+02  1.15542E+02  1.18856E+02  1.21908E+02  1.25273E+02  1.22903E+02
   1.25111E+02  1.27168E+02  1.32250E+02  1.33547E+02  1.33378E+02  1.34827E+02  1.36259E+02  1.37799E+02  1.41976E+02  1.41562E+02
   1.46357E+02  1.49280E+02  1.47729E+02  1.52599E+02  1.55463E+02  1.59025E+02  1.54729E+02  1.62422E+02  1.67011E+02  1.63929E+02
   1.70563E+02  1.71040E+02  1.77045E+02  1.79025E+02  1.79584E+02  1.86042E+02  1.89852E+02  1.93822E+02  1.98173E+02  1.96338E+02
   2.03154E+02  2.07736E+02  2.10372E+02  2.10976E+02  2.11712E+02  2.17301E+02  2.17925E+02  2.23871E+02  2.27389E+02  2.28963E+02
   2.28925E+02  2.33796E+02  2.34576E+02  2.38220E+02  2.38938E+02  2.41433E+02  2.45340E+02  2.46504E+02  2.50177E+02  2.52448E+02
   2.56295E+02  2.51932E+02  2.55069E+02  2.49528E+02  2.52817E+02  2.50462E+02  2.49734E+02  2.46337E+02  2.46937E+02  2.43023E+02
   2.40349E+02  2.36328E+02  2.33743E+02  2.33330E+02  2.29239E+02  2.26385E+02  2.27153E+02  2.21537E+02  2.20744E+02  2.16093E+02
   2.17095E+02  2.18384E+02  2.14797E+02  2.07942E+02  2.05950E+02  2.02242E+02  2.01802E+02  1.96371E+02  1.95623E+02  1.93384E+02
   1.88015E+02  1.86238E+02  1.80744E+02  1.78160E+02  1.73101E+02  1.72938E+02  1.68674E+02  1.66533E+02  1.64696E+02  1.59640E+02
   1.56589E+02  1.53301E+02  1.49813E+02  1.44088E+02  1.40937E+02  1.40534E+02  1.33675E+02  1.28497E+02  1.24470E+02  1.23160E+02
   1.17174E+02  1.15262E+02  1.08834E+02  1.05109E+02  1.01558E+02  9.64924E+01  9.38021E+01  9.06162E+01  9.04382E+01  8.15260E+01
   7.72320E+01  7.19833E+01  6.77665E+01  6.71380E+01  5.94216E+01  5.44701E+01  5.34720E+01  4.90746E+01  4.47322E+01  4.02833E+01
   3.95028E+01  3.68528E+01  3.09871E+01  3.22795E+01  2.27186E+01  2.22759E+01  1.52804E+01  1.54988E+01  1.15907E+01  1.14569E+01
   9.73187E+00  5.11056E+00  1.57876E+00  1.79858E+00 -1.55672E+00 -6.79024E+00 -6.84334E+00 -1.18886E+01 -1.12593E+01 -9.93791E+00
  -1.37559E+01 -1.21571E+01 -1.34278E+01 -1.35469E+01 -1.91795E+01 -2.11563E+01 -2.04880E+01 -2.16458E+01 -2.31729E+01 -2.30199E+01
  -2.51362E+01 -2.62213E+01 -2.58526E+01 -2.81338E+01 -2.75860E+01 -3.13706E+01 -3.06223E+01 -3.02539E+01 -3.32752E+01 -3.18322E+01
  -3.17637E+01 -3.20060E+01 -3.14155E+01 -3.13344E+01 -3.34004E+01 -3.32932E+01 -3.23282E+01 -3.40596E+01 -3.65820E+01 -3.44848E+01
  -3.54599E+01 -3.83987E+01 -3.53488E+01 -3.35340E+01 -3.84939E+01 -3.51792E+01 -3.31852E+01 -3.56801E+01 -3.51870E+01 -3.84780E+01
  -3.78644E+01 -3.83379E+01 -3.81213E+01 -3.65293E+01 -3.83196E+01 -3.67521E+01 -3.64349E+01 -3.63215E+01
 NY points of the fit to the data follow
   2.69263E+01  2.68364E+01  2.67949E+01  2.68274E+01  2.69386E+01  2.71242E+01  2.73617E+01  2.76203E+01  2.78749E+01  2.80839E+01
   2.82056E+01  2.82246E+01  2.81421E+01  2.79618E+01  2.77193E+01  2.74936E+01  2.73456E+01  2.72756E+01  2.72524E+01  2.72509E+01
   2.72911E+01  2.73705E+01  2.74690E+01  2.75707E+01  2.76426E+01  2.76392E+01  2.75457E+01  2.73913E+01  2.72358E+01  2.71407E+01
   2.71514E+01  2.72808E+01  2.75154E+01  2.78182E+01  2.80982E+01  2.82597E+01  2.82785E+01  2.81779E+01  2.80053E+01  2.78293E+01
   2.77239E+01  2.77351E+01  2.78528E+01  2.80172E+01  2.81624E+01  2.82598E+01  2.83133E+01  2.83357E+01  2.83524E+01  2.83868E+01
   2.84386E+01  2.84988E+01  2.85601E+01  2.86186E+01  2.86699E+01  2.87059E+01  2.87277E+01  2.87497E+01  2.87824E+01  2.88241E+01
   2.88709E+01  2.89228E+01  2.89822E+01  2.90498E+01  2.91222E+01  2.91957E+01  2.92687E+01  2.93378E+01  2.94022E+01  2.94654E+01
   2.95304E+01  2.96007E+01  2.96807E+01  2.97709E+01  2.98677E+01  2.99666E+01  3.00614E+01  3.01454E+01  3.02141E+01  3.02703E+01
   3.03234E+01  3.03836E+01  3.04630E+01  3.05684E+01  3.06952E+01  3.08328E+01  3.09689E+01  3.10915E+01  3.11942E+01  3.12772E+01
   3.13397E+01  3.13810E+01  3.14103E+01  3.14308E+01  3.13807E+01  3.12190E+01  3.10964E+01  3.11312E+01  3.14236E+01  3.20479E+01
   3.29634E+01  3.40541E+01  3.51767E+01  3.61132E+01  3.66727E+01  3.67958E+01  3.64795E+01  3.57358E+01  3.47418E+01  3.38624E+01
   3.33755E+01  3.32852E+01  3.33843E+01  3.34813E+01  3.35728E+01  3.36686E+01  3.37671E+01  3.38611E+01  3.39216E+01  3.39319E+01
   3.39521E+01  3.40308E+01  3.42066E+01  3.45094E+01  3.49285E+01  3.54223E+01  3.59372E+01  3.63914E+01  3.67098E+01  3.68647E+01
   3.68509E+01  3.66675E+01  3.63786E+01  3.61234E+01  3.60083E+01  3.60378E+01  3.61379E+01  3.62412E+01  3.63504E+01  3.64739E+01
   3.66142E+01  3.67688E+01  3.69312E+01  3.70933E+01  3.72480E+01  3.73935E+01  3.75312E+01  3.76651E+01  3.77991E+01  3.79341E+01
   3.80691E+01  3.82041E+01  3.83419E+01  3.84870E+01  3.86382E+01  3.87907E+01  3.89399E+01  3.90813E+01  3.92156E+01  3.93462E+01
   3.94763E+01  3.96103E+01  3.97530E+01  3.99060E+01  4.00692E+01  4.02408E+01  4.04161E+01  4.05883E+01  4.07511E+01  4.09005E+01
   4.10355E+01  4.11650E+01  4.12968E+01  4.14339E+01  4.15754E+01  4.17176E+01  4.18608E+01  4.20079E+01  4.21609E+01  4.23203E+01
   4.24833E+01  4.26456E+01  4.28039E+01  4.29530E+01  4.30944E+01  4.32397E+01  4.34006E+01  4.35792E+01  4.37682E+01  4.39609E+01
   4.41576E+01  4.43602E+01  4.45651E+01  4.47624E+01  4.49431E+01  4.51062E+01  4.52583E+01  4.54106E+01  4.55696E+01  4.57437E+01
   4.59378E+01  4.61509E+01  4.63914E+01  4.66538E+01  4.69209E+01  4.71710E+01  4.73732E+01  4.75046E+01  4.75523E+01  4.75619E+01
   4.76068E+01  4.77549E+01  4.80622E+01  4.85418E+01  4.91631E+01  4.98517E+01  5.04714E+01  5.08887E+01  5.10387E+01  5.09179E+01
   5.05930E+01  5.01895E+01  4.98910E+01  4.98732E+01  5.01970E+01  5.07959E+01  5.15539E+01  5.23847E+01  5.31847E+01  5.38336E+01
   5.42823E+01  5.45861E+01  5.48563E+01  5.51696E+01  5.55370E+01  5.59537E+01  5.64029E+01  5.68501E+01  5.72651E+01  5.76367E+01
   5.79720E+01  5.83044E+01  5.86734E+01  5.91055E+01  5.96134E+01  6.01854E+01  6.07867E+01  6.13777E+01  6.19300E+01  6.24246E+01
   6.28703E+01  6.32877E+01  6.36572E+01  6.39827E+01  6.43739E+01  6.49063E+01  6.56375E+01  6.66010E+01  6.77513E+01  6.90113E+01
   7.03067E+01  7.15062E+01  7.24835E+01  7.31869E+01  7.35880E+01  7.36662E+01  7.35417E+01  7.34808E+01  7.36885E+01  7.41742E+01
   7.48071E+01  7.54750E+01  7.61802E+01  7.69247E+01  7.77019E+01  7.85076E+01  7.93368E+01  8.01777E+01  8.10215E+01  8.18655E+01
   8.27165E+01  8.35881E+01  8.44937E+01  8.54401E+01  8.64299E+01  8.74650E+01  8.85466E+01  8.96737E+01  9.08453E+01  9.20623E+01
   9.33268E+01  9.46411E+01  9.60065E+01  9.74242E+01  9.88942E+01  1.00415E+02  1.01983E+02  1.03597E+02  1.05250E+02  1.06939E+02
   1.08657E+02  1.10397E+02  1.12153E+02  1.13919E+02  1.15687E+02  1.17454E+02  1.19214E+02  1.20964E+02  1.22705E+02  1.24435E+02
   1.26159E+02  1.27881E+02  1.29607E+02  1.31345E+02  1.33104E+02  1.34895E+02  1.36726E+02  1.38607E+02  1.40543E+02  1.42539E+02
   1.44639E+02  1.46882E+02  1.49274E+02  1.51809E+02  1.54460E+02  1.57181E+02  1.59932E+02  1.62641E+02  1.65256E+02  1.67808E+02
   1.70349E+02  1.72944E+02  1.75679E+02  1.78642E+02  1.81874E+02  1.85317E+02  1.88842E+02  1.92324E+02  1.95712E+02  1.98957E+02
   2.02020E+02  2.05000E+02  2.08003E+02  2.11111E+02  2.14343E+02  2.17601E+02  2.20764E+02  2.23716E+02  2.26318E+02  2.28584E+02
   2.30633E+02  2.32614E+02  2.34687E+02  2.37022E+02  2.39749E+02  2.42822E+02  2.45956E+02  2.48775E+02  2.51018E+02  2.52589E+02
   2.53388E+02  2.53391E+02  2.52761E+02  2.51752E+02  2.50561E+02  2.49249E+02  2.47799E+02  2.46235E+02  2.44576E+02  2.42827E+02
   2.40984E+02  2.39036E+02  2.36972E+02  2.34787E+02  2.32476E+02  2.30042E+02  2.27491E+02  2.24835E+02  2.22084E+02  2.19254E+02
   2.16360E+02  2.13415E+02  2.10435E+02  2.07433E+02  2.04420E+02  2.01406E+02  1.98401E+02  1.95411E+02  1.92439E+02  1.89489E+02
   1.86560E+02  1.83649E+02  1.80752E+02  1.77863E+02  1.74971E+02  1.72069E+02  1.69143E+02  1.66181E+02  1.63172E+02  1.60101E+02
   1.56957E+02  1.53728E+02  1.50404E+02  1.46976E+02  1.43438E+02  1.39786E+02  1.36017E+02  1.32134E+02  1.28139E+02  1.24040E+02
   1.19845E+02  1.15566E+02  1.11215E+02  1.06807E+02  1.02357E+02  9.78800E+01  9.33931E+01  8.89116E+01  8.44508E+01  8.00252E+01
   7.56484E+01  7.13326E+01  6.70888E+01  6.29265E+01  5.88537E+01  5.48773E+01  5.10023E+01  4.72329E+01  4.35719E+01  4.00209E+01
   3.65807E+01  3.32515E+01  3.00323E+01  2.69220E+01  2.39189E+01  2.10208E+01  1.82255E+01  1.55304E+01  1.29329E+01  1.04305E+01
   8.02047E+00  5.70021E+00  3.46724E+00  1.31913E+00 -7.46436E-01 -2.73162E+00 -4.63849E+00 -6.46894E+00 -8.22474E+00 -9.90755E+00
  -1.15189E+01 -1.30600E+01 -1.45323E+01 -1.59373E+01 -1.72772E+01 -1.85547E+01 -1.97719E+01 -2.09310E+01 -2.20343E+01 -2.30837E+01
  -2.40811E+01 -2.50286E+01 -2.59278E+01 -2.67806E+01 -2.75885E+01 -2.83533E+01 -2.90766E+01 -2.97598E+01 -3.04044E+01 -3.10119E+01
  -3.15837E+01 -3.21211E+01 -3.26254E+01 -3.30979E+01 -3.35400E+01 -3.39527E+01 -3.43373E+01 -3.46950E+01 -3.50270E+01 -3.53343E+01
  -3.56180E+01 -3.58792E+01 -3.61191E+01 -3.63386E+01 -3.65387E+01 -3.67205E+01 -3.68849E+01 -3.70330E+01 -3.71657E+01 -3.72840E+01
  -3.73887E+01 -3.74809E+01 -3.75614E+01 -3.76311E+01 -3.76910E+01 -3.77419E+01 -3.77847E+01 -3.78203E+01
 NY background values follow
     2.440E+01    2.437E+01    2.434E+01    2.432E+01    2.429E+01    2.427E+01    2.425E+01    2.423E+01    2.422E+01    2.420E+01
     2.419E+01    2.418E+01    2.416E+01    2.415E+01    2.415E+01    2.414E+01    2.413E+01    2.413E+01    2.413E+01    2.413E+01
     2.413E+01    2.413E+01    2.413E+01    2.414E+01    2.414E+01    2.415E+01    2.416E+01    2.417E+01    2.418E+01    2.419E+01
     2.420E+01    2.422E+01    2.424E+01    2.425E+01    2.427E+01    2.429E+01    2.431E+01    2.433E+01    2.435E+01    2.438E+01
     2.440E+01    2.443E+01    2.446E+01    2.448E+01    2.451E+01    2.454E+01    2.458E+01    2.461E+01    2.464E+01    2.468E+01
     2.471E+01    2.475E+01    2.478E+01    2.482E+01    2.486E+01    2.490E+01    2.494E+01    2.498E+01    2.502E+01    2.507E+01
     2.511E+01    2.515E+01    2.520E+01    2.525E+01    2.529E+01    2.534E+01    2.539E+01    2.544E+01    2.549E+01    2.554E+01
     2.559E+01    2.564E+01    2.569E+01    2.574E+01    2.580E+01    2.585E+01    2.590E+01    2.596E+01    2.601E+01    2.607E+01
     2.613E+01    2.618E+01    2.624E+01    2.630E+01    2.635E+01    2.641E+01    2.647E+01    2.653E+01    2.659E+01    2.665E+01
     2.671E+01    2.677E+01    2.683E+01    2.689E+01    2.695E+01    2.701E+01    2.707E+01    2.714E+01    2.720E+01    2.726E+01
     2.732E+01    2.739E+01    2.745E+01    2.752E+01    2.758E+01    2.764E+01    2.771E+01    2.778E+01    2.784E+01    2.791E+01
     2.797E+01    2.804E+01    2.811E+01    2.818E+01    2.825E+01    2.831E+01    2.838E+01    2.845E+01    2.852E+01    2.859E+01
     2.867E+01    2.874E+01    2.881E+01    2.888E+01    2.896E+01    2.903E+01    2.910E+01    2.918E+01    2.925E+01    2.933E+01
     2.941E+01    2.948E+01    2.956E+01    2.964E+01    2.972E+01    2.980E+01    2.988E+01    2.996E+01    3.004E+01    3.012E+01
     3.020E+01    3.028E+01    3.037E+01    3.045E+01    3.053E+01    3.062E+01    3.070E+01    3.078E+01    3.087E+01    3.095E+01
     3.103E+01    3.112E+01    3.120E+01    3.128E+01    3.137E+01    3.145E+01    3.153E+01    3.161E+01    3.170E+01    3.178E+01
     3.186E+01    3.194E+01    3.202E+01    3.210E+01    3.217E+01    3.225E+01    3.233E+01    3.240E+01    3.248E+01    3.255E+01
     3.262E+01    3.270E+01    3.277E+01    3.284E+01    3.290E+01    3.297E+01    3.304E+01    3.310E+01    3.317E+01    3.323E+01
     3.329E+01    3.335E+01    3.340E+01    3.346E+01    3.351E+01    3.357E+01    3.362E+01    3.367E+01    3.372E+01    3.377E+01
     3.382E+01    3.387E+01    3.392E+01    3.397E+01    3.402E+01    3.407E+01    3.412E+01    3.417E+01    3.422E+01    3.427E+01
     3.433E+01    3.438E+01    3.443E+01    3.449E+01    3.455E+01    3.461E+01    3.467E+01    3.473E+01    3.479E+01    3.486E+01
     3.493E+01    3.500E+01    3.507E+01    3.514E+01    3.522E+01    3.530E+01    3.539E+01    3.547E+01    3.556E+01    3.566E+01
     3.575E+01    3.585E+01    3.596E+01    3.607E+01    3.618E+01    3.629E+01    3.641E+01    3.654E+01    3.667E+01    3.680E+01
     3.693E+01    3.707E+01    3.722E+01    3.736E+01    3.751E+01    3.766E+01    3.781E+01    3.796E+01    3.812E+01    3.828E+01
     3.843E+01    3.859E+01    3.875E+01    3.891E+01    3.907E+01    3.923E+01    3.939E+01    3.954E+01    3.970E+01    3.985E+01
     4.001E+01    4.016E+01    4.031E+01    4.046E+01    4.060E+01    4.075E+01    4.089E+01    4.102E+01    4.116E+01    4.128E+01
     4.141E+01    4.153E+01    4.165E+01    4.176E+01    4.186E+01    4.196E+01    4.206E+01    4.215E+01    4.223E+01    4.231E+01
     4.238E+01    4.245E+01    4.250E+01    4.255E+01    4.259E+01    4.263E+01    4.266E+01    4.268E+01    4.269E+01    4.269E+01
     4.269E+01    4.268E+01    4.266E+01    4.263E+01    4.260E+01    4.255E+01    4.250E+01    4.244E+01    4.237E+01    4.230E+01
     4.221E+01    4.212E+01    4.201E+01    4.190E+01    4.178E+01    4.165E+01    4.151E+01    4.136E+01    4.120E+01    4.104E+01
     4.086E+01    4.067E+01    4.048E+01    4.027E+01    4.005E+01    3.983E+01    3.959E+01    3.935E+01    3.909E+01    3.882E+01
     3.855E+01    3.826E+01    3.796E+01    3.765E+01    3.733E+01    3.700E+01    3.666E+01    3.631E+01    3.594E+01    3.557E+01
     3.519E+01    3.479E+01    3.439E+01    3.397E+01    3.355E+01    3.311E+01    3.267E+01    3.222E+01    3.176E+01    3.129E+01
     3.081E+01    3.032E+01    2.983E+01    2.932E+01    2.881E+01    2.829E+01    2.777E+01    2.723E+01    2.669E+01    2.615E+01
     2.559E+01    2.503E+01    2.447E+01    2.389E+01    2.331E+01    2.273E+01    2.214E+01    2.154E+01    2.094E+01    2.034E+01
     1.973E+01    1.912E+01    1.850E+01    1.787E+01    1.725E+01    1.662E+01    1.598E+01    1.534E+01    1.470E+01    1.406E+01
     1.341E+01    1.276E+01    1.211E+01    1.146E+01    1.080E+01    1.014E+01    9.480E+00    8.815E+00    8.147E+00    7.475E+00
     6.801E+00    6.122E+00    5.440E+00    4.755E+00    4.065E+00    3.371E+00    2.673E+00    1.971E+00    1.264E+00    5.525E-01
    -1.637E-01   -8.847E-01   -1.611E+00   -2.342E+00   -3.079E+00   -3.821E+00   -4.568E+00   -5.322E+00   -6.081E+00   -6.846E+00
    -7.617E+00   -8.395E+00   -9.179E+00   -9.969E+00   -1.077E+01   -1.157E+01   -1.238E+01   -1.320E+01   -1.403E+01   -1.486E+01
    -1.570E+01   -1.655E+01   -1.740E+01   -1.827E+01   -1.914E+01   -2.002E+01   -2.090E+01   -2.180E+01   -2.271E+01   -2.362E+01
    -2.454E+01   -2.546E+01   -2.639E+01   -2.733E+01   -2.826E+01   -2.920E+01   -3.014E+01   -3.108E+01   -3.202E+01   -3.296E+01
    -3.390E+01   -3.484E+01   -3.577E+01   -3.669E+01   -3.762E+01   -3.853E+01   -3.944E+01   -4.034E+01   -4.123E+01   -4.212E+01
    -4.299E+01   -4.385E+01   -4.470E+01   -4.554E+01   -4.636E+01   -4.717E+01   -4.796E+01   -4.874E+01   -4.949E+01   -5.024E+01
    -5.096E+01   -5.166E+01   -5.234E+01   -5.300E+01   -5.364E+01   -5.426E+01   -5.485E+01   -5.542E+01   -5.596E+01   -5.647E+01
    -5.696E+01   -5.742E+01   -5.785E+01   -5.825E+01   -5.862E+01   -5.897E+01   -5.928E+01   -5.957E+01   -5.984E+01   -6.007E+01
    -6.029E+01   -6.047E+01   -6.064E+01   -6.078E+01   -6.090E+01   -6.100E+01   -6.107E+01   -6.113E+01   -6.117E+01   -6.118E+01
    -6.118E+01   -6.116E+01   -6.113E+01   -6.108E+01   -6.101E+01   -6.093E+01   -6.083E+01   -6.072E+01   -6.059E+01   -6.046E+01
    -6.031E+01   -6.015E+01   -5.998E+01   -5.980E+01   -5.961E+01   -5.941E+01   -5.921E+01   -5.900E+01   -5.878E+01   -5.855E+01
    -5.832E+01   -5.809E+01   -5.785E+01   -5.761E+01   -5.736E+01   -5.712E+01   -5.687E+01   -5.662E+01
 Ala      Conc. = 4.95E+01
