 LCModel (Version 6.3-1L) Copyright: S.W. Provencher.          Ref.: Magn. Reson. Med. 30:672-679 (1993).                
 Slice#3 Row#12 Col#9  PD_24_press_1_raw_act
 36 lines in following concentration table = NCONC+1
    Conc.  %SD /Cr+PCr  Metabolite                                         
    0.000 999%   0.000 Ala                                                 
    0.000 999%   0.000 Asp                                                 
  407.084  43%   0.315 Cr                                                  
  886.493  21%   0.685 PCr                                                 
    0.000 999%   0.000 GABA                                                
    0.000 999%   0.000 Glc                                                 
  462.633  39%   0.358 Gln                                                 
 1.18E+03  17%   0.911 Glu                                                 
  414.458   4%   0.320 GPC                                                 
    0.000 999%   0.000 PCh                                                 
  317.112  16%   0.245 GSH                                                 
  628.901  29%   0.486 Ins                                                 
    0.000 999%   0.000 Lac                                                 
 1.52E+03   7%   1.175 NAA                                                 
  299.060  37%   0.231 NAAG                                                
   26.293  74% 2.0E-02 Scyllo                                              
    0.000 999%   0.000 Tau                                                 
    0.000 999%   0.000 -CrCH2                                              
  414.458   4%   0.320 GPC+PCh                                             
 1.82E+03   3%   1.406 NAA+NAAG                                            
 1.29E+03   3%   1.000 Cr+PCr                                              
 1.64E+03  19%   1.269 Glu+Gln                                             
  500.965  49%   0.387 Lip13a                                              
    0.000 999%   0.000 Lip13b                                              
  100.466 111% 7.8E-02 Lip09                                               
  733.759  21%   0.567 MM09                                                
   85.389  87% 6.6E-02 Lip20                                               
 1.40E+03  18%   1.079 MM20                                                
  268.303  40%   0.207 MM12                                                
  126.924 144% 9.8E-02 MM14                                                
  512.067  27%   0.396 MM17                                                
  500.965  49%   0.387 Lip13a+Lip13b                                       
  896.192  26%   0.693 MM14+Lip13a+Lip13b+MM12                             
  834.225  15%   0.645 MM09+Lip09                                          
 1.48E+03  17%   1.145 MM20+Lip20                                          
   6 lines in following misc. output table
  FWHM = 0.061 ppm    S/N =  11                                            
  Data shift = 0.031 ppm                                                   
  Ph:  -3 deg      -0.1 deg/ppm                                            
  alphaB,S = 1.0E+00,   1.0E+02                                            
   14 spline knots.   Ns = 8(1)                                            
  (14) 4 infls.   (15) 1 extrs.                                            
  498 points on ppm-axis = NY
      4.000000     3.992357     3.984714     3.977070     3.969427     3.961784     3.954141     3.946497     3.938854     3.931211
      3.923568     3.915925     3.908281     3.900638     3.892995     3.885352     3.877708     3.870065     3.862422     3.854779
      3.847136     3.839492     3.831849     3.824206     3.816563     3.808919     3.801276     3.793633     3.785990     3.778347
      3.770703     3.763060     3.755417     3.747774     3.740130     3.732487     3.724844     3.717201     3.709558     3.701914
      3.694271     3.686628     3.678985     3.671341     3.663698     3.656055     3.648412     3.640769     3.633125     3.625482
      3.617839     3.610196     3.602552     3.594909     3.587266     3.579623     3.571980     3.564336     3.556693     3.549050
      3.541407     3.533763     3.526120     3.518477     3.510834     3.503191     3.495547     3.487904     3.480261     3.472618
      3.464974     3.457331     3.449688     3.442045     3.434402     3.426758     3.419115     3.411472     3.403829     3.396185
      3.388542     3.380899     3.373256     3.365613     3.357969     3.350326     3.342683     3.335040     3.327396     3.319753
      3.312110     3.304467     3.296824     3.289180     3.281537     3.273894     3.266251     3.258607     3.250964     3.243321
      3.235678     3.228034     3.220391     3.212748     3.205105     3.197462     3.189818     3.182175     3.174532     3.166889
      3.159245     3.151602     3.143959     3.136316     3.128673     3.121029     3.113386     3.105743     3.098100     3.090456
      3.082813     3.075170     3.067527     3.059884     3.052240     3.044597     3.036954     3.029311     3.021667     3.014024
      3.006381     2.998738     2.991095     2.983451     2.975808     2.968165     2.960522     2.952878     2.945235     2.937592
      2.929949     2.922306     2.914662     2.907019     2.899376     2.891733     2.884089     2.876446     2.868803     2.861160
      2.853517     2.845873     2.838230     2.830587     2.822944     2.815300     2.807657     2.800014     2.792371     2.784728
      2.777084     2.769441     2.761798     2.754155     2.746511     2.738868     2.731225     2.723582     2.715939     2.708295
      2.700652     2.693009     2.685366     2.677722     2.670079     2.662436     2.654793     2.647150     2.639506     2.631863
      2.624220     2.616577     2.608933     2.601290     2.593647     2.586004     2.578361     2.570717     2.563074     2.555431
      2.547788     2.540144     2.532501     2.524858     2.517215     2.509572     2.501928     2.494285     2.486642     2.478999
      2.471355     2.463712     2.456069     2.448426     2.440783     2.433139     2.425496     2.417853     2.410210     2.402566
      2.394923     2.387280     2.379637     2.371994     2.364350     2.356707     2.349064     2.341421     2.333777     2.326134
      2.318491     2.310848     2.303205     2.295561     2.287918     2.280275     2.272632     2.264988     2.257345     2.249702
      2.242059     2.234416     2.226772     2.219129     2.211486     2.203843     2.196199     2.188556     2.180913     2.173270
      2.165627     2.157983     2.150340     2.142697     2.135054     2.127410     2.119767     2.112124     2.104481     2.096838
      2.089194     2.081551     2.073908     2.066265     2.058621     2.050978     2.043335     2.035692     2.028049     2.020405
      2.012762     2.005119     1.997476     1.989833     1.982190     1.974546     1.966903     1.959260     1.951617     1.943974
      1.936331     1.928688     1.921045     1.913402     1.905759     1.898115     1.890472     1.882829     1.875186     1.867543
      1.859900     1.852257     1.844614     1.836971     1.829327     1.821684     1.814041     1.806398     1.798755     1.791112
      1.783469     1.775826     1.768183     1.760540     1.752896     1.745253     1.737610     1.729967     1.722324     1.714681
      1.707038     1.699395     1.691752     1.684108     1.676465     1.668822     1.661179     1.653536     1.645893     1.638250
      1.630607     1.622964     1.615321     1.607677     1.600034     1.592391     1.584748     1.577105     1.569462     1.561819
      1.554176     1.546533     1.538890     1.531246     1.523603     1.515960     1.508317     1.500674     1.493031     1.485388
      1.477745     1.470102     1.462458     1.454815     1.447172     1.439529     1.431886     1.424243     1.416600     1.408957
      1.401314     1.393671     1.386027     1.378384     1.370741     1.363098     1.355455     1.347812     1.340169     1.332526
      1.324883     1.317240     1.309596     1.301953     1.294310     1.286667     1.279024     1.271381     1.263738     1.256095
      1.248452     1.240808     1.233165     1.225522     1.217879     1.210236     1.202593     1.194950     1.187307     1.179664
      1.172021     1.164377     1.156734     1.149091     1.141448     1.133805     1.126162     1.118519     1.110876     1.103233
      1.095590     1.087946     1.080303     1.072660     1.065017     1.057374     1.049731     1.042088     1.034445     1.026802
      1.019158     1.011515     1.003872     0.996229     0.988586     0.980943     0.973300     0.965657     0.958014     0.950371
      0.942727     0.935084     0.927441     0.919798     0.912155     0.904512     0.896869     0.889226     0.881583     0.873940
      0.866296     0.858653     0.851010     0.843367     0.835724     0.828081     0.820438     0.812795     0.805152     0.797508
      0.789865     0.782222     0.774579     0.766936     0.759293     0.751650     0.744007     0.736364     0.728721     0.721077
      0.713434     0.705791     0.698148     0.690505     0.682862     0.675219     0.667576     0.659933     0.652290     0.644646
      0.637003     0.629360     0.621717     0.614074     0.606431     0.598788     0.591145     0.583502     0.575858     0.568215
      0.560572     0.552929     0.545286     0.537643     0.530000     0.522357     0.514714     0.507071     0.499427     0.491784
      0.484141     0.476498     0.468855     0.461212     0.453569     0.445925     0.438282     0.430639     0.422996     0.415353
      0.407710     0.400067     0.392424     0.384780     0.377137     0.369494     0.361851     0.354208     0.346565     0.338922
      0.331278     0.323635     0.315992     0.308349     0.300706     0.293063     0.285420     0.277777     0.270133     0.262490
      0.254847     0.247204     0.239561     0.231918     0.224275     0.216631     0.208988     0.201345
 NY phased data points follow
   1.12991E+01  1.74534E+01  9.74419E+00  1.79012E+01  1.76441E+01  2.10356E+01  2.57217E+01  3.53246E+01  3.34546E+01  3.79600E+01
   4.11265E+01  4.04939E+01  4.24080E+01  3.77287E+01  3.82705E+01  2.79378E+01  2.84833E+01  2.09705E+01  2.17459E+01  1.76695E+01
   1.92111E+01  1.60729E+01  1.69188E+01  1.70126E+01  1.21727E+01  1.73795E+01  1.34263E+01  1.87393E+01  1.32333E+01  2.11056E+01
   1.62796E+01  1.90118E+01  1.68521E+01  1.63448E+01  1.66349E+01  1.74604E+01  1.81431E+01  1.39974E+01  1.54552E+01  1.01146E+01
   1.41541E+01  1.39795E+01  1.23653E+01  1.26998E+01  1.27277E+01  1.44028E+01  1.81328E+01  1.83859E+01  1.82373E+01  1.93213E+01
   1.14253E+01  1.28891E+01  1.46813E+01  1.22376E+01  1.33728E+01  1.17030E+01  1.30396E+01  1.26523E+01  1.23307E+01  7.50547E+00
   9.79041E+00  7.07329E+00  8.13838E+00  5.03967E+00  5.24380E+00  5.84705E+00  5.71542E+00  4.10776E+00  3.00193E+00  3.04077E+00
   3.06933E+00  5.86726E+00  5.45292E+00  3.81646E+00  3.75924E+00  6.11482E+00  3.65191E+00  3.95590E+00  5.59449E+00  7.49339E+00
   5.20624E+00  6.18947E-01  6.76330E+00  3.54301E+00  7.03067E+00  2.88692E+00  7.79583E+00  5.96490E+00  5.65083E+00  2.48502E+00
   6.21234E+00  7.80358E+00  4.98610E+00  6.66697E+00  3.20240E+00  3.38879E-01  5.99618E+00  5.42365E+00  9.48760E+00  1.80444E+01
   2.21084E+01  3.22544E+01  3.93283E+01  3.52855E+01  3.85319E+01  3.57159E+01  3.48453E+01  2.43661E+01  2.33001E+01  1.46220E+01
   1.19104E+01  9.59712E+00  7.74795E+00  4.31572E+00  5.81300E+00  2.26933E+00  4.14443E+00  3.15425E+00 -3.08042E-01  2.73658E+00
  -6.48756E-01  1.76357E+00  6.07774E+00  1.44947E+01  2.11127E+01  2.89958E+01  3.75457E+01  3.65826E+01  3.91699E+01  3.85193E+01
   3.51235E+01  2.81051E+01  2.35493E+01  2.02298E+01  1.61256E+01  1.22060E+01  8.32264E+00  6.82953E+00  8.29242E+00  6.53813E+00
   2.93012E+00  4.74287E+00  5.76090E-01  1.48294E+00 -4.54045E-01 -6.26585E-01  1.46383E+00  2.30970E+00  4.29843E+00 -9.47067E-01
   4.91781E+00  1.88482E+00  3.61666E+00 -1.86213E+00  4.88314E-02  1.02694E+00  1.51202E-01 -1.96680E+00 -5.27734E-01  4.12206E+00
  -1.44788E+00  2.91329E-01  1.35533E+00  2.39571E+00 -7.65522E-01 -3.20856E+00 -4.82044E-01 -1.51324E+00 -4.58402E-01 -5.50140E+00
   1.91293E+00 -8.43214E-01 -5.64888E+00 -8.25755E+00 -4.12811E+00 -5.52326E+00 -4.78468E+00 -4.78741E+00 -6.38675E+00 -4.98861E+00
  -6.14996E+00 -5.59484E+00 -8.12843E+00 -5.19191E+00 -5.10473E+00 -7.31054E+00 -6.73631E+00 -7.30876E+00 -1.26591E-01 -7.20184E-01
   1.56501E+00  2.59077E+00  3.06270E+00  3.60431E+00  3.73937E+00  5.85842E+00  5.25043E+00  7.88858E-01  3.67632E+00  1.36186E+00
   2.09405E+00  3.09141E+00  3.03290E+00  3.34428E+00  3.15687E+00  2.75361E+00  4.72625E-01 -9.90093E-03 -8.67589E-01 -2.22873E+00
   2.43125E+00 -2.41894E+00  2.18392E+00  1.11076E+00  6.16449E+00  1.37633E+00  1.04717E+01  2.21710E+00  3.88619E+00  1.62584E+00
   1.12759E+00 -2.86542E+00  4.39096E-01 -7.70852E-02 -9.67888E-01  2.12039E+00  5.68501E+00  8.25628E+00  3.77538E+00  4.29214E+00
   5.03229E+00  4.30307E+00  5.59358E+00  5.40858E+00  6.16252E+00  2.25289E+00  9.28231E+00  5.06922E+00  4.92152E+00  1.47032E+00
   6.62117E-01  1.14556E+00  2.38731E+00  3.37538E+00  1.39158E-01  6.70695E-01  6.21747E+00  6.25154E+00  5.55705E+00  3.11107E+00
   5.99647E+00  6.76476E+00  7.83256E+00  1.36463E+01  1.08616E+01  2.04735E+01  2.88567E+01  3.67273E+01  4.66986E+01  5.03821E+01
   5.45625E+01  5.35706E+01  4.99046E+01  4.53073E+01  3.77409E+01  2.54147E+01  2.17466E+01  1.34942E+01  1.21997E+01  9.42834E+00
   9.74331E+00  5.61863E+00  3.98738E+00  2.55917E+00  3.46145E+00  2.43461E+00  6.90966E+00  5.29357E+00  6.28844E+00  2.11475E+00
   1.24959E+00  5.23493E+00  3.42674E+00  1.87115E+00 -6.71799E-01 -7.51124E-01  1.50479E+00 -1.10595E+00  1.35606E+00  1.23615E+00
  -1.93827E-01  5.46110E-01  1.37893E+00  1.59346E-01  1.15739E+00  1.56954E+00  2.68649E+00  1.29655E+00  1.95732E+00 -2.13225E-01
   1.63884E+00  3.22572E+00  4.73782E+00  6.35041E+00  3.83527E+00  2.59959E+00  3.93749E+00  3.60432E+00  3.06677E+00  1.99136E+00
   3.97694E+00  1.07786E+00  5.36444E+00  4.46925E+00  1.45868E+00  4.24530E+00  5.23826E+00  2.73857E+00  3.21936E+00  2.74586E+00
   2.77458E+00  1.81319E-02  1.44859E+00  2.89375E+00  4.12951E+00 -7.46586E-01  3.97340E+00 -2.22983E+00 -1.14233E+00  1.50530E+00
   1.76864E+00  1.42890E+00  1.95134E+00  2.78458E+00  1.47208E+00  3.18524E+00  2.69489E+00  2.07389E+00  7.97352E-01  2.46137E-01
   3.01555E+00  7.24937E-01  2.40541E+00  1.72844E+00 -2.35074E+00  3.00423E+00  8.79267E-01  3.21726E+00  3.31916E+00 -1.49580E+00
   1.81741E-01  4.26646E+00  4.89018E+00  2.17952E+00  3.58722E+00  5.96060E+00  1.42150E+00  1.77260E-01  4.95515E+00  3.47116E+00
   5.11798E+00  1.09336E+00  2.97299E+00  2.55941E+00  5.01434E+00  5.78906E+00  5.46100E-01  3.70568E+00  4.28586E+00  4.42070E+00
   3.93548E+00  4.49618E+00  4.99072E+00  5.48156E+00 -4.43539E-01  2.38508E+00  5.39531E+00 -8.22049E-01  2.87035E+00 -1.00282E+00
   2.96504E+00  2.50628E+00  4.08466E+00  3.42182E+00  3.47777E+00  1.28778E+00  3.64525E+00  2.18865E+00  2.46875E+00  1.30297E+00
   4.21883E+00  1.36675E+00  2.30232E+00  1.54517E+00  7.09663E-01  4.43709E+00  4.74638E+00  4.59879E+00  6.34633E+00  5.30302E+00
   1.84036E+00  3.92137E+00  3.34852E+00  4.68654E+00  8.36518E+00  6.86071E+00  6.52887E+00  6.25174E+00  5.55557E+00  6.11671E+00
   6.01556E+00  1.07469E+01  6.22574E+00  8.23649E+00  2.07843E+00  4.42522E+00  3.29463E+00  4.56030E+00  3.33630E+00  3.43801E+00
   5.73658E+00  2.89580E+00  4.21398E+00  2.79950E+00  1.30951E+00  3.17405E+00  3.14755E+00  2.70528E+00 -6.40335E-02  3.58292E+00
  -8.07584E-01  3.22605E+00  4.23970E-01  2.11886E+00  2.48491E+00  3.29183E-01  2.08258E-01  3.48495E+00  2.14612E+00  1.06315E+00
   1.55190E+00  2.00752E-01  3.69042E+00 -5.91660E-01 -5.45610E-01 -6.26290E-01  1.30939E+00 -2.53200E+00  3.38272E+00  1.24520E+00
   1.35820E+00  2.26577E-01 -2.71763E-01  1.88116E+00  2.23683E+00  3.28185E+00  3.94382E+00  1.45302E-01 -1.46324E+00  2.54837E+00
  -1.88571E+00  1.68731E+00  5.85153E-01  1.23770E+00  9.59863E-01 -2.56472E+00  1.38527E+00  1.42367E+00  2.35167E+00 -8.36937E-01
   1.02784E+00  1.04343E+00  1.31940E+00  2.94905E+00 -1.47836E-01  3.84399E+00  2.72512E+00  4.79521E-01 -1.34446E+00 -1.89386E+00
   9.51718E-01  8.05609E-01  2.97301E-01 -1.51756E+00  1.12287E+00  1.81511E-02 -2.74045E-01  5.73759E-01  2.35090E+00  1.52783E+00
   1.12106E+00 -9.87359E-01  5.76512E-01  1.05343E+00  6.35998E-01  1.77571E-01 -6.76245E-02  1.90362E+00
 NY points of the fit to the data follow
   1.49049E+01  1.46008E+01  1.43289E+01  1.46816E+01  1.62845E+01  1.95187E+01  2.41195E+01  2.92716E+01  3.39406E+01  3.73088E+01
   3.90950E+01  3.93474E+01  3.81253E+01  3.55305E+01  3.20234E+01  2.83109E+01  2.49754E+01  2.21878E+01  1.96999E+01  1.73964E+01
   1.58027E+01  1.47441E+01  1.39184E+01  1.31919E+01  1.27426E+01  1.28164E+01  1.35165E+01  1.48079E+01  1.64000E+01  1.78848E+01
   1.89974E+01  1.95511E+01  1.93745E+01  1.84937E+01  1.71554E+01  1.57164E+01  1.44539E+01  1.34867E+01  1.26726E+01  1.19651E+01
   1.16712E+01  1.18212E+01  1.23162E+01  1.30392E+01  1.38900E+01  1.46590E+01  1.51142E+01  1.51918E+01  1.49101E+01  1.43297E+01
   1.35689E+01  1.26416E+01  1.16735E+01  1.08826E+01  1.03451E+01  9.95549E+00  9.68427E+00  9.59891E+00  9.62937E+00  9.59716E+00
   9.44126E+00  9.18222E+00  8.84477E+00  8.46151E+00  8.06679E+00  7.73616E+00  7.53598E+00  7.46547E+00  7.46314E+00  7.49582E+00
   7.53817E+00  7.54898E+00  7.52607E+00  7.45787E+00  7.34269E+00  7.17925E+00  6.97759E+00  6.76809E+00  6.56439E+00  6.40343E+00
   6.32216E+00  6.30773E+00  6.32333E+00  6.29006E+00  6.15565E+00  5.91249E+00  5.60252E+00  5.29256E+00  5.01510E+00  4.78697E+00
   4.64675E+00  4.62497E+00  4.69245E+00  4.76898E+00  4.72312E+00  4.27118E+00  4.19438E+00  6.15552E+00  1.08533E+01  1.76618E+01
   2.51733E+01  3.18852E+01  3.65114E+01  3.86981E+01  3.87799E+01  3.68049E+01  3.26935E+01  2.71687E+01  2.16270E+01  1.70094E+01
   1.33932E+01  1.01803E+01  6.86055E+00  4.66527E+00  4.06416E+00  3.86325E+00  3.75675E+00  3.68978E+00  3.63429E+00  3.41482E+00
   3.19105E+00  4.45848E+00  8.40267E+00  1.49391E+01  2.28020E+01  3.04278E+01  3.63469E+01  3.98206E+01  4.10374E+01  4.01701E+01
   3.70082E+01  3.17817E+01  2.57034E+01  2.00641E+01  1.53980E+01  1.14869E+01  7.71700E+00  4.57272E+00  3.36987E+00  3.16511E+00
   3.22174E+00  3.32131E+00  3.36423E+00  3.34682E+00  3.30484E+00  3.19924E+00  3.02915E+00  2.82565E+00  2.57243E+00  2.27499E+00
   1.96675E+00  1.67369E+00  1.46703E+00  1.36180E+00  1.30820E+00  1.21684E+00  1.02857E+00  7.48382E-01  4.65109E-01  2.72450E-01
   1.88977E-01  1.58014E-01  1.18074E-01  3.97196E-02 -8.95745E-02 -2.71440E-01 -4.97325E-01 -7.66215E-01 -1.05538E+00 -1.32854E+00
  -1.61717E+00 -1.98511E+00 -2.38090E+00 -2.70194E+00 -2.91525E+00 -3.00602E+00 -3.06680E+00 -3.14379E+00 -3.17767E+00 -3.12264E+00
  -3.05707E+00 -3.08502E+00 -3.19165E+00 -3.24453E+00 -3.07344E+00 -2.59859E+00 -1.89676E+00 -1.09598E+00 -2.42106E-01  5.82179E-01
   1.30155E+00  1.72954E+00  1.76743E+00  1.48074E+00  1.04215E+00  6.19019E-01  3.46333E-01  3.00651E-01  5.51523E-01  1.12769E+00
   1.91673E+00  2.78284E+00  3.54324E+00  3.87923E+00  3.57255E+00  2.69862E+00  1.44848E+00  4.80071E-02 -1.29365E+00 -2.09460E+00
  -2.05193E+00 -1.18228E+00  2.56304E-01  1.89471E+00  3.32394E+00  4.12566E+00  4.05191E+00  3.07189E+00  1.48358E+00 -3.33298E-01
  -1.98267E+00 -2.96196E+00 -3.11663E+00 -2.65854E+00 -1.77742E+00 -6.07344E-01  7.57037E-01  1.89595E+00  2.62576E+00  3.01022E+00
   3.24223E+00  3.47575E+00  3.66143E+00  3.78269E+00  4.00461E+00  4.34209E+00  4.54807E+00  4.47863E+00  4.15202E+00  3.71901E+00
   3.30629E+00  2.98356E+00  2.82284E+00  2.86985E+00  3.07732E+00  3.36121E+00  3.63247E+00  3.87640E+00  4.08892E+00  4.52174E+00
   5.50437E+00  7.09253E+00  8.68584E+00  1.04367E+01  1.40299E+01  2.03712E+01  2.89493E+01  3.82063E+01  4.63248E+01  5.16160E+01
   5.36401E+01  5.30420E+01  5.00901E+01  4.45978E+01  3.70869E+01  2.92065E+01  2.26243E+01  1.75550E+01  1.31604E+01  8.71066E+00
   5.41237E+00  4.24634E+00  3.76746E+00  3.46725E+00  3.26067E+00  3.06835E+00  2.85514E+00  2.63793E+00  2.42297E+00  2.22846E+00
   2.06910E+00  1.93756E+00  1.81666E+00  1.70841E+00  1.62082E+00  1.55184E+00  1.49626E+00  1.45008E+00  1.42209E+00  1.42300E+00
   1.45085E+00  1.49971E+00  1.56708E+00  1.65230E+00  1.75420E+00  1.86471E+00  1.98271E+00  2.11017E+00  2.24832E+00  2.39679E+00
   2.55108E+00  2.70423E+00  2.85577E+00  3.00141E+00  3.13386E+00  3.24688E+00  3.33603E+00  3.39911E+00  3.43448E+00  3.43841E+00
   3.41139E+00  3.35584E+00  3.27383E+00  3.16891E+00  3.04495E+00  2.90619E+00  2.75725E+00  2.60271E+00  2.44690E+00  2.29382E+00
   2.14706E+00  2.00976E+00  1.88441E+00  1.77278E+00  1.67583E+00  1.59403E+00  1.52754E+00  1.47612E+00  1.43916E+00  1.41570E+00
   1.40466E+00  1.40503E+00  1.41592E+00  1.43648E+00  1.46586E+00  1.50327E+00  1.54810E+00  1.59998E+00  1.65869E+00  1.72401E+00
   1.79566E+00  1.87333E+00  1.95677E+00  2.04574E+00  2.13984E+00  2.23846E+00  2.34071E+00  2.44557E+00  2.55190E+00  2.65846E+00
   2.76378E+00  2.86617E+00  2.96383E+00  3.05499E+00  3.13800E+00  3.21130E+00  3.27338E+00  3.32285E+00  3.35859E+00  3.37983E+00
   3.38619E+00  3.37756E+00  3.35411E+00  3.31627E+00  3.26486E+00  3.20109E+00  3.12643E+00  3.04250E+00  2.95101E+00  2.85384E+00
   2.75299E+00  2.65059E+00  2.54870E+00  2.44931E+00  2.35427E+00  2.26540E+00  2.18449E+00  2.11329E+00  2.05336E+00  2.00612E+00
   1.97291E+00  1.95509E+00  1.95402E+00  1.97102E+00  2.00730E+00  2.06398E+00  2.14213E+00  2.24276E+00  2.36676E+00  2.51469E+00
   2.68671E+00  2.88250E+00  3.10122E+00  3.34145E+00  3.60101E+00  3.87681E+00  4.16487E+00  4.46038E+00  4.75785E+00  5.05117E+00
   5.33370E+00  5.59852E+00  5.83871E+00  6.04771E+00  6.21966E+00  6.34959E+00  6.43364E+00  6.46927E+00  6.45539E+00  6.39251E+00
   6.28269E+00  6.12932E+00  5.93688E+00  5.71080E+00  5.45718E+00  5.18256E+00  4.89352E+00  4.59644E+00  4.29717E+00  4.00097E+00
   3.71240E+00  3.43523E+00  3.17241E+00  2.92597E+00  2.69717E+00  2.48661E+00  2.29438E+00  2.12015E+00  1.96317E+00  1.82238E+00
   1.69657E+00  1.58446E+00  1.48483E+00  1.39646E+00  1.31811E+00  1.24862E+00  1.18693E+00  1.13211E+00  1.08341E+00  1.04009E+00
   1.00149E+00  9.66980E-01  9.36067E-01  9.08366E-01  8.83554E-01  8.61305E-01  8.41291E-01  8.23233E-01  8.06939E-01  7.92274E-01
   7.79107E-01  7.67270E-01  7.56589E-01  7.46944E-01  7.38274E-01  7.30541E-01  7.23671E-01  7.17552E-01  7.12083E-01  7.07219E-01
   7.02957E-01  6.99286E-01  6.96145E-01  6.93451E-01  6.91147E-01  6.89233E-01  6.87728E-01  6.86615E-01  6.85836E-01  6.85325E-01
   6.85067E-01  6.85086E-01  6.85403E-01  6.85989E-01  6.86785E-01  6.87750E-01  6.88894E-01  6.90252E-01  6.91829E-01  6.93583E-01
   6.95461E-01  6.97449E-01  6.99576E-01  7.01872E-01  7.04327E-01  7.06891E-01  7.09524E-01  7.12236E-01  7.15065E-01  7.18028E-01
   7.21096E-01  7.24220E-01  7.27378E-01  7.30600E-01  7.33920E-01  7.37339E-01  7.40816E-01  7.44308E-01
 NY background values follow
     1.210E+01    1.201E+01    1.192E+01    1.182E+01    1.173E+01    1.163E+01    1.154E+01    1.144E+01    1.135E+01    1.125E+01
     1.116E+01    1.107E+01    1.097E+01    1.088E+01    1.078E+01    1.069E+01    1.059E+01    1.050E+01    1.041E+01    1.031E+01
     1.022E+01    1.012E+01    1.003E+01    9.934E+00    9.840E+00    9.747E+00    9.653E+00    9.559E+00    9.465E+00    9.372E+00
     9.279E+00    9.185E+00    9.092E+00    8.999E+00    8.906E+00    8.814E+00    8.721E+00    8.629E+00    8.536E+00    8.444E+00
     8.352E+00    8.260E+00    8.169E+00    8.077E+00    7.986E+00    7.895E+00    7.804E+00    7.713E+00    7.623E+00    7.533E+00
     7.443E+00    7.353E+00    7.263E+00    7.174E+00    7.085E+00    6.996E+00    6.908E+00    6.820E+00    6.732E+00    6.644E+00
     6.557E+00    6.470E+00    6.384E+00    6.297E+00    6.212E+00    6.126E+00    6.041E+00    5.956E+00    5.872E+00    5.788E+00
     5.704E+00    5.621E+00    5.538E+00    5.455E+00    5.373E+00    5.292E+00    5.211E+00    5.130E+00    5.050E+00    4.970E+00
     4.891E+00    4.812E+00    4.734E+00    4.656E+00    4.579E+00    4.503E+00    4.426E+00    4.351E+00    4.276E+00    4.201E+00
     4.127E+00    4.054E+00    3.981E+00    3.909E+00    3.837E+00    3.766E+00    3.695E+00    3.625E+00    3.556E+00    3.487E+00
     3.419E+00    3.351E+00    3.284E+00    3.218E+00    3.152E+00    3.087E+00    3.022E+00    2.958E+00    2.895E+00    2.832E+00
     2.769E+00    2.708E+00    2.647E+00    2.586E+00    2.526E+00    2.467E+00    2.408E+00    2.350E+00    2.293E+00    2.236E+00
     2.180E+00    2.124E+00    2.069E+00    2.014E+00    1.961E+00    1.907E+00    1.855E+00    1.803E+00    1.751E+00    1.701E+00
     1.651E+00    1.601E+00    1.552E+00    1.504E+00    1.456E+00    1.409E+00    1.363E+00    1.317E+00    1.272E+00    1.228E+00
     1.184E+00    1.140E+00    1.098E+00    1.056E+00    1.014E+00    9.735E-01    9.332E-01    8.936E-01    8.545E-01    8.161E-01
     7.782E-01    7.409E-01    7.042E-01    6.680E-01    6.325E-01    5.975E-01    5.631E-01    5.292E-01    4.959E-01    4.632E-01
     4.310E-01    3.994E-01    3.683E-01    3.378E-01    3.078E-01    2.783E-01    2.494E-01    2.210E-01    1.932E-01    1.659E-01
     1.391E-01    1.128E-01    8.704E-02    6.179E-02    3.707E-02    1.285E-02   -1.087E-02   -3.408E-02   -5.679E-02   -7.901E-02
    -1.007E-01   -1.220E-01   -1.427E-01   -1.630E-01   -1.828E-01   -2.021E-01   -2.210E-01   -2.394E-01   -2.574E-01   -2.750E-01
    -2.921E-01   -3.088E-01   -3.251E-01   -3.411E-01   -3.566E-01   -3.717E-01   -3.865E-01   -4.008E-01   -4.149E-01   -4.285E-01
    -4.419E-01   -4.548E-01   -4.675E-01   -4.798E-01   -4.918E-01   -5.035E-01   -5.149E-01   -5.261E-01   -5.369E-01   -5.474E-01
    -5.577E-01   -5.677E-01   -5.775E-01   -5.870E-01   -5.963E-01   -6.053E-01   -6.142E-01   -6.228E-01   -6.312E-01   -6.394E-01
    -6.474E-01   -6.552E-01   -6.629E-01   -6.704E-01   -6.777E-01   -6.849E-01   -6.919E-01   -6.988E-01   -7.055E-01   -7.121E-01
    -7.186E-01   -7.249E-01   -7.311E-01   -7.372E-01   -7.431E-01   -7.489E-01   -7.546E-01   -7.601E-01   -7.655E-01   -7.708E-01
    -7.759E-01   -7.809E-01   -7.858E-01   -7.905E-01   -7.951E-01   -7.996E-01   -8.039E-01   -8.082E-01   -8.123E-01   -8.162E-01
    -8.200E-01   -8.238E-01   -8.273E-01   -8.308E-01   -8.341E-01   -8.373E-01   -8.404E-01   -8.434E-01   -8.462E-01   -8.489E-01
    -8.515E-01   -8.540E-01   -8.563E-01   -8.585E-01   -8.606E-01   -8.626E-01   -8.645E-01   -8.662E-01   -8.678E-01   -8.694E-01
    -8.707E-01   -8.720E-01   -8.732E-01   -8.742E-01   -8.751E-01   -8.759E-01   -8.766E-01   -8.772E-01   -8.777E-01   -8.780E-01
    -8.783E-01   -8.784E-01   -8.785E-01   -8.784E-01   -8.782E-01   -8.779E-01   -8.775E-01   -8.770E-01   -8.764E-01   -8.757E-01
    -8.749E-01   -8.740E-01   -8.730E-01   -8.719E-01   -8.707E-01   -8.694E-01   -8.680E-01   -8.665E-01   -8.649E-01   -8.632E-01
    -8.614E-01   -8.595E-01   -8.575E-01   -8.555E-01   -8.533E-01   -8.511E-01   -8.488E-01   -8.463E-01   -8.438E-01   -8.412E-01
    -8.386E-01   -8.358E-01   -8.329E-01   -8.300E-01   -8.270E-01   -8.239E-01   -8.207E-01   -8.175E-01   -8.141E-01   -8.107E-01
    -8.072E-01   -8.037E-01   -8.000E-01   -7.963E-01   -7.925E-01   -7.886E-01   -7.847E-01   -7.807E-01   -7.766E-01   -7.725E-01
    -7.682E-01   -7.640E-01   -7.596E-01   -7.552E-01   -7.507E-01   -7.462E-01   -7.415E-01   -7.369E-01   -7.321E-01   -7.273E-01
    -7.225E-01   -7.176E-01   -7.126E-01   -7.076E-01   -7.025E-01   -6.973E-01   -6.922E-01   -6.869E-01   -6.816E-01   -6.762E-01
    -6.708E-01   -6.654E-01   -6.599E-01   -6.543E-01   -6.487E-01   -6.431E-01   -6.374E-01   -6.317E-01   -6.259E-01   -6.201E-01
    -6.142E-01   -6.083E-01   -6.023E-01   -5.963E-01   -5.903E-01   -5.843E-01   -5.782E-01   -5.720E-01   -5.658E-01   -5.596E-01
    -5.534E-01   -5.471E-01   -5.407E-01   -5.344E-01   -5.280E-01   -5.215E-01   -5.151E-01   -5.086E-01   -5.020E-01   -4.955E-01
    -4.889E-01   -4.822E-01   -4.755E-01   -4.688E-01   -4.621E-01   -4.553E-01   -4.485E-01   -4.417E-01   -4.349E-01   -4.280E-01
    -4.211E-01   -4.141E-01   -4.071E-01   -4.001E-01   -3.931E-01   -3.860E-01   -3.789E-01   -3.718E-01   -3.647E-01   -3.575E-01
    -3.503E-01   -3.431E-01   -3.359E-01   -3.286E-01   -3.213E-01   -3.140E-01   -3.066E-01   -2.993E-01   -2.919E-01   -2.845E-01
    -2.771E-01   -2.696E-01   -2.621E-01   -2.546E-01   -2.471E-01   -2.396E-01   -2.321E-01   -2.245E-01   -2.169E-01   -2.093E-01
    -2.017E-01   -1.941E-01   -1.865E-01   -1.788E-01   -1.712E-01   -1.635E-01   -1.558E-01   -1.481E-01   -1.404E-01   -1.327E-01
    -1.250E-01   -1.173E-01   -1.096E-01   -1.018E-01   -9.409E-02   -8.635E-02   -7.860E-02   -7.085E-02   -6.309E-02   -5.534E-02
    -4.758E-02   -3.982E-02   -3.207E-02   -2.431E-02   -1.656E-02   -8.807E-03   -1.058E-03    6.687E-03    1.443E-02    2.216E-02
     2.989E-02    3.762E-02    4.533E-02    5.304E-02    6.075E-02    6.844E-02    7.613E-02    8.381E-02    9.148E-02    9.915E-02
     1.068E-01    1.145E-01    1.221E-01    1.298E-01    1.374E-01    1.450E-01    1.527E-01    1.603E-01    1.679E-01    1.755E-01
     1.831E-01    1.907E-01    1.983E-01    2.059E-01    2.135E-01    2.211E-01    2.287E-01    2.362E-01    2.438E-01    2.514E-01
     2.590E-01    2.665E-01    2.741E-01    2.817E-01    2.892E-01    2.968E-01    3.043E-01    3.119E-01    3.194E-01    3.270E-01
     3.345E-01    3.421E-01    3.496E-01    3.572E-01    3.647E-01    3.723E-01    3.798E-01    3.874E-01
 Cr       Conc. = 4.07E+02
