 LCModel (Version 6.3-1L) Copyright: S.W. Provencher.          Ref.: Magn. Reson. Med. 30:672-679 (1993).                
 Slice#1 Row#10 Col#11  PD_24_press_1_raw_act
 36 lines in following concentration table = NCONC+1
    Conc.  %SD /Cr+PCr  Metabolite                                         
  164.531  49%   0.278 Ala                                                 
    0.000 999%   0.000 Asp                                                 
    0.000 999%   0.000 Cr                                                  
  592.024   7%   1.000 PCr                                                 
    0.000 999%   0.000 GABA                                                
   46.044 202% 7.8E-02 Glc                                                 
  522.252  34%   0.882 Gln                                                 
  780.436  25%   1.318 Glu                                                 
  221.852   7%   0.375 GPC                                                 
    0.000 999%   0.000 PCh                                                 
  111.201  47%   0.188 GSH                                                 
  635.968  27%   1.074 Ins                                                 
  166.160  54%   0.281 Lac                                                 
 1.30E+03  11%   2.204 NAA                                                 
  577.391  23%   0.975 NAAG                                                
   91.273  21%   0.154 Scyllo                                              
  301.394  42%   0.509 Tau                                                 
  474.448  14%   0.801 -CrCH2                                              
  221.852   7%   0.375 GPC+PCh                                             
 1.88E+03   3%   3.179 NAA+NAAG                                            
  592.024   7%   1.000 Cr+PCr                                              
 1.30E+03  23%   2.200 Glu+Gln                                             
 1.55E+03  28%   2.615 Lip13a                                              
    0.000 999%   0.000 Lip13b                                              
  375.370  55%   0.634 Lip09                                               
 1.06E+03  22%   1.791 MM09                                                
  305.730  46%   0.516 Lip20                                               
 2.29E+03  12%   3.860 MM20                                                
  437.789  41%   0.739 MM12                                                
  115.651 196%   0.195 MM14                                                
  402.567  31%   0.680 MM17                                                
 1.55E+03  28%   2.615 Lip13a+Lip13b                                       
 2.10E+03  13%   3.549 MM14+Lip13a+Lip13b+MM12                             
 1.44E+03   9%   2.425 MM09+Lip09                                          
 2.59E+03  10%   4.376 MM20+Lip20                                          
   6 lines in following misc. output table
  FWHM = 0.061 ppm    S/N =  12                                            
  Data shift =-0.031 ppm                                                   
  Ph: -12 deg      -2.1 deg/ppm                                            
  alphaB,S = 8.5E+01,   9.1E+01                                            
   14 spline knots.   Ns = 8(1)                                            
   2 inflections.     1 extrema                                            
  498 points on ppm-axis = NY
      4.000000     3.992357     3.984714     3.977070     3.969427     3.961784     3.954141     3.946497     3.938854     3.931211
      3.923568     3.915925     3.908281     3.900638     3.892995     3.885352     3.877708     3.870065     3.862422     3.854779
      3.847136     3.839492     3.831849     3.824206     3.816563     3.808919     3.801276     3.793633     3.785990     3.778347
      3.770703     3.763060     3.755417     3.747774     3.740130     3.732487     3.724844     3.717201     3.709558     3.701914
      3.694271     3.686628     3.678985     3.671341     3.663698     3.656055     3.648412     3.640769     3.633125     3.625482
      3.617839     3.610196     3.602552     3.594909     3.587266     3.579623     3.571980     3.564336     3.556693     3.549050
      3.541407     3.533763     3.526120     3.518477     3.510834     3.503191     3.495547     3.487904     3.480261     3.472618
      3.464974     3.457331     3.449688     3.442045     3.434402     3.426758     3.419115     3.411472     3.403829     3.396185
      3.388542     3.380899     3.373256     3.365613     3.357969     3.350326     3.342683     3.335040     3.327396     3.319753
      3.312110     3.304467     3.296824     3.289180     3.281537     3.273894     3.266251     3.258607     3.250964     3.243321
      3.235678     3.228034     3.220391     3.212748     3.205105     3.197462     3.189818     3.182175     3.174532     3.166889
      3.159245     3.151602     3.143959     3.136316     3.128673     3.121029     3.113386     3.105743     3.098100     3.090456
      3.082813     3.075170     3.067527     3.059884     3.052240     3.044597     3.036954     3.029311     3.021667     3.014024
      3.006381     2.998738     2.991095     2.983451     2.975808     2.968165     2.960522     2.952878     2.945235     2.937592
      2.929949     2.922306     2.914662     2.907019     2.899376     2.891733     2.884089     2.876446     2.868803     2.861160
      2.853517     2.845873     2.838230     2.830587     2.822944     2.815300     2.807657     2.800014     2.792371     2.784728
      2.777084     2.769441     2.761798     2.754155     2.746511     2.738868     2.731225     2.723582     2.715939     2.708295
      2.700652     2.693009     2.685366     2.677722     2.670079     2.662436     2.654793     2.647150     2.639506     2.631863
      2.624220     2.616577     2.608933     2.601290     2.593647     2.586004     2.578361     2.570717     2.563074     2.555431
      2.547788     2.540144     2.532501     2.524858     2.517215     2.509572     2.501928     2.494285     2.486642     2.478999
      2.471355     2.463712     2.456069     2.448426     2.440783     2.433139     2.425496     2.417853     2.410210     2.402566
      2.394923     2.387280     2.379637     2.371994     2.364350     2.356707     2.349064     2.341421     2.333777     2.326134
      2.318491     2.310848     2.303205     2.295561     2.287918     2.280275     2.272632     2.264988     2.257345     2.249702
      2.242059     2.234416     2.226772     2.219129     2.211486     2.203843     2.196199     2.188556     2.180913     2.173270
      2.165627     2.157983     2.150340     2.142697     2.135054     2.127410     2.119767     2.112124     2.104481     2.096838
      2.089194     2.081551     2.073908     2.066265     2.058621     2.050978     2.043335     2.035692     2.028049     2.020405
      2.012762     2.005119     1.997476     1.989833     1.982190     1.974546     1.966903     1.959260     1.951617     1.943974
      1.936331     1.928688     1.921045     1.913402     1.905759     1.898115     1.890472     1.882829     1.875186     1.867543
      1.859900     1.852257     1.844614     1.836971     1.829327     1.821684     1.814041     1.806398     1.798755     1.791112
      1.783469     1.775826     1.768183     1.760540     1.752896     1.745253     1.737610     1.729967     1.722324     1.714681
      1.707038     1.699395     1.691752     1.684108     1.676465     1.668822     1.661179     1.653536     1.645893     1.638250
      1.630607     1.622964     1.615321     1.607677     1.600034     1.592391     1.584748     1.577105     1.569462     1.561819
      1.554176     1.546533     1.538890     1.531246     1.523603     1.515960     1.508317     1.500674     1.493031     1.485388
      1.477745     1.470102     1.462458     1.454815     1.447172     1.439529     1.431886     1.424243     1.416600     1.408957
      1.401314     1.393671     1.386027     1.378384     1.370741     1.363098     1.355455     1.347812     1.340169     1.332526
      1.324883     1.317240     1.309596     1.301953     1.294310     1.286667     1.279024     1.271381     1.263738     1.256095
      1.248452     1.240808     1.233165     1.225522     1.217879     1.210236     1.202593     1.194950     1.187307     1.179664
      1.172021     1.164377     1.156734     1.149091     1.141448     1.133805     1.126162     1.118519     1.110876     1.103233
      1.095590     1.087946     1.080303     1.072660     1.065017     1.057374     1.049731     1.042088     1.034445     1.026802
      1.019158     1.011515     1.003872     0.996229     0.988586     0.980943     0.973300     0.965657     0.958014     0.950371
      0.942727     0.935084     0.927441     0.919798     0.912155     0.904512     0.896869     0.889226     0.881583     0.873940
      0.866296     0.858653     0.851010     0.843367     0.835724     0.828081     0.820438     0.812795     0.805152     0.797508
      0.789865     0.782222     0.774579     0.766936     0.759293     0.751650     0.744007     0.736364     0.728721     0.721077
      0.713434     0.705791     0.698148     0.690505     0.682862     0.675219     0.667576     0.659933     0.652290     0.644646
      0.637003     0.629360     0.621717     0.614074     0.606431     0.598788     0.591145     0.583502     0.575858     0.568215
      0.560572     0.552929     0.545286     0.537643     0.530000     0.522357     0.514714     0.507071     0.499427     0.491784
      0.484141     0.476498     0.468855     0.461212     0.453569     0.445925     0.438282     0.430639     0.422996     0.415353
      0.407710     0.400067     0.392424     0.384780     0.377137     0.369494     0.361851     0.354208     0.346565     0.338922
      0.331278     0.323635     0.315992     0.308349     0.300706     0.293063     0.285420     0.277777     0.270133     0.262490
      0.254847     0.247204     0.239561     0.231918     0.224275     0.216631     0.208988     0.201345
 NY phased data points follow
  -2.57862E+00  2.31759E+00 -1.39438E+00 -2.25354E-01  1.60389E+00  7.15482E-01  2.91567E+00  1.71985E+00  2.24589E+00  2.18415E+00
   2.36523E+00  4.40739E+00  1.53605E+00  3.71722E+00  3.60300E+00  3.08849E+00  2.08867E+00  7.18958E-01  2.85866E+00  1.58592E+00
   1.52977E+00  3.07250E+00  4.81050E+00  2.89903E+00  1.43759E-01  7.43199E-01  2.55810E+00  1.60666E+00  2.44244E+00  1.74311E+00
   2.05944E+00  4.60613E+00  2.72358E+00  1.08214E+00  1.12899E+00  2.96604E+00  2.80924E+00  2.40652E+00  2.47613E+00  2.67273E+00
   4.02111E+00  1.98254E+00  5.30112E+00  1.86121E+00  3.59163E+00  4.76925E+00  5.75031E+00  5.36059E+00  5.38411E+00  5.87676E+00
   7.65691E+00  2.32076E+00  3.59869E+00  1.39814E+00  4.88039E+00  2.15026E+00  2.81164E+00  2.63841E+00  3.13820E+00  3.10763E+00
   1.98987E+00  4.33770E+00 -1.80579E+00  2.07420E+00  1.99958E+00 -1.19951E+00  8.28513E-01  4.71688E-02  4.53454E+00  2.28115E+00
   1.27061E+00  6.59615E-01  4.11829E+00  4.65667E+00  2.71610E-02  1.13877E+00  3.17382E+00  2.38196E+00  1.00414E+00  1.62832E+00
   9.95286E-01  1.96074E+00  9.95767E-01  3.16301E+00  4.44742E+00  3.37127E+00  2.65168E+00  7.09690E+00  5.45751E+00  2.68961E+00
   4.73869E+00  6.01344E+00  3.76685E+00  5.26716E+00  3.98924E+00  3.80367E+00  7.22621E+00  4.05634E+00  4.12509E+00  6.11575E+00
   6.75161E+00  9.56107E+00  1.33498E+01  2.09132E+01  2.01393E+01  1.96211E+01  2.02106E+01  1.65928E+01  1.22619E+01  9.00062E+00
   4.43202E+00  4.76887E+00  7.50394E+00  3.98274E+00  4.38268E+00  3.33347E+00  6.74542E+00  4.34871E+00  2.88491E+00  1.66969E+00
   1.47669E-01 -1.04847E-01  9.87862E-01  2.49481E+00  9.87691E+00  8.65990E+00  1.75006E+01  1.81020E+01  2.06569E+01  1.90482E+01
   1.88615E+01  1.99412E+01  1.24319E+01  8.94701E+00  6.99287E+00  6.48916E+00  3.91828E+00  4.88809E+00  3.50586E+00  3.31522E+00
   4.19209E+00  3.66783E+00  5.33475E+00  2.34095E+00  1.48883E+00  3.66958E-01  9.79715E-01  2.08398E+00  2.94835E+00  3.02805E+00
  -1.22874E+00  1.53890E+00  2.03765E+00  1.52516E+00  2.58221E+00 -7.44536E-02  4.04773E+00  7.81823E-02  4.88077E+00  3.08853E+00
  -1.43597E+00  7.97736E-01  1.97716E+00 -1.13055E+00  7.43187E-01 -1.61277E+00 -1.69068E+00 -3.72014E+00 -5.20941E+00 -3.52172E+00
  -3.27726E+00 -5.90746E+00 -4.80487E+00 -5.04390E+00 -7.65582E+00 -5.89011E+00 -4.22634E+00 -7.50358E+00 -8.57048E+00 -4.81712E+00
  -7.84939E+00 -6.33787E+00 -3.22593E+00 -3.81106E+00  8.30494E-01 -3.23483E+00 -8.46060E-01 -3.30837E+00  1.39837E+00 -4.52998E+00
  -2.71777E+00  3.23281E-01 -3.13685E+00 -2.97755E+00 -4.32865E-01 -6.22720E+00 -2.84846E+00 -4.52077E+00 -5.58822E+00 -4.32105E+00
  -1.00551E+00 -1.16489E+00 -2.45102E+00 -1.64762E+00  4.42350E+00  7.54036E-01 -1.88842E+00 -1.73272E-01  1.94830E+00  1.94373E+00
   1.26675E+00  9.09105E-01  4.47975E+00  3.89367E-01  6.67331E+00  1.06413E+01  8.98111E+00  9.49118E+00  7.45910E+00  3.18766E+00
   4.96775E+00  3.07314E+00  5.65019E-01 -9.34680E-01  4.74134E+00  2.45512E+00  6.08095E+00  5.57923E+00  7.49051E+00  7.60001E+00
   6.99589E+00  7.58033E+00  6.06964E+00  7.34296E+00  9.47233E+00  7.39766E+00  4.10211E+00  6.57586E+00  6.91623E+00  7.40176E+00
   8.08195E+00  5.96993E+00  5.34764E+00  4.35290E+00  5.97580E+00  4.76935E+00  5.56863E+00  1.00428E+01  5.82068E+00  1.14515E+01
   1.03951E+01  1.34786E+01  1.56267E+01  1.70848E+01  2.66327E+01  3.06125E+01  3.69500E+01  4.47038E+01  5.02302E+01  5.67761E+01
   6.16361E+01  5.61181E+01  5.45839E+01  4.79290E+01  3.67534E+01  3.39488E+01  2.65954E+01  1.62072E+01  1.10968E+01  1.07494E+01
   1.06613E+01  7.18993E+00  3.91182E+00  6.75414E+00  3.74476E+00  4.24227E+00  8.07860E-01  1.50792E+00  2.90684E+00  1.71805E+00
   3.56526E+00  2.82582E+00  3.82190E+00  4.24844E+00  1.68785E+00  4.98499E+00  3.15101E+00  3.93989E+00  4.34874E+00  1.07939E+00
   2.24334E+00  1.95067E+00  2.24400E+00  1.37913E+00  3.59570E+00  6.60221E+00  3.34642E+00  1.12651E+00  4.17435E-01  1.74436E+00
   2.85786E+00  2.65514E+00  3.27367E+00  4.45039E+00  6.48527E+00  2.36630E+00  3.07024E+00  3.59764E+00  5.61970E+00  7.46895E+00
   8.07148E+00  4.08923E+00  5.84677E+00  7.72108E+00  2.97587E+00  3.62598E+00  3.02581E-01  2.02371E+00  2.37192E+00  1.89361E+00
   2.70947E+00  4.52892E+00  3.92629E+00  4.99887E+00  1.01254E+00  3.99799E+00  1.93596E+00  2.26259E-02  2.23969E+00 -2.37423E+00
   4.55614E+00 -8.58728E-01  2.16908E+00  2.44784E+00  2.87833E+00  4.83607E+00  4.67655E+00  6.47789E+00  8.82522E+00  8.10510E+00
   3.62450E+00  9.58155E+00  4.85946E+00  7.75505E+00  9.96860E+00  7.09482E+00  8.84494E+00  7.47928E+00  6.90362E+00  4.77850E+00
   5.48600E+00  6.84241E+00  5.70865E+00  7.92356E+00  6.20964E+00  5.85144E+00  6.23063E+00  6.61607E+00  7.72779E+00  6.46105E+00
   9.75176E+00  8.26632E+00  8.66510E+00  7.42847E+00  8.99909E+00  9.57621E+00  7.48307E+00  1.21715E+01  1.10422E+01  1.09937E+01
   7.75811E+00  1.09485E+01  9.74213E+00  8.76849E+00  8.40089E+00  8.25443E+00  4.45465E+00  6.24572E+00  4.69625E+00  4.83059E+00
   3.49710E+00  2.67214E+00  5.78270E+00  4.91439E+00  2.87461E+00  1.02434E+00  4.85734E+00  7.90467E+00  5.92825E+00  6.39213E+00
   4.64192E+00  6.91668E+00  7.88580E+00  5.13806E+00  8.81824E+00  9.38007E+00  8.62509E+00  1.08570E+01  9.02544E+00  1.30987E+01
   8.49564E+00  9.99453E+00  7.34655E+00  1.00571E+01  1.16167E+01  1.11352E+01  1.02281E+01  1.00914E+01  9.11655E+00  7.20898E+00
   8.69059E+00  8.88070E+00  8.50957E+00  8.37164E+00  9.15113E+00  1.08647E+01  7.08375E+00  6.39906E+00  7.67123E+00  7.13484E+00
   4.49740E+00  5.40716E+00  4.32804E+00  6.40675E+00  4.12017E+00  3.75892E+00  4.61191E+00  3.83788E+00  6.80109E+00  3.69616E+00
   3.34796E+00  4.18975E+00  5.50358E+00  5.40918E+00 -2.05075E+00  4.56151E+00  2.73835E+00  2.32311E+00  1.61846E+00  1.52796E+00
   1.88344E+00  2.54785E+00  9.05583E-01  3.77135E+00  3.86387E+00  1.24001E+00  1.28219E+00  1.90296E+00  5.35674E+00  5.86030E-01
   1.32301E+00  4.34428E+00  2.38497E+00  6.73371E-01  1.24237E+00  2.75847E+00  3.88987E+00  9.27854E-01  9.08024E-01 -2.39444E-01
   1.66975E+00 -1.86171E+00 -8.39703E-01  1.46553E+00  1.86538E+00  4.64065E+00  1.41126E+00  2.50212E+00  3.21227E+00  8.85543E-01
  -4.04436E-01  2.47744E+00  3.10767E+00 -1.78647E+00 -4.97110E-01  2.22618E-01  1.30630E+00  2.14463E+00 -2.17047E+00 -4.20730E-01
   2.13793E+00  6.88815E-01  1.57323E+00  1.63136E+00 -1.65109E+00  3.05258E-01  2.26020E+00  7.20929E-01 -2.55881E-01 -3.84010E-01
   3.33517E+00  2.48074E+00 -3.38649E+00  2.08090E+00 -1.32882E+00 -2.71426E+00  1.63131E+00 -1.86977E+00
 NY points of the fit to the data follow
   1.26687E+00  8.92348E-01  6.54053E-01  5.94715E-01  6.50481E-01  8.04659E-01  1.12138E+00  1.60333E+00  2.25869E+00  2.99627E+00
   3.59381E+00  3.90890E+00  3.97195E+00  3.83809E+00  3.56263E+00  3.19096E+00  2.78344E+00  2.42795E+00  2.23009E+00  2.05414E+00
   2.01099E+00  2.04261E+00  2.02499E+00  1.91495E+00  1.67846E+00  1.38340E+00  1.16774E+00  1.20635E+00  1.60418E+00  2.32679E+00
   3.20699E+00  4.04124E+00  4.63204E+00  4.83274E+00  4.59359E+00  4.00621E+00  3.22429E+00  2.44991E+00  1.79209E+00  1.35723E+00
   1.22586E+00  1.37527E+00  1.80363E+00  2.47322E+00  3.32882E+00  4.26250E+00  5.06825E+00  5.52533E+00  5.53194E+00  5.13493E+00
   4.48352E+00  3.69725E+00  2.87028E+00  2.12737E+00  1.60239E+00  1.33605E+00  1.29482E+00  1.47344E+00  1.80244E+00  2.12854E+00
   2.32593E+00  2.36749E+00  2.27258E+00  2.09865E+00  1.90640E+00  1.74474E+00  1.64268E+00  1.61380E+00  1.65750E+00  1.77581E+00
   1.95583E+00  2.18225E+00  2.42358E+00  2.64297E+00  2.80768E+00  2.84527E+00  2.70289E+00  2.42030E+00  2.07010E+00  1.78762E+00
   1.65025E+00  1.69526E+00  1.98642E+00  2.55488E+00  3.32234E+00  4.14970E+00  4.81646E+00  5.09319E+00  4.96317E+00  4.55036E+00
   3.94972E+00  3.22714E+00  2.46683E+00  1.77924E+00  1.30387E+00  1.14224E+00  1.36904E+00  2.11408E+00  3.40200E+00  5.40911E+00
   8.30500E+00  1.19470E+01  1.57652E+01  1.87723E+01  2.01902E+01  1.99664E+01  1.84792E+01  1.60787E+01  1.31018E+01  9.97315E+00
   7.12104E+00  4.89209E+00  3.26054E+00  2.15651E+00  1.69551E+00  1.49962E+00  1.39380E+00  1.33311E+00  1.33048E+00  1.44387E+00
   1.79550E+00  2.47736E+00  3.62445E+00  5.49439E+00  8.24410E+00  1.17215E+01  1.53900E+01  1.83133E+01  1.97458E+01  1.96324E+01
   1.83012E+01  1.60806E+01  1.32838E+01  1.02655E+01  7.44439E+00  5.19856E+00  3.53675E+00  2.41237E+00  1.97118E+00  1.83797E+00
   1.81763E+00  1.84315E+00  1.86587E+00  1.86393E+00  1.83159E+00  1.75919E+00  1.65190E+00  1.52385E+00  1.38332E+00  1.24051E+00
   1.09282E+00  9.40282E-01  7.89794E-01  6.48182E-01  5.40708E-01  4.83110E-01  4.48356E-01  3.88300E-01  2.59043E-01  5.19390E-02
  -1.74887E-01 -3.43063E-01 -4.36879E-01 -4.92759E-01 -5.78734E-01 -7.49507E-01 -9.91495E-01 -1.27310E+00 -1.58077E+00 -1.87558E+00
  -2.12260E+00 -2.35425E+00 -2.59332E+00 -2.84449E+00 -3.08663E+00 -3.23749E+00 -3.26967E+00 -3.23090E+00 -3.18985E+00 -3.17194E+00
  -3.14999E+00 -3.06633E+00 -2.89781E+00 -2.67965E+00 -2.41931E+00 -2.07577E+00 -1.61510E+00 -1.01141E+00 -3.00852E-01  3.97924E-01
   9.80351E-01  1.35402E+00  1.48866E+00  1.41010E+00  1.19330E+00  9.34937E-01  7.45471E-01  7.06096E-01  9.07315E-01  1.38045E+00
   2.04319E+00  2.75128E+00  3.35662E+00  3.69643E+00  3.60049E+00  2.96851E+00  1.84181E+00  4.51502E-01 -9.16107E-01 -1.92884E+00
  -2.34459E+00 -2.08019E+00 -1.16438E+00  2.54494E-01  1.89780E+00  3.34513E+00  4.22732E+00  4.37917E+00  3.87262E+00  2.85879E+00
   1.55456E+00  3.85837E-01 -2.72348E-01 -2.71749E-01  3.21442E-01  1.29794E+00  2.50172E+00  3.68204E+00  4.63072E+00  5.24462E+00
   5.52884E+00  5.60114E+00  5.57737E+00  5.55537E+00  5.65121E+00  5.93569E+00  6.36624E+00  6.84511E+00  7.22740E+00  7.41395E+00
   7.39235E+00  7.21138E+00  7.00764E+00  6.92237E+00  7.00776E+00  7.24406E+00  7.60227E+00  8.10460E+00  8.80910E+00  9.77595E+00
   1.10727E+01  1.29720E+01  1.58661E+01  1.99681E+01  2.51470E+01  3.10449E+01  3.73785E+01  4.40220E+01  5.07198E+01  5.63499E+01
   5.90906E+01  5.80195E+01  5.37432E+01  4.74531E+01  4.00137E+01  3.20328E+01  2.45267E+01  1.82774E+01  1.35635E+01  1.00477E+01
   7.84836E+00  6.92024E+00  6.40603E+00  6.02327E+00  5.69034E+00  5.35479E+00  4.99808E+00  4.64035E+00  4.29418E+00  3.97501E+00
   3.70111E+00  3.48675E+00  3.33140E+00  3.21830E+00  3.12746E+00  3.04668E+00  2.96909E+00  2.88770E+00  2.81029E+00  2.75437E+00
   2.73551E+00  2.75978E+00  2.82080E+00  2.90890E+00  3.01629E+00  3.12867E+00  3.23809E+00  3.34019E+00  3.43571E+00  3.53258E+00
   3.63549E+00  3.74076E+00  3.84805E+00  3.95310E+00  4.04825E+00  4.12661E+00  4.18166E+00  4.21014E+00  4.21226E+00  4.18731E+00
   4.13824E+00  4.07030E+00  3.98743E+00  3.89479E+00  3.79755E+00  3.70164E+00  3.61339E+00  3.54086E+00  3.49561E+00  3.49255E+00
   3.53613E+00  3.62865E+00  3.77539E+00  3.95525E+00  4.10311E+00  4.12827E+00  3.93635E+00  3.51396E+00  2.95318E+00  2.36912E+00
   1.86436E+00  1.54879E+00  1.52323E+00  1.85167E+00  2.49754E+00  3.29600E+00  4.08790E+00  4.82159E+00  5.42555E+00  5.88709E+00
   6.23458E+00  6.50367E+00  6.76214E+00  7.06057E+00  7.35653E+00  7.61287E+00  7.73400E+00  7.62270E+00  7.30302E+00  6.88224E+00
   6.47612E+00  6.19721E+00  6.14904E+00  6.40512E+00  6.95728E+00  7.67315E+00  8.37219E+00  8.97180E+00  9.42710E+00  9.67443E+00
   9.72377E+00  9.61009E+00  9.39342E+00  9.13494E+00  8.84386E+00  8.55720E+00  8.30223E+00  8.05631E+00  7.80937E+00  7.55957E+00
   7.30775E+00  7.05647E+00  6.80867E+00  6.56794E+00  6.33769E+00  6.12161E+00  5.92298E+00  5.74517E+00  5.59107E+00  5.46358E+00
   5.36511E+00  5.29805E+00  5.26430E+00  5.26570E+00  5.30356E+00  5.37909E+00  5.49286E+00  5.64521E+00  5.83567E+00  6.06333E+00
   6.32630E+00  6.62203E+00  6.94678E+00  7.29605E+00  7.66406E+00  8.04427E+00  8.42899E+00  8.81005E+00  9.17849E+00  9.52531E+00
   9.84133E+00  1.01180E+01  1.03473E+01  1.05226E+01  1.06382E+01  1.06905E+01  1.06772E+01  1.05984E+01  1.04556E+01  1.02523E+01
   9.99345E+00  9.68538E+00  9.33522E+00  8.95101E+00  8.54082E+00  8.11298E+00  7.67520E+00  7.23491E+00  6.79851E+00  6.37177E+00
   5.95924E+00  5.56473E+00  5.19083E+00  4.83950E+00  4.51165E+00  4.20775E+00  3.92746E+00  3.67021E+00  3.43486E+00  3.22027E+00
   3.02492E+00  2.84746E+00  2.68625E+00  2.53995E+00  2.40702E+00  2.28625E+00  2.17631E+00  2.07619E+00  1.98474E+00  1.90116E+00
   1.82450E+00  1.75417E+00  1.68939E+00  1.62970E+00  1.57448E+00  1.52338E+00  1.47590E+00  1.43180E+00  1.39065E+00  1.35230E+00
   1.31637E+00  1.28276E+00  1.25117E+00  1.22155E+00  1.19361E+00  1.16734E+00  1.14249E+00  1.11907E+00  1.09685E+00  1.07586E+00
   1.05590E+00  1.03701E+00  1.01901E+00  1.00193E+00  9.85630E-01  9.70152E-01  9.55338E-01  9.41249E-01  9.27733E-01  9.14867E-01
   9.02507E-01  8.90731E-01  8.79395E-01  8.68579E-01  8.58151E-01  8.48199E-01  8.38594E-01  8.29420E-01  8.20544E-01  8.12055E-01
   8.03833E-01  7.95970E-01  7.88347E-01  7.81050E-01  7.73957E-01  7.67164E-01  7.60557E-01  7.54233E-01  7.48074E-01  7.42170E-01
   7.36406E-01  7.30880E-01  7.25484E-01  7.20315E-01  7.15259E-01  7.10406E-01  7.05650E-01  7.01090E-01
 NY background values follow
    -6.976E-01   -6.957E-01   -6.938E-01   -6.919E-01   -6.901E-01   -6.882E-01   -6.863E-01   -6.844E-01   -6.825E-01   -6.807E-01
    -6.788E-01   -6.769E-01   -6.750E-01   -6.732E-01   -6.713E-01   -6.694E-01   -6.675E-01   -6.656E-01   -6.638E-01   -6.619E-01
    -6.600E-01   -6.581E-01   -6.562E-01   -6.544E-01   -6.525E-01   -6.506E-01   -6.487E-01   -6.469E-01   -6.450E-01   -6.431E-01
    -6.412E-01   -6.393E-01   -6.375E-01   -6.356E-01   -6.337E-01   -6.318E-01   -6.300E-01   -6.281E-01   -6.262E-01   -6.243E-01
    -6.224E-01   -6.206E-01   -6.187E-01   -6.168E-01   -6.149E-01   -6.131E-01   -6.112E-01   -6.093E-01   -6.074E-01   -6.055E-01
    -6.037E-01   -6.018E-01   -5.999E-01   -5.980E-01   -5.962E-01   -5.943E-01   -5.924E-01   -5.905E-01   -5.886E-01   -5.868E-01
    -5.849E-01   -5.830E-01   -5.811E-01   -5.793E-01   -5.774E-01   -5.755E-01   -5.736E-01   -5.717E-01   -5.699E-01   -5.680E-01
    -5.661E-01   -5.642E-01   -5.624E-01   -5.605E-01   -5.586E-01   -5.567E-01   -5.548E-01   -5.530E-01   -5.511E-01   -5.492E-01
    -5.473E-01   -5.455E-01   -5.436E-01   -5.417E-01   -5.398E-01   -5.379E-01   -5.361E-01   -5.342E-01   -5.323E-01   -5.304E-01
    -5.286E-01   -5.267E-01   -5.248E-01   -5.229E-01   -5.210E-01   -5.192E-01   -5.173E-01   -5.154E-01   -5.135E-01   -5.117E-01
    -5.098E-01   -5.079E-01   -5.060E-01   -5.042E-01   -5.023E-01   -5.004E-01   -4.985E-01   -4.966E-01   -4.948E-01   -4.929E-01
    -4.910E-01   -4.891E-01   -4.873E-01   -4.854E-01   -4.835E-01   -4.816E-01   -4.797E-01   -4.779E-01   -4.760E-01   -4.741E-01
    -4.722E-01   -4.704E-01   -4.685E-01   -4.666E-01   -4.647E-01   -4.629E-01   -4.610E-01   -4.591E-01   -4.572E-01   -4.553E-01
    -4.535E-01   -4.516E-01   -4.497E-01   -4.478E-01   -4.460E-01   -4.441E-01   -4.422E-01   -4.403E-01   -4.384E-01   -4.366E-01
    -4.347E-01   -4.328E-01   -4.309E-01   -4.291E-01   -4.272E-01   -4.253E-01   -4.234E-01   -4.216E-01   -4.197E-01   -4.178E-01
    -4.159E-01   -4.140E-01   -4.122E-01   -4.103E-01   -4.084E-01   -4.065E-01   -4.047E-01   -4.028E-01   -4.009E-01   -3.990E-01
    -3.971E-01   -3.953E-01   -3.934E-01   -3.915E-01   -3.896E-01   -3.878E-01   -3.859E-01   -3.840E-01   -3.821E-01   -3.803E-01
    -3.784E-01   -3.765E-01   -3.746E-01   -3.727E-01   -3.709E-01   -3.690E-01   -3.671E-01   -3.652E-01   -3.634E-01   -3.615E-01
    -3.596E-01   -3.577E-01   -3.558E-01   -3.540E-01   -3.521E-01   -3.502E-01   -3.483E-01   -3.464E-01   -3.446E-01   -3.427E-01
    -3.408E-01   -3.389E-01   -3.371E-01   -3.352E-01   -3.333E-01   -3.314E-01   -3.295E-01   -3.277E-01   -3.258E-01   -3.239E-01
    -3.220E-01   -3.202E-01   -3.183E-01   -3.164E-01   -3.145E-01   -3.126E-01   -3.108E-01   -3.089E-01   -3.070E-01   -3.051E-01
    -3.032E-01   -3.014E-01   -2.995E-01   -2.976E-01   -2.957E-01   -2.939E-01   -2.920E-01   -2.901E-01   -2.882E-01   -2.863E-01
    -2.845E-01   -2.826E-01   -2.807E-01   -2.788E-01   -2.769E-01   -2.751E-01   -2.732E-01   -2.713E-01   -2.694E-01   -2.676E-01
    -2.657E-01   -2.638E-01   -2.619E-01   -2.600E-01   -2.582E-01   -2.563E-01   -2.544E-01   -2.525E-01   -2.506E-01   -2.488E-01
    -2.469E-01   -2.450E-01   -2.431E-01   -2.412E-01   -2.394E-01   -2.375E-01   -2.356E-01   -2.337E-01   -2.318E-01   -2.300E-01
    -2.281E-01   -2.262E-01   -2.243E-01   -2.225E-01   -2.206E-01   -2.187E-01   -2.168E-01   -2.149E-01   -2.131E-01   -2.112E-01
    -2.093E-01   -2.074E-01   -2.055E-01   -2.037E-01   -2.018E-01   -1.999E-01   -1.980E-01   -1.961E-01   -1.943E-01   -1.924E-01
    -1.905E-01   -1.886E-01   -1.867E-01   -1.849E-01   -1.830E-01   -1.811E-01   -1.792E-01   -1.773E-01   -1.755E-01   -1.736E-01
    -1.717E-01   -1.698E-01   -1.679E-01   -1.661E-01   -1.642E-01   -1.623E-01   -1.604E-01   -1.585E-01   -1.567E-01   -1.548E-01
    -1.529E-01   -1.510E-01   -1.491E-01   -1.473E-01   -1.454E-01   -1.435E-01   -1.416E-01   -1.397E-01   -1.379E-01   -1.360E-01
    -1.341E-01   -1.322E-01   -1.303E-01   -1.285E-01   -1.266E-01   -1.247E-01   -1.228E-01   -1.209E-01   -1.191E-01   -1.172E-01
    -1.153E-01   -1.134E-01   -1.115E-01   -1.097E-01   -1.078E-01   -1.059E-01   -1.040E-01   -1.021E-01   -1.003E-01   -9.838E-02
    -9.650E-02   -9.462E-02   -9.274E-02   -9.086E-02   -8.898E-02   -8.710E-02   -8.521E-02   -8.333E-02   -8.145E-02   -7.957E-02
    -7.769E-02   -7.581E-02   -7.393E-02   -7.205E-02   -7.017E-02   -6.829E-02   -6.641E-02   -6.453E-02   -6.265E-02   -6.077E-02
    -5.889E-02   -5.701E-02   -5.513E-02   -5.324E-02   -5.136E-02   -4.948E-02   -4.760E-02   -4.572E-02   -4.384E-02   -4.196E-02
    -4.008E-02   -3.820E-02   -3.632E-02   -3.444E-02   -3.256E-02   -3.068E-02   -2.879E-02   -2.691E-02   -2.503E-02   -2.315E-02
    -2.127E-02   -1.939E-02   -1.751E-02   -1.563E-02   -1.375E-02   -1.187E-02   -9.987E-03   -8.106E-03   -6.225E-03   -4.344E-03
    -2.463E-03   -5.825E-04    1.298E-03    3.179E-03    5.060E-03    6.941E-03    8.822E-03    1.070E-02    1.258E-02    1.446E-02
     1.635E-02    1.823E-02    2.011E-02    2.199E-02    2.387E-02    2.575E-02    2.763E-02    2.951E-02    3.139E-02    3.327E-02
     3.515E-02    3.703E-02    3.892E-02    4.080E-02    4.268E-02    4.456E-02    4.644E-02    4.832E-02    5.020E-02    5.208E-02
     5.396E-02    5.584E-02    5.772E-02    5.960E-02    6.149E-02    6.337E-02    6.525E-02    6.713E-02    6.901E-02    7.089E-02
     7.277E-02    7.465E-02    7.653E-02    7.841E-02    8.029E-02    8.217E-02    8.406E-02    8.594E-02    8.782E-02    8.970E-02
     9.158E-02    9.346E-02    9.534E-02    9.722E-02    9.910E-02    1.010E-01    1.029E-01    1.047E-01    1.066E-01    1.085E-01
     1.104E-01    1.123E-01    1.141E-01    1.160E-01    1.179E-01    1.198E-01    1.217E-01    1.235E-01    1.254E-01    1.273E-01
     1.292E-01    1.311E-01    1.330E-01    1.348E-01    1.367E-01    1.386E-01    1.405E-01    1.424E-01    1.442E-01    1.461E-01
     1.480E-01    1.499E-01    1.518E-01    1.536E-01    1.555E-01    1.574E-01    1.593E-01    1.612E-01    1.630E-01    1.649E-01
     1.668E-01    1.687E-01    1.706E-01    1.724E-01    1.743E-01    1.762E-01    1.781E-01    1.800E-01    1.818E-01    1.837E-01
     1.856E-01    1.875E-01    1.894E-01    1.912E-01    1.931E-01    1.950E-01    1.969E-01    1.988E-01    2.006E-01    2.025E-01
     2.044E-01    2.063E-01    2.082E-01    2.100E-01    2.119E-01    2.138E-01    2.157E-01    2.176E-01    2.194E-01    2.213E-01
     2.232E-01    2.251E-01    2.270E-01    2.288E-01    2.307E-01    2.326E-01    2.345E-01    2.364E-01
 Ala      Conc. = 1.65E+02
