 LCModel (Version 6.3-1L) Copyright: S.W. Provencher.          Ref.: Magn. Reson. Med. 30:672-679 (1993).                
 Slice#1 Row#3 Col#6  PD_24_press_1_raw_act
 36 lines in following concentration table = NCONC+1
    Conc.  %SD /Cr+PCr  Metabolite                                         
    0.000 999%   0.000 Ala                                                 
    0.000 999%   0.000 Asp                                                 
  887.320  31%   0.821 Cr                                                  
  192.803 142%   0.179 PCr                                                 
    0.000 999%   0.000 GABA                                                
    0.000 999%   0.000 Glc                                                 
  960.745  36%   0.889 Gln                                                 
  285.424 138%   0.264 Glu                                                 
  490.966   5%   0.455 GPC                                                 
    0.000 999%   0.000 PCh                                                 
  347.753  26%   0.322 GSH                                                 
 1.51E+03  19%   1.397 Ins                                                 
    0.000 999%   0.000 Lac                                                 
 1.49E+03   9%   1.377 NAA                                                 
   83.632 183% 7.7E-02 NAAG                                                
  107.640  28%   0.100 Scyllo                                              
   37.815 489% 3.5E-02 Tau                                                 
  269.262  45%   0.249 -CrCH2                                              
  490.966   5%   0.455 GPC+PCh                                             
 1.57E+03   6%   1.455 NAA+NAAG                                            
 1.08E+03   5%   1.000 Cr+PCr                                              
 1.25E+03  51%   1.154 Glu+Gln                                             
    0.000 999%   0.000 Lip13a                                              
    0.000 999%   0.000 Lip13b                                              
    0.000 999%   0.000 Lip09                                               
 1.87E+03   9%   1.727 MM09                                                
   67.944 145% 6.3E-02 Lip20                                               
 3.90E+03   9%   3.612 MM20                                                
  826.044  16%   0.765 MM12                                                
    0.000 999%   0.000 MM14                                                
  221.187  62%   0.205 MM17                                                
    0.000 999%   0.000 Lip13a+Lip13b                                       
  826.044  16%   0.765 MM14+Lip13a+Lip13b+MM12                             
 1.87E+03   9%   1.727 MM09+Lip09                                          
 3.97E+03   8%   3.675 MM20+Lip20                                          
   6 lines in following misc. output table
  FWHM = 0.076 ppm    S/N =   9                                            
  Data shift = 0.031 ppm                                                   
  Ph: -19 deg       1.4 deg/ppm                                            
  alphaB,S = 1.1E+00,   5.0E+01                                            
   14 spline knots.   Ns =10(1)                                            
  (15) 7 infls.   (15) 3 extrs.                                            
  498 points on ppm-axis = NY
      4.000000     3.992357     3.984714     3.977070     3.969427     3.961784     3.954141     3.946497     3.938854     3.931211
      3.923568     3.915925     3.908281     3.900638     3.892995     3.885352     3.877708     3.870065     3.862422     3.854779
      3.847136     3.839492     3.831849     3.824206     3.816563     3.808919     3.801276     3.793633     3.785990     3.778347
      3.770703     3.763060     3.755417     3.747774     3.740130     3.732487     3.724844     3.717201     3.709558     3.701914
      3.694271     3.686628     3.678985     3.671341     3.663698     3.656055     3.648412     3.640769     3.633125     3.625482
      3.617839     3.610196     3.602552     3.594909     3.587266     3.579623     3.571980     3.564336     3.556693     3.549050
      3.541407     3.533763     3.526120     3.518477     3.510834     3.503191     3.495547     3.487904     3.480261     3.472618
      3.464974     3.457331     3.449688     3.442045     3.434402     3.426758     3.419115     3.411472     3.403829     3.396185
      3.388542     3.380899     3.373256     3.365613     3.357969     3.350326     3.342683     3.335040     3.327396     3.319753
      3.312110     3.304467     3.296824     3.289180     3.281537     3.273894     3.266251     3.258607     3.250964     3.243321
      3.235678     3.228034     3.220391     3.212748     3.205105     3.197462     3.189818     3.182175     3.174532     3.166889
      3.159245     3.151602     3.143959     3.136316     3.128673     3.121029     3.113386     3.105743     3.098100     3.090456
      3.082813     3.075170     3.067527     3.059884     3.052240     3.044597     3.036954     3.029311     3.021667     3.014024
      3.006381     2.998738     2.991095     2.983451     2.975808     2.968165     2.960522     2.952878     2.945235     2.937592
      2.929949     2.922306     2.914662     2.907019     2.899376     2.891733     2.884089     2.876446     2.868803     2.861160
      2.853517     2.845873     2.838230     2.830587     2.822944     2.815300     2.807657     2.800014     2.792371     2.784728
      2.777084     2.769441     2.761798     2.754155     2.746511     2.738868     2.731225     2.723582     2.715939     2.708295
      2.700652     2.693009     2.685366     2.677722     2.670079     2.662436     2.654793     2.647150     2.639506     2.631863
      2.624220     2.616577     2.608933     2.601290     2.593647     2.586004     2.578361     2.570717     2.563074     2.555431
      2.547788     2.540144     2.532501     2.524858     2.517215     2.509572     2.501928     2.494285     2.486642     2.478999
      2.471355     2.463712     2.456069     2.448426     2.440783     2.433139     2.425496     2.417853     2.410210     2.402566
      2.394923     2.387280     2.379637     2.371994     2.364350     2.356707     2.349064     2.341421     2.333777     2.326134
      2.318491     2.310848     2.303205     2.295561     2.287918     2.280275     2.272632     2.264988     2.257345     2.249702
      2.242059     2.234416     2.226772     2.219129     2.211486     2.203843     2.196199     2.188556     2.180913     2.173270
      2.165627     2.157983     2.150340     2.142697     2.135054     2.127410     2.119767     2.112124     2.104481     2.096838
      2.089194     2.081551     2.073908     2.066265     2.058621     2.050978     2.043335     2.035692     2.028049     2.020405
      2.012762     2.005119     1.997476     1.989833     1.982190     1.974546     1.966903     1.959260     1.951617     1.943974
      1.936331     1.928688     1.921045     1.913402     1.905759     1.898115     1.890472     1.882829     1.875186     1.867543
      1.859900     1.852257     1.844614     1.836971     1.829327     1.821684     1.814041     1.806398     1.798755     1.791112
      1.783469     1.775826     1.768183     1.760540     1.752896     1.745253     1.737610     1.729967     1.722324     1.714681
      1.707038     1.699395     1.691752     1.684108     1.676465     1.668822     1.661179     1.653536     1.645893     1.638250
      1.630607     1.622964     1.615321     1.607677     1.600034     1.592391     1.584748     1.577105     1.569462     1.561819
      1.554176     1.546533     1.538890     1.531246     1.523603     1.515960     1.508317     1.500674     1.493031     1.485388
      1.477745     1.470102     1.462458     1.454815     1.447172     1.439529     1.431886     1.424243     1.416600     1.408957
      1.401314     1.393671     1.386027     1.378384     1.370741     1.363098     1.355455     1.347812     1.340169     1.332526
      1.324883     1.317240     1.309596     1.301953     1.294310     1.286667     1.279024     1.271381     1.263738     1.256095
      1.248452     1.240808     1.233165     1.225522     1.217879     1.210236     1.202593     1.194950     1.187307     1.179664
      1.172021     1.164377     1.156734     1.149091     1.141448     1.133805     1.126162     1.118519     1.110876     1.103233
      1.095590     1.087946     1.080303     1.072660     1.065017     1.057374     1.049731     1.042088     1.034445     1.026802
      1.019158     1.011515     1.003872     0.996229     0.988586     0.980943     0.973300     0.965657     0.958014     0.950371
      0.942727     0.935084     0.927441     0.919798     0.912155     0.904512     0.896869     0.889226     0.881583     0.873940
      0.866296     0.858653     0.851010     0.843367     0.835724     0.828081     0.820438     0.812795     0.805152     0.797508
      0.789865     0.782222     0.774579     0.766936     0.759293     0.751650     0.744007     0.736364     0.728721     0.721077
      0.713434     0.705791     0.698148     0.690505     0.682862     0.675219     0.667576     0.659933     0.652290     0.644646
      0.637003     0.629360     0.621717     0.614074     0.606431     0.598788     0.591145     0.583502     0.575858     0.568215
      0.560572     0.552929     0.545286     0.537643     0.530000     0.522357     0.514714     0.507071     0.499427     0.491784
      0.484141     0.476498     0.468855     0.461212     0.453569     0.445925     0.438282     0.430639     0.422996     0.415353
      0.407710     0.400067     0.392424     0.384780     0.377137     0.369494     0.361851     0.354208     0.346565     0.338922
      0.331278     0.323635     0.315992     0.308349     0.300706     0.293063     0.285420     0.277777     0.270133     0.262490
      0.254847     0.247204     0.239561     0.231918     0.224275     0.216631     0.208988     0.201345
 NY phased data points follow
   1.31307E+00  3.37879E+00  4.53903E+00  8.39719E+00  6.17424E+00  9.24785E+00  7.47844E+00  1.23943E+01  1.09820E+01  1.72320E+01
   1.72215E+01  1.69394E+01  1.82767E+01  1.60088E+01  1.15878E+01  1.28449E+01  9.70417E+00  1.04410E+01  6.63389E+00  7.28373E+00
   8.64028E+00  4.82238E+00  1.58844E+00  6.96091E+00  6.69748E+00  4.92830E+00  2.06811E+00  5.43815E+00  4.67351E+00  8.96668E+00
   9.12174E+00  6.76223E+00  1.22495E+01  6.76242E+00  8.07606E+00  8.43666E+00  1.18705E+01  4.27162E+00  7.76025E+00  6.60621E+00
   6.16131E+00  1.04075E+01  9.67047E+00  1.17246E+01  1.09641E+01  9.46373E+00  1.30610E+01  1.19879E+01  7.13787E+00  1.18320E+01
   8.00996E+00  4.94775E+00  5.20493E+00  6.85378E+00  5.86928E+00  6.71136E+00  6.77596E+00  8.34723E+00  7.67688E+00  8.05314E+00
   4.28807E+00  7.26962E+00  2.37020E+00  1.40061E+00  1.96384E+00  6.29560E+00 -3.53309E-01  2.33571E+00  3.76007E+00  1.55585E+00
   2.63234E+00  3.68850E+00 -4.50986E-01  3.16705E+00  9.14214E-01  2.01858E+00  3.08863E+00  3.80508E+00  1.44777E+00 -7.58852E-01
   1.06068E+00  2.29848E+00 -1.54797E+00  5.08058E+00  1.82662E+00  6.48969E+00  3.59338E+00  7.18208E-02  4.98315E+00  2.32385E+00
   2.43171E+00  5.54753E+00  5.40669E+00  2.99153E+00  7.82562E+00  6.08771E+00  6.56525E+00  1.23535E+01  1.55055E+01  2.37887E+01
   2.71400E+01  2.82120E+01  3.07678E+01  3.07800E+01  2.84565E+01  2.51655E+01  2.16154E+01  1.93814E+01  1.51984E+01  1.28430E+01
   1.25804E+01  1.30354E+01  6.20166E+00  1.27095E+01  7.42195E+00  6.69790E+00  6.91069E+00  1.05878E+01  2.25116E+00  8.22920E+00
   9.51254E+00  6.59750E+00  1.72523E+01  2.13868E+01  2.19801E+01  2.24643E+01  2.63965E+01  3.01862E+01  2.07310E+01  2.32815E+01
   2.23674E+01  2.17300E+01  1.30823E+01  1.32687E+01  1.28771E+01  6.96868E+00  6.03324E+00  8.10355E+00  5.54670E+00  6.60844E+00
   4.69683E+00  5.27190E+00  2.08115E+00  1.68922E+00  9.96151E-01  2.33257E+00  2.80985E+00  2.98784E+00  3.31470E+00  2.17557E+00
   3.77614E-01  7.75965E-02  6.28382E-01  1.18850E+00 -3.67898E+00  2.62433E+00 -1.97305E+00  2.65403E-01 -2.10435E+00 -3.53552E-02
  -1.11981E+00  8.99108E-01  6.53446E-01  3.29320E-01 -1.40228E-01 -2.07830E+00  1.47926E+00 -2.17893E+00 -1.74191E+00 -6.17633E+00
  -2.60693E+00 -7.10838E+00 -6.71203E+00 -4.74408E+00 -5.64167E+00 -6.91068E+00 -4.48011E+00 -6.30732E+00 -6.26077E+00 -3.63496E+00
  -6.56389E+00 -2.47167E+00 -6.69891E+00 -5.48476E+00 -2.93648E+00 -6.64189E+00 -5.62636E+00 -1.87327E+00 -3.83212E+00 -8.31022E-01
  -1.83340E+00 -4.33193E+00 -3.86192E+00 -6.13474E+00  2.14657E-01 -1.35408E+00  1.40876E+00 -6.66511E-01 -1.11245E+00 -2.00229E+00
  -1.64378E+00 -5.51722E+00 -2.95048E+00  2.74784E-01 -1.76671E-01 -1.86809E+00 -4.89775E+00 -2.71150E+00 -4.00678E-01 -7.31670E-01
  -2.46166E-01  3.11623E+00 -4.01700E+00  2.59824E+00  3.04707E+00  5.47971E+00  5.22509E+00  5.73268E+00  3.40109E+00  1.49142E+00
  -3.94951E-01  3.52897E+00  9.03335E-01  2.31629E+00  3.44923E+00  6.49597E+00  6.33209E+00  1.18069E+00  4.25438E+00  4.98765E+00
   7.50297E+00  5.60019E+00  4.69942E+00  7.38831E+00  3.57935E+00  7.22135E+00  6.39096E+00  4.20327E+00  4.27139E+00  6.62280E+00
   4.15385E+00  1.65509E+00  1.03315E+01  4.64463E+00  5.13819E+00  5.93065E+00  9.71026E+00  6.30974E+00  1.11687E+01  1.29849E+01
   1.26984E+01  1.84405E+01  1.82785E+01  2.68273E+01  2.51236E+01  2.72755E+01  3.26196E+01  3.83112E+01  4.38598E+01  4.33958E+01
   4.31007E+01  4.39794E+01  3.55444E+01  3.07473E+01  2.79209E+01  2.13927E+01  2.43900E+01  1.63527E+01  1.16272E+01  9.50553E+00
   8.15824E+00  9.62188E+00  6.64662E+00  2.20208E+00  1.06937E+00  4.99148E+00  8.24483E-01  8.12145E-01  2.13345E+00 -4.79054E-02
  -6.87036E-01  1.09176E+00 -3.55717E+00 -4.29243E+00 -2.44197E+00 -3.02954E+00 -4.17457E-01  1.95409E+00 -3.66615E+00  6.22495E-01
  -2.87362E+00 -7.38658E+00 -1.66255E+00 -2.67582E+00 -8.56592E-01 -2.63635E-01 -4.18201E+00 -7.76102E-01  3.34791E-01 -1.03571E+00
  -2.57782E+00 -3.83771E+00 -5.27770E-01 -2.98220E+00 -4.00147E+00 -2.43470E+00  8.76734E-01 -3.66583E+00 -1.56801E+00 -9.13183E-02
  -3.16347E+00 -9.78071E-01 -5.19334E+00 -9.23208E-01 -5.41248E+00 -1.71780E+00 -4.69191E+00 -3.48658E+00 -1.16439E+00 -3.46751E+00
  -5.00270E+00 -1.99007E+00 -7.36073E+00 -3.55984E+00 -6.87520E+00 -5.50282E+00 -6.35906E+00 -7.90954E+00 -7.06464E+00 -6.10179E+00
  -1.05443E+01 -7.65963E+00 -9.40546E+00 -7.06065E+00 -8.31401E+00 -8.51127E+00 -1.12068E+01 -1.07179E+01 -4.51521E+00 -4.84563E+00
  -8.19556E+00 -7.79920E+00 -3.21808E+00 -7.71690E+00 -4.49924E+00 -6.59769E+00 -5.29969E+00 -4.07163E+00 -5.98368E+00 -4.85567E+00
  -4.20659E+00 -5.87326E+00 -4.84202E+00 -5.72366E+00  1.45057E-02 -1.87815E-01 -4.66355E+00  6.98620E-01 -2.24837E+00 -2.60557E+00
   1.72020E+00  2.18998E+00  2.12901E+00  5.37008E+00 -4.42701E-01  4.18038E+00  2.01008E+00  4.72787E+00  8.96058E+00  2.26777E+00
   1.43957E+00  2.96879E+00  5.02706E+00  3.18256E+00  5.96549E+00  2.39828E+00  8.59510E+00  7.00650E+00  6.67554E+00  4.88969E+00
   8.83268E+00  6.66357E+00  4.91188E+00  3.30069E+00  4.73218E+00  6.12696E+00  5.91557E+00  9.05541E+00  2.71133E+00  6.73898E+00
   5.88072E+00  4.87925E+00  3.68031E+00  6.55688E+00  7.18118E+00  1.06756E+01  8.70142E+00  6.98168E+00  1.00632E+01  6.65861E+00
   8.48972E+00  7.24127E+00  1.14558E+01  8.28699E+00  8.27210E+00  1.41073E+01  1.10979E+01  7.57524E+00  5.63817E+00  7.39808E+00
   8.15387E+00  8.36013E+00  4.62317E+00  4.41283E+00  9.53695E+00  2.51094E+00  3.15325E+00  3.43758E+00  3.44253E-02 -4.43705E-01
   9.99227E-01  2.02114E+00 -1.35524E+00  2.00248E+00  5.58217E-01 -8.43500E-01  3.23009E+00  1.49178E+00 -2.49881E+00 -1.93221E-01
  -1.97138E+00 -1.68144E-01  2.41467E+00  1.34790E+00 -1.12903E+00 -6.57572E-02  2.39020E+00 -1.94362E+00 -4.37699E+00 -2.55664E+00
   2.84481E-02  1.78013E+00 -3.71218E-02  1.72645E+00 -3.15060E+00 -3.26847E-01 -2.74872E+00 -3.55826E-01  3.29871E+00  1.72442E+00
   9.11281E-01  3.50780E+00  2.57972E+00  6.68083E+00 -1.43692E-01  1.30188E+00  2.17865E+00 -2.09745E+00  2.88744E+00  3.04191E+00
   4.09140E+00 -2.24243E+00  7.62297E-01  2.54152E+00  3.30827E+00  3.56137E+00 -4.52646E-01  1.10662E+00  3.38925E+00  1.09741E+00
   2.27221E+00 -5.04759E-01  5.01127E-01  1.68562E+00  1.24920E+00  5.07733E-02 -7.40821E-01  4.50575E+00 -6.10880E-01  4.21875E+00
   2.66523E+00  3.15568E+00  2.74906E+00  2.96392E+00  1.28810E+00 -2.52873E+00  1.52366E+00  4.60818E+00 -1.12496E+00  1.21895E+00
   2.09204E+00  3.43810E+00  6.56115E-01  6.27526E-01  4.14508E-01  4.64451E+00 -3.21436E-02 -7.36740E-01
 NY points of the fit to the data follow
   4.18512E+00  4.67034E+00  5.73729E+00  6.33606E+00  6.70200E+00  7.56689E+00  9.33537E+00  1.17174E+01  1.38110E+01  1.52949E+01
   1.63527E+01  1.67072E+01  1.60745E+01  1.49181E+01  1.37822E+01  1.26668E+01  1.15048E+01  1.02546E+01  8.75227E+00  7.44880E+00
   7.08185E+00  7.24140E+00  6.43054E+00  5.29043E+00  4.81356E+00  4.93464E+00  5.84288E+00  7.18697E+00  8.38183E+00  9.30404E+00
   9.94322E+00  9.93876E+00  9.31288E+00  8.55134E+00  7.86778E+00  7.16488E+00  6.69023E+00  6.67868E+00  6.79890E+00  6.93986E+00
   7.28578E+00  7.78802E+00  8.32595E+00  9.16238E+00  9.90534E+00  1.03231E+01  1.04658E+01  1.01505E+01  9.31548E+00  8.33284E+00
   7.49377E+00  6.81706E+00  6.33554E+00  5.88819E+00  5.40084E+00  5.22176E+00  5.56894E+00  5.78663E+00  5.33396E+00  4.73824E+00
   4.33078E+00  4.00317E+00  3.68513E+00  3.44392E+00  3.33282E+00  3.32422E+00  3.36945E+00  3.46647E+00  3.66255E+00  3.81282E+00
   3.79290E+00  3.70995E+00  3.51611E+00  3.29031E+00  3.11439E+00  2.97655E+00  2.95182E+00  3.08696E+00  3.05182E+00  2.92116E+00
   2.77786E+00  2.90270E+00  3.18125E+00  3.32985E+00  3.28640E+00  3.17007E+00  3.01999E+00  2.65982E+00  2.18643E+00  1.82837E+00
   1.62674E+00  1.54733E+00  1.88481E+00  3.70433E+00  6.08358E+00  8.01544E+00  9.64530E+00  1.16915E+01  1.57467E+01  2.14921E+01
   2.62813E+01  2.94019E+01  3.13368E+01  3.14539E+01  2.91468E+01  2.57191E+01  2.25307E+01  1.94974E+01  1.67439E+01  1.41301E+01
   1.12663E+01  8.79317E+00  8.02503E+00  7.88708E+00  5.38316E+00  2.82848E+00  2.54983E+00  4.10583E+00  6.10110E+00  7.75464E+00
   9.13678E+00  1.11747E+01  1.49968E+01  1.95953E+01  2.32019E+01  2.55647E+01  2.69402E+01  2.67803E+01  2.48221E+01  2.22459E+01
   1.99448E+01  1.76773E+01  1.54801E+01  1.32195E+01  1.06812E+01  8.52803E+00  7.79582E+00  7.42612E+00  5.26168E+00  3.48119E+00
   3.01554E+00  2.79898E+00  2.60658E+00  2.43042E+00  2.22067E+00  1.89307E+00  1.54680E+00  1.30755E+00  1.09198E+00  8.90667E-01
   6.96371E-01  4.19230E-01  1.35628E-01 -1.49863E-01 -3.86025E-01 -5.15973E-01 -6.92822E-01 -9.74226E-01 -1.25674E+00 -1.47059E+00
  -1.60073E+00 -1.68563E+00 -1.76306E+00 -1.86688E+00 -2.02191E+00 -2.25619E+00 -2.58451E+00 -2.93010E+00 -3.15598E+00 -3.32455E+00
  -3.54732E+00 -3.90983E+00 -4.25984E+00 -4.44411E+00 -4.49317E+00 -4.52298E+00 -4.70990E+00 -4.90609E+00 -4.95675E+00 -4.92354E+00
  -4.86374E+00 -4.76737E+00 -4.65017E+00 -4.48104E+00 -4.26415E+00 -4.01394E+00 -3.72492E+00 -3.20368E+00 -2.62713E+00 -2.31952E+00
  -2.20926E+00 -2.17040E+00 -2.09218E+00 -2.08310E+00 -2.14000E+00 -2.06809E+00 -1.80700E+00 -1.38276E+00 -8.64420E-01 -3.75510E-01
  -5.89462E-02  2.07349E-01  2.31389E-01 -1.02641E-01 -8.47592E-01 -1.84058E+00 -2.62814E+00 -3.02945E+00 -3.35359E+00 -3.34070E+00
  -2.76046E+00 -1.95998E+00 -1.35911E+00 -8.67614E-01 -2.72714E-01  2.05250E-01  5.11951E-01  7.31903E-01  7.70686E-01  7.35090E-01
   1.05906E+00  1.68200E+00  1.90954E+00  2.01738E+00  2.33320E+00  2.63526E+00  2.72324E+00  2.71190E+00  2.80297E+00  3.05201E+00
   3.23747E+00  3.33909E+00  3.51254E+00  3.98677E+00  4.63605E+00  5.27345E+00  5.96742E+00  6.56247E+00  6.81918E+00  6.82271E+00
   6.72240E+00  6.58909E+00  6.63080E+00  7.00889E+00  7.47941E+00  7.96273E+00  8.82350E+00  9.90432E+00  1.07664E+01  1.16520E+01
   1.37470E+01  1.73981E+01  2.02851E+01  2.25688E+01  2.45969E+01  2.82785E+01  3.40229E+01  3.91114E+01  4.19997E+01  4.34758E+01
   4.35027E+01  4.09692E+01  3.64362E+01  3.19222E+01  2.79087E+01  2.41780E+01  2.07502E+01  1.70233E+01  1.33438E+01  1.11808E+01
   1.07600E+01  8.79701E+00  4.77187E+00  2.97883E+00  2.24638E+00  1.69749E+00  1.22622E+00  8.12222E-01  4.29527E-01  8.24791E-02
  -2.34957E-01 -5.25914E-01 -7.87468E-01 -1.01831E+00 -1.22561E+00 -1.41477E+00 -1.58327E+00 -1.72498E+00 -1.83730E+00 -1.92716E+00
  -1.99891E+00 -2.05062E+00 -2.08265E+00 -2.10212E+00 -2.11441E+00 -2.11947E+00 -2.11674E+00 -2.11054E+00 -2.10361E+00 -2.09832E+00
  -2.09745E+00 -2.10210E+00 -2.11458E+00 -2.13966E+00 -2.17701E+00 -2.22565E+00 -2.28560E+00 -2.35616E+00 -2.43679E+00 -2.52510E+00
  -2.61811E+00 -2.71506E+00 -2.81410E+00 -2.91261E+00 -3.00899E+00 -3.10122E+00 -3.18805E+00 -3.26830E+00 -3.34109E+00 -3.40589E+00
  -3.46275E+00 -3.51157E+00 -3.55260E+00 -3.58608E+00 -3.61258E+00 -3.63251E+00 -3.64656E+00 -3.65512E+00 -3.65873E+00 -3.65766E+00
  -3.65243E+00 -3.64328E+00 -3.63056E+00 -3.61422E+00 -3.59441E+00 -3.57097E+00 -3.54393E+00 -3.51297E+00 -3.47785E+00 -3.43788E+00
  -3.39254E+00 -3.34089E+00 -3.28208E+00 -3.21477E+00 -3.13758E+00 -3.04862E+00 -2.94607E+00 -2.82768E+00 -2.69126E+00 -2.53425E+00
  -2.35432E+00 -2.14901E+00 -1.91649E+00 -1.65519E+00 -1.36445E+00 -1.04424E+00 -6.95875E-01 -3.21694E-01  7.43035E-02  4.86979E-01
   9.09648E-01  1.33474E+00  1.75355E+00  2.15703E+00  2.53583E+00  2.88125E+00  3.18536E+00  3.44195E+00  3.64642E+00  3.79667E+00
   3.89279E+00  3.93770E+00  3.93655E+00  3.89701E+00  3.82829E+00  3.74129E+00  3.64750E+00  3.55907E+00  3.48762E+00  3.44431E+00
   3.43879E+00  3.47937E+00  3.57228E+00  3.72196E+00  3.93044E+00  4.19774E+00  4.52139E+00  4.89706E+00  5.31818E+00  5.77662E+00
   6.26234E+00  6.76418E+00  7.26965E+00  7.76585E+00  8.23934E+00  8.67713E+00  9.06654E+00  9.39621E+00  9.65607E+00  9.83823E+00
   9.93682E+00  9.94868E+00  9.87298E+00  9.71170E+00  9.46902E+00  9.15163E+00  8.76783E+00  8.32761E+00  7.84165E+00  7.32142E+00
   6.77814E+00  6.22296E+00  5.66599E+00  5.11651E+00  4.58230E+00  4.07002E+00  3.58467E+00  3.13014E+00  2.70874E+00  2.32189E+00
   1.96971E+00  1.65179E+00  1.36680E+00  1.11323E+00  8.88930E-01  6.91798E-01  5.19396E-01  3.69574E-01  2.39991E-01  1.28682E-01
   3.35331E-02 -4.71402E-02 -1.15111E-01 -1.71695E-01 -2.18317E-01 -2.55994E-01 -2.85892E-01 -3.08783E-01 -3.25579E-01 -3.36810E-01
  -3.43197E-01 -3.45134E-01 -3.43230E-01 -3.37759E-01 -3.29198E-01 -3.17703E-01 -3.03681E-01 -2.87251E-01 -2.68778E-01 -2.48316E-01
  -2.26156E-01 -2.02300E-01 -1.77025E-01 -1.50332E-01 -1.22475E-01 -9.34052E-02 -6.33301E-02 -3.21886E-02 -2.01713E-04  3.26905E-02
   6.62905E-02  1.00695E-01  1.35730E-01  1.71484E-01  2.07763E-01  2.44658E-01  2.81999E-01  3.19911E-01  3.58230E-01  3.97058E-01
   4.36217E-01  4.75822E-01  5.15722E-01  5.56051E-01  5.96651E-01  6.37630E-01  6.78822E-01  7.20357E-01  7.62097E-01  8.04178E-01
   8.46442E-01  8.89005E-01  9.31714E-01  9.74711E-01  1.01786E+00  1.06130E+00  1.10488E+00  1.14871E+00  1.19266E+00  1.23689E+00
   1.28125E+00  1.32589E+00  1.37065E+00  1.41568E+00  1.46085E+00  1.50633E+00  1.55200E+00  1.59799E+00
 NY background values follow
     8.053E-01    7.892E-01    7.732E-01    7.572E-01    7.411E-01    7.251E-01    7.090E-01    6.930E-01    6.770E-01    6.609E-01
     6.449E-01    6.288E-01    6.128E-01    5.967E-01    5.806E-01    5.646E-01    5.485E-01    5.324E-01    5.163E-01    5.002E-01
     4.840E-01    4.679E-01    4.517E-01    4.356E-01    4.194E-01    4.032E-01    3.870E-01    3.708E-01    3.545E-01    3.383E-01
     3.220E-01    3.057E-01    2.894E-01    2.730E-01    2.567E-01    2.403E-01    2.239E-01    2.075E-01    1.910E-01    1.745E-01
     1.580E-01    1.415E-01    1.249E-01    1.083E-01    9.167E-02    7.501E-02    5.832E-02    4.160E-02    2.485E-02    8.067E-03
    -8.753E-03   -2.561E-02   -4.249E-02   -5.942E-02   -7.637E-02   -9.337E-02   -1.104E-01   -1.275E-01   -1.446E-01   -1.617E-01
    -1.789E-01   -1.961E-01   -2.134E-01   -2.307E-01   -2.480E-01   -2.654E-01   -2.828E-01   -3.003E-01   -3.178E-01   -3.354E-01
    -3.530E-01   -3.706E-01   -3.883E-01   -4.060E-01   -4.238E-01   -4.416E-01   -4.595E-01   -4.774E-01   -4.954E-01   -5.134E-01
    -5.315E-01   -5.496E-01   -5.677E-01   -5.859E-01   -6.042E-01   -6.225E-01   -6.409E-01   -6.593E-01   -6.778E-01   -6.963E-01
    -7.149E-01   -7.335E-01   -7.522E-01   -7.710E-01   -7.898E-01   -8.086E-01   -8.275E-01   -8.465E-01   -8.656E-01   -8.846E-01
    -9.038E-01   -9.230E-01   -9.423E-01   -9.616E-01   -9.810E-01   -1.000E+00   -1.020E+00   -1.040E+00   -1.059E+00   -1.079E+00
    -1.099E+00   -1.118E+00   -1.138E+00   -1.158E+00   -1.178E+00   -1.198E+00   -1.219E+00   -1.239E+00   -1.259E+00   -1.279E+00
    -1.300E+00   -1.320E+00   -1.341E+00   -1.361E+00   -1.382E+00   -1.403E+00   -1.424E+00   -1.445E+00   -1.466E+00   -1.487E+00
    -1.508E+00   -1.529E+00   -1.550E+00   -1.572E+00   -1.593E+00   -1.614E+00   -1.636E+00   -1.658E+00   -1.679E+00   -1.701E+00
    -1.723E+00   -1.745E+00   -1.767E+00   -1.789E+00   -1.811E+00   -1.833E+00   -1.855E+00   -1.878E+00   -1.900E+00   -1.922E+00
    -1.945E+00   -1.967E+00   -1.990E+00   -2.012E+00   -2.035E+00   -2.058E+00   -2.080E+00   -2.103E+00   -2.126E+00   -2.149E+00
    -2.172E+00   -2.194E+00   -2.217E+00   -2.240E+00   -2.263E+00   -2.286E+00   -2.309E+00   -2.332E+00   -2.355E+00   -2.378E+00
    -2.401E+00   -2.424E+00   -2.447E+00   -2.470E+00   -2.494E+00   -2.517E+00   -2.540E+00   -2.563E+00   -2.586E+00   -2.609E+00
    -2.632E+00   -2.655E+00   -2.678E+00   -2.701E+00   -2.724E+00   -2.747E+00   -2.770E+00   -2.793E+00   -2.816E+00   -2.839E+00
    -2.862E+00   -2.885E+00   -2.908E+00   -2.931E+00   -2.953E+00   -2.976E+00   -2.999E+00   -3.022E+00   -3.044E+00   -3.067E+00
    -3.089E+00   -3.112E+00   -3.134E+00   -3.157E+00   -3.179E+00   -3.202E+00   -3.224E+00   -3.246E+00   -3.268E+00   -3.290E+00
    -3.312E+00   -3.334E+00   -3.356E+00   -3.378E+00   -3.400E+00   -3.422E+00   -3.443E+00   -3.465E+00   -3.486E+00   -3.508E+00
    -3.529E+00   -3.550E+00   -3.571E+00   -3.592E+00   -3.613E+00   -3.634E+00   -3.655E+00   -3.676E+00   -3.696E+00   -3.717E+00
    -3.737E+00   -3.758E+00   -3.778E+00   -3.798E+00   -3.818E+00   -3.838E+00   -3.857E+00   -3.877E+00   -3.896E+00   -3.916E+00
    -3.935E+00   -3.954E+00   -3.972E+00   -3.991E+00   -4.010E+00   -4.028E+00   -4.046E+00   -4.064E+00   -4.082E+00   -4.099E+00
    -4.117E+00   -4.134E+00   -4.151E+00   -4.168E+00   -4.184E+00   -4.201E+00   -4.217E+00   -4.233E+00   -4.248E+00   -4.264E+00
    -4.279E+00   -4.294E+00   -4.309E+00   -4.323E+00   -4.338E+00   -4.352E+00   -4.366E+00   -4.379E+00   -4.392E+00   -4.405E+00
    -4.418E+00   -4.430E+00   -4.442E+00   -4.454E+00   -4.466E+00   -4.477E+00   -4.488E+00   -4.499E+00   -4.509E+00   -4.519E+00
    -4.529E+00   -4.538E+00   -4.547E+00   -4.556E+00   -4.564E+00   -4.572E+00   -4.580E+00   -4.587E+00   -4.594E+00   -4.600E+00
    -4.607E+00   -4.613E+00   -4.618E+00   -4.623E+00   -4.628E+00   -4.632E+00   -4.636E+00   -4.640E+00   -4.643E+00   -4.646E+00
    -4.648E+00   -4.650E+00   -4.651E+00   -4.652E+00   -4.653E+00   -4.653E+00   -4.653E+00   -4.652E+00   -4.651E+00   -4.650E+00
    -4.648E+00   -4.645E+00   -4.642E+00   -4.639E+00   -4.635E+00   -4.630E+00   -4.626E+00   -4.620E+00   -4.614E+00   -4.608E+00
    -4.601E+00   -4.594E+00   -4.586E+00   -4.578E+00   -4.569E+00   -4.560E+00   -4.551E+00   -4.540E+00   -4.530E+00   -4.519E+00
    -4.507E+00   -4.495E+00   -4.483E+00   -4.470E+00   -4.456E+00   -4.442E+00   -4.428E+00   -4.413E+00   -4.398E+00   -4.382E+00
    -4.366E+00   -4.349E+00   -4.332E+00   -4.314E+00   -4.296E+00   -4.278E+00   -4.259E+00   -4.240E+00   -4.220E+00   -4.199E+00
    -4.179E+00   -4.158E+00   -4.136E+00   -4.114E+00   -4.091E+00   -4.068E+00   -4.045E+00   -4.021E+00   -3.997E+00   -3.972E+00
    -3.947E+00   -3.922E+00   -3.896E+00   -3.869E+00   -3.842E+00   -3.815E+00   -3.788E+00   -3.759E+00   -3.731E+00   -3.702E+00
    -3.673E+00   -3.643E+00   -3.613E+00   -3.583E+00   -3.552E+00   -3.521E+00   -3.489E+00   -3.457E+00   -3.425E+00   -3.392E+00
    -3.359E+00   -3.326E+00   -3.293E+00   -3.259E+00   -3.224E+00   -3.190E+00   -3.155E+00   -3.120E+00   -3.084E+00   -3.048E+00
    -3.012E+00   -2.975E+00   -2.939E+00   -2.902E+00   -2.864E+00   -2.827E+00   -2.789E+00   -2.751E+00   -2.712E+00   -2.674E+00
    -2.635E+00   -2.596E+00   -2.556E+00   -2.517E+00   -2.477E+00   -2.437E+00   -2.396E+00   -2.356E+00   -2.315E+00   -2.274E+00
    -2.233E+00   -2.192E+00   -2.150E+00   -2.108E+00   -2.066E+00   -2.024E+00   -1.982E+00   -1.939E+00   -1.897E+00   -1.854E+00
    -1.811E+00   -1.768E+00   -1.724E+00   -1.681E+00   -1.637E+00   -1.593E+00   -1.549E+00   -1.505E+00   -1.461E+00   -1.417E+00
    -1.372E+00   -1.328E+00   -1.283E+00   -1.238E+00   -1.193E+00   -1.148E+00   -1.103E+00   -1.058E+00   -1.012E+00   -9.669E-01
    -9.214E-01   -8.758E-01   -8.301E-01   -7.843E-01   -7.384E-01   -6.925E-01   -6.465E-01   -6.004E-01   -5.543E-01   -5.081E-01
    -4.619E-01   -4.157E-01   -3.694E-01   -3.230E-01   -2.766E-01   -2.302E-01   -1.838E-01   -1.373E-01   -9.078E-02   -4.424E-02
     2.337E-03    4.894E-02    9.557E-02    1.422E-01    1.889E-01    2.356E-01    2.823E-01    3.290E-01    3.758E-01    4.226E-01
     4.694E-01    5.162E-01    5.630E-01    6.098E-01    6.566E-01    7.035E-01    7.503E-01    7.972E-01    8.441E-01    8.909E-01
     9.378E-01    9.847E-01    1.032E+00    1.078E+00    1.125E+00    1.172E+00    1.219E+00    1.266E+00    1.313E+00    1.359E+00
     1.406E+00    1.453E+00    1.500E+00    1.547E+00    1.593E+00    1.640E+00    1.687E+00    1.733E+00
 Cr       Conc. = 8.87E+02
