 LCModel (Version 6.3-1L) Copyright: S.W. Provencher.          Ref.: Magn. Reson. Med. 30:672-679 (1993).                
 Slice#1 Row#5 Col#2  PD_24_press_1_raw_act
 36 lines in following concentration table = NCONC+1
    Conc.  %SD /Cr+PCr  Metabolite                                         
   39.950  87%   0.479 Ala                                                 
   11.203 127%   0.134 Asp                                                 
    0.000 999%   0.000 Cr                                                  
   83.340  26%   1.000 PCr                                                 
    7.674 110% 9.2E-02 GABA                                                
    7.605 112% 9.1E-02 Glc                                                 
    0.000 999%   0.000 Gln                                                 
    0.000 999%   0.000 Glu                                                 
    0.000 999%   0.000 GPC                                                 
   33.367  24%   0.400 PCh                                                 
   56.980  47%   0.684 GSH                                                 
    0.000 999%   0.000 Ins                                                 
   33.476 113%   0.402 Lac                                                 
   59.068  38%   0.709 NAA                                                 
    0.000 999%   0.000 NAAG                                                
    4.011  69% 4.8E-02 Scyllo                                              
   16.857  83%   0.202 Tau                                                 
   46.571  58%   0.559 -CrCH2                                              
   33.367  24%   0.400 GPC+PCh                                             
   59.068  38%   0.709 NAA+NAAG                                            
   83.340  26%   1.000 Cr+PCr                                              
    0.000 999%   0.000 Glu+Gln                                             
  169.210 131%   2.030 Lip13a                                              
  266.946  35%   3.203 Lip13b                                              
   96.533  50%   1.158 Lip09                                               
    0.000 999%   0.000 MM09                                                
   65.183  50%   0.782 Lip20                                               
    0.000 999%   0.000 MM20                                                
 4.27E-04 999% 5.1E-06 MM12                                                
 1.30E-02 999% 1.6E-04 MM14                                                
    0.000 999%   0.000 MM17                                                
  436.155  36%   5.233 Lip13a+Lip13b                                       
  436.169  36%   5.234 MM14+Lip13a+Lip13b+MM12                             
   96.533  50%   1.158 MM09+Lip09                                          
   65.183  50%   0.782 MM20+Lip20                                          
   6 lines in following misc. output table
  FWHM = 0.038 ppm    S/N =   1                                            
  Data shift = 0.015 ppm                                                   
  Ph: -85 deg     -19.7 deg/ppm                                            
  alphaB,S = 1.1E+00,   2.4E+01                                            
   14 spline knots.   Ns = 5(1)                                            
   2 inflections.     1 extrema                                            
  498 points on ppm-axis = NY
      4.000000     3.992357     3.984714     3.977070     3.969427     3.961784     3.954141     3.946497     3.938854     3.931211
      3.923568     3.915925     3.908281     3.900638     3.892995     3.885352     3.877708     3.870065     3.862422     3.854779
      3.847136     3.839492     3.831849     3.824206     3.816563     3.808919     3.801276     3.793633     3.785990     3.778347
      3.770703     3.763060     3.755417     3.747774     3.740130     3.732487     3.724844     3.717201     3.709558     3.701914
      3.694271     3.686628     3.678985     3.671341     3.663698     3.656055     3.648412     3.640769     3.633125     3.625482
      3.617839     3.610196     3.602552     3.594909     3.587266     3.579623     3.571980     3.564336     3.556693     3.549050
      3.541407     3.533763     3.526120     3.518477     3.510834     3.503191     3.495547     3.487904     3.480261     3.472618
      3.464974     3.457331     3.449688     3.442045     3.434402     3.426758     3.419115     3.411472     3.403829     3.396185
      3.388542     3.380899     3.373256     3.365613     3.357969     3.350326     3.342683     3.335040     3.327396     3.319753
      3.312110     3.304467     3.296824     3.289180     3.281537     3.273894     3.266251     3.258607     3.250964     3.243321
      3.235678     3.228034     3.220391     3.212748     3.205105     3.197462     3.189818     3.182175     3.174532     3.166889
      3.159245     3.151602     3.143959     3.136316     3.128673     3.121029     3.113386     3.105743     3.098100     3.090456
      3.082813     3.075170     3.067527     3.059884     3.052240     3.044597     3.036954     3.029311     3.021667     3.014024
      3.006381     2.998738     2.991095     2.983451     2.975808     2.968165     2.960522     2.952878     2.945235     2.937592
      2.929949     2.922306     2.914662     2.907019     2.899376     2.891733     2.884089     2.876446     2.868803     2.861160
      2.853517     2.845873     2.838230     2.830587     2.822944     2.815300     2.807657     2.800014     2.792371     2.784728
      2.777084     2.769441     2.761798     2.754155     2.746511     2.738868     2.731225     2.723582     2.715939     2.708295
      2.700652     2.693009     2.685366     2.677722     2.670079     2.662436     2.654793     2.647150     2.639506     2.631863
      2.624220     2.616577     2.608933     2.601290     2.593647     2.586004     2.578361     2.570717     2.563074     2.555431
      2.547788     2.540144     2.532501     2.524858     2.517215     2.509572     2.501928     2.494285     2.486642     2.478999
      2.471355     2.463712     2.456069     2.448426     2.440783     2.433139     2.425496     2.417853     2.410210     2.402566
      2.394923     2.387280     2.379637     2.371994     2.364350     2.356707     2.349064     2.341421     2.333777     2.326134
      2.318491     2.310848     2.303205     2.295561     2.287918     2.280275     2.272632     2.264988     2.257345     2.249702
      2.242059     2.234416     2.226772     2.219129     2.211486     2.203843     2.196199     2.188556     2.180913     2.173270
      2.165627     2.157983     2.150340     2.142697     2.135054     2.127410     2.119767     2.112124     2.104481     2.096838
      2.089194     2.081551     2.073908     2.066265     2.058621     2.050978     2.043335     2.035692     2.028049     2.020405
      2.012762     2.005119     1.997476     1.989833     1.982190     1.974546     1.966903     1.959260     1.951617     1.943974
      1.936331     1.928688     1.921045     1.913402     1.905759     1.898115     1.890472     1.882829     1.875186     1.867543
      1.859900     1.852257     1.844614     1.836971     1.829327     1.821684     1.814041     1.806398     1.798755     1.791112
      1.783469     1.775826     1.768183     1.760540     1.752896     1.745253     1.737610     1.729967     1.722324     1.714681
      1.707038     1.699395     1.691752     1.684108     1.676465     1.668822     1.661179     1.653536     1.645893     1.638250
      1.630607     1.622964     1.615321     1.607677     1.600034     1.592391     1.584748     1.577105     1.569462     1.561819
      1.554176     1.546533     1.538890     1.531246     1.523603     1.515960     1.508317     1.500674     1.493031     1.485388
      1.477745     1.470102     1.462458     1.454815     1.447172     1.439529     1.431886     1.424243     1.416600     1.408957
      1.401314     1.393671     1.386027     1.378384     1.370741     1.363098     1.355455     1.347812     1.340169     1.332526
      1.324883     1.317240     1.309596     1.301953     1.294310     1.286667     1.279024     1.271381     1.263738     1.256095
      1.248452     1.240808     1.233165     1.225522     1.217879     1.210236     1.202593     1.194950     1.187307     1.179664
      1.172021     1.164377     1.156734     1.149091     1.141448     1.133805     1.126162     1.118519     1.110876     1.103233
      1.095590     1.087946     1.080303     1.072660     1.065017     1.057374     1.049731     1.042088     1.034445     1.026802
      1.019158     1.011515     1.003872     0.996229     0.988586     0.980943     0.973300     0.965657     0.958014     0.950371
      0.942727     0.935084     0.927441     0.919798     0.912155     0.904512     0.896869     0.889226     0.881583     0.873940
      0.866296     0.858653     0.851010     0.843367     0.835724     0.828081     0.820438     0.812795     0.805152     0.797508
      0.789865     0.782222     0.774579     0.766936     0.759293     0.751650     0.744007     0.736364     0.728721     0.721077
      0.713434     0.705791     0.698148     0.690505     0.682862     0.675219     0.667576     0.659933     0.652290     0.644646
      0.637003     0.629360     0.621717     0.614074     0.606431     0.598788     0.591145     0.583502     0.575858     0.568215
      0.560572     0.552929     0.545286     0.537643     0.530000     0.522357     0.514714     0.507071     0.499427     0.491784
      0.484141     0.476498     0.468855     0.461212     0.453569     0.445925     0.438282     0.430639     0.422996     0.415353
      0.407710     0.400067     0.392424     0.384780     0.377137     0.369494     0.361851     0.354208     0.346565     0.338922
      0.331278     0.323635     0.315992     0.308349     0.300706     0.293063     0.285420     0.277777     0.270133     0.262490
      0.254847     0.247204     0.239561     0.231918     0.224275     0.216631     0.208988     0.201345
 NY phased data points follow
  -2.25992E+01 -2.21535E+01 -2.13574E+01 -2.25215E+01 -1.87316E+01 -2.33684E+01 -2.19503E+01 -1.93239E+01 -1.79833E+01 -1.75443E+01
  -1.73004E+01 -1.48590E+01 -1.49590E+01 -2.11111E+01 -1.70790E+01 -1.72169E+01 -1.85730E+01 -1.95124E+01 -1.47552E+01 -1.89109E+01
  -1.87506E+01 -2.15399E+01 -1.69913E+01 -1.65788E+01 -1.48741E+01 -1.57147E+01 -1.63963E+01 -1.24193E+01 -1.58667E+01 -1.47231E+01
  -1.34212E+01 -1.31154E+01 -1.68468E+01 -1.43422E+01 -1.48568E+01 -1.56960E+01 -1.53057E+01 -1.70168E+01 -1.64452E+01 -1.56824E+01
  -1.10962E+01 -1.74572E+01 -1.91165E+01 -1.73213E+01 -1.43104E+01 -1.50644E+01 -1.58234E+01 -1.52145E+01 -1.45442E+01 -1.62314E+01
  -1.53600E+01 -1.69553E+01 -1.17115E+01 -1.63517E+01 -1.45481E+01 -1.61102E+01 -1.27176E+01 -1.68604E+01 -1.22273E+01 -1.52855E+01
  -1.09156E+01 -1.31472E+01 -1.27035E+01 -9.90038E+00 -1.27005E+01 -1.17768E+01 -1.09386E+01 -1.26278E+01 -1.17213E+01 -1.35586E+01
  -1.50740E+01 -1.26582E+01 -1.26791E+01 -1.10270E+01 -9.86856E+00 -1.08180E+01 -1.09824E+01 -1.29778E+01 -1.11613E+01 -1.04040E+01
  -1.02277E+01 -1.15351E+01 -1.15687E+01 -1.18316E+01 -9.70544E+00 -7.28265E+00 -9.61509E+00 -9.11390E+00 -1.22914E+01 -7.69394E+00
  -9.75504E+00 -9.26415E+00 -8.08788E+00 -1.25317E+01 -9.90159E+00 -1.12710E+01 -1.23181E+01 -1.00594E+01 -1.09644E+01 -1.27708E+01
  -1.04310E+01 -1.06063E+01 -7.76876E+00 -6.79717E+00 -5.10084E+00 -4.30256E+00 -7.83724E+00 -9.64871E+00 -9.06224E+00 -1.09764E+01
  -8.96310E+00 -1.10488E+01 -8.87429E+00 -8.69541E+00 -8.10689E+00 -6.98983E+00 -1.28604E+01 -8.96044E+00 -1.11978E+01 -1.14733E+01
  -7.60737E+00 -9.86582E+00 -9.91512E+00 -1.14897E+01 -9.87822E+00 -8.68251E+00 -5.34778E+00 -3.98224E+00 -9.87238E+00 -6.81552E+00
  -1.19610E+00 -4.03331E+00 -9.11363E+00 -1.19280E+01 -7.95672E+00 -9.76105E+00 -8.67664E+00 -9.83085E+00 -1.03585E+01 -9.89496E+00
  -7.27830E+00 -8.81569E+00 -6.40140E+00 -5.86092E+00 -1.07680E+01 -8.63064E+00 -6.66130E+00 -1.02750E+01 -9.76556E+00 -1.04046E+01
  -8.56455E+00 -8.44238E+00 -9.36504E+00 -7.09973E+00 -8.50222E+00 -9.06010E+00 -8.98084E+00 -6.47161E+00 -3.25192E+00 -8.45856E+00
  -7.55359E+00 -8.14787E+00 -9.70574E+00 -1.16571E+01 -5.57825E+00 -6.77410E+00 -5.75612E+00 -7.47863E+00 -6.16559E+00 -5.39290E+00
  -7.83760E+00 -7.53165E+00 -8.95894E+00 -8.05542E+00 -9.42881E+00 -5.17146E+00 -7.53656E+00 -7.34044E+00 -4.43398E+00 -8.00531E+00
  -9.94358E+00 -8.32473E+00 -5.64835E+00 -6.87332E+00 -5.61848E+00 -2.33296E+00 -1.93556E+00 -7.54834E+00 -6.32747E+00 -8.15717E+00
  -5.22346E+00 -5.30844E+00 -3.47392E+00 -1.48111E+00 -3.52196E+00 -3.89602E+00 -6.68876E+00 -9.41597E+00 -8.42083E+00 -6.63445E+00
  -4.66314E+00 -5.65326E+00 -3.20611E+00 -6.58044E+00 -7.11727E+00 -2.17245E+00 -4.83424E+00 -5.52925E+00 -6.98808E+00 -4.07020E+00
  -9.26984E+00 -5.26420E+00 -9.73718E+00 -7.85378E+00 -5.34745E+00 -5.80748E+00 -9.49301E+00 -2.86763E+00 -7.45664E+00 -6.22233E+00
  -6.31776E+00 -7.81298E+00 -2.61224E+00 -4.07878E+00 -5.60499E+00 -7.15365E+00 -5.74682E+00 -3.34290E+00 -7.00308E+00 -9.39435E-01
  -8.62853E+00 -5.21756E+00 -6.13712E+00 -6.33479E+00 -8.75861E+00 -7.85990E+00 -3.95075E+00 -6.34171E+00 -4.65183E+00 -4.47088E+00
  -3.82858E+00 -9.31026E+00 -8.04188E+00 -7.36847E+00 -6.27832E+00 -7.76894E+00 -4.02035E+00 -4.79033E+00 -4.20449E+00 -7.24019E+00
  -5.32299E+00 -9.55651E+00 -3.18385E+00 -6.97466E+00 -6.24203E+00 -9.41638E+00 -6.43624E+00 -8.42551E+00 -9.09169E+00 -6.04527E+00
  -2.63800E+00 -1.52431E+00 -1.22209E+00 -2.70737E+00 -3.63803E+00 -6.45128E+00 -5.17766E+00 -5.16905E+00 -6.32918E+00 -7.46061E+00
  -4.57207E+00 -9.51628E+00 -4.56350E+00 -7.17007E+00 -6.90538E+00 -6.93052E+00 -6.00195E+00 -6.73374E+00 -6.11781E+00 -6.33013E+00
  -3.66431E+00 -7.28516E+00 -6.16268E+00 -5.57493E+00 -6.42922E+00 -6.17549E+00 -4.82042E+00 -7.32160E+00 -1.67686E+00 -4.99632E+00
  -3.23651E+00 -5.10757E+00 -4.62225E+00 -8.98151E+00 -4.84284E+00 -4.94128E+00 -4.93870E+00 -3.80994E+00 -2.21463E+00 -4.32050E+00
  -6.17534E+00 -3.74285E+00 -5.88740E+00 -4.01574E+00 -3.55746E+00 -3.71169E+00 -2.05399E+00 -4.88748E+00 -3.66764E+00 -2.42252E+00
  -4.57885E+00 -2.69276E+00 -7.75931E-01 -3.25916E+00 -4.61922E+00 -6.32767E+00 -5.85899E+00 -3.40791E+00 -5.03371E+00 -6.75828E-01
  -5.68566E-01 -7.42310E+00 -2.36919E+00 -5.76492E+00  3.25747E-01  1.00235E+00 -9.09832E-01 -1.02258E+00 -1.87997E+00 -4.06839E+00
   1.14826E+00 -3.56349E+00 -3.01469E-01 -5.54441E+00 -3.92569E+00 -4.65349E+00 -4.96964E+00 -5.29234E+00 -4.19134E+00 -1.26291E+00
  -3.20738E+00  4.00874E-01 -5.21554E+00 -3.41134E+00 -4.81519E+00 -2.23966E+00 -1.59081E-01 -2.01279E+00  6.04281E-01 -1.87164E+00
  -1.86630E+00 -2.17279E+00 -2.89831E+00  1.05802E+00  3.00896E+00  1.12371E+00  3.22436E+00 -1.36999E+00 -3.16113E+00 -6.53900E-01
  -3.42069E+00 -8.73979E-01 -3.21552E+00 -2.10004E+00 -5.79363E+00 -7.16080E-01 -6.52082E+00 -4.63460E+00 -6.11858E+00 -5.15480E+00
  -3.00714E+00 -4.05429E+00 -4.37250E+00 -2.94674E+00 -1.65230E+00 -9.85562E-03 -2.29066E+00 -2.11543E-02 -1.86549E+00 -1.45393E+00
  -2.75027E+00 -3.81714E+00 -6.07560E+00 -5.82269E+00 -2.93398E+00 -3.55602E+00 -5.69969E+00 -6.00818E+00 -5.58716E+00 -7.72835E+00
  -4.71639E+00 -4.40237E+00 -4.24164E+00 -4.03874E+00 -4.45477E+00 -3.74843E+00 -4.17337E+00 -3.51773E+00 -5.00064E+00 -3.98547E+00
  -3.37832E+00 -5.70063E+00 -2.08844E+00 -6.99998E+00 -5.80232E+00 -5.74421E-01 -1.94988E+00 -7.42893E+00 -2.38670E+00 -6.56625E+00
  -5.56892E+00 -1.74155E+00 -5.32885E+00 -2.30776E+00 -4.68679E+00 -6.10906E+00 -4.21676E+00 -2.63421E+00 -1.23278E+00 -5.80081E+00
  -6.21035E+00 -4.94101E+00 -1.45268E+00 -2.44544E+00 -2.45995E-01 -3.37725E+00 -9.76261E-01 -4.69000E+00 -3.37485E+00 -3.47484E+00
  -2.59724E+00 -6.36439E+00 -3.29134E+00 -3.49604E+00 -3.29912E+00 -4.29996E+00 -6.11823E+00 -3.59429E+00 -2.81532E-01 -4.44522E+00
  -5.46013E+00 -2.27891E+00 -4.76422E+00 -2.90620E+00 -1.70573E+00 -2.39527E+00 -1.19255E+00 -1.75975E+00 -2.18487E+00 -3.51594E+00
  -4.79876E+00 -6.29027E+00 -1.79490E+00 -2.74444E+00 -5.52845E+00 -3.95076E+00 -5.03249E+00 -4.98683E+00 -4.02282E+00 -5.35966E+00
  -5.70946E+00 -5.07905E+00 -1.18308E+00 -7.07309E+00 -2.02310E-01 -4.72236E+00 -2.85394E+00 -4.44218E+00 -6.97672E+00 -4.64645E+00
   1.48876E+00 -1.19075E+00 -7.06591E+00  1.22228E+00  7.91235E-01 -4.39499E+00 -3.71940E+00 -7.09895E+00 -5.53260E+00 -4.76121E+00
  -4.99224E+00 -1.36674E+00 -2.83180E+00 -1.23974E+00 -1.27798E+00 -1.25352E+00 -3.11133E+00 -1.26575E-01 -3.38249E+00  2.90455E-01
  -3.61127E+00  1.48605E-01 -2.30283E+00 -3.42916E-01 -1.56330E+00 -3.41001E+00 -2.42395E+00 -5.57392E+00
 NY points of the fit to the data follow
  -1.78760E+01 -1.77934E+01 -1.76985E+01 -1.76004E+01 -1.75603E+01 -1.75699E+01 -1.74820E+01 -1.72150E+01 -1.67938E+01 -1.63306E+01
  -1.59572E+01 -1.57615E+01 -1.57754E+01 -1.59808E+01 -1.62955E+01 -1.65876E+01 -1.67158E+01 -1.67045E+01 -1.66597E+01 -1.65769E+01
  -1.64653E+01 -1.63375E+01 -1.62005E+01 -1.60821E+01 -1.60535E+01 -1.61752E+01 -1.62372E+01 -1.59976E+01 -1.54195E+01 -1.46736E+01
  -1.40069E+01 -1.36064E+01 -1.35600E+01 -1.38841E+01 -1.44714E+01 -1.50657E+01 -1.53876E+01 -1.53536E+01 -1.52056E+01 -1.50808E+01
  -1.49888E+01 -1.49279E+01 -1.49094E+01 -1.49102E+01 -1.48893E+01 -1.48357E+01 -1.47538E+01 -1.46618E+01 -1.45765E+01 -1.44993E+01
  -1.44243E+01 -1.43423E+01 -1.42531E+01 -1.41558E+01 -1.40559E+01 -1.39670E+01 -1.38945E+01 -1.38377E+01 -1.37914E+01 -1.37403E+01
  -1.36806E+01 -1.36160E+01 -1.35467E+01 -1.34696E+01 -1.33887E+01 -1.33050E+01 -1.32211E+01 -1.31440E+01 -1.30782E+01 -1.30242E+01
  -1.29830E+01 -1.29447E+01 -1.28852E+01 -1.27897E+01 -1.26655E+01 -1.25347E+01 -1.24221E+01 -1.23515E+01 -1.23232E+01 -1.23194E+01
  -1.23213E+01 -1.23159E+01 -1.22632E+01 -1.21343E+01 -1.19447E+01 -1.17318E+01 -1.15440E+01 -1.14161E+01 -1.13516E+01 -1.13387E+01
  -1.13671E+01 -1.14137E+01 -1.14426E+01 -1.14315E+01 -1.14018E+01 -1.13583E+01 -1.12949E+01 -1.12634E+01 -1.14055E+01 -1.14602E+01
  -1.09587E+01 -9.78021E+00 -8.20761E+00 -6.75281E+00 -5.86571E+00 -5.77300E+00 -6.50642E+00 -7.87902E+00 -9.42586E+00 -1.05585E+01
  -1.09271E+01 -1.08776E+01 -1.07803E+01 -1.06871E+01 -1.05949E+01 -1.04968E+01 -1.04001E+01 -1.03120E+01 -1.02352E+01 -1.01726E+01
  -1.01315E+01 -1.01605E+01 -1.03455E+01 -1.03692E+01 -9.84216E+00 -8.72725E+00 -7.33044E+00 -6.11587E+00 -5.45531E+00 -5.49186E+00
  -6.16363E+00 -7.25451E+00 -8.39379E+00 -9.17290E+00 -9.44098E+00 -9.57514E+00 -9.77977E+00 -9.97986E+00 -1.00543E+01 -9.92933E+00
  -9.61961E+00 -9.24097E+00 -8.92809E+00 -8.73804E+00 -8.67872E+00 -8.71481E+00 -8.77722E+00 -8.82078E+00 -8.82429E+00 -8.79906E+00
  -8.77112E+00 -8.74895E+00 -8.73141E+00 -8.71113E+00 -8.68078E+00 -8.63288E+00 -8.56672E+00 -8.49803E+00 -8.44291E+00 -8.40928E+00
  -8.39630E+00 -8.38756E+00 -8.36505E+00 -8.31829E+00 -8.25147E+00 -8.17691E+00 -8.10878E+00 -8.05916E+00 -8.03157E+00 -8.01308E+00
  -7.98807E+00 -7.94929E+00 -7.90465E+00 -7.87712E+00 -7.86842E+00 -7.86514E+00 -7.85091E+00 -7.82116E+00 -7.78289E+00 -7.74101E+00
  -7.69136E+00 -7.64063E+00 -7.60154E+00 -7.58637E+00 -7.59399E+00 -7.60610E+00 -7.60071E+00 -7.54599E+00 -7.41172E+00 -7.19579E+00
  -6.93954E+00 -6.71157E+00 -6.57320E+00 -6.55872E+00 -6.69237E+00 -6.92615E+00 -7.15838E+00 -7.29582E+00 -7.29841E+00 -7.18711E+00
  -7.00429E+00 -6.78745E+00 -6.58251E+00 -6.44029E+00 -6.38593E+00 -6.38805E+00 -6.38996E+00 -6.38418E+00 -6.37467E+00 -6.36526E+00
  -6.35905E+00 -6.35963E+00 -6.37183E+00 -6.38741E+00 -6.39268E+00 -6.37638E+00 -6.33500E+00 -6.27417E+00 -6.20559E+00 -6.14217E+00
  -6.08892E+00 -6.03648E+00 -5.97858E+00 -5.91882E+00 -5.86462E+00 -5.81808E+00 -5.77626E+00 -5.75827E+00 -5.79602E+00 -5.88821E+00
  -5.99811E+00 -6.07880E+00 -6.09628E+00 -6.01559E+00 -5.80569E+00 -5.50459E+00 -5.21821E+00 -5.06258E+00 -5.09455E+00 -5.27681E+00
  -5.54117E+00 -5.81492E+00 -5.99902E+00 -6.01221E+00 -5.84501E+00 -5.58047E+00 -5.32244E+00 -5.11654E+00 -4.98578E+00 -4.94469E+00
  -4.98557E+00 -5.06704E+00 -5.13253E+00 -5.16409E+00 -5.18886E+00 -5.28302E+00 -5.35643E+00 -5.11461E+00 -4.46002E+00 -3.55405E+00
  -2.70317E+00 -2.19483E+00 -2.17533E+00 -2.65477E+00 -3.51517E+00 -4.49234E+00 -5.24506E+00 -5.53634E+00 -5.50842E+00 -5.44800E+00
  -5.39838E+00 -5.35389E+00 -5.30968E+00 -5.26216E+00 -5.21095E+00 -5.15989E+00 -5.11426E+00 -5.07699E+00 -5.04757E+00 -5.02534E+00
  -5.00896E+00 -4.99563E+00 -4.98108E+00 -4.96146E+00 -4.93619E+00 -4.90703E+00 -4.87499E+00 -4.84144E+00 -4.80872E+00 -4.77822E+00
  -4.75059E+00 -4.72543E+00 -4.70134E+00 -4.67758E+00 -4.65417E+00 -4.63073E+00 -4.60670E+00 -4.58196E+00 -4.55675E+00 -4.53105E+00
  -4.50499E+00 -4.47885E+00 -4.45264E+00 -4.42631E+00 -4.39983E+00 -4.37314E+00 -4.34617E+00 -4.31883E+00 -4.29106E+00 -4.26280E+00
  -4.23400E+00 -4.20460E+00 -4.17457E+00 -4.14383E+00 -4.11230E+00 -4.07983E+00 -4.04630E+00 -4.01160E+00 -3.97566E+00 -3.93862E+00
  -3.90112E+00 -3.86554E+00 -3.83291E+00 -3.75242E+00 -3.56968E+00 -3.34001E+00 -3.17162E+00 -3.15230E+00 -3.30369E+00 -3.58301E+00
  -3.94782E+00 -4.33987E+00 -4.59026E+00 -4.54479E+00 -4.18591E+00 -3.66682E+00 -3.15517E+00 -2.71843E+00 -2.41425E+00 -2.28467E+00
  -2.32144E+00 -2.44382E+00 -2.50480E+00 -2.36583E+00 -2.06572E+00 -1.70312E+00 -1.37582E+00 -1.14468E+00 -1.01289E+00 -9.61401E-01
  -9.79857E-01 -9.72492E-01 -8.19480E-01 -4.87187E-01 -8.02919E-02  2.00122E-01  2.52766E-01  5.44361E-02 -3.95113E-01 -1.05297E+00
  -1.81628E+00 -2.53813E+00 -3.10491E+00 -3.53283E+00 -3.84962E+00 -4.06935E+00 -4.20781E+00 -4.28284E+00 -4.31199E+00 -4.31055E+00
  -4.29053E+00 -4.26049E+00 -4.22596E+00 -4.19010E+00 -4.15449E+00 -4.11969E+00 -4.08571E+00 -4.05235E+00 -4.01930E+00 -3.98632E+00
  -3.95317E+00 -3.91969E+00 -3.88577E+00 -3.85135E+00 -3.81638E+00 -3.78088E+00 -3.74489E+00 -3.70848E+00 -3.67174E+00 -3.63483E+00
  -3.59792E+00 -3.56124E+00 -3.52505E+00 -3.48967E+00 -3.45543E+00 -3.42270E+00 -3.39188E+00 -3.36336E+00 -3.33754E+00 -3.31480E+00
  -3.29547E+00 -3.27983E+00 -3.26810E+00 -3.26039E+00 -3.25676E+00 -3.25713E+00 -3.26132E+00 -3.26909E+00 -3.28007E+00 -3.29384E+00
  -3.30990E+00 -3.32772E+00 -3.34675E+00 -3.36644E+00 -3.38624E+00 -3.40566E+00 -3.42426E+00 -3.44164E+00 -3.45748E+00 -3.47156E+00
  -3.48368E+00 -3.49375E+00 -3.50173E+00 -3.50763E+00 -3.51151E+00 -3.51345E+00 -3.51359E+00 -3.51206E+00 -3.50901E+00 -3.50460E+00
  -3.49897E+00 -3.49229E+00 -3.48468E+00 -3.47627E+00 -3.46719E+00 -3.45753E+00 -3.44738E+00 -3.43682E+00 -3.42594E+00 -3.41477E+00
  -3.40339E+00 -3.39182E+00 -3.38011E+00 -3.36829E+00 -3.35638E+00 -3.34441E+00 -3.33239E+00 -3.32033E+00 -3.30825E+00 -3.29616E+00
  -3.28408E+00 -3.27199E+00 -3.25992E+00 -3.24786E+00 -3.23582E+00 -3.22380E+00 -3.21181E+00 -3.19985E+00 -3.18791E+00 -3.17600E+00
  -3.16412E+00 -3.15227E+00 -3.14046E+00 -3.12868E+00 -3.11693E+00 -3.10521E+00 -3.09353E+00 -3.08188E+00 -3.07027E+00 -3.05868E+00
  -3.04713E+00 -3.03561E+00 -3.02412E+00 -3.01266E+00 -3.00123E+00 -2.98983E+00 -2.97846E+00 -2.96711E+00 -2.95580E+00 -2.94451E+00
  -2.93324E+00 -2.92200E+00 -2.91079E+00 -2.89960E+00 -2.88843E+00 -2.87728E+00 -2.86615E+00 -2.85504E+00 -2.84395E+00 -2.83288E+00
  -2.82182E+00 -2.81078E+00 -2.79974E+00 -2.78872E+00 -2.77771E+00 -2.76670E+00 -2.75570E+00 -2.74470E+00
 NY background values follow
    -1.797E+01   -1.790E+01   -1.783E+01   -1.776E+01   -1.769E+01   -1.762E+01   -1.755E+01   -1.748E+01   -1.741E+01   -1.734E+01
    -1.727E+01   -1.720E+01   -1.713E+01   -1.706E+01   -1.699E+01   -1.692E+01   -1.685E+01   -1.678E+01   -1.671E+01   -1.664E+01
    -1.657E+01   -1.650E+01   -1.643E+01   -1.636E+01   -1.629E+01   -1.622E+01   -1.615E+01   -1.608E+01   -1.601E+01   -1.594E+01
    -1.588E+01   -1.581E+01   -1.574E+01   -1.567E+01   -1.560E+01   -1.553E+01   -1.546E+01   -1.539E+01   -1.532E+01   -1.526E+01
    -1.519E+01   -1.512E+01   -1.505E+01   -1.498E+01   -1.491E+01   -1.485E+01   -1.478E+01   -1.471E+01   -1.464E+01   -1.458E+01
    -1.451E+01   -1.444E+01   -1.437E+01   -1.431E+01   -1.424E+01   -1.417E+01   -1.411E+01   -1.404E+01   -1.398E+01   -1.391E+01
    -1.384E+01   -1.378E+01   -1.371E+01   -1.365E+01   -1.358E+01   -1.352E+01   -1.345E+01   -1.339E+01   -1.332E+01   -1.326E+01
    -1.319E+01   -1.313E+01   -1.306E+01   -1.300E+01   -1.294E+01   -1.287E+01   -1.281E+01   -1.275E+01   -1.269E+01   -1.262E+01
    -1.256E+01   -1.250E+01   -1.244E+01   -1.237E+01   -1.231E+01   -1.225E+01   -1.219E+01   -1.213E+01   -1.207E+01   -1.201E+01
    -1.195E+01   -1.189E+01   -1.183E+01   -1.177E+01   -1.171E+01   -1.165E+01   -1.159E+01   -1.154E+01   -1.148E+01   -1.142E+01
    -1.136E+01   -1.130E+01   -1.125E+01   -1.119E+01   -1.113E+01   -1.108E+01   -1.102E+01   -1.096E+01   -1.091E+01   -1.085E+01
    -1.080E+01   -1.074E+01   -1.069E+01   -1.063E+01   -1.058E+01   -1.053E+01   -1.047E+01   -1.042E+01   -1.037E+01   -1.031E+01
    -1.026E+01   -1.021E+01   -1.016E+01   -1.011E+01   -1.005E+01   -1.000E+01   -9.952E+00   -9.901E+00   -9.850E+00   -9.800E+00
    -9.750E+00   -9.701E+00   -9.651E+00   -9.602E+00   -9.554E+00   -9.505E+00   -9.457E+00   -9.409E+00   -9.361E+00   -9.314E+00
    -9.266E+00   -9.220E+00   -9.173E+00   -9.127E+00   -9.081E+00   -9.035E+00   -8.989E+00   -8.944E+00   -8.899E+00   -8.854E+00
    -8.810E+00   -8.766E+00   -8.722E+00   -8.679E+00   -8.635E+00   -8.592E+00   -8.549E+00   -8.507E+00   -8.465E+00   -8.423E+00
    -8.381E+00   -8.340E+00   -8.299E+00   -8.258E+00   -8.217E+00   -8.177E+00   -8.137E+00   -8.098E+00   -8.058E+00   -8.019E+00
    -7.980E+00   -7.941E+00   -7.903E+00   -7.865E+00   -7.827E+00   -7.790E+00   -7.753E+00   -7.716E+00   -7.679E+00   -7.643E+00
    -7.606E+00   -7.571E+00   -7.535E+00   -7.500E+00   -7.465E+00   -7.430E+00   -7.395E+00   -7.361E+00   -7.327E+00   -7.294E+00
    -7.260E+00   -7.227E+00   -7.194E+00   -7.161E+00   -7.129E+00   -7.097E+00   -7.065E+00   -7.033E+00   -7.002E+00   -6.970E+00
    -6.940E+00   -6.909E+00   -6.878E+00   -6.848E+00   -6.818E+00   -6.788E+00   -6.759E+00   -6.729E+00   -6.700E+00   -6.671E+00
    -6.642E+00   -6.614E+00   -6.586E+00   -6.558E+00   -6.530E+00   -6.502E+00   -6.475E+00   -6.447E+00   -6.420E+00   -6.394E+00
    -6.367E+00   -6.341E+00   -6.314E+00   -6.288E+00   -6.262E+00   -6.237E+00   -6.211E+00   -6.186E+00   -6.161E+00   -6.136E+00
    -6.111E+00   -6.086E+00   -6.062E+00   -6.038E+00   -6.014E+00   -5.990E+00   -5.966E+00   -5.942E+00   -5.919E+00   -5.896E+00
    -5.872E+00   -5.849E+00   -5.827E+00   -5.804E+00   -5.781E+00   -5.759E+00   -5.737E+00   -5.715E+00   -5.693E+00   -5.671E+00
    -5.650E+00   -5.628E+00   -5.607E+00   -5.585E+00   -5.564E+00   -5.543E+00   -5.523E+00   -5.502E+00   -5.481E+00   -5.461E+00
    -5.440E+00   -5.420E+00   -5.400E+00   -5.380E+00   -5.360E+00   -5.340E+00   -5.321E+00   -5.301E+00   -5.282E+00   -5.262E+00
    -5.243E+00   -5.224E+00   -5.205E+00   -5.186E+00   -5.167E+00   -5.149E+00   -5.130E+00   -5.111E+00   -5.093E+00   -5.075E+00
    -5.056E+00   -5.038E+00   -5.020E+00   -5.002E+00   -4.984E+00   -4.967E+00   -4.949E+00   -4.932E+00   -4.914E+00   -4.897E+00
    -4.879E+00   -4.862E+00   -4.845E+00   -4.828E+00   -4.811E+00   -4.795E+00   -4.778E+00   -4.761E+00   -4.745E+00   -4.729E+00
    -4.712E+00   -4.696E+00   -4.680E+00   -4.664E+00   -4.648E+00   -4.632E+00   -4.617E+00   -4.601E+00   -4.585E+00   -4.570E+00
    -4.555E+00   -4.539E+00   -4.524E+00   -4.509E+00   -4.494E+00   -4.479E+00   -4.465E+00   -4.450E+00   -4.435E+00   -4.421E+00
    -4.407E+00   -4.392E+00   -4.378E+00   -4.364E+00   -4.350E+00   -4.336E+00   -4.322E+00   -4.308E+00   -4.295E+00   -4.281E+00
    -4.268E+00   -4.254E+00   -4.241E+00   -4.228E+00   -4.214E+00   -4.201E+00   -4.188E+00   -4.175E+00   -4.162E+00   -4.149E+00
    -4.137E+00   -4.124E+00   -4.111E+00   -4.099E+00   -4.087E+00   -4.074E+00   -4.062E+00   -4.050E+00   -4.037E+00   -4.025E+00
    -4.013E+00   -4.001E+00   -3.989E+00   -3.977E+00   -3.966E+00   -3.954E+00   -3.942E+00   -3.931E+00   -3.919E+00   -3.908E+00
    -3.896E+00   -3.885E+00   -3.873E+00   -3.862E+00   -3.851E+00   -3.840E+00   -3.828E+00   -3.817E+00   -3.806E+00   -3.795E+00
    -3.784E+00   -3.774E+00   -3.763E+00   -3.752E+00   -3.741E+00   -3.730E+00   -3.720E+00   -3.709E+00   -3.698E+00   -3.688E+00
    -3.677E+00   -3.667E+00   -3.656E+00   -3.646E+00   -3.636E+00   -3.625E+00   -3.615E+00   -3.605E+00   -3.594E+00   -3.584E+00
    -3.574E+00   -3.564E+00   -3.554E+00   -3.544E+00   -3.533E+00   -3.523E+00   -3.513E+00   -3.503E+00   -3.493E+00   -3.483E+00
    -3.473E+00   -3.463E+00   -3.453E+00   -3.443E+00   -3.433E+00   -3.424E+00   -3.414E+00   -3.404E+00   -3.394E+00   -3.384E+00
    -3.374E+00   -3.364E+00   -3.355E+00   -3.345E+00   -3.335E+00   -3.325E+00   -3.315E+00   -3.306E+00   -3.296E+00   -3.286E+00
    -3.276E+00   -3.267E+00   -3.257E+00   -3.247E+00   -3.238E+00   -3.228E+00   -3.218E+00   -3.208E+00   -3.199E+00   -3.189E+00
    -3.179E+00   -3.170E+00   -3.160E+00   -3.151E+00   -3.141E+00   -3.131E+00   -3.122E+00   -3.112E+00   -3.102E+00   -3.093E+00
    -3.083E+00   -3.074E+00   -3.064E+00   -3.055E+00   -3.045E+00   -3.035E+00   -3.026E+00   -3.016E+00   -3.007E+00   -2.997E+00
    -2.988E+00   -2.978E+00   -2.969E+00   -2.959E+00   -2.949E+00   -2.940E+00   -2.930E+00   -2.921E+00   -2.911E+00   -2.902E+00
    -2.892E+00   -2.883E+00   -2.873E+00   -2.864E+00   -2.854E+00   -2.845E+00   -2.835E+00   -2.826E+00   -2.816E+00   -2.807E+00
    -2.797E+00   -2.788E+00   -2.779E+00   -2.769E+00   -2.760E+00   -2.750E+00   -2.741E+00   -2.731E+00   -2.722E+00   -2.713E+00
    -2.703E+00   -2.694E+00   -2.685E+00   -2.675E+00   -2.666E+00   -2.656E+00   -2.647E+00   -2.638E+00   -2.628E+00   -2.619E+00
    -2.610E+00   -2.601E+00   -2.591E+00   -2.582E+00   -2.573E+00   -2.564E+00   -2.554E+00   -2.545E+00
 Ala      Conc. = 3.99E+01
