 LCModel (Version 6.3-1L) Copyright: S.W. Provencher.          Ref.: Magn. Reson. Med. 30:672-679 (1993).                
 Slice#1 Row#5 Col#11  PD_24_press_1_raw_act
 36 lines in following concentration table = NCONC+1
    Conc.  %SD /Cr+PCr  Metabolite                                         
    0.000 999%   0.000 Ala                                                 
    0.000 999%   0.000 Asp                                                 
  573.025  58%   0.545 Cr                                                  
  478.758  70%   0.455 PCr                                                 
   64.163 251% 6.1E-02 GABA                                                
   68.668 225% 6.5E-02 Glc                                                 
  933.348  49%   0.887 Gln                                                 
  900.019  59%   0.856 Glu                                                 
  433.328   6%   0.412 GPC                                                 
    0.000 999%   0.000 PCh                                                 
  475.171  23%   0.452 GSH                                                 
 1.99E+03  15%   1.896 Ins                                                 
    0.000 999%   0.000 Lac                                                 
 2.18E+03   4%   2.068 NAA                                                 
    0.000 999%   0.000 NAAG                                                
  176.556  18%   0.168 Scyllo                                              
  279.992  74%   0.266 Tau                                                 
  497.417  26%   0.473 -CrCH2                                              
  433.328   6%   0.412 GPC+PCh                                             
 2.18E+03   4%   2.068 NAA+NAAG                                            
 1.05E+03   6%   1.000 Cr+PCr                                              
 1.83E+03  46%   1.743 Glu+Gln                                             
    0.000 999%   0.000 Lip13a                                              
    0.000 999%   0.000 Lip13b                                              
 2.24E-03 999% 2.1E-06 Lip09                                               
 1.37E+03  10%   1.303 MM09                                                
 9.66E-03 999% 9.2E-06 Lip20                                               
 2.69E+03  12%   2.557 MM20                                                
    0.000 999%   0.000 MM12                                                
 1.01E+03  15%   0.965 MM14                                                
  536.773  36%   0.510 MM17                                                
    0.000 999%   0.000 Lip13a+Lip13b                                       
 1.01E+03  15%   0.965 MM14+Lip13a+Lip13b+MM12                             
 1.37E+03  10%   1.303 MM09+Lip09                                          
 2.69E+03  12%   2.557 MM20+Lip20                                          
   6 lines in following misc. output table
  FWHM = 0.084 ppm    S/N =   9                                            
  Data shift = 0.054 ppm                                                   
  Ph: -17 deg      -6.2 deg/ppm                                            
  alphaB,S = 1.1E+01,   2.4E+02                                            
   14 spline knots.   Ns =11(1)                                            
  (10) 4 infls.   ( 1) 1 extrs.                                            
  498 points on ppm-axis = NY
      4.000000     3.992357     3.984714     3.977070     3.969427     3.961784     3.954141     3.946497     3.938854     3.931211
      3.923568     3.915925     3.908281     3.900638     3.892995     3.885352     3.877708     3.870065     3.862422     3.854779
      3.847136     3.839492     3.831849     3.824206     3.816563     3.808919     3.801276     3.793633     3.785990     3.778347
      3.770703     3.763060     3.755417     3.747774     3.740130     3.732487     3.724844     3.717201     3.709558     3.701914
      3.694271     3.686628     3.678985     3.671341     3.663698     3.656055     3.648412     3.640769     3.633125     3.625482
      3.617839     3.610196     3.602552     3.594909     3.587266     3.579623     3.571980     3.564336     3.556693     3.549050
      3.541407     3.533763     3.526120     3.518477     3.510834     3.503191     3.495547     3.487904     3.480261     3.472618
      3.464974     3.457331     3.449688     3.442045     3.434402     3.426758     3.419115     3.411472     3.403829     3.396185
      3.388542     3.380899     3.373256     3.365613     3.357969     3.350326     3.342683     3.335040     3.327396     3.319753
      3.312110     3.304467     3.296824     3.289180     3.281537     3.273894     3.266251     3.258607     3.250964     3.243321
      3.235678     3.228034     3.220391     3.212748     3.205105     3.197462     3.189818     3.182175     3.174532     3.166889
      3.159245     3.151602     3.143959     3.136316     3.128673     3.121029     3.113386     3.105743     3.098100     3.090456
      3.082813     3.075170     3.067527     3.059884     3.052240     3.044597     3.036954     3.029311     3.021667     3.014024
      3.006381     2.998738     2.991095     2.983451     2.975808     2.968165     2.960522     2.952878     2.945235     2.937592
      2.929949     2.922306     2.914662     2.907019     2.899376     2.891733     2.884089     2.876446     2.868803     2.861160
      2.853517     2.845873     2.838230     2.830587     2.822944     2.815300     2.807657     2.800014     2.792371     2.784728
      2.777084     2.769441     2.761798     2.754155     2.746511     2.738868     2.731225     2.723582     2.715939     2.708295
      2.700652     2.693009     2.685366     2.677722     2.670079     2.662436     2.654793     2.647150     2.639506     2.631863
      2.624220     2.616577     2.608933     2.601290     2.593647     2.586004     2.578361     2.570717     2.563074     2.555431
      2.547788     2.540144     2.532501     2.524858     2.517215     2.509572     2.501928     2.494285     2.486642     2.478999
      2.471355     2.463712     2.456069     2.448426     2.440783     2.433139     2.425496     2.417853     2.410210     2.402566
      2.394923     2.387280     2.379637     2.371994     2.364350     2.356707     2.349064     2.341421     2.333777     2.326134
      2.318491     2.310848     2.303205     2.295561     2.287918     2.280275     2.272632     2.264988     2.257345     2.249702
      2.242059     2.234416     2.226772     2.219129     2.211486     2.203843     2.196199     2.188556     2.180913     2.173270
      2.165627     2.157983     2.150340     2.142697     2.135054     2.127410     2.119767     2.112124     2.104481     2.096838
      2.089194     2.081551     2.073908     2.066265     2.058621     2.050978     2.043335     2.035692     2.028049     2.020405
      2.012762     2.005119     1.997476     1.989833     1.982190     1.974546     1.966903     1.959260     1.951617     1.943974
      1.936331     1.928688     1.921045     1.913402     1.905759     1.898115     1.890472     1.882829     1.875186     1.867543
      1.859900     1.852257     1.844614     1.836971     1.829327     1.821684     1.814041     1.806398     1.798755     1.791112
      1.783469     1.775826     1.768183     1.760540     1.752896     1.745253     1.737610     1.729967     1.722324     1.714681
      1.707038     1.699395     1.691752     1.684108     1.676465     1.668822     1.661179     1.653536     1.645893     1.638250
      1.630607     1.622964     1.615321     1.607677     1.600034     1.592391     1.584748     1.577105     1.569462     1.561819
      1.554176     1.546533     1.538890     1.531246     1.523603     1.515960     1.508317     1.500674     1.493031     1.485388
      1.477745     1.470102     1.462458     1.454815     1.447172     1.439529     1.431886     1.424243     1.416600     1.408957
      1.401314     1.393671     1.386027     1.378384     1.370741     1.363098     1.355455     1.347812     1.340169     1.332526
      1.324883     1.317240     1.309596     1.301953     1.294310     1.286667     1.279024     1.271381     1.263738     1.256095
      1.248452     1.240808     1.233165     1.225522     1.217879     1.210236     1.202593     1.194950     1.187307     1.179664
      1.172021     1.164377     1.156734     1.149091     1.141448     1.133805     1.126162     1.118519     1.110876     1.103233
      1.095590     1.087946     1.080303     1.072660     1.065017     1.057374     1.049731     1.042088     1.034445     1.026802
      1.019158     1.011515     1.003872     0.996229     0.988586     0.980943     0.973300     0.965657     0.958014     0.950371
      0.942727     0.935084     0.927441     0.919798     0.912155     0.904512     0.896869     0.889226     0.881583     0.873940
      0.866296     0.858653     0.851010     0.843367     0.835724     0.828081     0.820438     0.812795     0.805152     0.797508
      0.789865     0.782222     0.774579     0.766936     0.759293     0.751650     0.744007     0.736364     0.728721     0.721077
      0.713434     0.705791     0.698148     0.690505     0.682862     0.675219     0.667576     0.659933     0.652290     0.644646
      0.637003     0.629360     0.621717     0.614074     0.606431     0.598788     0.591145     0.583502     0.575858     0.568215
      0.560572     0.552929     0.545286     0.537643     0.530000     0.522357     0.514714     0.507071     0.499427     0.491784
      0.484141     0.476498     0.468855     0.461212     0.453569     0.445925     0.438282     0.430639     0.422996     0.415353
      0.407710     0.400067     0.392424     0.384780     0.377137     0.369494     0.361851     0.354208     0.346565     0.338922
      0.331278     0.323635     0.315992     0.308349     0.300706     0.293063     0.285420     0.277777     0.270133     0.262490
      0.254847     0.247204     0.239561     0.231918     0.224275     0.216631     0.208988     0.201345
 NY phased data points follow
  -3.08767E+00 -1.14682E+00  3.13393E+00 -2.75678E+00  3.46273E-01 -1.97110E+00  3.43480E+00  1.36533E-01  4.57980E+00  2.30356E+00
   7.02278E+00 -4.14949E-01  3.60395E+00  3.01963E+00  3.95853E+00 -1.96808E+00  2.26823E+00 -3.20646E+00  4.97859E-01  2.90302E+00
  -1.63371E+00  1.26144E+00  4.64965E+00  2.50015E-01 -2.12130E+00  1.48034E+00  7.45185E-01 -1.10110E+00 -5.73176E-01  3.20075E-01
   2.44000E+00  4.07852E+00  2.96907E+00  3.39254E+00  3.27997E+00  4.50796E+00  3.58654E+00  1.23720E+00  2.13440E+00  3.95661E+00
   3.34877E+00  3.51663E+00  4.37037E+00  5.02107E+00  7.43512E+00  4.80643E+00  3.82723E+00  1.58949E+00  3.82118E+00  7.20065E+00
   7.09397E+00  7.75989E+00  2.13945E+00  2.44245E+00  2.55757E+00  4.22111E+00  3.69927E+00  7.18960E-01  2.67803E+00 -6.68761E-01
   2.88862E+00 -4.55833E+00 -5.84776E-01 -8.83493E-01 -2.16818E+00 -6.70435E-01  1.00842E+00 -6.24611E+00  3.51405E+00 -2.87545E+00
   1.16644E+00 -9.20375E-01 -1.11198E+00 -2.78111E-01  2.70648E+00  2.71841E-01 -1.25837E-01 -1.37672E+00  1.13006E-01  6.30786E-01
   1.84920E+00  8.94745E-01  2.14593E+00  9.11378E-01 -1.78471E+00  3.96903E-01  5.76583E+00  1.85414E+00  1.16869E+00  2.95049E+00
   2.35483E+00  3.84483E+00  2.25524E+00  7.02345E+00  5.45592E+00  7.79783E+00  1.07103E+01  1.24712E+01  1.41888E+01  1.79718E+01
   2.51906E+01  2.20344E+01  2.42219E+01  2.03808E+01  1.59813E+01  1.38114E+01  1.21712E+01  8.54183E+00  8.31190E+00  6.84650E+00
   6.59066E+00  2.59172E-01  3.34359E+00  8.31398E-01  3.83395E+00  5.09814E+00  3.03167E-02  1.21256E+00  2.49712E+00  6.91935E+00
   9.70042E+00  1.11070E+01  1.92703E+01  1.48330E+01  2.05595E+01  1.76232E+01  2.44339E+01  1.69330E+01  1.76816E+01  1.53988E+01
   1.17737E+01  1.35481E+01  1.01584E+01  1.03413E+01  1.11397E+01  6.76632E+00  8.13406E+00  6.99926E+00  3.50142E+00 -1.73386E-01
   5.44252E+00  3.74672E+00  2.95864E+00  1.82984E+00  2.01015E+00 -8.36011E-01  1.71427E+00 -2.31619E+00  1.93056E+00 -5.18750E-01
   3.57573E-01 -3.22207E+00  1.57640E+00  4.16893E+00 -2.89106E+00  2.38374E+00  1.19073E+00  1.68424E+00 -2.85011E+00  2.78271E+00
   3.48022E+00  2.53607E+00  7.63619E-01  7.89434E-01 -1.67371E+00 -2.57564E+00 -1.59424E+00 -8.76370E+00 -4.12218E+00 -5.72547E+00
  -5.37078E+00 -9.53638E+00 -1.09773E+01 -1.20819E+01 -1.16072E+01 -1.21945E+01 -1.11929E+01 -7.78071E+00 -1.06011E+01 -7.76134E+00
  -5.65146E+00 -1.10021E+01 -1.11552E+01 -7.27128E+00 -7.22060E+00 -4.89287E+00 -6.85794E+00 -5.41179E+00 -5.73875E+00 -1.69752E+00
  -1.91199E+00 -6.51428E+00 -3.71965E+00 -5.62614E+00 -5.13364E+00 -6.00412E+00 -5.70843E+00 -7.64633E+00 -7.38257E+00 -5.84767E+00
  -4.74067E+00 -5.40084E+00 -3.54371E+00 -2.57095E+00 -3.02664E+00 -5.09565E+00  7.12285E-01 -5.02026E+00 -2.24855E+00  6.92722E-01
  -6.23823E-01  2.37855E+00  6.04424E+00  5.27977E+00  5.90638E+00  4.37703E+00  7.43798E+00  4.97053E+00  2.25470E+00  2.38176E+00
  -2.63989E-01 -1.28872E+00  2.54535E+00  1.58179E+00  3.74230E+00  2.77722E+00  1.05799E+00  1.11880E+00  3.03128E-01  4.19174E+00
   2.41827E+00  4.43098E+00  6.74342E+00  6.49668E+00  7.73902E+00  5.71324E+00  3.61039E+00  6.39692E+00  3.36710E+00  2.80606E+00
   5.93142E+00  1.00201E+01  9.26535E+00  3.79348E+00  9.18104E+00  7.43660E+00  9.72918E+00  1.18184E+01  9.33374E+00  7.26516E+00
   8.46940E+00  1.18741E+01  2.17942E+01  2.37461E+01  3.05561E+01  3.41190E+01  4.64492E+01  5.06442E+01  5.67545E+01  5.32608E+01
   5.62203E+01  5.13528E+01  4.73068E+01  3.62656E+01  3.66438E+01  2.99013E+01  3.02879E+01  2.39127E+01  1.67099E+01  1.88705E+01
   1.47512E+01  1.10703E+01  2.78835E+00  4.42736E+00  5.41582E+00  3.91049E+00  2.32277E+00  6.42848E-01  1.60511E+00  2.29952E+00
   3.77564E-01  2.67322E+00 -9.64926E-02  1.86729E+00 -4.01174E-01  3.78059E-01  4.21860E+00 -2.10601E-01  1.70369E+00  3.09637E+00
   2.74013E+00  2.49355E+00  4.04781E-01  4.31868E+00  2.78633E+00  3.03115E-01  9.59447E-01 -1.83860E+00  1.24224E+00 -1.85867E-01
   1.14578E+00  1.22006E+00  6.40215E+00  3.15485E+00  5.90765E+00  3.03584E+00  1.39026E+00  3.92318E-01  6.85489E+00  6.21463E+00
   3.84081E+00  5.47884E+00  9.58228E+00  3.48486E+00  1.21674E+01  1.05817E+01  4.72037E+00  7.29415E+00  7.71267E+00  8.43406E+00
   6.90573E+00  8.61797E+00  3.88197E+00  8.48860E+00  6.53859E+00  1.08857E+01  7.50319E+00  5.40360E+00  8.88683E+00  9.55656E+00
   9.77312E+00  1.35117E+01  9.54433E+00  1.13491E+01  8.37700E+00  5.05766E+00  7.94931E+00  4.92991E+00  2.46026E+00  2.36290E+00
   1.87753E+00  2.42694E+00  1.93714E+00 -2.16441E+00  6.48033E-01  3.96222E-01  8.59714E-02 -2.69022E+00  1.86556E+00 -2.31198E+00
   2.23298E+00 -4.07092E+00 -9.23514E+00 -7.07581E+00 -4.45188E+00 -4.49637E+00 -3.93334E+00 -5.71974E+00 -7.86002E+00 -3.30315E+00
  -9.24569E-01 -1.74958E+00  7.79827E-01 -2.99053E+00  1.68839E+00  1.65920E+00  4.50385E+00  3.69979E+00  4.03835E+00  4.80313E+00
   2.45261E+00  3.00728E+00  2.82536E+00  4.31794E+00  3.79899E+00  7.80851E-01  2.23704E+00  4.42851E+00  2.89593E+00  4.14169E+00
   5.65444E+00 -4.54690E-01  5.92078E+00  3.43966E+00  3.49297E-02  1.81311E+00  4.10895E+00  4.27228E+00  3.66673E+00  7.14256E+00
   1.43227E+00  5.50985E+00  5.84622E+00  5.78648E+00  7.01863E+00  4.45178E+00  7.58619E+00  6.07738E+00  1.01207E+01  1.00294E+01
   1.45271E+01  1.36182E+01  1.27382E+01  1.55881E+01  1.25078E+01  1.66475E+01  1.38272E+01  1.51963E+01  1.61941E+01  1.17584E+01
   1.43730E+01  1.11475E+01  1.49172E+01  1.15646E+01  1.31764E+01  1.25704E+01  8.61036E+00  1.04801E+01  9.41075E+00  3.86171E+00
   4.25089E+00  8.00969E+00  3.77775E+00  3.85672E+00  4.37946E+00  3.99408E+00  1.18514E+00  4.63330E+00  7.27799E+00  5.16399E+00
   2.34751E+00  1.82361E+00  5.31488E+00  7.66724E+00  4.57451E+00  1.91775E+00  5.34635E+00  4.36979E+00  6.41785E+00  2.69460E+00
   7.96209E+00  2.65168E+00  3.76512E+00  5.17441E+00  2.37639E+00  2.99751E+00  5.40994E+00  6.29990E+00  1.00075E+00  4.48340E+00
   5.97180E+00  3.19645E+00  3.99876E+00  3.12129E+00  7.71304E+00  4.83160E+00  7.53396E+00  4.70788E+00  4.27417E+00  8.15695E+00
   1.85932E+00  2.02667E+00  3.08601E+00  3.02486E+00  6.35859E-01  5.80495E+00  2.69012E+00  2.04373E+00  3.76193E+00  2.07984E+00
   4.86684E+00  2.36177E-01  1.07537E+00  4.79013E+00  1.73865E+00  3.33018E+00  9.60209E+00  1.69293E+00  5.27920E+00  4.19539E+00
   2.23567E+00  3.17882E+00  2.00588E+00  4.96201E+00  2.58533E+00  2.60550E+00  4.62708E+00 -2.09339E-01  9.61077E+00  6.39039E-01
   1.84808E+00  5.00706E+00  4.01120E+00  5.71807E+00  3.92186E+00  3.06408E+00  4.95679E+00  1.89172E+00
 NY points of the fit to the data follow
  -1.57231E+00 -1.50491E+00 -1.18989E+00 -7.16307E-01 -1.50741E-01  5.57358E-01  1.43149E+00  2.31014E+00  3.05326E+00  3.59601E+00
   3.86928E+00  3.83039E+00  3.49210E+00  2.94021E+00  2.31443E+00  1.70387E+00  1.12150E+00  5.17779E-01 -1.33063E-01 -7.17136E-01
  -1.12048E+00 -1.33880E+00 -1.42460E+00 -1.28531E+00 -6.93573E-01  2.88487E-01  1.47323E+00  2.71574E+00  3.85198E+00  4.69184E+00
   5.08630E+00  4.98510E+00  4.47185E+00  3.70906E+00  2.87799E+00  2.13438E+00  1.62729E+00  1.47290E+00  1.67914E+00  2.10884E+00
   2.61937E+00  3.14680E+00  3.73672E+00  4.47053E+00  5.22034E+00  5.75369E+00  5.91775E+00  5.62442E+00  4.91113E+00  3.93858E+00
   2.97547E+00  2.26039E+00  1.83731E+00  1.62943E+00  1.56863E+00  1.57539E+00  1.54341E+00  1.35402E+00  9.68834E-01  4.50415E-01
  -4.43106E-02 -3.70638E-01 -5.32734E-01 -5.87410E-01 -5.34143E-01 -3.57476E-01 -8.82339E-02  2.14491E-01  4.82904E-01  6.61853E-01
   7.15315E-01  6.46172E-01  5.12620E-01  3.61779E-01  2.12911E-01  1.28048E-01  1.88293E-01  3.71013E-01  6.08457E-01  8.69616E-01
   1.17965E+00  1.54202E+00  1.89026E+00  2.10144E+00  2.09915E+00  1.89040E+00  1.48416E+00  9.09837E-01  2.77057E-01 -2.80055E-01
  -6.04905E-01 -3.10336E-01  8.17011E-01  2.58720E+00  4.77904E+00  7.31793E+00  1.02178E+01  1.33834E+01  1.65160E+01  1.92575E+01
   2.12396E+01  2.20655E+01  2.15865E+01  1.99572E+01  1.76270E+01  1.51762E+01  1.29934E+01  1.11543E+01  9.54114E+00  8.01990E+00
   6.50401E+00  4.88427E+00  3.05327E+00  1.06898E+00 -6.37307E-01 -1.33416E+00 -8.03053E-01  5.56319E-01  2.48948E+00  4.83971E+00
   7.57914E+00  1.06891E+01  1.39646E+01  1.70216E+01  1.94439E+01  2.09050E+01  2.12451E+01  2.04737E+01  1.88395E+01  1.67929E+01
   1.47586E+01  1.29369E+01  1.13042E+01  9.75512E+00  8.23740E+00  6.73774E+00  5.20431E+00  3.61823E+00  2.13367E+00  1.10996E+00
   7.05653E-01  5.17796E-01  3.09804E-01  5.08170E-02 -2.36251E-01 -5.04339E-01 -7.04462E-01 -8.26203E-01 -9.20461E-01 -1.03421E+00
  -1.20200E+00 -1.44634E+00 -1.74086E+00 -2.03492E+00 -2.28595E+00 -2.47740E+00 -2.65170E+00 -2.83023E+00 -3.00264E+00 -3.14674E+00
  -3.25291E+00 -3.33064E+00 -3.39958E+00 -3.49105E+00 -3.64234E+00 -3.88466E+00 -4.22482E+00 -4.60552E+00 -4.96291E+00 -5.26879E+00
  -5.54323E+00 -5.80772E+00 -6.04110E+00 -6.22311E+00 -6.37960E+00 -6.53472E+00 -6.68648E+00 -6.81361E+00 -6.86899E+00 -6.85797E+00
  -6.79570E+00 -6.65262E+00 -6.39425E+00 -6.01018E+00 -5.50785E+00 -4.91307E+00 -4.24980E+00 -3.58850E+00 -3.02682E+00 -2.64914E+00
  -2.46237E+00 -2.38112E+00 -2.33478E+00 -2.25090E+00 -2.05846E+00 -1.69931E+00 -1.14584E+00 -4.57909E-01  2.41980E-01  7.75563E-01
   1.02942E+00  9.82125E-01  6.49345E-01  5.55625E-02 -6.98768E-01 -1.44650E+00 -2.01432E+00 -2.31183E+00 -2.28634E+00 -1.94467E+00
  -1.34451E+00 -6.47794E-01 -4.08705E-02  3.53831E-01  5.13925E-01  4.60751E-01  2.40666E-01 -4.87583E-02 -2.81291E-01 -3.28051E-01
  -1.23478E-01  2.76548E-01  7.63470E-01  1.24122E+00  1.69721E+00  2.04288E+00  2.19215E+00  2.21481E+00  2.26247E+00  2.44912E+00
   2.80883E+00  3.29692E+00  3.87888E+00  4.50149E+00  5.07326E+00  5.49637E+00  5.71961E+00  5.77339E+00  5.71063E+00  5.58233E+00
   5.48333E+00  5.51722E+00  5.74398E+00  6.16435E+00  6.72028E+00  7.33920E+00  7.97416E+00  8.57861E+00  9.16230E+00  1.02002E+01
   1.25803E+01  1.62835E+01  2.08951E+01  2.60988E+01  3.18841E+01  3.81397E+01  4.43238E+01  4.95903E+01  5.31760E+01  5.45804E+01
   5.36269E+01  5.04566E+01  4.57177E+01  4.04547E+01  3.55897E+01  3.14489E+01  2.79000E+01  2.46522E+01  2.15207E+01  1.83625E+01
   1.49482E+01  1.12144E+01  7.61760E+00  5.14622E+00  4.17093E+00  3.70148E+00  3.33667E+00  3.02302E+00  2.74727E+00  2.49891E+00
   2.28369E+00  2.10237E+00  1.94940E+00  1.81831E+00  1.70370E+00  1.60051E+00  1.51068E+00  1.44126E+00  1.39655E+00  1.37799E+00
   1.38616E+00  1.42033E+00  1.47994E+00  1.56381E+00  1.66959E+00  1.79686E+00  1.94518E+00  2.11326E+00  2.30037E+00  2.50518E+00
   2.72509E+00  2.95681E+00  3.19718E+00  3.44311E+00  3.69137E+00  3.93923E+00  4.18476E+00  4.42652E+00  4.66417E+00  4.89830E+00
   5.13044E+00  5.36280E+00  5.59800E+00  5.83864E+00  6.08710E+00  6.34506E+00  6.61329E+00  6.89104E+00  7.17580E+00  7.46315E+00
   7.74697E+00  8.01956E+00  8.27206E+00  8.49473E+00  8.67761E+00  8.81108E+00  8.88666E+00  8.89745E+00  8.83873E+00  8.70812E+00
   8.50591E+00  8.23507E+00  7.90120E+00  7.51211E+00  7.07745E+00  6.60808E+00  6.11562E+00  5.61181E+00  5.10812E+00  4.61506E+00
   4.14189E+00  3.69625E+00  3.28415E+00  2.90981E+00  2.57586E+00  2.28325E+00  2.03160E+00  1.81931E+00  1.64400E+00  1.50263E+00
   1.39184E+00  1.30801E+00  1.24757E+00  1.20703E+00  1.18326E+00  1.17339E+00  1.17497E+00  1.18582E+00  1.20414E+00  1.22844E+00
   1.25760E+00  1.29076E+00  1.32727E+00  1.36661E+00  1.40849E+00  1.45271E+00  1.49927E+00  1.54819E+00  1.59963E+00  1.65373E+00
   1.71078E+00  1.77111E+00  1.83524E+00  1.90367E+00  1.97707E+00  2.05617E+00  2.14192E+00  2.23545E+00  2.33815E+00  2.45158E+00
   2.57762E+00  2.71841E+00  2.87653E+00  3.05484E+00  3.25663E+00  3.48535E+00  3.74478E+00  4.03875E+00  4.37112E+00  4.74544E+00
   5.16473E+00  5.63104E+00  6.14529E+00  6.70672E+00  7.31270E+00  7.95822E+00  8.63582E+00  9.33535E+00  1.00442E+01  1.07473E+01
   1.14278E+01  1.20677E+01  1.26483E+01  1.31513E+01  1.35602E+01  1.38605E+01  1.40412E+01  1.40951E+01  1.40196E+01  1.38165E+01
   1.34925E+01  1.30582E+01  1.25280E+01  1.19189E+01  1.12495E+01  1.05394E+01  9.80782E+00  9.07300E+00  8.35123E+00  7.65637E+00
   6.99964E+00  6.38939E+00  5.83124E+00  5.32816E+00  4.88092E+00  4.48832E+00  4.14782E+00  3.85575E+00  3.60787E+00  3.39951E+00
   3.22598E+00  3.08267E+00  2.96534E+00  2.87009E+00  2.79348E+00  2.73245E+00  2.68440E+00  2.64709E+00  2.61873E+00  2.59777E+00
   2.58298E+00  2.57329E+00  2.56786E+00  2.56597E+00  2.56713E+00  2.57083E+00  2.57674E+00  2.58449E+00  2.59384E+00  2.60457E+00
   2.61655E+00  2.62959E+00  2.64358E+00  2.65837E+00  2.67391E+00  2.69008E+00  2.70688E+00  2.72420E+00  2.74200E+00  2.76020E+00
   2.77880E+00  2.79775E+00  2.81705E+00  2.83664E+00  2.85650E+00  2.87659E+00  2.89693E+00  2.91748E+00  2.93825E+00  2.95920E+00
   2.98033E+00  3.00160E+00  3.02305E+00  3.04466E+00  3.06643E+00  3.08832E+00  3.11035E+00  3.13250E+00  3.15480E+00  3.17724E+00
   3.19982E+00  3.22250E+00  3.24533E+00  3.26828E+00  3.29140E+00  3.31466E+00  3.33808E+00  3.36164E+00  3.38537E+00  3.40929E+00
   3.43343E+00  3.45777E+00  3.48234E+00  3.50715E+00  3.53226E+00  3.55768E+00  3.58348E+00  3.60967E+00
 NY background values follow
    -6.823E+00   -6.803E+00   -6.783E+00   -6.762E+00   -6.742E+00   -6.721E+00   -6.701E+00   -6.680E+00   -6.660E+00   -6.639E+00
    -6.618E+00   -6.598E+00   -6.577E+00   -6.557E+00   -6.536E+00   -6.516E+00   -6.495E+00   -6.474E+00   -6.454E+00   -6.433E+00
    -6.412E+00   -6.392E+00   -6.371E+00   -6.350E+00   -6.330E+00   -6.309E+00   -6.288E+00   -6.268E+00   -6.247E+00   -6.226E+00
    -6.205E+00   -6.185E+00   -6.164E+00   -6.143E+00   -6.122E+00   -6.101E+00   -6.081E+00   -6.060E+00   -6.039E+00   -6.018E+00
    -5.997E+00   -5.976E+00   -5.956E+00   -5.935E+00   -5.914E+00   -5.893E+00   -5.872E+00   -5.851E+00   -5.830E+00   -5.809E+00
    -5.788E+00   -5.767E+00   -5.746E+00   -5.725E+00   -5.704E+00   -5.683E+00   -5.662E+00   -5.641E+00   -5.620E+00   -5.599E+00
    -5.578E+00   -5.557E+00   -5.536E+00   -5.515E+00   -5.494E+00   -5.473E+00   -5.452E+00   -5.431E+00   -5.410E+00   -5.388E+00
    -5.367E+00   -5.346E+00   -5.325E+00   -5.304E+00   -5.283E+00   -5.261E+00   -5.240E+00   -5.219E+00   -5.198E+00   -5.177E+00
    -5.155E+00   -5.134E+00   -5.113E+00   -5.092E+00   -5.071E+00   -5.049E+00   -5.028E+00   -5.007E+00   -4.985E+00   -4.964E+00
    -4.943E+00   -4.922E+00   -4.900E+00   -4.879E+00   -4.858E+00   -4.836E+00   -4.815E+00   -4.794E+00   -4.772E+00   -4.751E+00
    -4.730E+00   -4.708E+00   -4.687E+00   -4.665E+00   -4.644E+00   -4.623E+00   -4.601E+00   -4.580E+00   -4.558E+00   -4.537E+00
    -4.515E+00   -4.494E+00   -4.472E+00   -4.451E+00   -4.430E+00   -4.408E+00   -4.387E+00   -4.365E+00   -4.344E+00   -4.322E+00
    -4.301E+00   -4.279E+00   -4.258E+00   -4.236E+00   -4.214E+00   -4.193E+00   -4.171E+00   -4.150E+00   -4.128E+00   -4.107E+00
    -4.085E+00   -4.063E+00   -4.042E+00   -4.020E+00   -3.999E+00   -3.977E+00   -3.955E+00   -3.934E+00   -3.912E+00   -3.891E+00
    -3.869E+00   -3.847E+00   -3.826E+00   -3.804E+00   -3.782E+00   -3.761E+00   -3.739E+00   -3.717E+00   -3.696E+00   -3.674E+00
    -3.652E+00   -3.630E+00   -3.609E+00   -3.587E+00   -3.565E+00   -3.543E+00   -3.522E+00   -3.500E+00   -3.478E+00   -3.456E+00
    -3.435E+00   -3.413E+00   -3.391E+00   -3.369E+00   -3.348E+00   -3.326E+00   -3.304E+00   -3.282E+00   -3.260E+00   -3.239E+00
    -3.217E+00   -3.195E+00   -3.173E+00   -3.151E+00   -3.129E+00   -3.107E+00   -3.086E+00   -3.064E+00   -3.042E+00   -3.020E+00
    -2.998E+00   -2.976E+00   -2.954E+00   -2.932E+00   -2.910E+00   -2.888E+00   -2.866E+00   -2.845E+00   -2.823E+00   -2.801E+00
    -2.779E+00   -2.757E+00   -2.735E+00   -2.713E+00   -2.691E+00   -2.669E+00   -2.647E+00   -2.625E+00   -2.603E+00   -2.581E+00
    -2.559E+00   -2.537E+00   -2.515E+00   -2.493E+00   -2.471E+00   -2.449E+00   -2.426E+00   -2.404E+00   -2.382E+00   -2.360E+00
    -2.338E+00   -2.316E+00   -2.294E+00   -2.272E+00   -2.250E+00   -2.228E+00   -2.206E+00   -2.184E+00   -2.161E+00   -2.139E+00
    -2.117E+00   -2.095E+00   -2.073E+00   -2.051E+00   -2.029E+00   -2.006E+00   -1.984E+00   -1.962E+00   -1.940E+00   -1.918E+00
    -1.896E+00   -1.873E+00   -1.851E+00   -1.829E+00   -1.807E+00   -1.785E+00   -1.762E+00   -1.740E+00   -1.718E+00   -1.696E+00
    -1.673E+00   -1.651E+00   -1.629E+00   -1.607E+00   -1.584E+00   -1.562E+00   -1.540E+00   -1.518E+00   -1.495E+00   -1.473E+00
    -1.451E+00   -1.429E+00   -1.406E+00   -1.384E+00   -1.362E+00   -1.339E+00   -1.317E+00   -1.295E+00   -1.273E+00   -1.250E+00
    -1.228E+00   -1.206E+00   -1.183E+00   -1.161E+00   -1.139E+00   -1.116E+00   -1.094E+00   -1.072E+00   -1.049E+00   -1.027E+00
    -1.004E+00   -9.821E-01   -9.598E-01   -9.374E-01   -9.150E-01   -8.926E-01   -8.703E-01   -8.479E-01   -8.255E-01   -8.031E-01
    -7.807E-01   -7.583E-01   -7.359E-01   -7.135E-01   -6.911E-01   -6.687E-01   -6.462E-01   -6.238E-01   -6.014E-01   -5.790E-01
    -5.565E-01   -5.341E-01   -5.117E-01   -4.892E-01   -4.668E-01   -4.443E-01   -4.219E-01   -3.994E-01   -3.770E-01   -3.545E-01
    -3.320E-01   -3.096E-01   -2.871E-01   -2.646E-01   -2.422E-01   -2.197E-01   -1.972E-01   -1.747E-01   -1.522E-01   -1.297E-01
    -1.073E-01   -8.477E-02   -6.227E-02   -3.977E-02   -1.727E-02    5.231E-03    2.774E-02    5.024E-02    7.275E-02    9.527E-02
     1.178E-01    1.403E-01    1.628E-01    1.853E-01    2.079E-01    2.304E-01    2.529E-01    2.754E-01    2.980E-01    3.205E-01
     3.430E-01    3.656E-01    3.881E-01    4.107E-01    4.332E-01    4.557E-01    4.783E-01    5.008E-01    5.234E-01    5.459E-01
     5.685E-01    5.910E-01    6.136E-01    6.361E-01    6.587E-01    6.812E-01    7.038E-01    7.264E-01    7.489E-01    7.715E-01
     7.940E-01    8.166E-01    8.392E-01    8.617E-01    8.843E-01    9.068E-01    9.294E-01    9.520E-01    9.745E-01    9.971E-01
     1.020E+00    1.042E+00    1.065E+00    1.087E+00    1.110E+00    1.133E+00    1.155E+00    1.178E+00    1.200E+00    1.223E+00
     1.245E+00    1.268E+00    1.290E+00    1.313E+00    1.336E+00    1.358E+00    1.381E+00    1.403E+00    1.426E+00    1.448E+00
     1.471E+00    1.494E+00    1.516E+00    1.539E+00    1.561E+00    1.584E+00    1.606E+00    1.629E+00    1.651E+00    1.674E+00
     1.696E+00    1.719E+00    1.742E+00    1.764E+00    1.787E+00    1.809E+00    1.832E+00    1.854E+00    1.877E+00    1.899E+00
     1.922E+00    1.944E+00    1.967E+00    1.989E+00    2.012E+00    2.034E+00    2.057E+00    2.079E+00    2.102E+00    2.124E+00
     2.147E+00    2.169E+00    2.192E+00    2.214E+00    2.237E+00    2.259E+00    2.281E+00    2.304E+00    2.326E+00    2.349E+00
     2.371E+00    2.394E+00    2.416E+00    2.438E+00    2.461E+00    2.483E+00    2.506E+00    2.528E+00    2.550E+00    2.573E+00
     2.595E+00    2.618E+00    2.640E+00    2.662E+00    2.685E+00    2.707E+00    2.729E+00    2.752E+00    2.774E+00    2.796E+00
     2.819E+00    2.841E+00    2.863E+00    2.886E+00    2.908E+00    2.930E+00    2.953E+00    2.975E+00    2.997E+00    3.019E+00
     3.042E+00    3.064E+00    3.086E+00    3.108E+00    3.131E+00    3.153E+00    3.175E+00    3.197E+00    3.219E+00    3.242E+00
     3.264E+00    3.286E+00    3.308E+00    3.330E+00    3.352E+00    3.374E+00    3.397E+00    3.419E+00    3.441E+00    3.463E+00
     3.485E+00    3.507E+00    3.529E+00    3.551E+00    3.573E+00    3.595E+00    3.617E+00    3.640E+00    3.662E+00    3.684E+00
     3.706E+00    3.728E+00    3.750E+00    3.772E+00    3.794E+00    3.816E+00    3.838E+00    3.859E+00    3.881E+00    3.903E+00
     3.925E+00    3.947E+00    3.969E+00    3.991E+00    4.013E+00    4.035E+00    4.057E+00    4.079E+00
 Cr       Conc. = 5.73E+02
