 LCModel (Version 6.3-1L) Copyright: S.W. Provencher.          Ref.: Magn. Reson. Med. 30:672-679 (1993).                
 Slice#2 Row#6 Col#6  PD_24_press_1_raw_act
 36 lines in following concentration table = NCONC+1
    Conc.  %SD /Cr+PCr  Metabolite                                         
   54.538 317% 3.0E-02 Ala                                                 
    0.000 999%   0.000 Asp                                                 
  894.078  41%   0.499 Cr                                                  
  897.201  42%   0.501 PCr                                                 
    0.000 999%   0.000 GABA                                                
  184.402 122%   0.103 Glc                                                 
 1.23E+03  30%   0.686 Gln                                                 
 1.75E+03  23%   0.979 Glu                                                 
 1.02E+03   4%   0.569 GPC                                                 
    0.000 999%   0.000 PCh                                                 
  540.289  21%   0.302 GSH                                                 
 2.53E+03  16%   1.413 Ins                                                 
   12.631 999% 7.1E-03 Lac                                                 
 2.79E+03   6%   1.558 NAA                                                 
  135.784 134% 7.6E-02 NAAG                                                
  322.803  13%   0.180 Scyllo                                              
  334.669  89%   0.187 Tau                                                 
  471.395  36%   0.263 -CrCH2                                              
 1.02E+03   4%   0.569 GPC+PCh                                             
 2.93E+03   4%   1.634 NAA+NAAG                                            
 1.79E+03   4%   1.000 Cr+PCr                                              
 2.98E+03  21%   1.665 Glu+Gln                                             
    0.000 999%   0.000 Lip13a                                              
    0.000 999%   0.000 Lip13b                                              
    0.000 999%   0.000 Lip09                                               
 1.54E+03  15%   0.857 MM09                                                
 6.29E-03 999% 3.5E-06 Lip20                                               
 3.06E+03  15%   1.707 MM20                                                
  226.324  73%   0.126 MM12                                                
 1.05E+03  31%   0.586 MM14                                                
  813.878  33%   0.454 MM17                                                
    0.000 999%   0.000 Lip13a+Lip13b                                       
 1.28E+03  32%   0.713 MM14+Lip13a+Lip13b+MM12                             
 1.54E+03  15%   0.857 MM09+Lip09                                          
 3.06E+03  15%   1.707 MM20+Lip20                                          
   6 lines in following misc. output table
  FWHM = 0.061 ppm    S/N =  10                                            
  Data shift = 0.000 ppm                                                   
  Ph: -46 deg     -10.4 deg/ppm                                            
  alphaB,S = 1.3E+00,   1.7E+02                                            
   14 spline knots.   Ns = 8(1)                                            
  (13) 4 infls.   ( 9) 1 extrs.                                            
  498 points on ppm-axis = NY
      4.000000     3.992357     3.984714     3.977070     3.969427     3.961784     3.954141     3.946497     3.938854     3.931211
      3.923568     3.915925     3.908281     3.900638     3.892995     3.885352     3.877708     3.870065     3.862422     3.854779
      3.847136     3.839492     3.831849     3.824206     3.816563     3.808919     3.801276     3.793633     3.785990     3.778347
      3.770703     3.763060     3.755417     3.747774     3.740130     3.732487     3.724844     3.717201     3.709558     3.701914
      3.694271     3.686628     3.678985     3.671341     3.663698     3.656055     3.648412     3.640769     3.633125     3.625482
      3.617839     3.610196     3.602552     3.594909     3.587266     3.579623     3.571980     3.564336     3.556693     3.549050
      3.541407     3.533763     3.526120     3.518477     3.510834     3.503191     3.495547     3.487904     3.480261     3.472618
      3.464974     3.457331     3.449688     3.442045     3.434402     3.426758     3.419115     3.411472     3.403829     3.396185
      3.388542     3.380899     3.373256     3.365613     3.357969     3.350326     3.342683     3.335040     3.327396     3.319753
      3.312110     3.304467     3.296824     3.289180     3.281537     3.273894     3.266251     3.258607     3.250964     3.243321
      3.235678     3.228034     3.220391     3.212748     3.205105     3.197462     3.189818     3.182175     3.174532     3.166889
      3.159245     3.151602     3.143959     3.136316     3.128673     3.121029     3.113386     3.105743     3.098100     3.090456
      3.082813     3.075170     3.067527     3.059884     3.052240     3.044597     3.036954     3.029311     3.021667     3.014024
      3.006381     2.998738     2.991095     2.983451     2.975808     2.968165     2.960522     2.952878     2.945235     2.937592
      2.929949     2.922306     2.914662     2.907019     2.899376     2.891733     2.884089     2.876446     2.868803     2.861160
      2.853517     2.845873     2.838230     2.830587     2.822944     2.815300     2.807657     2.800014     2.792371     2.784728
      2.777084     2.769441     2.761798     2.754155     2.746511     2.738868     2.731225     2.723582     2.715939     2.708295
      2.700652     2.693009     2.685366     2.677722     2.670079     2.662436     2.654793     2.647150     2.639506     2.631863
      2.624220     2.616577     2.608933     2.601290     2.593647     2.586004     2.578361     2.570717     2.563074     2.555431
      2.547788     2.540144     2.532501     2.524858     2.517215     2.509572     2.501928     2.494285     2.486642     2.478999
      2.471355     2.463712     2.456069     2.448426     2.440783     2.433139     2.425496     2.417853     2.410210     2.402566
      2.394923     2.387280     2.379637     2.371994     2.364350     2.356707     2.349064     2.341421     2.333777     2.326134
      2.318491     2.310848     2.303205     2.295561     2.287918     2.280275     2.272632     2.264988     2.257345     2.249702
      2.242059     2.234416     2.226772     2.219129     2.211486     2.203843     2.196199     2.188556     2.180913     2.173270
      2.165627     2.157983     2.150340     2.142697     2.135054     2.127410     2.119767     2.112124     2.104481     2.096838
      2.089194     2.081551     2.073908     2.066265     2.058621     2.050978     2.043335     2.035692     2.028049     2.020405
      2.012762     2.005119     1.997476     1.989833     1.982190     1.974546     1.966903     1.959260     1.951617     1.943974
      1.936331     1.928688     1.921045     1.913402     1.905759     1.898115     1.890472     1.882829     1.875186     1.867543
      1.859900     1.852257     1.844614     1.836971     1.829327     1.821684     1.814041     1.806398     1.798755     1.791112
      1.783469     1.775826     1.768183     1.760540     1.752896     1.745253     1.737610     1.729967     1.722324     1.714681
      1.707038     1.699395     1.691752     1.684108     1.676465     1.668822     1.661179     1.653536     1.645893     1.638250
      1.630607     1.622964     1.615321     1.607677     1.600034     1.592391     1.584748     1.577105     1.569462     1.561819
      1.554176     1.546533     1.538890     1.531246     1.523603     1.515960     1.508317     1.500674     1.493031     1.485388
      1.477745     1.470102     1.462458     1.454815     1.447172     1.439529     1.431886     1.424243     1.416600     1.408957
      1.401314     1.393671     1.386027     1.378384     1.370741     1.363098     1.355455     1.347812     1.340169     1.332526
      1.324883     1.317240     1.309596     1.301953     1.294310     1.286667     1.279024     1.271381     1.263738     1.256095
      1.248452     1.240808     1.233165     1.225522     1.217879     1.210236     1.202593     1.194950     1.187307     1.179664
      1.172021     1.164377     1.156734     1.149091     1.141448     1.133805     1.126162     1.118519     1.110876     1.103233
      1.095590     1.087946     1.080303     1.072660     1.065017     1.057374     1.049731     1.042088     1.034445     1.026802
      1.019158     1.011515     1.003872     0.996229     0.988586     0.980943     0.973300     0.965657     0.958014     0.950371
      0.942727     0.935084     0.927441     0.919798     0.912155     0.904512     0.896869     0.889226     0.881583     0.873940
      0.866296     0.858653     0.851010     0.843367     0.835724     0.828081     0.820438     0.812795     0.805152     0.797508
      0.789865     0.782222     0.774579     0.766936     0.759293     0.751650     0.744007     0.736364     0.728721     0.721077
      0.713434     0.705791     0.698148     0.690505     0.682862     0.675219     0.667576     0.659933     0.652290     0.644646
      0.637003     0.629360     0.621717     0.614074     0.606431     0.598788     0.591145     0.583502     0.575858     0.568215
      0.560572     0.552929     0.545286     0.537643     0.530000     0.522357     0.514714     0.507071     0.499427     0.491784
      0.484141     0.476498     0.468855     0.461212     0.453569     0.445925     0.438282     0.430639     0.422996     0.415353
      0.407710     0.400067     0.392424     0.384780     0.377137     0.369494     0.361851     0.354208     0.346565     0.338922
      0.331278     0.323635     0.315992     0.308349     0.300706     0.293063     0.285420     0.277777     0.270133     0.262490
      0.254847     0.247204     0.239561     0.231918     0.224275     0.216631     0.208988     0.201345
 NY phased data points follow
  -8.12973E+01 -7.55679E+01 -7.33854E+01 -7.61436E+01 -6.11084E+01 -6.04127E+01 -5.02932E+01 -4.85542E+01 -4.23846E+01 -4.16333E+01
  -2.98915E+01 -3.94112E+01 -3.94329E+01 -4.45125E+01 -4.85191E+01 -6.00013E+01 -5.98526E+01 -5.58639E+01 -6.23157E+01 -6.20127E+01
  -6.61778E+01 -6.24741E+01 -6.09285E+01 -6.43386E+01 -6.14609E+01 -5.41618E+01 -4.71168E+01 -5.82727E+01 -4.88379E+01 -4.69266E+01
  -4.88962E+01 -4.75041E+01 -4.34098E+01 -5.33256E+01 -4.68099E+01 -5.07638E+01 -5.06168E+01 -4.33045E+01 -4.68836E+01 -4.52821E+01
  -4.83536E+01 -4.38261E+01 -3.74180E+01 -4.14600E+01 -3.90856E+01 -3.72609E+01 -3.19044E+01 -3.42130E+01 -3.86639E+01 -4.48319E+01
  -4.21251E+01 -4.10414E+01 -4.40294E+01 -4.40087E+01 -3.78315E+01 -4.49162E+01 -3.95290E+01 -4.16960E+01 -4.17467E+01 -4.51801E+01
  -4.20154E+01 -4.71378E+01 -4.91689E+01 -4.94582E+01 -4.99647E+01 -5.02056E+01 -4.97628E+01 -4.65912E+01 -5.28773E+01 -4.92669E+01
  -3.96710E+01 -4.60458E+01 -3.97289E+01 -4.44632E+01 -4.15630E+01 -3.78450E+01 -3.80324E+01 -4.28054E+01 -3.09270E+01 -4.53054E+01
  -3.23020E+01 -3.47994E+01 -3.19552E+01 -3.29908E+01 -3.12423E+01 -2.75313E+01 -2.99894E+01 -3.02386E+01 -2.86476E+01 -3.08838E+01
  -3.09069E+01 -2.84225E+01 -2.97304E+01 -2.62417E+01 -2.48885E+01 -1.91631E+01 -1.50435E+01 -1.39861E+01 -1.86662E-01  9.98129E+00
   2.50832E+01  3.64760E+01  3.99455E+01  3.87272E+01  3.32669E+01  2.09104E+01  1.21818E+01  6.36297E+00 -8.12255E+00 -1.21594E+01
  -1.80161E+01 -2.26244E+01 -2.41857E+01 -2.44532E+01 -3.27338E+01 -2.89758E+01 -3.11607E+01 -2.82976E+01 -2.99057E+01 -2.91383E+01
  -2.16596E+01 -1.76394E+01 -1.02943E+01 -6.61100E-01  5.50078E+00  1.92148E+01  2.10310E+01  1.40715E+01  1.40826E+01  1.39840E+01
   3.35695E+00 -1.43642E+00 -6.54994E+00 -2.17998E+01 -2.22721E+01 -2.05989E+01 -2.08583E+01 -2.19531E+01 -3.48632E+01 -2.06043E+01
  -2.71841E+01 -3.11546E+01 -2.80853E+01 -2.66453E+01 -2.54940E+01 -3.00456E+01 -3.14783E+01 -3.25439E+01 -2.72453E+01 -2.83486E+01
  -2.92963E+01 -2.92125E+01 -2.20225E+01 -2.91359E+01 -2.50294E+01 -1.97088E+01 -2.75532E+01 -2.68416E+01 -1.96538E+01 -2.94953E+01
  -2.69366E+01 -2.61875E+01 -2.48495E+01 -2.20755E+01 -2.84134E+01 -1.78246E+01 -2.33649E+01 -3.21308E+01 -2.13595E+01 -2.34042E+01
  -2.81294E+01 -3.09811E+01 -2.41278E+01 -3.30583E+01 -2.70908E+01 -2.82762E+01 -2.78684E+01 -3.06116E+01 -2.66513E+01 -2.86981E+01
  -2.89302E+01 -2.86147E+01 -3.09287E+01 -3.23187E+01 -3.10570E+01 -3.43142E+01 -2.48143E+01 -2.37448E+01 -2.01737E+01 -1.60027E+01
  -1.57224E+01 -1.11767E+01 -1.25559E+01 -1.21124E+01 -1.53871E+01 -1.85998E+01 -1.92670E+01 -1.41244E+01 -1.78225E+01 -1.68292E+01
  -1.93548E+01 -1.50404E+01 -1.28873E+01 -1.30412E+01 -1.04307E+01 -2.21390E+01 -1.31981E+01 -1.53152E+01 -2.32768E+01 -1.80725E+01
  -1.67214E+01 -1.50752E+01 -5.99139E+00 -5.76924E+00 -4.62220E+00 -3.05990E+00  2.39837E-01 -3.81571E+00 -5.36252E+00 -9.57883E+00
  -1.02732E+01 -9.75538E+00 -1.18440E+01 -1.93616E+01 -1.20226E+01 -3.41125E+00 -6.88345E+00 -2.61159E+00 -6.46683E+00 -6.72127E+00
  -4.78961E+00 -1.65001E+00 -3.85779E+00 -2.93848E+00 -3.29167E+00 -4.32073E-01 -4.03600E+00 -2.10508E+00 -4.21585E+00 -7.63024E+00
  -6.98297E+00 -8.46735E+00 -5.81246E+00 -6.18305E+00 -5.89783E+00 -1.93425E+00 -5.37438E+00 -1.42388E+00  2.22420E+00  4.06452E+00
   6.69443E+00  9.90206E+00  9.22197E+00  1.90186E+01  2.49208E+01  2.86654E+01  3.99958E+01  4.97047E+01  6.90167E+01  7.79814E+01
   8.30068E+01  8.18577E+01  6.56199E+01  6.01250E+01  5.14708E+01  3.53884E+01  2.97832E+01  1.84152E+01  1.14755E+01  9.09236E+00
   4.01719E+00  5.63454E+00  2.83113E+00 -2.76841E+00  4.83884E+00  5.00659E-01 -2.25212E+00 -1.83296E+00 -1.41772E+00 -4.08888E+00
  -2.67566E+00 -6.96210E+00 -9.69225E-02  3.63555E+00 -4.85798E+00 -3.81558E+00 -5.86640E+00 -5.44770E+00 -9.54836E-01 -9.56497E-01
  -4.29966E+00 -5.03695E+00  5.24312E+00 -4.51823E-01 -3.15153E+00 -6.15562E+00 -4.54796E+00 -4.04730E+00 -3.28918E+00 -4.70611E+00
  -9.55747E+00 -2.60300E-01  1.04011E+00 -3.60158E+00  2.72100E+00  2.57699E+00  5.51864E+00  2.85661E-01 -3.00875E-01  2.16458E+00
   6.98326E+00  6.92715E-02 -2.68001E-03 -9.54698E-01 -9.56543E-01  2.65731E+00  1.31423E+00  4.48166E+00  1.38448E-02  2.47699E+00
   4.51115E+00  7.37354E-01  2.41709E+00  7.34479E+00 -3.29513E-01  1.55150E+00  4.22256E+00  5.01473E-03  3.41726E+00  9.06588E+00
  -4.58584E-01 -1.82880E+00  5.82017E-01  2.64862E+00  4.20615E+00  1.94322E+00  7.75674E+00 -1.38970E+00  2.04862E+00  8.84815E-01
   2.06255E-01  2.15043E+00  1.37692E+00  1.17218E+00  4.05647E+00 -7.70891E-01  3.86095E+00 -3.24462E+00 -6.44355E-03 -4.47296E+00
  -1.36687E-01 -5.12093E+00  2.08260E+00 -4.83651E+00 -1.08402E+00  7.29784E-01 -1.81350E+00 -4.09087E+00  4.64748E+00 -1.68098E+00
  -4.88267E+00 -1.45618E+00 -2.23481E-01 -6.54519E+00 -2.51727E+00 -4.01130E+00  1.19139E+00 -9.53392E-01 -9.17374E-01 -5.15740E+00
  -9.09709E+00 -1.42744E+00  5.88040E+00  3.17816E-01  1.72766E+00  2.32439E+00 -4.02787E+00 -3.41354E+00 -9.78307E+00 -1.21089E+00
  -3.26715E+00 -4.69761E+00  3.41132E+00 -1.91008E+00  2.17674E+00  1.96017E+00  9.74579E+00  4.11567E+00  1.21777E+00  1.86016E-01
  -3.21842E+00  2.46084E+00  6.07695E+00 -2.25703E+00  6.72487E+00  7.94864E+00  1.02373E+01  1.18593E+01  2.84225E+00  3.85684E+00
   1.07583E+01  9.72482E+00  9.93463E+00  1.47546E+01  8.24082E+00  1.21822E+01  1.37394E+01  1.60850E+01  1.62722E+01  1.02018E+01
   1.78530E+01  1.03299E+01  1.67138E+01  1.28166E+01  1.29813E+01  1.27514E+01  9.87878E+00  7.01725E+00  1.10093E+01  2.53739E+00
   1.13716E+01  5.97177E+00  1.29233E+01  4.20389E+00  7.01302E+00  9.58863E+00  5.74702E+00  1.51787E+00  8.75682E+00  1.10572E+00
   6.62481E+00  1.01078E+01  7.84291E+00  8.02440E+00  3.04844E+00  1.51305E+00  2.06761E+00 -2.36170E+00  6.63162E+00 -2.28929E-01
   9.94674E+00  3.26625E+00  6.00526E+00  7.58558E+00  8.11619E+00  1.15625E+01  9.66640E+00  6.51323E+00  7.60247E+00  6.02165E+00
   1.16177E+01  9.61676E+00  2.58683E+00  4.98328E+00  4.86436E+00  7.49796E+00  7.06223E+00  3.16002E+00  2.46836E+00  7.40044E+00
   7.79070E+00  5.72953E+00  7.06206E+00  6.28851E+00  7.69807E+00  5.90963E-01  5.40476E+00  4.42149E+00  1.14572E+01 -9.20424E-01
   6.18286E+00  8.66024E+00  8.22558E+00  6.46868E+00  8.16022E+00  7.24777E+00  4.34449E+00  4.74212E+00  6.11834E+00  4.95730E+00
   2.68070E+00  1.09334E+00  2.50959E+00  5.73401E+00  9.64579E+00  8.48267E+00  1.32737E+01  4.74529E+00  5.65570E+00  7.21482E+00
   4.34744E+00  1.93121E-02  6.22203E+00  1.68843E+00  4.44439E+00  6.75703E+00  2.89809E+00  8.52870E+00
 NY points of the fit to the data follow
  -6.95501E+01 -6.93684E+01 -6.78298E+01 -6.51247E+01 -6.18719E+01 -5.80637E+01 -5.35459E+01 -4.85166E+01 -4.37340E+01 -4.02777E+01
  -3.89381E+01 -3.97032E+01 -4.19034E+01 -4.47754E+01 -4.78244E+01 -5.07272E+01 -5.32387E+01 -5.53056E+01 -5.72852E+01 -5.90713E+01
  -6.02803E+01 -6.08102E+01 -6.06562E+01 -6.00212E+01 -5.90800E+01 -5.77062E+01 -5.56573E+01 -5.29211E+01 -4.99446E+01 -4.72992E+01
  -4.54921E+01 -4.48162E+01 -4.51304E+01 -4.61696E+01 -4.76353E+01 -4.92077E+01 -5.06704E+01 -5.17174E+01 -5.20251E+01 -5.14053E+01
  -4.98583E+01 -4.76882E+01 -4.50549E+01 -4.21209E+01 -3.92962E+01 -3.72542E+01 -3.66088E+01 -3.73647E+01 -3.90992E+01 -4.13174E+01
  -4.34833E+01 -4.52494E+01 -4.64190E+01 -4.68734E+01 -4.68972E+01 -4.67451E+01 -4.62573E+01 -4.53962E+01 -4.45781E+01 -4.42124E+01
  -4.43387E+01 -4.47681E+01 -4.52703E+01 -4.55737E+01 -4.55521E+01 -4.51993E+01 -4.46058E+01 -4.38846E+01 -4.30497E+01 -4.21760E+01
  -4.13875E+01 -4.07167E+01 -4.02196E+01 -3.98963E+01 -3.97379E+01 -3.97657E+01 -3.99249E+01 -4.00880E+01 -3.99970E+01 -3.91735E+01
  -3.80012E+01 -3.66381E+01 -3.49438E+01 -3.29352E+01 -3.08846E+01 -2.92507E+01 -2.84758E+01 -2.86726E+01 -2.95409E+01 -3.07110E+01
  -3.18960E+01 -3.29251E+01 -3.36738E+01 -3.38196E+01 -3.21929E+01 -2.71964E+01 -2.00432E+01 -1.11536E+01 -2.29142E-01  1.25540E+01
   2.56629E+01  3.61410E+01  4.11706E+01  3.97833E+01  3.31768E+01  2.36743E+01  1.32058E+01  2.88001E+00 -6.42666E+00 -1.41130E+01
  -2.04535E+01 -2.62105E+01 -3.08395E+01 -3.27798E+01 -3.32069E+01 -3.31907E+01 -3.29551E+01 -3.24439E+01 -3.10165E+01 -2.74297E+01
  -2.22748E+01 -1.63759E+01 -9.39195E+00 -1.12801E+00  7.62032E+00  1.50683E+01  1.92956E+01  1.93577E+01  1.58358E+01  1.02167E+01
   3.77441E+00 -2.75416E+00 -8.86980E+00 -1.42083E+01 -1.87401E+01 -2.28406E+01 -2.62015E+01 -2.76207E+01 -2.76088E+01 -2.71576E+01
  -2.66118E+01 -2.61517E+01 -2.58670E+01 -2.57162E+01 -2.56093E+01 -2.55640E+01 -2.55930E+01 -2.56761E+01 -2.58006E+01 -2.59367E+01
  -2.60476E+01 -2.61135E+01 -2.60943E+01 -2.60754E+01 -2.60885E+01 -2.60881E+01 -2.60818E+01 -2.60751E+01 -2.61092E+01 -2.61988E+01
  -2.62254E+01 -2.60932E+01 -2.58247E+01 -2.55423E+01 -2.53857E+01 -2.54161E+01 -2.55912E+01 -2.58508E+01 -2.61717E+01 -2.65171E+01
  -2.67577E+01 -2.69447E+01 -2.71725E+01 -2.74556E+01 -2.77064E+01 -2.76984E+01 -2.74106E+01 -2.70423E+01 -2.67358E+01 -2.65567E+01
  -2.64251E+01 -2.61616E+01 -2.57424E+01 -2.51933E+01 -2.44717E+01 -2.35257E+01 -2.23608E+01 -2.10545E+01 -1.96987E+01 -1.84536E+01
  -1.75725E+01 -1.71713E+01 -1.71461E+01 -1.72634E+01 -1.73417E+01 -1.72457E+01 -1.67414E+01 -1.58080E+01 -1.45799E+01 -1.31800E+01
  -1.18893E+01 -1.10034E+01 -1.07136E+01 -1.10009E+01 -1.19651E+01 -1.36532E+01 -1.57171E+01 -1.75012E+01 -1.84669E+01 -1.83805E+01
  -1.74161E+01 -1.56998E+01 -1.34377E+01 -1.10138E+01 -8.92654E+00 -7.77948E+00 -7.76137E+00 -8.61647E+00 -1.01156E+01 -1.20231E+01
  -1.39080E+01 -1.50727E+01 -1.51338E+01 -1.42502E+01 -1.28431E+01 -1.12235E+01 -9.55575E+00 -8.10615E+00 -7.13895E+00 -6.51125E+00
  -6.01655E+00 -5.50959E+00 -4.93830E+00 -4.34584E+00 -3.71309E+00 -2.97963E+00 -2.31259E+00 -1.94612E+00 -2.00307E+00 -2.49234E+00
  -3.20808E+00 -3.88154E+00 -4.26193E+00 -4.13487E+00 -3.52485E+00 -2.65576E+00 -1.67656E+00 -5.69754E-01  6.97719E-01  2.01845E+00
   3.37960E+00  5.09287E+00  8.60013E+00  1.54749E+01  2.37178E+01  3.26406E+01  4.31278E+01  5.52856E+01  6.75227E+01  7.68636E+01
   8.05903E+01  7.79444E+01  7.03446E+01  6.01289E+01  4.90448E+01  3.81820E+01  2.85251E+01  2.05949E+01  1.38849E+01  7.55201E+00
   2.53932E+00  4.65039E-01 -3.19951E-01 -7.81781E-01 -1.10774E+00 -1.36619E+00 -1.63211E+00 -1.90052E+00 -2.16307E+00 -2.41449E+00
  -2.64040E+00 -2.83050E+00 -2.99505E+00 -3.14095E+00 -3.25555E+00 -3.33152E+00 -3.37445E+00 -3.39089E+00 -3.37920E+00 -3.33373E+00
  -3.25354E+00 -3.14765E+00 -3.01661E+00 -2.85871E+00 -2.67482E+00 -2.46799E+00 -2.23931E+00 -1.99037E+00 -1.72305E+00 -1.44130E+00
  -1.14948E+00 -8.53516E-01 -5.58421E-01 -2.70740E-01  3.40399E-03  2.58181E-01  4.89439E-01  6.94059E-01  8.70127E-01  1.01578E+00
   1.13199E+00  1.22077E+00  1.28540E+00  1.33007E+00  1.36047E+00  1.38228E+00  1.40229E+00  1.42790E+00  1.46995E+00  1.54231E+00
   1.63142E+00  1.71918E+00  1.81111E+00  1.90425E+00  1.97914E+00  2.00753E+00  1.97022E+00  1.89086E+00  1.81505E+00  1.75976E+00
   1.73748E+00  1.76129E+00  1.84013E+00  1.96696E+00  2.10925E+00  2.22156E+00  2.27837E+00  2.28573E+00  2.24134E+00  2.14173E+00
   1.99732E+00  1.81899E+00  1.62294E+00  1.41319E+00  1.18129E+00  9.36942E-01  6.98936E-01  4.70923E-01  2.59820E-01  7.07935E-02
  -8.98366E-02 -2.17215E-01 -3.08821E-01 -3.67389E-01 -4.01420E-01 -4.22118E-01 -4.35531E-01 -4.40650E-01 -4.38992E-01 -4.35086E-01
  -4.28290E-01 -4.17368E-01 -4.01503E-01 -3.82960E-01 -3.64213E-01 -3.41912E-01 -3.14266E-01 -2.83687E-01 -2.51041E-01 -2.16798E-01
  -1.80691E-01 -1.42491E-01 -1.01347E-01 -5.65025E-02 -6.67942E-03  4.92166E-02  1.12759E-01  1.85377E-01  2.69030E-01  3.65556E-01
   4.77309E-01  6.06521E-01  7.55991E-01  9.28477E-01  1.12734E+00  1.35585E+00  1.61775E+00  1.91654E+00  2.25598E+00  2.63934E+00
   3.06974E+00  3.54927E+00  4.07926E+00  4.65938E+00  5.28795E+00  5.96105E+00  6.67288E+00  7.41499E+00  8.17688E+00  8.94558E+00
   9.70652E+00  1.04434E+01  1.11395E+01  1.17775E+01  1.23413E+01  1.28158E+01  1.31888E+01  1.34508E+01  1.35959E+01  1.36222E+01
   1.35316E+01  1.33301E+01  1.30270E+01  1.26346E+01  1.21676E+01  1.16417E+01  1.10738E+01  1.04801E+01  9.87637E+00  9.27657E+00
   8.69307E+00  8.13580E+00  7.61274E+00  7.12936E+00  6.68930E+00  6.29408E+00  5.94386E+00  5.63727E+00  5.37228E+00  5.14594E+00
   4.95511E+00  4.79621E+00  4.66588E+00  4.56064E+00  4.47747E+00  4.41337E+00  4.36587E+00  4.33252E+00  4.31141E+00  4.30067E+00
   4.29896E+00  4.30486E+00  4.31740E+00  4.33551E+00  4.35851E+00  4.38563E+00  4.41643E+00  4.45029E+00  4.48691E+00  4.52578E+00
   4.56673E+00  4.60936E+00  4.65358E+00  4.69907E+00  4.74575E+00  4.79336E+00  4.84193E+00  4.89123E+00  4.94130E+00  4.99193E+00
   5.04314E+00  5.09476E+00  5.14687E+00  5.19931E+00  5.25216E+00  5.30524E+00  5.35862E+00  5.41216E+00  5.46598E+00  5.51995E+00
   5.57413E+00  5.62840E+00  5.68284E+00  5.73735E+00  5.79204E+00  5.84679E+00  5.90168E+00  5.95658E+00  6.01161E+00  6.06667E+00
   6.12188E+00  6.17710E+00  6.23244E+00  6.28777E+00  6.34322E+00  6.39870E+00  6.45432E+00  6.50995E+00  6.56568E+00  6.62143E+00
   6.67731E+00  6.73323E+00  6.78930E+00  6.84539E+00  6.90159E+00  6.95784E+00  7.01424E+00  7.07072E+00
 NY background values follow
    -7.772E+01   -7.732E+01   -7.692E+01   -7.651E+01   -7.611E+01   -7.571E+01   -7.531E+01   -7.491E+01   -7.451E+01   -7.411E+01
    -7.371E+01   -7.330E+01   -7.290E+01   -7.250E+01   -7.210E+01   -7.170E+01   -7.130E+01   -7.090E+01   -7.050E+01   -7.011E+01
    -6.971E+01   -6.931E+01   -6.891E+01   -6.852E+01   -6.812E+01   -6.772E+01   -6.733E+01   -6.693E+01   -6.654E+01   -6.614E+01
    -6.575E+01   -6.536E+01   -6.497E+01   -6.457E+01   -6.418E+01   -6.379E+01   -6.341E+01   -6.302E+01   -6.263E+01   -6.224E+01
    -6.186E+01   -6.147E+01   -6.109E+01   -6.071E+01   -6.032E+01   -5.994E+01   -5.956E+01   -5.918E+01   -5.881E+01   -5.843E+01
    -5.805E+01   -5.768E+01   -5.731E+01   -5.693E+01   -5.656E+01   -5.619E+01   -5.582E+01   -5.546E+01   -5.509E+01   -5.472E+01
    -5.436E+01   -5.400E+01   -5.364E+01   -5.328E+01   -5.292E+01   -5.256E+01   -5.220E+01   -5.185E+01   -5.149E+01   -5.114E+01
    -5.079E+01   -5.044E+01   -5.009E+01   -4.975E+01   -4.940E+01   -4.906E+01   -4.872E+01   -4.838E+01   -4.804E+01   -4.770E+01
    -4.736E+01   -4.703E+01   -4.670E+01   -4.636E+01   -4.603E+01   -4.571E+01   -4.538E+01   -4.506E+01   -4.473E+01   -4.441E+01
    -4.409E+01   -4.377E+01   -4.346E+01   -4.314E+01   -4.283E+01   -4.252E+01   -4.221E+01   -4.190E+01   -4.159E+01   -4.129E+01
    -4.098E+01   -4.068E+01   -4.038E+01   -4.008E+01   -3.979E+01   -3.949E+01   -3.920E+01   -3.891E+01   -3.862E+01   -3.833E+01
    -3.804E+01   -3.776E+01   -3.747E+01   -3.719E+01   -3.691E+01   -3.663E+01   -3.635E+01   -3.608E+01   -3.580E+01   -3.553E+01
    -3.526E+01   -3.499E+01   -3.472E+01   -3.445E+01   -3.418E+01   -3.392E+01   -3.366E+01   -3.339E+01   -3.313E+01   -3.288E+01
    -3.262E+01   -3.236E+01   -3.211E+01   -3.186E+01   -3.160E+01   -3.135E+01   -3.110E+01   -3.086E+01   -3.061E+01   -3.037E+01
    -3.012E+01   -2.988E+01   -2.964E+01   -2.940E+01   -2.916E+01   -2.893E+01   -2.869E+01   -2.846E+01   -2.822E+01   -2.799E+01
    -2.776E+01   -2.753E+01   -2.730E+01   -2.708E+01   -2.685E+01   -2.663E+01   -2.640E+01   -2.618E+01   -2.596E+01   -2.574E+01
    -2.552E+01   -2.530E+01   -2.509E+01   -2.487E+01   -2.466E+01   -2.444E+01   -2.423E+01   -2.402E+01   -2.381E+01   -2.360E+01
    -2.339E+01   -2.319E+01   -2.298E+01   -2.278E+01   -2.257E+01   -2.237E+01   -2.217E+01   -2.197E+01   -2.177E+01   -2.157E+01
    -2.137E+01   -2.118E+01   -2.098E+01   -2.079E+01   -2.059E+01   -2.040E+01   -2.021E+01   -2.002E+01   -1.983E+01   -1.964E+01
    -1.945E+01   -1.926E+01   -1.908E+01   -1.889E+01   -1.871E+01   -1.853E+01   -1.834E+01   -1.816E+01   -1.799E+01   -1.781E+01
    -1.763E+01   -1.746E+01   -1.728E+01   -1.711E+01   -1.694E+01   -1.677E+01   -1.660E+01   -1.643E+01   -1.626E+01   -1.610E+01
    -1.593E+01   -1.577E+01   -1.561E+01   -1.545E+01   -1.529E+01   -1.514E+01   -1.498E+01   -1.483E+01   -1.467E+01   -1.452E+01
    -1.437E+01   -1.422E+01   -1.408E+01   -1.393E+01   -1.379E+01   -1.364E+01   -1.350E+01   -1.336E+01   -1.323E+01   -1.309E+01
    -1.296E+01   -1.282E+01   -1.269E+01   -1.256E+01   -1.243E+01   -1.230E+01   -1.218E+01   -1.205E+01   -1.193E+01   -1.181E+01
    -1.169E+01   -1.157E+01   -1.145E+01   -1.134E+01   -1.122E+01   -1.111E+01   -1.099E+01   -1.088E+01   -1.077E+01   -1.067E+01
    -1.056E+01   -1.045E+01   -1.035E+01   -1.024E+01   -1.014E+01   -1.004E+01   -9.941E+00   -9.843E+00   -9.745E+00   -9.649E+00
    -9.554E+00   -9.460E+00   -9.367E+00   -9.275E+00   -9.184E+00   -9.095E+00   -9.006E+00   -8.918E+00   -8.832E+00   -8.746E+00
    -8.662E+00   -8.578E+00   -8.496E+00   -8.414E+00   -8.334E+00   -8.254E+00   -8.176E+00   -8.098E+00   -8.021E+00   -7.945E+00
    -7.870E+00   -7.796E+00   -7.722E+00   -7.650E+00   -7.578E+00   -7.507E+00   -7.437E+00   -7.367E+00   -7.299E+00   -7.231E+00
    -7.164E+00   -7.097E+00   -7.032E+00   -6.966E+00   -6.902E+00   -6.838E+00   -6.775E+00   -6.713E+00   -6.651E+00   -6.590E+00
    -6.529E+00   -6.469E+00   -6.410E+00   -6.351E+00   -6.292E+00   -6.234E+00   -6.177E+00   -6.120E+00   -6.064E+00   -6.008E+00
    -5.952E+00   -5.897E+00   -5.842E+00   -5.788E+00   -5.734E+00   -5.681E+00   -5.627E+00   -5.575E+00   -5.522E+00   -5.470E+00
    -5.418E+00   -5.366E+00   -5.315E+00   -5.264E+00   -5.213E+00   -5.162E+00   -5.111E+00   -5.061E+00   -5.010E+00   -4.960E+00
    -4.910E+00   -4.859E+00   -4.809E+00   -4.759E+00   -4.709E+00   -4.658E+00   -4.608E+00   -4.558E+00   -4.507E+00   -4.456E+00
    -4.406E+00   -4.355E+00   -4.303E+00   -4.252E+00   -4.200E+00   -4.148E+00   -4.096E+00   -4.044E+00   -3.991E+00   -3.938E+00
    -3.884E+00   -3.830E+00   -3.776E+00   -3.721E+00   -3.666E+00   -3.610E+00   -3.554E+00   -3.497E+00   -3.440E+00   -3.382E+00
    -3.324E+00   -3.264E+00   -3.205E+00   -3.144E+00   -3.084E+00   -3.022E+00   -2.960E+00   -2.897E+00   -2.834E+00   -2.770E+00
    -2.705E+00   -2.640E+00   -2.575E+00   -2.509E+00   -2.442E+00   -2.375E+00   -2.307E+00   -2.239E+00   -2.170E+00   -2.101E+00
    -2.031E+00   -1.961E+00   -1.891E+00   -1.820E+00   -1.748E+00   -1.676E+00   -1.604E+00   -1.531E+00   -1.458E+00   -1.385E+00
    -1.311E+00   -1.237E+00   -1.162E+00   -1.087E+00   -1.012E+00   -9.363E-01   -8.604E-01   -7.841E-01   -7.076E-01   -6.308E-01
    -5.537E-01   -4.763E-01   -3.986E-01   -3.208E-01   -2.426E-01   -1.642E-01   -8.565E-02   -6.832E-03    7.219E-02    1.514E-01
     2.308E-01    3.103E-01    3.900E-01    4.698E-01    5.497E-01    6.297E-01    7.098E-01    7.900E-01    8.702E-01    9.504E-01
     1.031E+00    1.111E+00    1.191E+00    1.271E+00    1.352E+00    1.432E+00    1.512E+00    1.592E+00    1.672E+00    1.751E+00
     1.831E+00    1.910E+00    1.990E+00    2.069E+00    2.148E+00    2.226E+00    2.305E+00    2.383E+00    2.461E+00    2.539E+00
     2.616E+00    2.693E+00    2.770E+00    2.846E+00    2.922E+00    2.998E+00    3.074E+00    3.148E+00    3.223E+00    3.297E+00
     3.371E+00    3.444E+00    3.517E+00    3.589E+00    3.661E+00    3.732E+00    3.803E+00    3.873E+00    3.943E+00    4.013E+00
     4.082E+00    4.151E+00    4.219E+00    4.287E+00    4.355E+00    4.422E+00    4.489E+00    4.556E+00    4.622E+00    4.689E+00
     4.754E+00    4.820E+00    4.885E+00    4.950E+00    5.015E+00    5.080E+00    5.144E+00    5.208E+00    5.273E+00    5.336E+00
     5.400E+00    5.464E+00    5.527E+00    5.590E+00    5.654E+00    5.717E+00    5.780E+00    5.843E+00    5.905E+00    5.968E+00
     6.031E+00    6.094E+00    6.157E+00    6.219E+00    6.282E+00    6.345E+00    6.408E+00    6.470E+00
 Ala      Conc. = 5.45E+01
