 LCModel (Version 6.3-1L) Copyright: S.W. Provencher.          Ref.: Magn. Reson. Med. 30:672-679 (1993).                
 Slice#1 Row#7 Col#11  PD_24_press_1_raw_act
 36 lines in following concentration table = NCONC+1
    Conc.  %SD /Cr+PCr  Metabolite                                         
  126.911 119%   0.166 Ala                                                 
   69.731 279% 9.1E-02 Asp                                                 
  387.109  70%   0.507 Cr                                                  
  376.608  72%   0.493 PCr                                                 
    0.000 999%   0.000 GABA                                                
    7.559 999% 9.9E-03 Glc                                                 
  551.924  58%   0.723 Gln                                                 
 1.23E+03  29%   1.612 Glu                                                 
  280.732  78%   0.368 GPC                                                 
    9.534 999% 1.2E-02 PCh                                                 
  180.163  45%   0.236 GSH                                                 
  970.771  30%   1.271 Ins                                                 
  133.916 129%   0.175 Lac                                                 
 2.40E+03   3%   3.140 NAA                                                 
    0.000 999%   0.000 NAAG                                                
  114.169  23%   0.149 Scyllo                                              
  327.420  62%   0.429 Tau                                                 
  477.593  23%   0.625 -CrCH2                                              
  290.266   8%   0.380 GPC+PCh                                             
 2.40E+03   3%   3.140 NAA+NAAG                                            
  763.717   7%   1.000 Cr+PCr                                              
 1.78E+03  32%   2.334 Glu+Gln                                             
 2.09E+03  20%   2.742 Lip13a                                              
    0.000 999%   0.000 Lip13b                                              
    0.000 999%   0.000 Lip09                                               
 1.81E+03  10%   2.376 MM09                                                
  468.113  50%   0.613 Lip20                                               
 4.19E+03   9%   5.487 MM20                                                
  718.796  25%   0.941 MM12                                                
 1.55E+03  23%   2.032 MM14                                                
 2.03E+03  15%   2.653 MM17                                                
 2.09E+03  20%   2.742 Lip13a+Lip13b                                       
 4.37E+03   9%   5.716 MM14+Lip13a+Lip13b+MM12                             
 1.81E+03  10%   2.376 MM09+Lip09                                          
 4.66E+03   8%   6.100 MM20+Lip20                                          
   6 lines in following misc. output table
  FWHM = 0.076 ppm    S/N =  12                                            
  Data shift = 0.000 ppm                                                   
  Ph: -65 deg     -17.5 deg/ppm                                            
  alphaB,S = 8.5E+01,   3.1E+02                                            
   14 spline knots.   Ns = 9(1)                                            
   2 inflections.     1 extrema                                            
  498 points on ppm-axis = NY
      4.000000     3.992357     3.984714     3.977070     3.969427     3.961784     3.954141     3.946497     3.938854     3.931211
      3.923568     3.915925     3.908281     3.900638     3.892995     3.885352     3.877708     3.870065     3.862422     3.854779
      3.847136     3.839492     3.831849     3.824206     3.816563     3.808919     3.801276     3.793633     3.785990     3.778347
      3.770703     3.763060     3.755417     3.747774     3.740130     3.732487     3.724844     3.717201     3.709558     3.701914
      3.694271     3.686628     3.678985     3.671341     3.663698     3.656055     3.648412     3.640769     3.633125     3.625482
      3.617839     3.610196     3.602552     3.594909     3.587266     3.579623     3.571980     3.564336     3.556693     3.549050
      3.541407     3.533763     3.526120     3.518477     3.510834     3.503191     3.495547     3.487904     3.480261     3.472618
      3.464974     3.457331     3.449688     3.442045     3.434402     3.426758     3.419115     3.411472     3.403829     3.396185
      3.388542     3.380899     3.373256     3.365613     3.357969     3.350326     3.342683     3.335040     3.327396     3.319753
      3.312110     3.304467     3.296824     3.289180     3.281537     3.273894     3.266251     3.258607     3.250964     3.243321
      3.235678     3.228034     3.220391     3.212748     3.205105     3.197462     3.189818     3.182175     3.174532     3.166889
      3.159245     3.151602     3.143959     3.136316     3.128673     3.121029     3.113386     3.105743     3.098100     3.090456
      3.082813     3.075170     3.067527     3.059884     3.052240     3.044597     3.036954     3.029311     3.021667     3.014024
      3.006381     2.998738     2.991095     2.983451     2.975808     2.968165     2.960522     2.952878     2.945235     2.937592
      2.929949     2.922306     2.914662     2.907019     2.899376     2.891733     2.884089     2.876446     2.868803     2.861160
      2.853517     2.845873     2.838230     2.830587     2.822944     2.815300     2.807657     2.800014     2.792371     2.784728
      2.777084     2.769441     2.761798     2.754155     2.746511     2.738868     2.731225     2.723582     2.715939     2.708295
      2.700652     2.693009     2.685366     2.677722     2.670079     2.662436     2.654793     2.647150     2.639506     2.631863
      2.624220     2.616577     2.608933     2.601290     2.593647     2.586004     2.578361     2.570717     2.563074     2.555431
      2.547788     2.540144     2.532501     2.524858     2.517215     2.509572     2.501928     2.494285     2.486642     2.478999
      2.471355     2.463712     2.456069     2.448426     2.440783     2.433139     2.425496     2.417853     2.410210     2.402566
      2.394923     2.387280     2.379637     2.371994     2.364350     2.356707     2.349064     2.341421     2.333777     2.326134
      2.318491     2.310848     2.303205     2.295561     2.287918     2.280275     2.272632     2.264988     2.257345     2.249702
      2.242059     2.234416     2.226772     2.219129     2.211486     2.203843     2.196199     2.188556     2.180913     2.173270
      2.165627     2.157983     2.150340     2.142697     2.135054     2.127410     2.119767     2.112124     2.104481     2.096838
      2.089194     2.081551     2.073908     2.066265     2.058621     2.050978     2.043335     2.035692     2.028049     2.020405
      2.012762     2.005119     1.997476     1.989833     1.982190     1.974546     1.966903     1.959260     1.951617     1.943974
      1.936331     1.928688     1.921045     1.913402     1.905759     1.898115     1.890472     1.882829     1.875186     1.867543
      1.859900     1.852257     1.844614     1.836971     1.829327     1.821684     1.814041     1.806398     1.798755     1.791112
      1.783469     1.775826     1.768183     1.760540     1.752896     1.745253     1.737610     1.729967     1.722324     1.714681
      1.707038     1.699395     1.691752     1.684108     1.676465     1.668822     1.661179     1.653536     1.645893     1.638250
      1.630607     1.622964     1.615321     1.607677     1.600034     1.592391     1.584748     1.577105     1.569462     1.561819
      1.554176     1.546533     1.538890     1.531246     1.523603     1.515960     1.508317     1.500674     1.493031     1.485388
      1.477745     1.470102     1.462458     1.454815     1.447172     1.439529     1.431886     1.424243     1.416600     1.408957
      1.401314     1.393671     1.386027     1.378384     1.370741     1.363098     1.355455     1.347812     1.340169     1.332526
      1.324883     1.317240     1.309596     1.301953     1.294310     1.286667     1.279024     1.271381     1.263738     1.256095
      1.248452     1.240808     1.233165     1.225522     1.217879     1.210236     1.202593     1.194950     1.187307     1.179664
      1.172021     1.164377     1.156734     1.149091     1.141448     1.133805     1.126162     1.118519     1.110876     1.103233
      1.095590     1.087946     1.080303     1.072660     1.065017     1.057374     1.049731     1.042088     1.034445     1.026802
      1.019158     1.011515     1.003872     0.996229     0.988586     0.980943     0.973300     0.965657     0.958014     0.950371
      0.942727     0.935084     0.927441     0.919798     0.912155     0.904512     0.896869     0.889226     0.881583     0.873940
      0.866296     0.858653     0.851010     0.843367     0.835724     0.828081     0.820438     0.812795     0.805152     0.797508
      0.789865     0.782222     0.774579     0.766936     0.759293     0.751650     0.744007     0.736364     0.728721     0.721077
      0.713434     0.705791     0.698148     0.690505     0.682862     0.675219     0.667576     0.659933     0.652290     0.644646
      0.637003     0.629360     0.621717     0.614074     0.606431     0.598788     0.591145     0.583502     0.575858     0.568215
      0.560572     0.552929     0.545286     0.537643     0.530000     0.522357     0.514714     0.507071     0.499427     0.491784
      0.484141     0.476498     0.468855     0.461212     0.453569     0.445925     0.438282     0.430639     0.422996     0.415353
      0.407710     0.400067     0.392424     0.384780     0.377137     0.369494     0.361851     0.354208     0.346565     0.338922
      0.331278     0.323635     0.315992     0.308349     0.300706     0.293063     0.285420     0.277777     0.270133     0.262490
      0.254847     0.247204     0.239561     0.231918     0.224275     0.216631     0.208988     0.201345
 NY phased data points follow
   6.75775E+00  5.22347E+00  3.12121E+00  4.97917E+00  6.58381E+00  4.88417E+00  4.95287E+00  4.57451E+00  5.46247E+00  3.62414E+00
   9.20469E+00  5.95469E+00  8.60205E+00  1.02839E+01  1.35063E+01  5.94940E+00  1.02403E+01  2.66514E+00  3.49480E+00  5.69278E-02
   4.11952E+00  3.01925E+00  3.25810E+00  7.17474E+00  1.50178E+00  3.95569E+00  8.53077E+00  6.35613E+00  4.07511E+00  5.32486E+00
   7.34988E+00  5.91502E+00  3.76463E+00 -5.97208E-01  8.78521E+00  4.24469E+00  6.03145E+00  7.07249E+00  7.86999E+00  6.98144E+00
   4.90836E+00  6.46652E+00  7.44150E+00  8.12992E+00  3.99931E+00  7.41449E+00  7.68090E+00  1.04407E+01  1.25291E+01  7.00361E+00
   7.39076E+00  7.43882E+00  8.94877E+00  8.71665E+00  3.95267E+00  2.58269E+00  6.79543E+00  5.03446E+00  8.62503E+00  6.00938E+00
   2.55693E+00  5.97124E-01  9.29543E+00  2.59917E+00  2.90484E+00  6.09514E+00  3.14247E+00  5.54781E+00  3.61230E+00  2.23707E+00
   2.88719E+00  4.72414E+00  6.86889E+00  2.83109E+00  5.90356E+00  4.25247E+00  6.19060E+00  4.02851E+00  1.54167E+00  1.87575E+00
   3.01037E+00  8.36440E+00  7.97342E+00  4.75749E+00  9.73970E+00  4.97801E+00  6.41370E+00  6.27410E+00  3.77271E+00  7.92641E+00
   8.58876E+00  7.78185E+00  9.69667E+00  6.59467E+00  8.06429E+00  1.11301E+01  9.66620E+00  1.41706E+01  1.52499E+01  1.47041E+01
   1.54919E+01  1.68365E+01  2.60926E+01  2.38970E+01  2.42809E+01  2.42630E+01  1.80136E+01  1.47341E+01  1.57759E+01  6.28031E+00
   1.38040E+01  6.79531E+00  4.25235E+00  8.37805E+00  5.68248E+00  4.99330E+00  3.03872E+00  5.88243E+00  9.53958E+00  7.51885E+00
   9.42248E+00  1.23568E+01  1.17788E+01  1.95514E+01  1.82741E+01  1.91748E+01  2.35294E+01  2.77861E+01  2.48979E+01  2.47426E+01
   2.00347E+01  1.43570E+01  1.23283E+01  7.92803E+00  7.36593E+00  1.02217E+01  6.27188E+00  2.33885E+00  8.25793E+00  3.29641E+00
   3.95319E+00  4.63173E+00  5.68779E+00  4.93727E+00  2.63371E+00  5.61194E+00  5.45601E+00  3.03580E+00  6.44116E+00  4.31581E+00
   6.57875E+00  1.19306E+00  7.02235E+00  3.79759E+00  6.64468E+00  2.62316E+00  2.56146E+00  2.34552E+00  4.25621E+00  4.57093E+00
   3.53199E+00  2.03940E+00  4.58868E+00  1.98901E+00 -1.84730E+00 -3.13859E+00 -2.02848E+00 -3.27434E+00 -2.36634E+00 -4.03418E+00
  -2.21717E+00 -5.13898E+00 -2.96978E+00 -4.48881E+00 -5.69593E+00 -7.16073E+00 -4.82060E+00 -9.21914E+00 -6.59143E+00 -3.27263E+00
  -4.78077E+00 -4.17756E+00 -1.99816E+00 -1.88102E+00 -2.07917E+00 -2.71457E+00  2.67599E+00 -5.69262E-01 -9.17658E-02  5.73590E-01
   2.61898E+00  4.64199E+00  2.22978E+00  5.76317E-01  9.88969E-01 -3.67416E+00 -1.50313E+00 -1.12959E+00  2.25624E+00  2.34556E+00
   1.10707E+00  7.83353E-01  4.08044E+00  9.08228E-01  6.99890E+00  5.14244E+00  7.46250E+00  2.63281E+00  8.16382E+00  7.31218E+00
   1.13669E+01  7.28930E+00  1.01799E+01  1.08652E+01  1.35403E+01  1.06034E+01  8.82457E+00  1.13957E+01  1.03607E+01  9.24159E+00
   6.25373E+00  7.03615E+00  2.08306E+00  8.61805E+00  1.08129E+01  6.79647E+00  7.54228E+00  1.47197E+01  8.55675E+00  1.13256E+01
   1.34437E+01  1.11248E+01  1.55288E+01  1.66277E+01  1.51675E+01  1.31061E+01  1.23876E+01  1.33131E+01  1.29451E+01  1.19584E+01
   1.24928E+01  1.49747E+01  1.43388E+01  9.77104E+00  1.28888E+01  6.56691E+00  1.26333E+01  1.32541E+01  1.75120E+01  1.79792E+01
   1.94382E+01  2.11916E+01  2.36657E+01  2.69088E+01  3.31282E+01  4.23747E+01  5.71128E+01  6.33030E+01  7.18006E+01  7.23670E+01
   7.64555E+01  7.53807E+01  7.17214E+01  6.52750E+01  5.37596E+01  4.17633E+01  3.60149E+01  2.84108E+01  2.52379E+01  2.10907E+01
   1.51389E+01  1.31989E+01  1.31423E+01  1.60659E+01  1.59498E+01  1.13786E+01  1.01184E+01  1.22002E+01  9.11165E+00  9.25436E+00
   1.27822E+01  1.00905E+01  6.32880E+00  8.06781E+00  9.18361E+00  1.14908E+01  9.59039E+00  9.94139E+00  7.80154E+00  5.03031E+00
   7.35800E+00  8.06653E+00  1.27554E+01  6.76285E+00  1.01297E+01  9.74772E+00  1.46994E+01  1.50553E+01  1.25299E+01  1.36896E+01
   1.14635E+01  1.28494E+01  1.47810E+01  1.78686E+01  1.61874E+01  1.70976E+01  1.57028E+01  1.54919E+01  1.64563E+01  1.72811E+01
   1.65227E+01  1.41796E+01  1.65022E+01  1.54775E+01  1.59600E+01  1.49563E+01  1.57186E+01  1.57434E+01  1.59013E+01  1.65118E+01
   1.29983E+01  1.29580E+01  1.59652E+01  1.36709E+01  1.49211E+01  1.39363E+01  1.31179E+01  1.23959E+01  8.28088E+00  1.33095E+01
   1.38801E+01  1.13983E+01  9.47645E+00  1.20246E+01  1.12147E+01  1.36067E+01  1.12781E+01  1.40353E+01  1.23053E+01  1.52490E+01
   1.03237E+01  9.48770E+00  1.15725E+01  1.22637E+01  6.23616E+00  1.28901E+01  1.18407E+01  1.37924E+01  1.14913E+01  9.65521E+00
   1.32458E+01  9.62579E+00  1.34866E+01  1.06006E+01  1.46010E+01  1.43234E+01  1.39189E+01  1.62746E+01  1.53974E+01  1.88878E+01
   1.99169E+01  1.87693E+01  1.83083E+01  1.77342E+01  1.74196E+01  1.90245E+01  1.95738E+01  1.87578E+01  1.66055E+01  2.20124E+01
   1.48335E+01  1.64782E+01  1.66422E+01  1.13649E+01  1.44838E+01  1.44697E+01  1.16692E+01  1.12988E+01  8.21700E+00  3.67037E+00
   1.21356E+01  1.24527E+01  8.69939E+00  9.09776E+00  7.13812E+00  9.55915E+00  1.32139E+01  4.51162E+00  9.68563E+00  9.95121E+00
   6.86667E+00  9.78747E+00  9.08760E+00  1.08031E+01  1.00551E+01  1.13952E+01  8.04327E+00  1.00466E+01  1.29810E+01  1.34539E+01
   1.18672E+01  1.48699E+01  1.24087E+01  1.39488E+01  1.22923E+01  1.20862E+01  1.67602E+01  1.54021E+01  1.41855E+01  1.35921E+01
   1.45685E+01  1.34514E+01  1.17030E+01  1.32805E+01  1.54124E+01  1.48149E+01  1.13813E+01  7.18549E+00  9.82850E+00  8.52245E+00
   6.19953E+00  9.46051E+00  5.21466E+00  5.07994E+00  5.17005E+00  6.71992E+00  4.60620E+00  1.94854E+00  4.51049E+00  4.97772E+00
   3.80272E+00  3.21798E+00  1.74539E+00  7.00685E+00 -4.72346E-01  5.33033E-01  7.00669E+00  4.16565E+00  2.54730E+00 -5.34417E-01
   2.69526E+00  6.74835E+00 -3.39044E-01  2.27207E-01 -6.68361E-01  3.62789E+00  2.69043E+00  1.54462E+00  5.26325E+00 -2.38305E-01
  -1.48155E+00 -1.63162E+00  1.64196E+00  2.21199E+00  4.37233E+00  4.94839E+00 -2.76665E-01  3.42669E+00 -7.28964E-01  1.10757E+00
   2.93707E+00  1.19407E+00  4.22982E+00 -4.25412E-01 -3.28575E+00  1.48859E+00  4.01534E+00 -1.08507E+00  7.56058E+00  4.67081E+00
   3.82949E+00  3.02222E+00  1.10746E+00  4.34834E+00  2.56017E+00  3.72492E+00  5.98712E-01  3.69309E+00 -5.84540E-01 -1.34227E-01
  -5.17532E-01 -1.43168E-01  8.37760E-02  1.88967E+00  4.69724E+00  4.18681E+00  4.76982E+00 -2.56554E+00  5.87927E-01 -2.18722E-01
   4.73167E+00  2.49442E+00  5.96587E+00  2.81335E+00  4.16880E+00  3.92133E+00  1.54158E+00  3.09182E+00
 NY points of the fit to the data follow
   4.14332E+00  3.79216E+00  3.63375E+00  3.74723E+00  4.11997E+00  4.69264E+00  5.41461E+00  6.22381E+00  7.01536E+00  7.70177E+00
   8.23915E+00  8.58450E+00  8.69011E+00  8.52423E+00  8.09402E+00  7.47856E+00  6.81868E+00  6.23033E+00  5.75675E+00  5.32801E+00
   4.86104E+00  4.43637E+00  4.19520E+00  4.14955E+00  4.26697E+00  4.55458E+00  5.00392E+00  5.56528E+00  6.18596E+00  6.80032E+00
   7.33120E+00  7.70174E+00  7.83484E+00  7.68373E+00  7.27022E+00  6.66672E+00  5.98557E+00  5.35280E+00  4.89915E+00  4.71890E+00
   4.87108E+00  5.34716E+00  6.03137E+00  6.81104E+00  7.57120E+00  8.20541E+00  8.62660E+00  8.76729E+00  8.60095E+00  8.12316E+00
   7.38881E+00  6.52616E+00  5.68731E+00  5.02485E+00  4.61358E+00  4.41838E+00  4.35846E+00  4.38379E+00  4.48656E+00  4.64149E+00
   4.78399E+00  4.84960E+00  4.80937E+00  4.69361E+00  4.54715E+00  4.41386E+00  4.35458E+00  4.40752E+00  4.54678E+00  4.72313E+00
   4.90708E+00  5.06976E+00  5.17544E+00  5.21099E+00  5.16529E+00  5.03876E+00  4.85436E+00  4.68580E+00  4.65244E+00  4.77577E+00
   5.04983E+00  5.45356E+00  5.93685E+00  6.43033E+00  6.83778E+00  7.09043E+00  7.17070E+00  7.05907E+00  6.73262E+00  6.22117E+00
   5.61708E+00  5.02998E+00  4.58571E+00  4.47963E+00  5.06754E+00  6.40011E+00  8.38404E+00  1.09717E+01  1.39836E+01  1.70155E+01
   1.97015E+01  2.18181E+01  2.32032E+01  2.36861E+01  2.31224E+01  2.14983E+01  1.90143E+01  1.60940E+01  1.32267E+01  1.07455E+01
   8.72822E+00  7.04417E+00  5.61785E+00  4.59319E+00  4.14933E+00  4.04451E+00  4.08470E+00  4.38137E+00  5.27263E+00  6.83020E+00
   8.96919E+00  1.15854E+01  1.44774E+01  1.73501E+01  1.99239E+01  2.19918E+01  2.33656E+01  2.38497E+01  2.33059E+01  2.17358E+01
   1.93499E+01  1.65628E+01  1.38321E+01  1.14527E+01  9.47935E+00  7.81356E+00  6.41234E+00  5.42760E+00  5.00083E+00  4.87488E+00
   4.84255E+00  4.83447E+00  4.81056E+00  4.75350E+00  4.66735E+00  4.55691E+00  4.42012E+00  4.26549E+00  4.10383E+00  3.94277E+00
   3.79443E+00  3.66049E+00  3.50971E+00  3.32351E+00  3.09852E+00  2.84734E+00  2.60858E+00  2.39707E+00  2.21316E+00  2.05789E+00
   1.92479E+00  1.80504E+00  1.69805E+00  1.60595E+00  1.51653E+00  1.39075E+00  1.17783E+00  8.36088E-01  3.76686E-01 -1.11953E-01
  -5.57044E-01 -9.39216E-01 -1.29300E+00 -1.61264E+00 -1.86534E+00 -2.02694E+00 -2.08113E+00 -2.05876E+00 -2.00536E+00 -1.93105E+00
  -1.83233E+00 -1.70735E+00 -1.52277E+00 -1.22367E+00 -7.77918E-01 -2.06590E-01  4.31253E-01  1.07486E+00  1.72455E+00  2.37769E+00
   2.97857E+00  3.45081E+00  3.73841E+00  3.86926E+00  3.93616E+00  4.04947E+00  4.27041E+00  4.59812E+00  4.99303E+00  5.43171E+00
   5.86053E+00  6.15046E+00  6.23766E+00  6.07815E+00  5.61592E+00  4.88852E+00  4.03720E+00  3.27855E+00  2.78277E+00  2.62839E+00
   2.88127E+00  3.52053E+00  4.40978E+00  5.32225E+00  6.04413E+00  6.46218E+00  6.51784E+00  6.19329E+00  5.57088E+00  4.82099E+00
   4.14042E+00  3.70844E+00  3.69024E+00  4.10767E+00  4.87407E+00  5.89869E+00  7.06268E+00  8.22434E+00  9.23121E+00  1.00094E+01
   1.06018E+01  1.10872E+01  1.15167E+01  1.18774E+01  1.21560E+01  1.24167E+01  1.26979E+01  1.29743E+01  1.32300E+01  1.34741E+01
   1.37132E+01  1.39437E+01  1.41669E+01  1.44162E+01  1.47514E+01  1.51925E+01  1.57125E+01  1.62750E+01  1.68777E+01  1.75181E+01
   1.83552E+01  2.02961E+01  2.42147E+01  2.99280E+01  3.71657E+01  4.55289E+01  5.42319E+01  6.22985E+01  6.89551E+01  7.36645E+01
   7.58881E+01  7.50942E+01  7.10528E+01  6.40845E+01  5.52058E+01  4.58868E+01  3.73853E+01  3.02573E+01  2.43596E+01  1.93130E+01
   1.52111E+01  1.26978E+01  1.16142E+01  1.09784E+01  1.04931E+01  1.00912E+01  9.73204E+00  9.39061E+00  9.07104E+00  8.77740E+00
   8.51684E+00  8.29703E+00  8.12211E+00  7.99397E+00  7.92024E+00  7.90764E+00  7.95603E+00  8.06317E+00  8.22909E+00  8.45495E+00
   8.74080E+00  9.08399E+00  9.48099E+00  9.92928E+00  1.04241E+01  1.09581E+01  1.15221E+01  1.21053E+01  1.26954E+01  1.32791E+01
   1.38425E+01  1.43722E+01  1.48552E+01  1.52795E+01  1.56356E+01  1.59159E+01  1.61159E+01  1.62342E+01  1.62725E+01  1.62356E+01
   1.61314E+01  1.59698E+01  1.57628E+01  1.55232E+01  1.52652E+01  1.50031E+01  1.47522E+01  1.45311E+01  1.43629E+01  1.42420E+01
   1.41455E+01  1.40554E+01  1.39492E+01  1.38010E+01  1.35904E+01  1.33057E+01  1.29643E+01  1.25983E+01  1.22311E+01  1.18950E+01
   1.16294E+01  1.14664E+01  1.14165E+01  1.14656E+01  1.15836E+01  1.17347E+01  1.18902E+01  1.20397E+01  1.21860E+01  1.23021E+01
   1.23673E+01  1.24022E+01  1.24209E+01  1.24155E+01  1.23677E+01  1.22755E+01  1.21926E+01  1.21683E+01  1.22127E+01  1.23487E+01
   1.26080E+01  1.30144E+01  1.35713E+01  1.42550E+01  1.50185E+01  1.58003E+01  1.65411E+01  1.71980E+01  1.77404E+01  1.81313E+01
   1.83545E+01  1.84349E+01  1.83960E+01  1.82448E+01  1.79792E+01  1.76084E+01  1.71665E+01  1.66712E+01  1.61204E+01  1.55205E+01
   1.48828E+01  1.42206E+01  1.35476E+01  1.28772E+01  1.22222E+01  1.15942E+01  1.10034E+01  1.04586E+01  9.96696E+00  9.53412E+00
   9.16442E+00  8.86088E+00  8.62556E+00  8.45951E+00  8.36313E+00  8.33602E+00  8.37729E+00  8.48535E+00  8.65814E+00  8.89276E+00
   9.18558E+00  9.53192E+00  9.92614E+00  1.03613E+01  1.08294E+01  1.13209E+01  1.18252E+01  1.23307E+01  1.28248E+01  1.32946E+01
   1.37270E+01  1.41095E+01  1.44301E+01  1.46785E+01  1.48461E+01  1.49267E+01  1.49164E+01  1.48140E+01  1.46214E+01  1.43425E+01
   1.39843E+01  1.35552E+01  1.30657E+01  1.25270E+01  1.19511E+01  1.13500E+01  1.07354E+01  1.01180E+01  9.50772E+00  8.91276E+00
   8.34011E+00  7.79512E+00  7.28176E+00  6.80252E+00  6.35876E+00  5.95067E+00  5.57768E+00  5.23846E+00  4.93128E+00  4.65396E+00
   4.40422E+00  4.17961E+00  3.97780E+00  3.79647E+00  3.63348E+00  3.48677E+00  3.35454E+00  3.23509E+00  3.12699E+00  3.02889E+00
   2.93968E+00  2.85828E+00  2.78385E+00  2.71557E+00  2.65282E+00  2.59496E+00  2.54152E+00  2.49198E+00  2.44602E+00  2.40322E+00
   2.36335E+00  2.32609E+00  2.29124E+00  2.25854E+00  2.22784E+00  2.19895E+00  2.17176E+00  2.14610E+00  2.12187E+00  2.09892E+00
   2.07721E+00  2.05660E+00  2.03708E+00  2.01849E+00  2.00083E+00  1.98399E+00  1.96796E+00  1.95265E+00  1.93806E+00  1.92409E+00
   1.91076E+00  1.89796E+00  1.88575E+00  1.87402E+00  1.86281E+00  1.85202E+00  1.84169E+00  1.83174E+00  1.82221E+00  1.81303E+00
   1.80423E+00  1.79573E+00  1.78757E+00  1.77970E+00  1.77216E+00  1.76487E+00  1.75787E+00  1.75110E+00  1.74461E+00  1.73835E+00
   1.73236E+00  1.72657E+00  1.72102E+00  1.71567E+00  1.71057E+00  1.70567E+00  1.70102E+00  1.69657E+00
 NY background values follow
     1.016E+00    1.017E+00    1.018E+00    1.018E+00    1.019E+00    1.020E+00    1.021E+00    1.021E+00    1.022E+00    1.023E+00
     1.023E+00    1.024E+00    1.025E+00    1.026E+00    1.026E+00    1.027E+00    1.028E+00    1.029E+00    1.029E+00    1.030E+00
     1.031E+00    1.032E+00    1.032E+00    1.033E+00    1.034E+00    1.035E+00    1.035E+00    1.036E+00    1.037E+00    1.038E+00
     1.038E+00    1.039E+00    1.040E+00    1.040E+00    1.041E+00    1.042E+00    1.043E+00    1.043E+00    1.044E+00    1.045E+00
     1.046E+00    1.046E+00    1.047E+00    1.048E+00    1.049E+00    1.049E+00    1.050E+00    1.051E+00    1.052E+00    1.052E+00
     1.053E+00    1.054E+00    1.054E+00    1.055E+00    1.056E+00    1.057E+00    1.057E+00    1.058E+00    1.059E+00    1.060E+00
     1.060E+00    1.061E+00    1.062E+00    1.063E+00    1.063E+00    1.064E+00    1.065E+00    1.066E+00    1.066E+00    1.067E+00
     1.068E+00    1.069E+00    1.069E+00    1.070E+00    1.071E+00    1.071E+00    1.072E+00    1.073E+00    1.074E+00    1.074E+00
     1.075E+00    1.076E+00    1.077E+00    1.077E+00    1.078E+00    1.079E+00    1.080E+00    1.080E+00    1.081E+00    1.082E+00
     1.083E+00    1.083E+00    1.084E+00    1.085E+00    1.086E+00    1.086E+00    1.087E+00    1.088E+00    1.088E+00    1.089E+00
     1.090E+00    1.091E+00    1.091E+00    1.092E+00    1.093E+00    1.094E+00    1.094E+00    1.095E+00    1.096E+00    1.097E+00
     1.097E+00    1.098E+00    1.099E+00    1.100E+00    1.100E+00    1.101E+00    1.102E+00    1.102E+00    1.103E+00    1.104E+00
     1.105E+00    1.105E+00    1.106E+00    1.107E+00    1.108E+00    1.108E+00    1.109E+00    1.110E+00    1.111E+00    1.111E+00
     1.112E+00    1.113E+00    1.114E+00    1.114E+00    1.115E+00    1.116E+00    1.116E+00    1.117E+00    1.118E+00    1.119E+00
     1.119E+00    1.120E+00    1.121E+00    1.122E+00    1.122E+00    1.123E+00    1.124E+00    1.125E+00    1.125E+00    1.126E+00
     1.127E+00    1.128E+00    1.128E+00    1.129E+00    1.130E+00    1.130E+00    1.131E+00    1.132E+00    1.133E+00    1.133E+00
     1.134E+00    1.135E+00    1.136E+00    1.136E+00    1.137E+00    1.138E+00    1.139E+00    1.139E+00    1.140E+00    1.141E+00
     1.142E+00    1.142E+00    1.143E+00    1.144E+00    1.145E+00    1.145E+00    1.146E+00    1.147E+00    1.147E+00    1.148E+00
     1.149E+00    1.150E+00    1.150E+00    1.151E+00    1.152E+00    1.153E+00    1.153E+00    1.154E+00    1.155E+00    1.156E+00
     1.156E+00    1.157E+00    1.158E+00    1.159E+00    1.159E+00    1.160E+00    1.161E+00    1.161E+00    1.162E+00    1.163E+00
     1.164E+00    1.164E+00    1.165E+00    1.166E+00    1.167E+00    1.167E+00    1.168E+00    1.169E+00    1.170E+00    1.170E+00
     1.171E+00    1.172E+00    1.173E+00    1.173E+00    1.174E+00    1.175E+00    1.175E+00    1.176E+00    1.177E+00    1.178E+00
     1.178E+00    1.179E+00    1.180E+00    1.181E+00    1.181E+00    1.182E+00    1.183E+00    1.184E+00    1.184E+00    1.185E+00
     1.186E+00    1.187E+00    1.187E+00    1.188E+00    1.189E+00    1.189E+00    1.190E+00    1.191E+00    1.192E+00    1.192E+00
     1.193E+00    1.194E+00    1.195E+00    1.195E+00    1.196E+00    1.197E+00    1.198E+00    1.198E+00    1.199E+00    1.200E+00
     1.201E+00    1.201E+00    1.202E+00    1.203E+00    1.203E+00    1.204E+00    1.205E+00    1.206E+00    1.206E+00    1.207E+00
     1.208E+00    1.209E+00    1.209E+00    1.210E+00    1.211E+00    1.212E+00    1.212E+00    1.213E+00    1.214E+00    1.214E+00
     1.215E+00    1.216E+00    1.217E+00    1.217E+00    1.218E+00    1.219E+00    1.220E+00    1.220E+00    1.221E+00    1.222E+00
     1.223E+00    1.223E+00    1.224E+00    1.225E+00    1.225E+00    1.226E+00    1.227E+00    1.228E+00    1.228E+00    1.229E+00
     1.230E+00    1.231E+00    1.231E+00    1.232E+00    1.233E+00    1.234E+00    1.234E+00    1.235E+00    1.236E+00    1.236E+00
     1.237E+00    1.238E+00    1.239E+00    1.239E+00    1.240E+00    1.241E+00    1.242E+00    1.242E+00    1.243E+00    1.244E+00
     1.245E+00    1.245E+00    1.246E+00    1.247E+00    1.247E+00    1.248E+00    1.249E+00    1.250E+00    1.250E+00    1.251E+00
     1.252E+00    1.253E+00    1.253E+00    1.254E+00    1.255E+00    1.256E+00    1.256E+00    1.257E+00    1.258E+00    1.258E+00
     1.259E+00    1.260E+00    1.261E+00    1.261E+00    1.262E+00    1.263E+00    1.264E+00    1.264E+00    1.265E+00    1.266E+00
     1.267E+00    1.267E+00    1.268E+00    1.269E+00    1.269E+00    1.270E+00    1.271E+00    1.272E+00    1.272E+00    1.273E+00
     1.274E+00    1.275E+00    1.275E+00    1.276E+00    1.277E+00    1.278E+00    1.278E+00    1.279E+00    1.280E+00    1.280E+00
     1.281E+00    1.282E+00    1.283E+00    1.283E+00    1.284E+00    1.285E+00    1.286E+00    1.286E+00    1.287E+00    1.288E+00
     1.288E+00    1.289E+00    1.290E+00    1.291E+00    1.291E+00    1.292E+00    1.293E+00    1.294E+00    1.294E+00    1.295E+00
     1.296E+00    1.297E+00    1.297E+00    1.298E+00    1.299E+00    1.299E+00    1.300E+00    1.301E+00    1.302E+00    1.302E+00
     1.303E+00    1.304E+00    1.305E+00    1.305E+00    1.306E+00    1.307E+00    1.308E+00    1.308E+00    1.309E+00    1.310E+00
     1.310E+00    1.311E+00    1.312E+00    1.313E+00    1.313E+00    1.314E+00    1.315E+00    1.316E+00    1.316E+00    1.317E+00
     1.318E+00    1.318E+00    1.319E+00    1.320E+00    1.321E+00    1.321E+00    1.322E+00    1.323E+00    1.324E+00    1.324E+00
     1.325E+00    1.326E+00    1.327E+00    1.327E+00    1.328E+00    1.329E+00    1.329E+00    1.330E+00    1.331E+00    1.332E+00
     1.332E+00    1.333E+00    1.334E+00    1.335E+00    1.335E+00    1.336E+00    1.337E+00    1.337E+00    1.338E+00    1.339E+00
     1.340E+00    1.340E+00    1.341E+00    1.342E+00    1.343E+00    1.343E+00    1.344E+00    1.345E+00    1.346E+00    1.346E+00
     1.347E+00    1.348E+00    1.348E+00    1.349E+00    1.350E+00    1.351E+00    1.351E+00    1.352E+00    1.353E+00    1.354E+00
     1.354E+00    1.355E+00    1.356E+00    1.356E+00    1.357E+00    1.358E+00    1.359E+00    1.359E+00    1.360E+00    1.361E+00
     1.362E+00    1.362E+00    1.363E+00    1.364E+00    1.365E+00    1.365E+00    1.366E+00    1.367E+00    1.367E+00    1.368E+00
     1.369E+00    1.370E+00    1.370E+00    1.371E+00    1.372E+00    1.373E+00    1.373E+00    1.374E+00    1.375E+00    1.376E+00
     1.376E+00    1.377E+00    1.378E+00    1.378E+00    1.379E+00    1.380E+00    1.381E+00    1.381E+00
 Ala      Conc. = 1.27E+02
