 LCModel (Version 6.3-1L) Copyright: S.W. Provencher.          Ref.: Magn. Reson. Med. 30:672-679 (1993).                
 Slice#2 Row#6 Col#9  PD_24_press_1_raw_act
 36 lines in following concentration table = NCONC+1
    Conc.  %SD /Cr+PCr  Metabolite                                         
    0.000 999%   0.000 Ala                                                 
    0.000 999%   0.000 Asp                                                 
  650.529  36%   0.393 Cr                                                  
 1.00E+03  24%   0.607 PCr                                                 
    0.000 999%   0.000 GABA                                                
    0.000 999%   0.000 Glc                                                 
  732.644  34%   0.443 Gln                                                 
 1.72E+03  16%   1.040 Glu                                                 
  861.141   3%   0.521 GPC                                                 
    0.000 999%   0.000 PCh                                                 
  530.528  14%   0.321 GSH                                                 
 1.35E+03  19%   0.813 Ins                                                 
  204.032  64%   0.123 Lac                                                 
 2.35E+03   4%   1.419 NAA                                                 
   75.107 153% 4.5E-02 NAAG                                                
  102.362  27% 6.2E-02 Scyllo                                              
    0.000 999%   0.000 Tau                                                 
    0.000 999%   0.000 -CrCH2                                              
  861.141   3%   0.521 GPC+PCh                                             
 2.42E+03   4%   1.465 NAA+NAAG                                            
 1.65E+03   3%   1.000 Cr+PCr                                              
 2.45E+03  16%   1.483 Glu+Gln                                             
    0.000 999%   0.000 Lip13a                                              
    0.000 999%   0.000 Lip13b                                              
    0.000 999%   0.000 Lip09                                               
 1.58E+03  12%   0.954 MM09                                                
    0.000 999%   0.000 Lip20                                               
 3.28E+03  12%   1.985 MM20                                                
  450.881  33%   0.273 MM12                                                
  775.225  34%   0.469 MM14                                                
 1.05E+03  23%   0.636 MM17                                                
    0.000 999%   0.000 Lip13a+Lip13b                                       
 1.23E+03  25%   0.741 MM14+Lip13a+Lip13b+MM12                             
 1.58E+03  12%   0.954 MM09+Lip09                                          
 3.28E+03  12%   1.985 MM20+Lip20                                          
   6 lines in following misc. output table
  FWHM = 0.054 ppm    S/N =  12                                            
  Data shift = 0.000 ppm                                                   
  Ph: -23 deg      -0.6 deg/ppm                                            
  alphaB,S = 1.7E+00,   2.0E+02                                            
   14 spline knots.   Ns = 7(1)                                            
  ( 9) 4 infls.   ( 5) 1 extrs.                                            
  498 points on ppm-axis = NY
      4.000000     3.992357     3.984714     3.977070     3.969427     3.961784     3.954141     3.946497     3.938854     3.931211
      3.923568     3.915925     3.908281     3.900638     3.892995     3.885352     3.877708     3.870065     3.862422     3.854779
      3.847136     3.839492     3.831849     3.824206     3.816563     3.808919     3.801276     3.793633     3.785990     3.778347
      3.770703     3.763060     3.755417     3.747774     3.740130     3.732487     3.724844     3.717201     3.709558     3.701914
      3.694271     3.686628     3.678985     3.671341     3.663698     3.656055     3.648412     3.640769     3.633125     3.625482
      3.617839     3.610196     3.602552     3.594909     3.587266     3.579623     3.571980     3.564336     3.556693     3.549050
      3.541407     3.533763     3.526120     3.518477     3.510834     3.503191     3.495547     3.487904     3.480261     3.472618
      3.464974     3.457331     3.449688     3.442045     3.434402     3.426758     3.419115     3.411472     3.403829     3.396185
      3.388542     3.380899     3.373256     3.365613     3.357969     3.350326     3.342683     3.335040     3.327396     3.319753
      3.312110     3.304467     3.296824     3.289180     3.281537     3.273894     3.266251     3.258607     3.250964     3.243321
      3.235678     3.228034     3.220391     3.212748     3.205105     3.197462     3.189818     3.182175     3.174532     3.166889
      3.159245     3.151602     3.143959     3.136316     3.128673     3.121029     3.113386     3.105743     3.098100     3.090456
      3.082813     3.075170     3.067527     3.059884     3.052240     3.044597     3.036954     3.029311     3.021667     3.014024
      3.006381     2.998738     2.991095     2.983451     2.975808     2.968165     2.960522     2.952878     2.945235     2.937592
      2.929949     2.922306     2.914662     2.907019     2.899376     2.891733     2.884089     2.876446     2.868803     2.861160
      2.853517     2.845873     2.838230     2.830587     2.822944     2.815300     2.807657     2.800014     2.792371     2.784728
      2.777084     2.769441     2.761798     2.754155     2.746511     2.738868     2.731225     2.723582     2.715939     2.708295
      2.700652     2.693009     2.685366     2.677722     2.670079     2.662436     2.654793     2.647150     2.639506     2.631863
      2.624220     2.616577     2.608933     2.601290     2.593647     2.586004     2.578361     2.570717     2.563074     2.555431
      2.547788     2.540144     2.532501     2.524858     2.517215     2.509572     2.501928     2.494285     2.486642     2.478999
      2.471355     2.463712     2.456069     2.448426     2.440783     2.433139     2.425496     2.417853     2.410210     2.402566
      2.394923     2.387280     2.379637     2.371994     2.364350     2.356707     2.349064     2.341421     2.333777     2.326134
      2.318491     2.310848     2.303205     2.295561     2.287918     2.280275     2.272632     2.264988     2.257345     2.249702
      2.242059     2.234416     2.226772     2.219129     2.211486     2.203843     2.196199     2.188556     2.180913     2.173270
      2.165627     2.157983     2.150340     2.142697     2.135054     2.127410     2.119767     2.112124     2.104481     2.096838
      2.089194     2.081551     2.073908     2.066265     2.058621     2.050978     2.043335     2.035692     2.028049     2.020405
      2.012762     2.005119     1.997476     1.989833     1.982190     1.974546     1.966903     1.959260     1.951617     1.943974
      1.936331     1.928688     1.921045     1.913402     1.905759     1.898115     1.890472     1.882829     1.875186     1.867543
      1.859900     1.852257     1.844614     1.836971     1.829327     1.821684     1.814041     1.806398     1.798755     1.791112
      1.783469     1.775826     1.768183     1.760540     1.752896     1.745253     1.737610     1.729967     1.722324     1.714681
      1.707038     1.699395     1.691752     1.684108     1.676465     1.668822     1.661179     1.653536     1.645893     1.638250
      1.630607     1.622964     1.615321     1.607677     1.600034     1.592391     1.584748     1.577105     1.569462     1.561819
      1.554176     1.546533     1.538890     1.531246     1.523603     1.515960     1.508317     1.500674     1.493031     1.485388
      1.477745     1.470102     1.462458     1.454815     1.447172     1.439529     1.431886     1.424243     1.416600     1.408957
      1.401314     1.393671     1.386027     1.378384     1.370741     1.363098     1.355455     1.347812     1.340169     1.332526
      1.324883     1.317240     1.309596     1.301953     1.294310     1.286667     1.279024     1.271381     1.263738     1.256095
      1.248452     1.240808     1.233165     1.225522     1.217879     1.210236     1.202593     1.194950     1.187307     1.179664
      1.172021     1.164377     1.156734     1.149091     1.141448     1.133805     1.126162     1.118519     1.110876     1.103233
      1.095590     1.087946     1.080303     1.072660     1.065017     1.057374     1.049731     1.042088     1.034445     1.026802
      1.019158     1.011515     1.003872     0.996229     0.988586     0.980943     0.973300     0.965657     0.958014     0.950371
      0.942727     0.935084     0.927441     0.919798     0.912155     0.904512     0.896869     0.889226     0.881583     0.873940
      0.866296     0.858653     0.851010     0.843367     0.835724     0.828081     0.820438     0.812795     0.805152     0.797508
      0.789865     0.782222     0.774579     0.766936     0.759293     0.751650     0.744007     0.736364     0.728721     0.721077
      0.713434     0.705791     0.698148     0.690505     0.682862     0.675219     0.667576     0.659933     0.652290     0.644646
      0.637003     0.629360     0.621717     0.614074     0.606431     0.598788     0.591145     0.583502     0.575858     0.568215
      0.560572     0.552929     0.545286     0.537643     0.530000     0.522357     0.514714     0.507071     0.499427     0.491784
      0.484141     0.476498     0.468855     0.461212     0.453569     0.445925     0.438282     0.430639     0.422996     0.415353
      0.407710     0.400067     0.392424     0.384780     0.377137     0.369494     0.361851     0.354208     0.346565     0.338922
      0.331278     0.323635     0.315992     0.308349     0.300706     0.293063     0.285420     0.277777     0.270133     0.262490
      0.254847     0.247204     0.239561     0.231918     0.224275     0.216631     0.208988     0.201345
 NY phased data points follow
   4.01370E+00 -1.37662E+00  4.52854E+00 -2.71396E-01  9.52523E+00  7.88135E+00  2.37169E+01  2.06734E+01  3.78163E+01  3.90686E+01
   4.77763E+01  4.99634E+01  4.80940E+01  4.04796E+01  4.07342E+01  2.18723E+01  2.59508E+01  1.62866E+01  1.67806E+01  1.56921E+01
   1.99001E+01  7.69084E+00  1.28978E+01  8.26557E+00  1.12189E+01  1.18912E+01  1.79577E+01  1.28998E+01  1.80454E+01  1.85529E+01
   1.61716E+01  1.84038E+01  1.35413E+01  1.10035E+01  9.52941E+00  6.98837E+00  9.98128E+00  5.96378E+00  1.20737E+01  1.19913E+01
   1.05293E+01  5.81694E+00  1.10223E+01  8.82270E+00  1.32578E+01  1.54139E+01  2.28407E+01  1.73606E+01  2.05060E+01  1.03621E+01
   8.94961E+00  1.65180E+01  8.60006E+00  1.34263E+01  1.02211E+01  8.71836E+00  1.09432E+01  9.19718E+00  1.14879E+01  6.51807E+00
   9.14233E+00  4.21469E+00  4.37434E+00 -2.77764E+00  6.75420E-02 -2.77284E+00  2.05047E+00 -1.58538E+00 -1.52226E+00 -5.78735E+00
   9.88400E-01 -3.65495E+00 -2.40285E+00 -8.63301E-01 -4.45878E-01 -1.52326E+00 -1.01588E+00 -4.33771E+00 -1.05741E+00 -5.13491E+00
   1.20417E+00  1.86942E-01  1.49732E+00  7.30752E-01  3.71144E+00  6.42907E-01  3.90224E+00 -3.89361E+00  2.78770E+00 -2.25980E+00
   7.61598E+00  2.72196E+00  2.47428E+00 -1.70453E+00 -2.04737E+00 -8.11767E+00  6.25669E-01  1.58204E+00  1.13021E+01  2.68751E+01
   4.41334E+01  6.34922E+01  7.49975E+01  7.76692E+01  7.08523E+01  6.01452E+01  4.88206E+01  3.85769E+01  3.23269E+01  2.04404E+01
   2.05126E+01  9.35220E+00  4.53339E+00  7.52344E+00  5.85231E+00  2.68663E+00  1.45066E+00 -2.41069E+00  3.46693E-01 -7.91716E+00
  -2.31778E+00 -5.23093E+00  1.02301E+00  8.68741E+00  2.35748E+01  3.14004E+01  4.54216E+01  4.91995E+01  5.32161E+01  4.36214E+01
   4.01110E+01  2.68649E+01  2.80184E+01  1.35812E+01  1.18966E+01  8.77142E+00  6.11610E+00 -9.90602E-01  3.62593E+00  5.69553E+00
  -1.44985E+00 -2.93627E+00  6.04230E-01 -2.95209E-01 -2.12573E+00 -3.48206E+00 -1.36761E+00  4.61890E-01 -3.69397E+00 -7.28030E+00
  -2.18211E+00 -5.44022E+00 -5.64707E+00 -5.81047E+00 -5.93097E+00 -5.28179E+00 -5.55699E+00  1.48887E-01 -6.69988E+00 -6.87074E+00
  -3.63459E+00 -9.29169E+00 -1.05411E+01 -1.12564E+01 -3.87911E+00 -3.01739E+00 -4.82156E+00 -5.23535E+00 -9.77576E+00 -1.04902E+01
  -8.43666E+00 -1.27427E+01 -8.03104E+00 -1.00826E+01 -1.01401E+01 -1.31729E+01 -1.25447E+01 -1.78263E+01 -9.76836E+00 -1.72498E+01
  -1.09709E+01 -1.73491E+01 -1.44441E+01 -1.81854E+01 -1.62388E+01 -9.67239E+00 -1.21512E+01 -1.25486E+01 -6.64840E+00 -9.89997E+00
  -2.00217E+00 -4.10026E-01  4.77881E+00  1.13253E+00  2.77304E+00  2.42924E-01  4.89725E-01 -3.26368E+00 -2.53837E+00 -4.81799E+00
  -3.27153E+00 -3.42325E+00  3.41846E+00  2.58070E-01 -1.37481E-01 -5.29824E-02 -3.57881E+00 -5.77683E+00 -6.00772E+00 -1.21841E+01
  -5.77489E+00 -8.52542E+00 -4.56232E+00 -1.22987E+00  7.21050E+00  3.96673E+00  7.31758E+00  6.50037E+00  3.28775E+00 -1.08033E+00
  -8.39762E+00 -4.80819E+00 -7.42022E+00 -4.13865E+00 -3.17022E+00 -2.30299E+00 -3.33624E+00  4.91973E+00  3.58238E+00  2.20215E+00
   6.51570E+00  2.90573E+00 -4.51825E+00 -7.72039E-01  1.81633E+00  4.93025E+00  4.67737E+00 -7.20720E-01 -3.10164E+00  7.89012E-01
   1.44213E+00 -2.60473E+00  2.27458E+00  1.70878E+00  5.62666E+00  9.35142E+00  3.69458E+00  4.57417E+00  8.39363E+00  9.73024E+00
   1.10233E+01  7.87223E+00  1.01953E+01  1.06661E+01  1.75887E+01  2.23641E+01  2.69636E+01  3.80664E+01  5.98778E+01  7.10316E+01
   8.78413E+01  8.29283E+01  7.23288E+01  5.44377E+01  4.56176E+01  3.57180E+01  2.84896E+01  1.48149E+01  1.05031E+01  6.32776E+00
   6.77406E+00 -1.62061E+00  3.61526E+00  3.10365E+00  4.50461E+00  4.19384E+00  3.28970E+00 -1.19126E+00 -7.39081E-01  9.42909E-01
  -5.76825E+00 -7.79143E-01  4.02038E-01 -2.21582E+00  2.21283E+00 -4.38790E+00 -9.11954E-01 -3.11501E+00  2.32469E+00 -1.00736E+00
  -9.92426E-01 -1.46805E+00 -1.09054E+00 -4.89892E-01  9.18805E-01 -4.88691E+00  6.67015E-01 -5.64119E+00 -2.51306E+00 -8.41247E+00
  -6.37034E+00 -8.00320E+00  4.36845E+00 -1.57412E+00  5.51948E-01  2.88666E+00  3.05866E+00  2.07231E+00  1.01363E+00  2.97971E-01
  -3.45947E-01  8.64720E-01  4.58562E+00 -6.13726E-01  2.54592E+00 -3.09645E+00  3.27941E+00 -4.09987E-01 -1.29561E+00 -7.61637E-01
  -3.87332E+00  2.06714E+00 -3.52350E+00 -8.94985E-01 -1.59987E+00 -3.18647E+00 -2.92728E+00 -6.26177E+00  1.64934E-01 -1.98410E+00
  -2.08112E+00 -2.37264E+00 -2.13978E+00  5.07666E-01  2.58530E+00  1.96083E+00  4.99768E-01  4.72301E-01  2.56420E+00  6.39114E-01
  -2.29630E+00 -6.57735E+00 -3.75246E+00 -5.57705E+00 -6.78954E-01  1.67991E+00 -1.67011E+00 -3.42404E+00 -5.45044E+00 -1.01595E+01
  -1.28807E+01 -7.57097E+00 -5.48678E+00 -3.26642E+00 -4.95364E+00 -2.52460E+00 -5.69508E+00 -4.12370E+00 -1.09834E+01 -1.40974E+00
  -9.70105E+00 -1.91483E+00 -3.93251E+00 -2.57499E+00 -6.04658E+00 -5.43376E+00 -2.85851E+00 -4.45265E+00 -1.16382E+00 -6.12022E+00
  -5.42183E-01 -2.87936E+00  2.62389E+00  5.99625E-01  5.04874E+00  2.76553E+00 -2.32740E+00 -4.60960E+00  9.86830E-02 -6.00476E-01
  -6.75138E+00 -1.70100E+00 -5.36294E+00 -1.40813E+00 -5.40574E+00 -7.18411E+00 -1.73589E+00 -3.48107E+00  1.88610E+00 -5.27167E-01
  -1.37903E+00 -5.00757E+00 -8.97758E-01 -3.56092E+00  1.03595E-01  5.82200E+00 -4.10110E-01  5.16927E+00  2.30666E+00 -3.14073E-02
   3.24074E+00  4.14471E+00  6.59390E+00  3.54176E+00  7.73478E+00  5.37546E+00  7.21606E+00  6.04836E+00  9.88491E+00  8.93956E+00
   4.19662E+00  2.25991E+00  2.38226E+00  1.90253E+00  4.88755E+00 -2.44751E-01  2.41497E-02  4.48204E+00 -1.86613E+00  8.16192E-01
  -4.31431E+00  7.71545E-01 -2.26043E+00 -7.77956E+00 -5.57260E+00 -5.35239E+00 -3.91579E+00 -3.51677E+00 -5.91960E+00 -6.77972E+00
  -8.21934E+00 -5.36447E+00 -6.24532E+00 -9.12848E+00 -8.60539E+00 -6.08326E+00 -3.93413E+00 -6.07782E+00 -4.37017E+00 -4.28322E+00
  -7.39015E+00 -3.79732E+00 -7.59677E+00 -7.53298E+00 -4.63907E+00 -5.11129E+00 -6.77520E+00 -8.75462E+00 -4.96742E+00 -9.59798E+00
  -6.56931E+00 -9.17423E+00 -8.53966E+00 -4.18993E+00 -5.22361E+00 -6.11474E+00 -4.13041E+00 -5.74610E+00 -8.16032E+00 -7.39342E+00
  -8.64589E+00 -6.50431E+00 -6.55403E+00 -6.78938E+00 -9.64477E+00 -8.37161E+00 -6.18196E+00 -6.25294E+00 -8.26174E+00 -4.46595E+00
  -7.58094E+00 -5.33051E+00 -4.78590E+00 -7.34874E+00 -2.09750E+00 -5.52273E+00 -5.21779E+00 -9.42682E+00 -4.73664E+00 -6.75018E+00
  -6.66905E+00 -8.32737E+00  1.04667E+00 -3.71889E+00 -3.61797E+00 -9.64757E+00 -4.51693E+00 -5.57933E+00 -1.38138E+00 -4.02320E+00
  -2.90283E+00  1.12873E+00 -1.89470E+00 -7.01455E+00 -1.59389E+00 -5.92929E+00 -3.84036E+00 -9.44749E-01
 NY points of the fit to the data follow
   5.33792E+00  4.95917E+00  5.03890E+00  5.70771E+00  7.49765E+00  1.10332E+01  1.65751E+01  2.37857E+01  3.15849E+01  3.83316E+01
   4.24259E+01  4.30587E+01  4.06080E+01  3.63393E+01  3.16020E+01  2.71728E+01  2.31494E+01  1.92890E+01  1.55241E+01  1.23995E+01
   1.03399E+01  9.10881E+00  8.31711E+00  7.94141E+00  8.15076E+00  9.08773E+00  1.07553E+01  1.28856E+01  1.50269E+01  1.67055E+01
   1.76083E+01  1.76502E+01  1.68668E+01  1.54230E+01  1.35463E+01  1.14715E+01  9.47063E+00  7.80490E+00  6.90880E+00  6.67991E+00
   6.85478E+00  7.58052E+00  8.94601E+00  1.08472E+01  1.29747E+01  1.48286E+01  1.59138E+01  1.58661E+01  1.47236E+01  1.29746E+01
   1.10404E+01  9.22821E+00  7.74593E+00  6.57857E+00  5.62875E+00  5.07272E+00  5.11551E+00  5.52440E+00  5.86749E+00  5.90193E+00
   5.53803E+00  4.79711E+00  3.85053E+00  2.92693E+00  2.23295E+00  1.85939E+00  1.74804E+00  1.81739E+00  2.03454E+00  2.31997E+00
   2.58038E+00  2.72188E+00  2.67748E+00  2.46211E+00  2.13478E+00  1.76903E+00  1.42608E+00  1.11612E+00  8.46069E-01  6.45937E-01
   6.43424E-01  9.31565E-01  1.45896E+00  2.07411E+00  2.54138E+00  2.62809E+00  2.22313E+00  1.42475E+00  5.09219E-01 -2.32646E-01
  -6.63828E-01 -8.48875E-01 -9.59193E-01 -1.14327E+00 -1.40641E+00 -1.40151E+00 -4.37260E-02  4.34761E+00  1.33301E+01  2.72756E+01
   4.45675E+01  6.15596E+01  7.37887E+01  7.79568E+01  7.36926E+01  6.36855E+01  5.17255E+01  4.05292E+01  3.08687E+01  2.22540E+01
   1.40475E+01  6.66432E+00  2.26919E+00  7.92728E-01  1.46971E-01 -2.61423E-01 -5.62930E-01 -7.82633E-01 -8.99385E-01 -8.40572E-01
  -3.05270E-01  1.56956E+00  5.89864E+00  1.33790E+01  2.37470E+01  3.54499E+01  4.58899E+01  5.23721E+01  5.33485E+01  4.92608E+01
   4.20972E+01  3.40330E+01  2.63384E+01  1.92799E+01  1.27253E+01  6.76332E+00  2.31789E+00  5.43669E-01  4.23719E-01  6.46289E-01
   7.89509E-01  7.77775E-01  6.61948E-01  4.33861E-01  1.08203E-01 -2.78278E-01 -7.31789E-01 -1.23670E+00 -1.74633E+00 -2.23034E+00
  -2.62302E+00 -2.93319E+00 -3.16166E+00 -3.30741E+00 -3.39868E+00 -3.50785E+00 -3.71655E+00 -4.07085E+00 -4.54964E+00 -5.04039E+00
  -5.39180E+00 -5.49784E+00 -5.37304E+00 -5.17188E+00 -5.09277E+00 -5.26241E+00 -5.66803E+00 -6.17385E+00 -6.63375E+00 -7.00720E+00
  -7.41670E+00 -7.98522E+00 -8.66739E+00 -9.34264E+00 -9.82900E+00 -1.00346E+01 -1.00293E+01 -9.90439E+00 -9.79419E+00 -9.79960E+00
  -9.92181E+00 -1.00822E+01 -1.01702E+01 -1.00936E+01 -9.77139E+00 -9.13538E+00 -8.14514E+00 -6.77099E+00 -5.22022E+00 -3.89633E+00
  -3.18027E+00 -3.19781E+00 -3.71560E+00 -4.42403E+00 -5.02645E+00 -5.32367E+00 -5.28452E+00 -4.91388E+00 -4.13732E+00 -3.00812E+00
  -1.66083E+00 -3.03749E-01  7.67027E-01  1.20109E+00  7.27934E-01 -7.42900E-01 -2.96190E+00 -5.38563E+00 -7.44612E+00 -8.58897E+00
  -8.42426E+00 -6.93331E+00 -4.46377E+00 -1.55634E+00  1.08470E+00  2.67871E+00  2.66197E+00  9.81372E-01 -1.89547E+00 -5.26859E+00
  -8.14255E+00 -9.78569E+00 -9.98413E+00 -8.88546E+00 -6.87444E+00 -4.45521E+00 -2.27850E+00 -7.44922E-01  2.28304E-01  8.79330E-01
   1.40300E+00  1.81567E+00  2.12580E+00  2.47671E+00  2.91784E+00  3.28999E+00  3.46279E+00  3.35747E+00  2.98496E+00  2.44130E+00
   1.88585E+00  1.57573E+00  1.72131E+00  2.33720E+00  3.21669E+00  4.08713E+00  4.82643E+00  5.34177E+00  5.71685E+00  6.16156E+00
   6.86765E+00  7.85540E+00  9.00131E+00  1.06460E+01  1.39984E+01  2.05159E+01  3.10918E+01  4.53584E+01  6.10373E+01  7.42794E+01
   8.12280E+01  7.99605E+01  7.16664E+01  5.97264E+01  4.75453E+01  3.68904E+01  2.77255E+01  1.92928E+01  1.12761E+01  4.93221E+00
   2.10366E+00  1.08994E+00  5.61351E-01  2.48840E-01  6.71696E-03 -2.73775E-01 -5.87817E-01 -9.23430E-01 -1.26116E+00 -1.58121E+00
  -1.87352E+00 -2.14054E+00 -2.37040E+00 -2.54852E+00 -2.68019E+00 -2.77779E+00 -2.84561E+00 -2.87993E+00 -2.87646E+00 -2.83745E+00
  -2.76865E+00 -2.66771E+00 -2.53514E+00 -2.37452E+00 -2.19019E+00 -1.98507E+00 -1.76217E+00 -1.52593E+00 -1.28133E+00 -1.03297E+00
  -7.86789E-01 -5.49197E-01 -3.27337E-01 -1.28762E-01  4.00738E-02  1.74524E-01  2.71620E-01  3.29474E-01  3.47056E-01  3.25349E-01
   2.66782E-01  1.75076E-01  5.55179E-02 -8.59755E-02 -2.43461E-01 -4.10610E-01 -5.80998E-01 -7.48474E-01 -9.07560E-01 -1.05375E+00
  -1.18364E+00 -1.29488E+00 -1.38618E+00 -1.45734E+00 -1.50927E+00 -1.54389E+00 -1.56387E+00 -1.57233E+00 -1.57266E+00 -1.56830E+00
  -1.56267E+00 -1.55891E+00 -1.55960E+00 -1.56645E+00 -1.58013E+00 -1.60008E+00 -1.62413E+00 -1.64776E+00 -1.66218E+00 -1.64912E+00
  -1.57253E+00 -1.40868E+00 -1.18753E+00 -9.99412E-01 -9.79254E-01 -1.26168E+00 -1.91478E+00 -2.88884E+00 -3.98945E+00 -4.94592E+00
  -5.53602E+00 -5.66177E+00 -5.35792E+00 -4.75912E+00 -4.04944E+00 -3.38881E+00 -2.85870E+00 -2.54843E+00 -2.45612E+00 -2.47400E+00
  -2.54053E+00 -2.65031E+00 -2.82745E+00 -3.06075E+00 -3.23868E+00 -3.34187E+00 -3.41329E+00 -3.47084E+00 -3.52186E+00 -3.56975E+00
  -3.61587E+00 -3.66031E+00 -3.70217E+00 -3.73996E+00 -3.77175E+00 -3.79534E+00 -3.80827E+00 -3.80779E+00 -3.79089E+00 -3.75442E+00
  -3.69518E+00 -3.60992E+00 -3.49527E+00 -3.34779E+00 -3.16400E+00 -2.94061E+00 -2.67464E+00 -2.36360E+00 -2.00555E+00 -1.59943E+00
  -1.14527E+00 -6.44612E-01 -1.00742E-01  4.81149E-01  1.09385E+00  1.72809E+00  2.37247E+00  3.01369E+00  3.63689E+00  4.22620E+00
   4.76542E+00  5.23865E+00  5.63105E+00  5.92954E+00  6.12361E+00  6.20591E+00  6.17274E+00  6.02417E+00  5.76407E+00  5.39985E+00
   4.94211E+00  4.40411E+00  3.80100E+00  3.14901E+00  2.46460E+00  1.76379E+00  1.06154E+00  3.71273E-01 -2.95592E-01 -9.29866E-01
  -1.52466E+00 -2.07529E+00 -2.57903E+00 -3.03492E+00 -3.44352E+00 -3.80661E+00 -4.12686E+00 -4.40752E+00 -4.65210E+00 -4.86423E+00
  -5.04754E+00 -5.20556E+00 -5.34157E+00 -5.45850E+00 -5.55895E+00 -5.64523E+00 -5.71936E+00 -5.78312E+00 -5.83803E+00 -5.88533E+00
  -5.92603E+00 -5.96102E+00 -5.99110E+00 -6.01695E+00 -6.03910E+00 -6.05798E+00 -6.07395E+00 -6.08735E+00 -6.09850E+00 -6.10766E+00
  -6.11502E+00 -6.12074E+00 -6.12494E+00 -6.12778E+00 -6.12942E+00 -6.12997E+00 -6.12952E+00 -6.12810E+00 -6.12579E+00 -6.12270E+00
  -6.11891E+00 -6.11446E+00 -6.10937E+00 -6.10366E+00 -6.09739E+00 -6.09063E+00 -6.08342E+00 -6.07578E+00 -6.06769E+00 -6.05918E+00
  -6.05029E+00 -6.04108E+00 -6.03155E+00 -6.02170E+00 -6.01151E+00 -6.00100E+00 -5.99024E+00 -5.97924E+00 -5.96801E+00 -5.95651E+00
  -5.94474E+00 -5.93274E+00 -5.92054E+00 -5.90816E+00 -5.89556E+00 -5.88272E+00 -5.86965E+00 -5.85638E+00 -5.84294E+00 -5.82930E+00
  -5.81544E+00 -5.80133E+00 -5.78699E+00 -5.77243E+00 -5.75766E+00 -5.74263E+00 -5.72730E+00 -5.71163E+00
 NY background values follow
     3.254E+00    3.191E+00    3.128E+00    3.065E+00    3.002E+00    2.939E+00    2.876E+00    2.812E+00    2.749E+00    2.686E+00
     2.622E+00    2.559E+00    2.496E+00    2.433E+00    2.369E+00    2.306E+00    2.243E+00    2.179E+00    2.116E+00    2.053E+00
     1.989E+00    1.926E+00    1.863E+00    1.800E+00    1.736E+00    1.673E+00    1.610E+00    1.547E+00    1.484E+00    1.421E+00
     1.358E+00    1.295E+00    1.232E+00    1.169E+00    1.106E+00    1.043E+00    9.802E-01    9.174E-01    8.548E-01    7.922E-01
     7.296E-01    6.672E-01    6.047E-01    5.424E-01    4.801E-01    4.179E-01    3.558E-01    2.937E-01    2.318E-01    1.699E-01
     1.081E-01    4.648E-02   -1.509E-02   -7.656E-02   -1.379E-01   -1.991E-01   -2.602E-01   -3.212E-01   -3.821E-01   -4.428E-01
    -5.034E-01   -5.638E-01   -6.241E-01   -6.842E-01   -7.441E-01   -8.039E-01   -8.636E-01   -9.230E-01   -9.823E-01   -1.041E+00
    -1.100E+00   -1.159E+00   -1.217E+00   -1.276E+00   -1.334E+00   -1.392E+00   -1.449E+00   -1.507E+00   -1.564E+00   -1.621E+00
    -1.678E+00   -1.734E+00   -1.791E+00   -1.847E+00   -1.903E+00   -1.958E+00   -2.013E+00   -2.068E+00   -2.123E+00   -2.178E+00
    -2.232E+00   -2.286E+00   -2.339E+00   -2.392E+00   -2.445E+00   -2.498E+00   -2.551E+00   -2.603E+00   -2.654E+00   -2.706E+00
    -2.757E+00   -2.808E+00   -2.859E+00   -2.909E+00   -2.959E+00   -3.008E+00   -3.058E+00   -3.107E+00   -3.155E+00   -3.204E+00
    -3.252E+00   -3.299E+00   -3.347E+00   -3.394E+00   -3.440E+00   -3.487E+00   -3.532E+00   -3.578E+00   -3.623E+00   -3.668E+00
    -3.713E+00   -3.757E+00   -3.801E+00   -3.844E+00   -3.887E+00   -3.930E+00   -3.972E+00   -4.014E+00   -4.056E+00   -4.097E+00
    -4.138E+00   -4.179E+00   -4.219E+00   -4.258E+00   -4.298E+00   -4.337E+00   -4.375E+00   -4.413E+00   -4.451E+00   -4.488E+00
    -4.525E+00   -4.562E+00   -4.598E+00   -4.634E+00   -4.669E+00   -4.704E+00   -4.739E+00   -4.773E+00   -4.807E+00   -4.841E+00
    -4.874E+00   -4.907E+00   -4.939E+00   -4.971E+00   -5.003E+00   -5.034E+00   -5.065E+00   -5.095E+00   -5.126E+00   -5.155E+00
    -5.185E+00   -5.214E+00   -5.242E+00   -5.271E+00   -5.299E+00   -5.326E+00   -5.354E+00   -5.380E+00   -5.407E+00   -5.433E+00
    -5.459E+00   -5.484E+00   -5.509E+00   -5.534E+00   -5.559E+00   -5.583E+00   -5.606E+00   -5.630E+00   -5.653E+00   -5.675E+00
    -5.698E+00   -5.719E+00   -5.741E+00   -5.762E+00   -5.783E+00   -5.804E+00   -5.824E+00   -5.844E+00   -5.864E+00   -5.883E+00
    -5.902E+00   -5.921E+00   -5.939E+00   -5.958E+00   -5.975E+00   -5.993E+00   -6.010E+00   -6.027E+00   -6.044E+00   -6.061E+00
    -6.077E+00   -6.093E+00   -6.109E+00   -6.124E+00   -6.139E+00   -6.154E+00   -6.169E+00   -6.184E+00   -6.198E+00   -6.212E+00
    -6.226E+00   -6.239E+00   -6.253E+00   -6.266E+00   -6.279E+00   -6.292E+00   -6.305E+00   -6.317E+00   -6.329E+00   -6.342E+00
    -6.353E+00   -6.365E+00   -6.377E+00   -6.388E+00   -6.400E+00   -6.411E+00   -6.422E+00   -6.433E+00   -6.443E+00   -6.454E+00
    -6.464E+00   -6.475E+00   -6.485E+00   -6.495E+00   -6.505E+00   -6.514E+00   -6.524E+00   -6.534E+00   -6.543E+00   -6.552E+00
    -6.561E+00   -6.570E+00   -6.579E+00   -6.588E+00   -6.596E+00   -6.605E+00   -6.613E+00   -6.622E+00   -6.630E+00   -6.638E+00
    -6.646E+00   -6.653E+00   -6.661E+00   -6.669E+00   -6.676E+00   -6.683E+00   -6.691E+00   -6.698E+00   -6.705E+00   -6.712E+00
    -6.718E+00   -6.725E+00   -6.732E+00   -6.738E+00   -6.745E+00   -6.751E+00   -6.757E+00   -6.763E+00   -6.769E+00   -6.775E+00
    -6.781E+00   -6.786E+00   -6.792E+00   -6.798E+00   -6.803E+00   -6.808E+00   -6.814E+00   -6.819E+00   -6.824E+00   -6.829E+00
    -6.834E+00   -6.838E+00   -6.843E+00   -6.848E+00   -6.852E+00   -6.857E+00   -6.861E+00   -6.865E+00   -6.869E+00   -6.873E+00
    -6.877E+00   -6.881E+00   -6.885E+00   -6.888E+00   -6.892E+00   -6.895E+00   -6.899E+00   -6.902E+00   -6.905E+00   -6.908E+00
    -6.911E+00   -6.914E+00   -6.917E+00   -6.920E+00   -6.922E+00   -6.925E+00   -6.927E+00   -6.929E+00   -6.932E+00   -6.934E+00
    -6.936E+00   -6.938E+00   -6.939E+00   -6.941E+00   -6.943E+00   -6.944E+00   -6.946E+00   -6.947E+00   -6.948E+00   -6.949E+00
    -6.950E+00   -6.951E+00   -6.952E+00   -6.953E+00   -6.953E+00   -6.954E+00   -6.954E+00   -6.954E+00   -6.955E+00   -6.955E+00
    -6.955E+00   -6.955E+00   -6.954E+00   -6.954E+00   -6.954E+00   -6.953E+00   -6.952E+00   -6.952E+00   -6.951E+00   -6.950E+00
    -6.949E+00   -6.947E+00   -6.946E+00   -6.945E+00   -6.943E+00   -6.941E+00   -6.940E+00   -6.938E+00   -6.936E+00   -6.934E+00
    -6.932E+00   -6.929E+00   -6.927E+00   -6.924E+00   -6.922E+00   -6.919E+00   -6.916E+00   -6.913E+00   -6.910E+00   -6.907E+00
    -6.903E+00   -6.900E+00   -6.896E+00   -6.892E+00   -6.889E+00   -6.885E+00   -6.881E+00   -6.876E+00   -6.872E+00   -6.868E+00
    -6.863E+00   -6.858E+00   -6.854E+00   -6.849E+00   -6.844E+00   -6.839E+00   -6.833E+00   -6.828E+00   -6.823E+00   -6.817E+00
    -6.811E+00   -6.806E+00   -6.800E+00   -6.794E+00   -6.787E+00   -6.781E+00   -6.775E+00   -6.768E+00   -6.762E+00   -6.755E+00
    -6.748E+00   -6.741E+00   -6.734E+00   -6.727E+00   -6.720E+00   -6.712E+00   -6.705E+00   -6.697E+00   -6.689E+00   -6.682E+00
    -6.674E+00   -6.666E+00   -6.657E+00   -6.649E+00   -6.641E+00   -6.632E+00   -6.623E+00   -6.615E+00   -6.606E+00   -6.597E+00
    -6.588E+00   -6.579E+00   -6.569E+00   -6.560E+00   -6.551E+00   -6.541E+00   -6.531E+00   -6.521E+00   -6.512E+00   -6.501E+00
    -6.491E+00   -6.481E+00   -6.471E+00   -6.460E+00   -6.450E+00   -6.439E+00   -6.428E+00   -6.418E+00   -6.407E+00   -6.396E+00
    -6.385E+00   -6.373E+00   -6.362E+00   -6.351E+00   -6.339E+00   -6.327E+00   -6.316E+00   -6.304E+00   -6.292E+00   -6.280E+00
    -6.268E+00   -6.256E+00   -6.243E+00   -6.231E+00   -6.219E+00   -6.206E+00   -6.194E+00   -6.181E+00   -6.168E+00   -6.155E+00
    -6.142E+00   -6.129E+00   -6.116E+00   -6.103E+00   -6.089E+00   -6.076E+00   -6.062E+00   -6.049E+00   -6.035E+00   -6.022E+00
    -6.008E+00   -5.994E+00   -5.980E+00   -5.966E+00   -5.952E+00   -5.938E+00   -5.924E+00   -5.910E+00   -5.895E+00   -5.881E+00
    -5.867E+00   -5.852E+00   -5.838E+00   -5.823E+00   -5.809E+00   -5.794E+00   -5.780E+00   -5.765E+00   -5.750E+00   -5.736E+00
    -5.721E+00   -5.706E+00   -5.691E+00   -5.676E+00   -5.662E+00   -5.647E+00   -5.632E+00   -5.617E+00   -5.602E+00   -5.587E+00
    -5.572E+00   -5.557E+00   -5.543E+00   -5.528E+00   -5.513E+00   -5.498E+00   -5.483E+00   -5.468E+00
 Cr       Conc. = 6.51E+02
