 LCModel (Version 6.3-1L) Copyright: S.W. Provencher.          Ref.: Magn. Reson. Med. 30:672-679 (1993).                
 Slice#1 Row#12 Col#3  PD_24_press_1_raw_act
 36 lines in following concentration table = NCONC+1
    Conc.  %SD /Cr+PCr  Metabolite                                         
    0.000 999%   0.000 Ala                                                 
   13.174  73%   0.177 Asp                                                 
   43.979  79%   0.592 Cr                                                  
   30.325 118%   0.408 PCr                                                 
    7.734  75%   0.104 GABA                                                
    7.712  75%   0.104 Glc                                                 
    0.000 999%   0.000 Gln                                                 
  134.227  49%   1.806 Glu                                                 
   22.336  34%   0.301 GPC                                                 
    0.000 999%   0.000 PCh                                                 
    0.000 999%   0.000 GSH                                                 
   82.052  93%   1.104 Ins                                                 
   37.656  84%   0.507 Lac                                                 
  106.041  25%   1.427 NAA                                                 
   10.411 235%   0.140 NAAG                                                
    2.274  84% 3.1E-02 Scyllo                                              
   13.475  72%   0.181 Tau                                                 
    0.000 999%   0.000 -CrCH2                                              
   22.336  34%   0.301 GPC+PCh                                             
  116.452  28%   1.567 NAA+NAAG                                            
   74.304  28%   1.000 Cr+PCr                                              
  134.227  49%   1.806 Glu+Gln                                             
  388.142  59%   5.224 Lip13a                                              
    0.000 999%   0.000 Lip13b                                              
   78.737 133%   1.060 Lip09                                               
  110.302  93%   1.484 MM09                                                
   65.663 109%   0.884 Lip20                                               
   10.205 999%   0.137 MM20                                                
   56.062 103%   0.755 MM12                                                
    0.000 999%   0.000 MM14                                                
    1.257 999% 1.7E-02 MM17                                                
  388.142  59%   5.224 Lip13a+Lip13b                                       
  444.204  51%   5.978 MM14+Lip13a+Lip13b+MM12                             
  189.039  58%   2.544 MM09+Lip09                                          
   75.868 243%   1.021 MM20+Lip20                                          
   6 lines in following misc. output table
  FWHM = 0.046 ppm    S/N =   1                                            
  Data shift =-0.023 ppm                                                   
  Ph:  88 deg      22.5 deg/ppm                                            
  alphaB,S = 4.6E-01,   1.2E+01                                            
   14 spline knots.   Ns = 5(1)                                            
  ( 8) 2 infls.   ( 8) 2 extrs.                                            
  498 points on ppm-axis = NY
      4.000000     3.992357     3.984714     3.977070     3.969427     3.961784     3.954141     3.946497     3.938854     3.931211
      3.923568     3.915925     3.908281     3.900638     3.892995     3.885352     3.877708     3.870065     3.862422     3.854779
      3.847136     3.839492     3.831849     3.824206     3.816563     3.808919     3.801276     3.793633     3.785990     3.778347
      3.770703     3.763060     3.755417     3.747774     3.740130     3.732487     3.724844     3.717201     3.709558     3.701914
      3.694271     3.686628     3.678985     3.671341     3.663698     3.656055     3.648412     3.640769     3.633125     3.625482
      3.617839     3.610196     3.602552     3.594909     3.587266     3.579623     3.571980     3.564336     3.556693     3.549050
      3.541407     3.533763     3.526120     3.518477     3.510834     3.503191     3.495547     3.487904     3.480261     3.472618
      3.464974     3.457331     3.449688     3.442045     3.434402     3.426758     3.419115     3.411472     3.403829     3.396185
      3.388542     3.380899     3.373256     3.365613     3.357969     3.350326     3.342683     3.335040     3.327396     3.319753
      3.312110     3.304467     3.296824     3.289180     3.281537     3.273894     3.266251     3.258607     3.250964     3.243321
      3.235678     3.228034     3.220391     3.212748     3.205105     3.197462     3.189818     3.182175     3.174532     3.166889
      3.159245     3.151602     3.143959     3.136316     3.128673     3.121029     3.113386     3.105743     3.098100     3.090456
      3.082813     3.075170     3.067527     3.059884     3.052240     3.044597     3.036954     3.029311     3.021667     3.014024
      3.006381     2.998738     2.991095     2.983451     2.975808     2.968165     2.960522     2.952878     2.945235     2.937592
      2.929949     2.922306     2.914662     2.907019     2.899376     2.891733     2.884089     2.876446     2.868803     2.861160
      2.853517     2.845873     2.838230     2.830587     2.822944     2.815300     2.807657     2.800014     2.792371     2.784728
      2.777084     2.769441     2.761798     2.754155     2.746511     2.738868     2.731225     2.723582     2.715939     2.708295
      2.700652     2.693009     2.685366     2.677722     2.670079     2.662436     2.654793     2.647150     2.639506     2.631863
      2.624220     2.616577     2.608933     2.601290     2.593647     2.586004     2.578361     2.570717     2.563074     2.555431
      2.547788     2.540144     2.532501     2.524858     2.517215     2.509572     2.501928     2.494285     2.486642     2.478999
      2.471355     2.463712     2.456069     2.448426     2.440783     2.433139     2.425496     2.417853     2.410210     2.402566
      2.394923     2.387280     2.379637     2.371994     2.364350     2.356707     2.349064     2.341421     2.333777     2.326134
      2.318491     2.310848     2.303205     2.295561     2.287918     2.280275     2.272632     2.264988     2.257345     2.249702
      2.242059     2.234416     2.226772     2.219129     2.211486     2.203843     2.196199     2.188556     2.180913     2.173270
      2.165627     2.157983     2.150340     2.142697     2.135054     2.127410     2.119767     2.112124     2.104481     2.096838
      2.089194     2.081551     2.073908     2.066265     2.058621     2.050978     2.043335     2.035692     2.028049     2.020405
      2.012762     2.005119     1.997476     1.989833     1.982190     1.974546     1.966903     1.959260     1.951617     1.943974
      1.936331     1.928688     1.921045     1.913402     1.905759     1.898115     1.890472     1.882829     1.875186     1.867543
      1.859900     1.852257     1.844614     1.836971     1.829327     1.821684     1.814041     1.806398     1.798755     1.791112
      1.783469     1.775826     1.768183     1.760540     1.752896     1.745253     1.737610     1.729967     1.722324     1.714681
      1.707038     1.699395     1.691752     1.684108     1.676465     1.668822     1.661179     1.653536     1.645893     1.638250
      1.630607     1.622964     1.615321     1.607677     1.600034     1.592391     1.584748     1.577105     1.569462     1.561819
      1.554176     1.546533     1.538890     1.531246     1.523603     1.515960     1.508317     1.500674     1.493031     1.485388
      1.477745     1.470102     1.462458     1.454815     1.447172     1.439529     1.431886     1.424243     1.416600     1.408957
      1.401314     1.393671     1.386027     1.378384     1.370741     1.363098     1.355455     1.347812     1.340169     1.332526
      1.324883     1.317240     1.309596     1.301953     1.294310     1.286667     1.279024     1.271381     1.263738     1.256095
      1.248452     1.240808     1.233165     1.225522     1.217879     1.210236     1.202593     1.194950     1.187307     1.179664
      1.172021     1.164377     1.156734     1.149091     1.141448     1.133805     1.126162     1.118519     1.110876     1.103233
      1.095590     1.087946     1.080303     1.072660     1.065017     1.057374     1.049731     1.042088     1.034445     1.026802
      1.019158     1.011515     1.003872     0.996229     0.988586     0.980943     0.973300     0.965657     0.958014     0.950371
      0.942727     0.935084     0.927441     0.919798     0.912155     0.904512     0.896869     0.889226     0.881583     0.873940
      0.866296     0.858653     0.851010     0.843367     0.835724     0.828081     0.820438     0.812795     0.805152     0.797508
      0.789865     0.782222     0.774579     0.766936     0.759293     0.751650     0.744007     0.736364     0.728721     0.721077
      0.713434     0.705791     0.698148     0.690505     0.682862     0.675219     0.667576     0.659933     0.652290     0.644646
      0.637003     0.629360     0.621717     0.614074     0.606431     0.598788     0.591145     0.583502     0.575858     0.568215
      0.560572     0.552929     0.545286     0.537643     0.530000     0.522357     0.514714     0.507071     0.499427     0.491784
      0.484141     0.476498     0.468855     0.461212     0.453569     0.445925     0.438282     0.430639     0.422996     0.415353
      0.407710     0.400067     0.392424     0.384780     0.377137     0.369494     0.361851     0.354208     0.346565     0.338922
      0.331278     0.323635     0.315992     0.308349     0.300706     0.293063     0.285420     0.277777     0.270133     0.262490
      0.254847     0.247204     0.239561     0.231918     0.224275     0.216631     0.208988     0.201345
 NY phased data points follow
   1.06185E+02  1.04360E+02  9.84956E+01  9.61898E+01  9.83673E+01  9.79739E+01  9.54432E+01  9.69102E+01  9.29406E+01  9.47155E+01
   9.24953E+01  9.17392E+01  9.02505E+01  9.07961E+01  8.57407E+01  8.61444E+01  8.60682E+01  8.12319E+01  8.05325E+01  8.07167E+01
   8.15636E+01  8.01959E+01  7.92561E+01  7.64798E+01  7.63711E+01  7.48267E+01  7.42832E+01  7.01107E+01  7.52456E+01  7.46252E+01
   7.03329E+01  6.88681E+01  6.92923E+01  7.10476E+01  6.93394E+01  7.01536E+01  6.98561E+01  6.65235E+01  6.63250E+01  6.39088E+01
   6.23565E+01  6.48628E+01  6.38203E+01  6.45457E+01  6.49247E+01  6.35055E+01  6.58202E+01  6.49033E+01  6.09635E+01  5.94983E+01
   5.98149E+01  5.78509E+01  6.04393E+01  5.82222E+01  5.70301E+01  5.97743E+01  5.65189E+01  5.55269E+01  5.44567E+01  5.57823E+01
   5.72978E+01  5.35612E+01  5.35592E+01  5.18184E+01  5.00528E+01  4.99224E+01  4.93155E+01  4.87469E+01  5.12276E+01  5.15153E+01
   5.21268E+01  5.35530E+01  4.89895E+01  5.00858E+01  5.04083E+01  5.06647E+01  4.70247E+01  4.82631E+01  4.62291E+01  4.50163E+01
   4.36189E+01  4.58177E+01  4.23302E+01  4.16395E+01  4.29338E+01  4.29624E+01  4.28482E+01  4.40184E+01  4.29275E+01  4.46353E+01
   4.02996E+01  4.29367E+01  4.00851E+01  4.06268E+01  4.13533E+01  3.97203E+01  4.09557E+01  4.14593E+01  4.10893E+01  4.12959E+01
   4.22950E+01  4.05363E+01  3.93006E+01  4.17787E+01  4.00517E+01  3.79402E+01  3.91501E+01  3.76312E+01  3.45031E+01  3.36501E+01
   3.46689E+01  3.34447E+01  3.25404E+01  3.69537E+01  3.27287E+01  3.67206E+01  3.55900E+01  3.28126E+01  3.28036E+01  3.31119E+01
   3.46500E+01  3.50623E+01  3.21545E+01  3.27446E+01  3.23890E+01  3.24745E+01  3.44439E+01  3.55108E+01  3.76731E+01  3.28439E+01
   2.98652E+01  2.99228E+01  2.90620E+01  2.79796E+01  2.91379E+01  3.23185E+01  3.39028E+01  2.87754E+01  3.06490E+01  3.27329E+01
   3.19437E+01  3.34237E+01  2.95933E+01  3.11007E+01  2.91786E+01  2.95103E+01  2.90653E+01  2.83115E+01  3.10049E+01  2.75570E+01
   2.60430E+01  2.61559E+01  3.00340E+01  2.87123E+01  2.55639E+01  2.81515E+01  2.63762E+01  2.69110E+01  2.59091E+01  2.57245E+01
   2.42342E+01  2.88680E+01  2.57939E+01  2.70168E+01  2.71361E+01  2.64332E+01  2.64475E+01  2.51772E+01  2.60412E+01  2.56619E+01
   2.45472E+01  2.41742E+01  2.32620E+01  2.55227E+01  2.41857E+01  2.46430E+01  2.37239E+01  2.73786E+01  2.49694E+01  2.60470E+01
   2.37823E+01  2.26547E+01  2.71262E+01  2.12695E+01  2.40892E+01  2.18924E+01  2.04400E+01  2.47798E+01  1.92683E+01  2.08943E+01
   2.05678E+01  1.90626E+01  2.05191E+01  1.64144E+01  2.01356E+01  2.13614E+01  2.14896E+01  1.66040E+01  1.97418E+01  2.00880E+01
   1.97241E+01  1.99537E+01  2.10277E+01  1.70768E+01  1.76208E+01  2.21836E+01  1.74874E+01  1.56979E+01  1.69198E+01  1.68420E+01
   1.58793E+01  1.90471E+01  1.73519E+01  1.83892E+01  1.75057E+01  1.71705E+01  1.93413E+01  2.05520E+01  1.83328E+01  1.66738E+01
   1.34434E+01  1.52114E+01  1.31527E+01  1.63638E+01  1.67269E+01  1.30015E+01  1.52258E+01  1.59041E+01  1.71872E+01  1.74979E+01
   1.65143E+01  1.30131E+01  1.61393E+01  1.59047E+01  1.61486E+01  1.49216E+01  1.79347E+01  1.30195E+01  1.38585E+01  1.17733E+01
   1.37524E+01  1.35707E+01  1.53030E+01  1.37391E+01  1.43738E+01  1.52772E+01  1.46243E+01  1.49707E+01  1.35200E+01  1.33217E+01
   1.49216E+01  1.37795E+01  1.14208E+01  1.26019E+01  1.21102E+01  1.81885E+01  1.96717E+01  1.76197E+01  2.01149E+01  1.85198E+01
   1.87128E+01  1.64152E+01  1.42441E+01  1.18058E+01  1.18913E+01  1.05201E+01  1.32398E+01  9.34216E+00  1.07361E+01  1.16887E+01
   1.00605E+01  1.53575E+01  1.54852E+01  1.56420E+01  1.31400E+01  1.37996E+01  1.50545E+01  1.71483E+01  1.32098E+01  1.08511E+01
   1.23696E+01  1.42466E+01  1.38512E+01  1.38156E+01  1.38154E+01  1.35143E+01  1.27233E+01  1.35247E+01  1.18662E+01  1.45212E+01
   9.29332E+00  8.00992E+00  1.07630E+01  9.51260E+00  1.10784E+01  9.05102E+00  1.04890E+01  7.76802E+00  9.65990E+00  9.69587E+00
   8.59587E+00  8.43088E+00  1.26163E+01  1.10965E+01  1.09395E+01  9.01715E+00  1.06841E+01  1.25485E+01  1.30569E+01  1.09827E+01
   7.80374E+00  9.53213E+00  1.09315E+01  1.11581E+01  1.17181E+01  7.39223E+00  7.65688E+00  8.55258E+00  8.77545E+00  1.20311E+01
   9.84836E+00  7.90173E+00  8.83156E+00  7.94613E+00  6.92790E+00  7.67756E+00  9.63801E+00  9.62665E+00  1.06286E+01  1.19363E+01
   7.66513E+00  8.68731E+00  7.70050E+00  1.10385E+01  7.66632E+00  9.63793E+00  9.11390E+00  8.90722E+00  9.65321E+00  6.40313E+00
   5.11978E+00  9.21642E+00  7.84174E+00  1.03366E+01  6.55054E+00  9.33920E+00  8.86192E+00  3.90752E+00  9.14704E+00  6.30058E+00
   5.47304E+00  7.34908E+00  6.49197E+00  1.35115E+01  5.83306E+00  7.72962E+00  7.54308E+00  1.05005E+01  9.63190E+00  8.84382E+00
   1.07544E+01  9.15659E+00  8.65079E+00  7.76110E+00  7.68449E+00  8.41313E+00  9.21611E+00  6.11930E+00  5.32525E+00  7.98831E+00
   9.41198E+00  6.70475E+00  7.78164E+00  8.29073E+00  8.81706E+00  8.17786E+00  3.28093E+00  9.08989E+00  5.76297E+00  5.43481E+00
   3.86703E+00  7.05283E+00  7.89516E+00  6.95360E+00  3.66643E+00  4.87228E+00  4.39908E+00  8.78496E+00  5.29849E+00  4.85573E+00
   3.14077E+00  5.61170E+00  4.79578E+00  5.85983E+00  8.42308E+00  5.56142E+00  6.35144E+00  4.28751E+00  7.98490E+00  6.66064E+00
   4.57801E+00  5.56702E-01  2.97921E+00  5.75341E+00  6.40812E+00  1.81868E+00 -1.33422E-01  3.43307E-01  4.59895E+00  6.83572E-01
   1.47157E+00  1.11866E+00  4.48946E+00  1.19707E-01 -5.83260E-01  8.97445E-01  3.26995E-01  1.28782E+00  4.65243E+00 -3.92325E-01
   1.36848E+00 -1.06473E+00  4.17358E-01  6.74587E-01 -6.90190E-01 -1.23436E+00  2.24107E-01  4.19068E-01  1.01967E+00 -7.97113E-01
  -2.85262E+00 -5.32275E-01 -1.61364E+00 -5.09105E+00 -5.66513E+00 -6.66247E-01 -1.31757E+00 -3.55933E+00 -3.63009E+00 -7.72793E-01
  -1.25319E+00  2.06010E+00 -2.93653E+00 -4.55911E+00 -2.60187E+00 -3.50750E+00 -1.29281E+00 -3.05692E+00 -3.32292E+00 -1.57503E+00
  -3.77461E+00 -4.70133E-01 -4.47509E+00 -1.01672E+00 -3.10355E+00 -2.95463E+00 -3.78432E+00  9.87771E-01 -3.15174E+00 -3.66158E+00
  -9.65928E-01 -4.18958E+00 -3.99587E+00  4.83727E-02 -1.07353E+00 -4.15703E+00 -2.09820E+00 -5.71328E+00 -1.45196E+00 -1.34366E-01
  -1.51403E+00 -1.47463E+00 -6.35204E+00 -1.77711E+00 -5.44719E+00 -3.28710E+00 -4.29625E+00 -6.30153E+00 -5.14346E+00 -2.40654E+00
  -3.21500E+00 -2.74266E+00 -5.37135E+00 -1.86357E+00 -5.80623E+00 -4.41853E+00 -1.44754E+00 -4.87266E+00 -3.80710E+00 -3.29472E-01
  -2.90828E+00 -3.44320E+00 -1.91338E+00 -5.62988E+00 -2.32878E+00 -3.02380E+00 -4.23876E+00 -6.18142E+00
 NY points of the fit to the data follow
   9.73459E+01  9.65874E+01  9.58724E+01  9.51679E+01  9.45912E+01  9.41048E+01  9.36680E+01  9.33855E+01  9.30182E+01  9.24083E+01
   9.15406E+01  9.04230E+01  8.90857E+01  8.75938E+01  8.61427E+01  8.49463E+01  8.39971E+01  8.33146E+01  8.27762E+01  8.20772E+01
   8.13151E+01  8.05895E+01  7.99130E+01  7.91983E+01  7.83718E+01  7.74922E+01  7.66058E+01  7.57342E+01  7.49277E+01  7.42353E+01
   7.36979E+01  7.32574E+01  7.28336E+01  7.23225E+01  7.15525E+01  7.05459E+01  6.94814E+01  6.84586E+01  6.75945E+01  6.69436E+01
   6.64451E+01  6.60450E+01  6.56991E+01  6.53653E+01  6.49259E+01  6.43382E+01  6.37047E+01  6.30415E+01  6.22539E+01  6.13162E+01
   6.03000E+01  5.93704E+01  5.86751E+01  5.82108E+01  5.78519E+01  5.74762E+01  5.70557E+01  5.66061E+01  5.61188E+01  5.55926E+01
   5.50247E+01  5.44118E+01  5.37688E+01  5.31195E+01  5.25281E+01  5.20411E+01  5.16360E+01  5.12817E+01  5.09226E+01  5.05107E+01
   5.00730E+01  4.96360E+01  4.91928E+01  4.87340E+01  4.82557E+01  4.77695E+01  4.72760E+01  4.68005E+01  4.63579E+01  4.59283E+01
   4.55327E+01  4.52026E+01  4.48801E+01  4.44954E+01  4.40598E+01  4.36078E+01  4.31544E+01  4.27132E+01  4.23027E+01  4.19479E+01
   4.16642E+01  4.14457E+01  4.12372E+01  4.09583E+01  4.06214E+01  4.02708E+01  3.99538E+01  3.97863E+01  4.01179E+01  4.07168E+01
   4.11086E+01  4.13020E+01  4.13337E+01  4.10229E+01  4.01216E+01  3.86620E+01  3.70647E+01  3.58735E+01  3.54374E+01  3.56636E+01
   3.58174E+01  3.56542E+01  3.54242E+01  3.51832E+01  3.49432E+01  3.46974E+01  3.44535E+01  3.42180E+01  3.39891E+01  3.37723E+01
   3.35892E+01  3.35410E+01  3.39704E+01  3.48067E+01  3.54777E+01  3.58825E+01  3.60758E+01  3.59031E+01  3.50925E+01  3.36093E+01
   3.18757E+01  3.05041E+01  2.99305E+01  3.01546E+01  3.04890E+01  3.04651E+01  3.03256E+01  3.01639E+01  2.99896E+01  2.98116E+01
   2.96329E+01  2.94581E+01  2.92863E+01  2.91117E+01  2.89422E+01  2.87795E+01  2.86121E+01  2.84323E+01  2.82419E+01  2.80539E+01
   2.78777E+01  2.77141E+01  2.75580E+01  2.73996E+01  2.72373E+01  2.70611E+01  2.68558E+01  2.66462E+01  2.64475E+01  2.62629E+01
   2.61018E+01  2.59505E+01  2.58242E+01  2.57235E+01  2.56145E+01  2.54551E+01  2.52283E+01  2.49732E+01  2.47508E+01  2.45685E+01
   2.44097E+01  2.42344E+01  2.40372E+01  2.38660E+01  2.37098E+01  2.35509E+01  2.33846E+01  2.32426E+01  2.31240E+01  2.29934E+01
   2.28283E+01  2.26248E+01  2.24118E+01  2.22723E+01  2.21935E+01  2.20977E+01  2.19629E+01  2.18134E+01  2.16910E+01  2.15841E+01
   2.14612E+01  2.13053E+01  2.11194E+01  2.09174E+01  2.07464E+01  2.05944E+01  2.04293E+01  2.02393E+01  2.00439E+01  1.98751E+01
   1.97402E+01  1.96460E+01  1.95828E+01  1.94820E+01  1.93170E+01  1.90810E+01  1.87593E+01  1.83900E+01  1.80222E+01  1.77512E+01
   1.76314E+01  1.76860E+01  1.79678E+01  1.82641E+01  1.84576E+01  1.85283E+01  1.83495E+01  1.77999E+01  1.68701E+01  1.58304E+01
   1.51034E+01  1.48292E+01  1.49500E+01  1.53586E+01  1.58451E+01  1.63724E+01  1.67715E+01  1.68596E+01  1.66054E+01  1.61587E+01
   1.57792E+01  1.55707E+01  1.54510E+01  1.53757E+01  1.53471E+01  1.53192E+01  1.52368E+01  1.50907E+01  1.48976E+01  1.46891E+01
   1.45251E+01  1.44325E+01  1.43999E+01  1.44211E+01  1.44986E+01  1.45810E+01  1.45756E+01  1.44377E+01  1.42313E+01  1.40246E+01
   1.38845E+01  1.39192E+01  1.40717E+01  1.42695E+01  1.46431E+01  1.57721E+01  1.72186E+01  1.81606E+01  1.86574E+01  1.89087E+01
   1.87402E+01  1.77392E+01  1.58826E+01  1.37227E+01  1.20830E+01  1.15894E+01  1.21957E+01  1.27163E+01  1.27477E+01  1.26958E+01
   1.26616E+01  1.26394E+01  1.26050E+01  1.25819E+01  1.25665E+01  1.25286E+01  1.24521E+01  1.23404E+01  1.22092E+01  1.20830E+01
   1.19823E+01  1.19044E+01  1.18379E+01  1.17778E+01  1.17205E+01  1.16623E+01  1.15976E+01  1.15234E+01  1.14462E+01  1.13702E+01
   1.12953E+01  1.12230E+01  1.11534E+01  1.10839E+01  1.10127E+01  1.09404E+01  1.08685E+01  1.07973E+01  1.07277E+01  1.06594E+01
   1.05918E+01  1.05254E+01  1.04597E+01  1.03941E+01  1.03278E+01  1.02610E+01  1.01942E+01  1.01279E+01  1.00620E+01  9.99698E+00
   9.93288E+00  9.86953E+00  9.80685E+00  9.74487E+00  9.68363E+00  9.62326E+00  9.56391E+00  9.50571E+00  9.44868E+00  9.39278E+00
   9.33801E+00  9.28452E+00  9.23247E+00  9.18194E+00  9.13302E+00  9.08577E+00  9.04039E+00  8.99711E+00  8.95622E+00  8.91793E+00
   8.88247E+00  8.85017E+00  8.82148E+00  8.79692E+00  8.77708E+00  8.76263E+00  8.75443E+00  8.75386E+00  8.76316E+00  8.78635E+00
   8.83211E+00  8.92539E+00  9.10901E+00  9.25681E+00  9.24869E+00  9.13966E+00  8.95509E+00  8.65949E+00  8.23490E+00  7.78198E+00
   7.59902E+00  7.78295E+00  8.20707E+00  8.71154E+00  9.09376E+00  9.32588E+00  9.42069E+00  9.29882E+00  8.98274E+00  8.59161E+00
   8.29016E+00  8.18356E+00  8.12521E+00  8.02280E+00  7.89773E+00  7.76014E+00  7.61394E+00  7.46145E+00  7.30437E+00  7.14416E+00
   6.98207E+00  6.81927E+00  6.65687E+00  6.49586E+00  6.33716E+00  6.18153E+00  6.02963E+00  5.88206E+00  5.73936E+00  5.60199E+00
   5.47034E+00  5.34473E+00  5.22543E+00  5.11270E+00  5.00672E+00  4.90761E+00  4.81538E+00  4.72995E+00  4.65113E+00  4.57858E+00
   4.51180E+00  4.45009E+00  4.39256E+00  4.33813E+00  4.28557E+00  4.23346E+00  4.18029E+00  4.12444E+00  4.06430E+00  3.99830E+00
   3.92504E+00  3.84325E+00  3.75192E+00  3.65032E+00  3.53805E+00  3.41507E+00  3.28168E+00  3.13845E+00  2.98625E+00  2.82622E+00
   2.65962E+00  2.48789E+00  2.31247E+00  2.13478E+00  1.95617E+00  1.77788E+00  1.60105E+00  1.42663E+00  1.25538E+00  1.08789E+00
   9.24579E-01  7.65749E-01  6.11560E-01  4.62060E-01  3.17191E-01  1.76830E-01  4.08137E-02 -9.10380E-02 -2.18924E-01 -3.43062E-01
  -4.63671E-01 -5.80957E-01 -6.95097E-01 -8.06244E-01 -9.14541E-01 -1.02012E+00 -1.12312E+00 -1.22361E+00 -1.32167E+00 -1.41735E+00
  -1.51070E+00 -1.60176E+00 -1.69057E+00 -1.77715E+00 -1.86148E+00 -1.94357E+00 -2.02342E+00 -2.10104E+00 -2.17642E+00 -2.24952E+00
  -2.32033E+00 -2.38881E+00 -2.45496E+00 -2.51879E+00 -2.58036E+00 -2.63973E+00 -2.69699E+00 -2.75220E+00 -2.80546E+00 -2.85684E+00
  -2.90640E+00 -2.95421E+00 -3.00034E+00 -3.04486E+00 -3.08785E+00 -3.12939E+00 -3.16952E+00 -3.20831E+00 -3.24582E+00 -3.28215E+00
  -3.31736E+00 -3.35150E+00 -3.38464E+00 -3.41684E+00 -3.44817E+00 -3.47870E+00 -3.50852E+00 -3.53765E+00 -3.56618E+00 -3.59415E+00
  -3.62166E+00 -3.64877E+00 -3.67553E+00 -3.70201E+00 -3.72825E+00 -3.75434E+00 -3.78036E+00 -3.80635E+00 -3.83239E+00 -3.85852E+00
  -3.88481E+00 -3.91133E+00 -3.93816E+00 -3.96536E+00 -3.99297E+00 -4.02106E+00 -4.04970E+00 -4.07896E+00
 NY background values follow
     9.731E+01    9.648E+01    9.566E+01    9.484E+01    9.401E+01    9.319E+01    9.237E+01    9.155E+01    9.074E+01    8.992E+01
     8.911E+01    8.830E+01    8.749E+01    8.668E+01    8.588E+01    8.508E+01    8.428E+01    8.349E+01    8.270E+01    8.191E+01
     8.113E+01    8.035E+01    7.957E+01    7.880E+01    7.804E+01    7.727E+01    7.652E+01    7.576E+01    7.501E+01    7.427E+01
     7.353E+01    7.280E+01    7.208E+01    7.135E+01    7.064E+01    6.993E+01    6.923E+01    6.853E+01    6.784E+01    6.716E+01
     6.649E+01    6.582E+01    6.516E+01    6.450E+01    6.386E+01    6.322E+01    6.259E+01    6.196E+01    6.135E+01    6.074E+01
     6.014E+01    5.955E+01    5.896E+01    5.839E+01    5.782E+01    5.726E+01    5.670E+01    5.615E+01    5.561E+01    5.508E+01
     5.455E+01    5.404E+01    5.352E+01    5.302E+01    5.252E+01    5.203E+01    5.154E+01    5.107E+01    5.059E+01    5.013E+01
     4.967E+01    4.922E+01    4.877E+01    4.833E+01    4.790E+01    4.747E+01    4.705E+01    4.663E+01    4.623E+01    4.582E+01
     4.542E+01    4.503E+01    4.465E+01    4.427E+01    4.389E+01    4.352E+01    4.316E+01    4.280E+01    4.245E+01    4.210E+01
     4.176E+01    4.142E+01    4.109E+01    4.076E+01    4.044E+01    4.012E+01    3.981E+01    3.950E+01    3.920E+01    3.890E+01
     3.860E+01    3.831E+01    3.803E+01    3.774E+01    3.747E+01    3.719E+01    3.692E+01    3.666E+01    3.640E+01    3.614E+01
     3.588E+01    3.563E+01    3.539E+01    3.514E+01    3.490E+01    3.466E+01    3.443E+01    3.420E+01    3.397E+01    3.375E+01
     3.352E+01    3.330E+01    3.309E+01    3.287E+01    3.266E+01    3.245E+01    3.225E+01    3.204E+01    3.184E+01    3.164E+01
     3.144E+01    3.125E+01    3.105E+01    3.086E+01    3.067E+01    3.048E+01    3.029E+01    3.011E+01    2.992E+01    2.974E+01
     2.956E+01    2.938E+01    2.920E+01    2.902E+01    2.884E+01    2.867E+01    2.849E+01    2.832E+01    2.815E+01    2.798E+01
     2.781E+01    2.764E+01    2.747E+01    2.730E+01    2.714E+01    2.697E+01    2.680E+01    2.664E+01    2.647E+01    2.631E+01
     2.615E+01    2.598E+01    2.582E+01    2.566E+01    2.550E+01    2.534E+01    2.517E+01    2.501E+01    2.485E+01    2.469E+01
     2.453E+01    2.437E+01    2.421E+01    2.404E+01    2.388E+01    2.372E+01    2.356E+01    2.340E+01    2.323E+01    2.307E+01
     2.291E+01    2.274E+01    2.258E+01    2.241E+01    2.225E+01    2.208E+01    2.192E+01    2.175E+01    2.159E+01    2.142E+01
     2.125E+01    2.109E+01    2.092E+01    2.076E+01    2.059E+01    2.043E+01    2.026E+01    2.010E+01    1.994E+01    1.978E+01
     1.961E+01    1.945E+01    1.929E+01    1.914E+01    1.898E+01    1.882E+01    1.867E+01    1.851E+01    1.836E+01    1.821E+01
     1.806E+01    1.791E+01    1.777E+01    1.762E+01    1.748E+01    1.734E+01    1.720E+01    1.706E+01    1.693E+01    1.679E+01
     1.666E+01    1.653E+01    1.641E+01    1.628E+01    1.616E+01    1.604E+01    1.593E+01    1.581E+01    1.570E+01    1.559E+01
     1.549E+01    1.538E+01    1.528E+01    1.518E+01    1.509E+01    1.499E+01    1.490E+01    1.481E+01    1.472E+01    1.463E+01
     1.455E+01    1.447E+01    1.438E+01    1.430E+01    1.423E+01    1.415E+01    1.407E+01    1.400E+01    1.393E+01    1.385E+01
     1.378E+01    1.371E+01    1.364E+01    1.358E+01    1.351E+01    1.344E+01    1.338E+01    1.331E+01    1.325E+01    1.318E+01
     1.312E+01    1.305E+01    1.299E+01    1.293E+01    1.287E+01    1.280E+01    1.274E+01    1.268E+01    1.261E+01    1.255E+01
     1.249E+01    1.242E+01    1.236E+01    1.229E+01    1.223E+01    1.216E+01    1.210E+01    1.203E+01    1.196E+01    1.190E+01
     1.183E+01    1.176E+01    1.170E+01    1.163E+01    1.156E+01    1.149E+01    1.142E+01    1.135E+01    1.129E+01    1.122E+01
     1.115E+01    1.108E+01    1.101E+01    1.094E+01    1.087E+01    1.080E+01    1.073E+01    1.067E+01    1.060E+01    1.053E+01
     1.046E+01    1.039E+01    1.032E+01    1.025E+01    1.019E+01    1.012E+01    1.005E+01    9.983E+00    9.916E+00    9.849E+00
     9.782E+00    9.716E+00    9.650E+00    9.584E+00    9.518E+00    9.454E+00    9.389E+00    9.325E+00    9.261E+00    9.198E+00
     9.135E+00    9.072E+00    9.009E+00    8.947E+00    8.885E+00    8.823E+00    8.761E+00    8.699E+00    8.637E+00    8.575E+00
     8.513E+00    8.451E+00    8.389E+00    8.326E+00    8.263E+00    8.201E+00    8.137E+00    8.074E+00    8.010E+00    7.946E+00
     7.881E+00    7.816E+00    7.750E+00    7.684E+00    7.617E+00    7.549E+00    7.481E+00    7.412E+00    7.342E+00    7.272E+00
     7.200E+00    7.128E+00    7.055E+00    6.981E+00    6.906E+00    6.830E+00    6.753E+00    6.675E+00    6.595E+00    6.515E+00
     6.433E+00    6.350E+00    6.266E+00    6.180E+00    6.093E+00    6.005E+00    5.916E+00    5.826E+00    5.734E+00    5.641E+00
     5.548E+00    5.453E+00    5.357E+00    5.260E+00    5.163E+00    5.064E+00    4.965E+00    4.864E+00    4.763E+00    4.661E+00
     4.558E+00    4.455E+00    4.350E+00    4.246E+00    4.140E+00    4.034E+00    3.927E+00    3.820E+00    3.712E+00    3.604E+00
     3.495E+00    3.386E+00    3.277E+00    3.167E+00    3.057E+00    2.946E+00    2.835E+00    2.724E+00    2.613E+00    2.502E+00
     2.390E+00    2.278E+00    2.167E+00    2.055E+00    1.943E+00    1.831E+00    1.719E+00    1.608E+00    1.496E+00    1.385E+00
     1.273E+00    1.162E+00    1.051E+00    9.411E-01    8.311E-01    7.215E-01    6.123E-01    5.037E-01    3.957E-01    2.882E-01
     1.814E-01    7.533E-02   -3.003E-02   -1.346E-01   -2.383E-01   -3.412E-01   -4.431E-01   -5.441E-01   -6.440E-01   -7.429E-01
    -8.407E-01   -9.373E-01   -1.033E+00   -1.127E+00   -1.220E+00   -1.311E+00   -1.402E+00   -1.490E+00   -1.578E+00   -1.663E+00
    -1.748E+00   -1.830E+00   -1.911E+00   -1.991E+00   -2.068E+00   -2.144E+00   -2.218E+00   -2.290E+00   -2.360E+00   -2.428E+00
    -2.494E+00   -2.558E+00   -2.620E+00   -2.680E+00   -2.738E+00   -2.794E+00   -2.847E+00   -2.899E+00   -2.950E+00   -2.998E+00
    -3.045E+00   -3.090E+00   -3.133E+00   -3.175E+00   -3.216E+00   -3.255E+00   -3.293E+00   -3.330E+00   -3.365E+00   -3.399E+00
    -3.433E+00   -3.465E+00   -3.496E+00   -3.527E+00   -3.556E+00   -3.585E+00   -3.613E+00   -3.641E+00   -3.668E+00   -3.694E+00
    -3.720E+00   -3.746E+00   -3.771E+00   -3.797E+00   -3.822E+00   -3.846E+00   -3.871E+00   -3.896E+00   -3.921E+00   -3.946E+00
    -3.971E+00   -3.996E+00   -4.022E+00   -4.048E+00   -4.075E+00   -4.102E+00   -4.129E+00   -4.158E+00
 Asp      Conc. = 1.32E+01
