 LCModel (Version 6.3-1L) Copyright: S.W. Provencher.          Ref.: Magn. Reson. Med. 30:672-679 (1993).                
 Slice#2 Row#7 Col#10  PD_24_press_1_raw_act
 36 lines in following concentration table = NCONC+1
    Conc.  %SD /Cr+PCr  Metabolite                                         
    0.000 999%   0.000 Ala                                                 
  125.307 206% 7.5E-02 Asp                                                 
  358.426  70%   0.214 Cr                                                  
 1.32E+03  20%   0.786 PCr                                                 
   60.516 312% 3.6E-02 GABA                                                
   15.484 999% 9.2E-03 Glc                                                 
  586.887  41%   0.350 Gln                                                 
 2.03E+03  15%   1.212 Glu                                                 
  852.282   3%   0.508 GPC                                                 
    0.000 999%   0.000 PCh                                                 
  451.651  18%   0.269 GSH                                                 
 1.55E+03  18%   0.922 Ins                                                 
    0.000 999%   0.000 Lac                                                 
 2.91E+03   3%   1.736 NAA                                                 
    0.000 999%   0.000 NAAG                                                
  225.957  14%   0.135 Scyllo                                              
    0.000 999%   0.000 Tau                                                 
  192.019  62%   0.114 -CrCH2                                              
  852.282   3%   0.508 GPC+PCh                                             
 2.91E+03   3%   1.736 NAA+NAAG                                            
 1.68E+03   4%   1.000 Cr+PCr                                              
 2.62E+03  16%   1.561 Glu+Gln                                             
 1.62E+03  26%   0.964 Lip13a                                              
    0.000 999%   0.000 Lip13b                                              
    0.000 999%   0.000 Lip09                                               
 1.52E+03  14%   0.903 MM09                                                
  377.772  52%   0.225 Lip20                                               
 3.55E+03  11%   2.116 MM20                                                
  566.227  25%   0.337 MM12                                                
 1.79E+03  20%   1.067 MM14                                                
 1.69E+03  16%   1.006 MM17                                                
 1.62E+03  26%   0.964 Lip13a+Lip13b                                       
 3.98E+03  12%   2.368 MM14+Lip13a+Lip13b+MM12                             
 1.52E+03  14%   0.903 MM09+Lip09                                          
 3.93E+03  10%   2.342 MM20+Lip20                                          
   6 lines in following misc. output table
  FWHM = 0.054 ppm    S/N =  14                                            
  Data shift = 0.000 ppm                                                   
  Ph: -47 deg     -11.3 deg/ppm                                            
  alphaB,S = 1.0E+00,   1.8E+02                                            
   14 spline knots.   Ns = 7(1)                                            
  (13) 2 infls.   ( 3) 1 extrs.                                            
  498 points on ppm-axis = NY
      4.000000     3.992357     3.984714     3.977070     3.969427     3.961784     3.954141     3.946497     3.938854     3.931211
      3.923568     3.915925     3.908281     3.900638     3.892995     3.885352     3.877708     3.870065     3.862422     3.854779
      3.847136     3.839492     3.831849     3.824206     3.816563     3.808919     3.801276     3.793633     3.785990     3.778347
      3.770703     3.763060     3.755417     3.747774     3.740130     3.732487     3.724844     3.717201     3.709558     3.701914
      3.694271     3.686628     3.678985     3.671341     3.663698     3.656055     3.648412     3.640769     3.633125     3.625482
      3.617839     3.610196     3.602552     3.594909     3.587266     3.579623     3.571980     3.564336     3.556693     3.549050
      3.541407     3.533763     3.526120     3.518477     3.510834     3.503191     3.495547     3.487904     3.480261     3.472618
      3.464974     3.457331     3.449688     3.442045     3.434402     3.426758     3.419115     3.411472     3.403829     3.396185
      3.388542     3.380899     3.373256     3.365613     3.357969     3.350326     3.342683     3.335040     3.327396     3.319753
      3.312110     3.304467     3.296824     3.289180     3.281537     3.273894     3.266251     3.258607     3.250964     3.243321
      3.235678     3.228034     3.220391     3.212748     3.205105     3.197462     3.189818     3.182175     3.174532     3.166889
      3.159245     3.151602     3.143959     3.136316     3.128673     3.121029     3.113386     3.105743     3.098100     3.090456
      3.082813     3.075170     3.067527     3.059884     3.052240     3.044597     3.036954     3.029311     3.021667     3.014024
      3.006381     2.998738     2.991095     2.983451     2.975808     2.968165     2.960522     2.952878     2.945235     2.937592
      2.929949     2.922306     2.914662     2.907019     2.899376     2.891733     2.884089     2.876446     2.868803     2.861160
      2.853517     2.845873     2.838230     2.830587     2.822944     2.815300     2.807657     2.800014     2.792371     2.784728
      2.777084     2.769441     2.761798     2.754155     2.746511     2.738868     2.731225     2.723582     2.715939     2.708295
      2.700652     2.693009     2.685366     2.677722     2.670079     2.662436     2.654793     2.647150     2.639506     2.631863
      2.624220     2.616577     2.608933     2.601290     2.593647     2.586004     2.578361     2.570717     2.563074     2.555431
      2.547788     2.540144     2.532501     2.524858     2.517215     2.509572     2.501928     2.494285     2.486642     2.478999
      2.471355     2.463712     2.456069     2.448426     2.440783     2.433139     2.425496     2.417853     2.410210     2.402566
      2.394923     2.387280     2.379637     2.371994     2.364350     2.356707     2.349064     2.341421     2.333777     2.326134
      2.318491     2.310848     2.303205     2.295561     2.287918     2.280275     2.272632     2.264988     2.257345     2.249702
      2.242059     2.234416     2.226772     2.219129     2.211486     2.203843     2.196199     2.188556     2.180913     2.173270
      2.165627     2.157983     2.150340     2.142697     2.135054     2.127410     2.119767     2.112124     2.104481     2.096838
      2.089194     2.081551     2.073908     2.066265     2.058621     2.050978     2.043335     2.035692     2.028049     2.020405
      2.012762     2.005119     1.997476     1.989833     1.982190     1.974546     1.966903     1.959260     1.951617     1.943974
      1.936331     1.928688     1.921045     1.913402     1.905759     1.898115     1.890472     1.882829     1.875186     1.867543
      1.859900     1.852257     1.844614     1.836971     1.829327     1.821684     1.814041     1.806398     1.798755     1.791112
      1.783469     1.775826     1.768183     1.760540     1.752896     1.745253     1.737610     1.729967     1.722324     1.714681
      1.707038     1.699395     1.691752     1.684108     1.676465     1.668822     1.661179     1.653536     1.645893     1.638250
      1.630607     1.622964     1.615321     1.607677     1.600034     1.592391     1.584748     1.577105     1.569462     1.561819
      1.554176     1.546533     1.538890     1.531246     1.523603     1.515960     1.508317     1.500674     1.493031     1.485388
      1.477745     1.470102     1.462458     1.454815     1.447172     1.439529     1.431886     1.424243     1.416600     1.408957
      1.401314     1.393671     1.386027     1.378384     1.370741     1.363098     1.355455     1.347812     1.340169     1.332526
      1.324883     1.317240     1.309596     1.301953     1.294310     1.286667     1.279024     1.271381     1.263738     1.256095
      1.248452     1.240808     1.233165     1.225522     1.217879     1.210236     1.202593     1.194950     1.187307     1.179664
      1.172021     1.164377     1.156734     1.149091     1.141448     1.133805     1.126162     1.118519     1.110876     1.103233
      1.095590     1.087946     1.080303     1.072660     1.065017     1.057374     1.049731     1.042088     1.034445     1.026802
      1.019158     1.011515     1.003872     0.996229     0.988586     0.980943     0.973300     0.965657     0.958014     0.950371
      0.942727     0.935084     0.927441     0.919798     0.912155     0.904512     0.896869     0.889226     0.881583     0.873940
      0.866296     0.858653     0.851010     0.843367     0.835724     0.828081     0.820438     0.812795     0.805152     0.797508
      0.789865     0.782222     0.774579     0.766936     0.759293     0.751650     0.744007     0.736364     0.728721     0.721077
      0.713434     0.705791     0.698148     0.690505     0.682862     0.675219     0.667576     0.659933     0.652290     0.644646
      0.637003     0.629360     0.621717     0.614074     0.606431     0.598788     0.591145     0.583502     0.575858     0.568215
      0.560572     0.552929     0.545286     0.537643     0.530000     0.522357     0.514714     0.507071     0.499427     0.491784
      0.484141     0.476498     0.468855     0.461212     0.453569     0.445925     0.438282     0.430639     0.422996     0.415353
      0.407710     0.400067     0.392424     0.384780     0.377137     0.369494     0.361851     0.354208     0.346565     0.338922
      0.331278     0.323635     0.315992     0.308349     0.300706     0.293063     0.285420     0.277777     0.270133     0.262490
      0.254847     0.247204     0.239561     0.231918     0.224275     0.216631     0.208988     0.201345
 NY phased data points follow
  -6.09178E-01 -5.66301E+00  2.25401E+00  2.14532E+00  6.67210E+00  8.23638E+00  1.23483E+01  1.71049E+01  2.69918E+01  2.59490E+01
   3.35192E+01  2.40998E+01  2.82516E+01  2.27779E+01  2.09500E+01  1.29469E+01  8.98516E+00 -3.80469E-01  2.86628E+00 -1.29916E+00
   1.22661E+00 -5.10295E+00 -2.81240E+00  7.52653E-01  3.56860E+00 -2.19126E+00  8.99950E+00  2.89894E+00  3.25683E+00  5.74588E+00
   6.77036E+00  2.06874E+00  5.08086E+00  3.36756E+00  7.64662E+00  6.72667E+00  8.14969E+00  4.85501E+00  7.51423E+00  4.32265E+00
   1.23031E+00  3.17571E+00  1.42222E+00  5.32488E+00  8.01548E+00  9.98905E+00  1.43531E+01  1.07956E+01  1.20426E+01  3.49200E+00
   1.09261E+01  4.98360E+00  2.26839E+00  3.52224E+00  4.70511E+00 -4.74846E+00 -3.25178E-02  2.34839E+00  5.58014E+00 -2.22119E+00
  -3.05635E+00 -7.40404E+00 -6.50402E+00 -8.35049E+00 -1.16149E+01 -5.58021E+00 -7.73755E+00 -7.70082E+00 -5.90902E+00 -9.39510E+00
  -1.06137E+00 -6.47772E+00 -5.05355E+00 -7.30840E+00 -4.05624E+00 -3.52437E+00 -2.60170E+00 -2.19551E+00 -2.58759E+00 -3.18586E+00
  -4.50530E+00 -1.77983E+00  8.04341E+00  8.92099E-01  3.65349E+00  1.86772E+00  5.69342E+00  2.09074E+00  3.91326E+00  6.64798E+00
   8.08823E+00  5.01872E+00  2.23115E+00  1.09139E+00  5.17436E+00  1.12271E+00  7.92588E+00  7.79040E+00  1.76857E+01  3.14851E+01
   4.46027E+01  5.85084E+01  7.06859E+01  7.00375E+01  6.19865E+01  5.42092E+01  4.32521E+01  3.32175E+01  2.31284E+01  1.39584E+01
   1.04009E+01 -4.41414E+00  2.40692E+00 -3.28222E+00  2.88961E+00 -2.88188E+00 -4.46915E+00 -2.82158E+00 -3.19666E+00 -6.13581E+00
  -4.91027E+00 -3.65622E+00  5.75913E+00  1.56364E+01  2.97035E+01  3.64207E+01  4.60100E+01  4.58573E+01  5.41983E+01  4.24064E+01
   3.79941E+01  2.74480E+01  2.16720E+01  1.38155E+01  7.32239E+00  2.90891E+00 -7.65337E-01 -8.13264E+00  3.38392E-02 -2.17602E-01
  -5.50036E+00 -2.80691E+00 -6.64492E+00 -2.68771E+00  7.62845E-01 -4.37425E+00 -6.41599E-01 -5.87910E+00 -2.90474E+00  1.64272E-01
  -6.38915E+00 -7.98397E+00 -3.56383E+00 -5.08517E+00 -1.96498E+00 -5.54647E+00 -4.53722E+00 -1.75679E+00 -2.73153E+00 -4.54695E+00
  -6.80195E+00 -7.54641E+00 -5.31865E+00 -3.54321E+00 -6.91438E+00 -5.71362E+00 -1.10837E+01 -1.10306E+01 -8.22240E+00 -1.08665E+01
  -6.09835E+00 -8.84696E+00 -8.56809E+00 -1.15838E+01 -1.20925E+01 -1.71611E+01 -1.19335E+01 -1.53887E+01 -1.49627E+01 -1.13431E+01
  -1.06998E+01 -1.05522E+01 -8.71922E+00 -9.12456E+00 -1.00063E+01 -1.50568E+01 -8.03717E+00 -1.30995E+01 -7.00373E+00 -5.84484E+00
  -2.87206E+00 -2.35222E+00  2.04397E+00 -3.14961E+00  2.40411E+00  3.05828E+00 -3.74960E+00 -4.34500E+00 -3.18552E+00 -5.12829E+00
  -4.00354E+00  1.63576E+00  3.18014E+00  7.33699E-01  6.67252E+00  1.08799E+00  4.42879E+00 -3.24818E+00 -8.13238E-01 -3.14557E+00
   1.39083E+00  2.54090E-01  2.92429E+00  7.49632E+00  1.33475E+01  1.09363E+01  1.25027E+01  1.44058E+01  1.05215E+01  9.63094E+00
   2.45747E+00 -1.11680E+00 -1.55045E+00  2.40342E+00  5.22466E-02 -9.07178E-01  3.78690E+00  7.70938E+00  6.66270E+00  8.34187E+00
   8.51245E+00  6.39550E+00  1.13375E+01  9.96315E+00  1.15174E+01  9.20193E+00  1.05603E+01  1.16791E+01  9.67177E+00  5.82266E+00
   7.94143E+00  8.15158E+00  6.20263E+00  6.72779E+00  9.24193E+00  1.12819E+01  1.13662E+01  1.46168E+01  1.59673E+01  1.72866E+01
   2.00197E+01  1.65934E+01  1.63408E+01  2.08817E+01  2.89991E+01  2.89206E+01  4.41281E+01  6.47392E+01  8.40435E+01  9.92496E+01
   1.08393E+02  9.76277E+01  9.02587E+01  7.69782E+01  6.57797E+01  4.55573E+01  3.81667E+01  2.71911E+01  2.14192E+01  1.37467E+01
   1.00700E+01  1.10578E+01  1.05909E+01  1.48707E+01  1.58338E+01  9.74648E+00  1.01942E+01  5.28847E+00  1.07367E+01  9.32355E+00
   9.55365E+00  5.41981E+00  5.32611E+00  3.43765E+00  1.20672E+01  7.88010E+00  8.46487E+00  4.87318E+00  8.21301E+00  8.02507E+00
   5.75818E+00  4.92474E+00  8.67038E+00  5.91603E+00  1.15255E+01  6.46333E+00  9.78793E+00  8.45688E+00  1.23519E+01  7.50483E+00
   1.18553E+01  1.25981E+01  1.69632E+01  1.39303E+01  1.72794E+01  1.28917E+01  1.71326E+01  1.68088E+01  1.64924E+01  1.38993E+01
   1.11438E+01  1.13797E+01  1.34244E+01  1.19997E+01  1.21394E+01  1.14552E+01  1.30206E+01  1.19785E+01  1.14104E+01  9.29614E+00
   1.41162E+01  7.34990E+00  1.29382E+01  1.14894E+01  8.97968E+00  8.21935E+00  1.20657E+01  8.38659E+00  1.23745E+01  1.00106E+01
   1.12640E+01  1.31458E+01  1.10360E+01  1.68903E+01  8.69247E+00  1.57118E+01  1.51781E+01  1.27685E+01  1.15432E+01  9.75436E+00
   1.17917E+01  6.85538E+00  1.03262E+01  9.71894E+00  9.66915E+00  9.17106E+00  6.10734E+00  4.82372E+00  7.36886E+00  1.23909E+01
   9.94835E+00  7.75227E+00  7.97881E+00  1.31557E+01  8.97579E+00  1.21415E+01  7.12244E+00  1.13860E+01  7.81813E+00  1.36118E+01
   8.96727E+00  1.16195E+01  1.15475E+01  7.90731E+00  1.18651E+01  9.79271E+00  1.47213E+01  1.01356E+01  1.15453E+01  1.42749E+01
   1.13704E+01  1.10128E+01  1.01363E+01  9.06509E+00  1.19317E+01  1.66441E+01  3.22170E+00  5.98858E+00  5.04928E+00  4.19931E+00
   3.29969E+00 -9.39525E-01 -1.35904E+00  2.89948E+00  4.42722E+00  1.17817E+00  1.06026E+00  3.67936E+00  3.68273E+00  3.36136E+00
   6.67915E-02  3.70853E+00  5.86706E+00  2.77698E+00  3.58852E+00  1.12739E+01  5.37410E+00  7.29080E+00  4.84189E+00  9.24851E+00
   9.99272E+00  8.14892E+00  8.25542E+00  7.91490E+00  1.28797E+01  1.35704E+01  1.13269E+01  1.14239E+01  1.28029E+01  1.13731E+01
   1.08939E+01  1.21030E+01  1.01352E+01  8.45645E+00  1.00157E+01  6.24929E+00  7.73961E+00  6.75792E+00  3.50064E+00  5.75779E+00
   2.64619E+00  5.56199E+00  2.49416E+00  1.90575E+00 -3.00216E+00 -1.94145E+00  4.58061E+00 -2.21878E+00 -3.84099E-01 -3.01206E+00
   2.45990E+00 -1.46585E+00 -2.16259E+00  3.87091E-01  3.02764E-01 -6.59897E+00 -4.73769E-02 -1.71943E+00  8.02610E-01 -4.19044E+00
  -7.52637E+00 -3.84056E-01 -1.19197E+00 -3.09915E+00 -8.96690E-01 -7.17478E-01 -1.76996E+00  1.21371E+00  1.87914E+00  1.69147E+00
  -2.09364E+00 -2.29807E+00 -3.85239E+00  8.02925E-01 -1.59280E-01  3.24153E-01 -2.06974E-01  2.90530E+00  8.71500E-01 -1.58761E+00
  -8.12079E-01 -6.71264E-01  3.48851E+00 -3.44414E+00 -3.55316E+00  3.16843E-01  2.57271E-01 -2.80900E+00  7.84415E-01  1.37075E+00
   2.58538E+00  2.10524E+00 -1.80371E+00  8.20221E-01  2.75465E-01  1.42516E+00 -3.75788E+00 -6.08444E+00  1.53369E+00 -4.19525E+00
  -2.28065E+00 -4.78762E-01  1.06538E+00 -2.76304E+00  4.43870E+00  5.29157E-01 -7.27972E-01 -3.69933E-01  4.77594E+00  5.66911E-01
   3.60430E+00 -7.54675E-01  9.74376E-01 -5.17216E-01  2.75401E+00  3.59756E+00  1.59625E+00 -2.24213E+00
 NY points of the fit to the data follow
  -1.57514E+00 -1.68738E+00 -1.09071E+00  5.05344E-01  3.29536E+00  7.60820E+00  1.32845E+01  1.95685E+01  2.52608E+01  2.90719E+01
   3.02357E+01  2.88738E+01  2.57500E+01  2.16884E+01  1.73473E+01  1.31485E+01  9.20101E+00  5.51056E+00  2.53929E+00  8.29761E-01
  -1.63428E-01 -7.19381E-01 -1.10602E+00 -1.25145E+00 -1.07273E+00 -4.05807E-01  8.58944E-01  2.59062E+00  4.51785E+00  6.28604E+00
   7.61372E+00  8.37850E+00  8.51845E+00  7.97182E+00  6.77472E+00  5.08521E+00  3.21370E+00  1.36309E+00 -1.46667E-01 -7.77787E-01
  -5.86114E-01  2.91729E-01  1.78162E+00  3.83912E+00  6.20295E+00  8.30952E+00  9.61076E+00  9.79489E+00  8.84733E+00  7.07223E+00
   4.91736E+00  2.79334E+00  1.02257E+00 -3.75344E-01 -1.41904E+00 -1.92123E+00 -1.75386E+00 -1.15397E+00 -5.59436E-01 -2.65167E-01
  -4.03674E-01 -9.43481E-01 -1.72644E+00 -2.54298E+00 -3.17767E+00 -3.51461E+00 -3.59034E+00 -3.45341E+00 -3.10671E+00 -2.63607E+00
  -2.16566E+00 -1.81855E+00 -1.68081E+00 -1.73741E+00 -1.93016E+00 -2.19198E+00 -2.44986E+00 -2.66656E+00 -2.81243E+00 -2.84615E+00
  -2.53420E+00 -1.75688E+00 -4.84097E-01  1.27955E+00  3.24360E+00  4.91407E+00  5.82032E+00  5.74925E+00  4.87999E+00  3.64988E+00
   2.40075E+00  1.29725E+00  4.10248E-01 -2.79788E-01 -7.56137E-01 -3.55902E-01  2.60557E+00  8.67452E+00  1.83585E+01  3.17183E+01
   4.67898E+01  6.01319E+01  6.82885E+01  6.94269E+01  6.42601E+01  5.51842E+01  4.43901E+01  3.33778E+01  2.31370E+01  1.39399E+01
   5.70758E+00 -5.34304E-01 -3.14270E+00 -3.73158E+00 -3.84534E+00 -3.80885E+00 -3.70271E+00 -3.53014E+00 -3.24324E+00 -2.67497E+00
  -1.12872E+00  2.25788E+00  7.84394E+00  1.61159E+01  2.65517E+01  3.72066E+01  4.55451E+01  4.95083E+01  4.85558E+01  4.38452E+01
   3.70710E+01  2.94151E+01  2.16699E+01  1.43258E+01  7.48758E+00  1.48270E+00 -2.26629E+00 -3.27195E+00 -3.25700E+00 -2.92530E+00
  -2.53838E+00 -2.22287E+00 -1.98085E+00 -1.82828E+00 -1.82798E+00 -1.96949E+00 -2.22679E+00 -2.57424E+00 -2.94379E+00 -3.28904E+00
  -3.56605E+00 -3.75813E+00 -3.88929E+00 -3.97400E+00 -4.06420E+00 -4.20476E+00 -4.45361E+00 -4.84107E+00 -5.28666E+00 -5.67852E+00
  -5.87581E+00 -5.79594E+00 -5.52084E+00 -5.24393E+00 -5.13366E+00 -5.24417E+00 -5.52827E+00 -5.88734E+00 -6.24995E+00 -6.64923E+00
  -7.18402E+00 -7.81588E+00 -8.47657E+00 -9.03701E+00 -9.33979E+00 -9.38795E+00 -9.24799E+00 -9.03005E+00 -8.85321E+00 -8.74782E+00
  -8.68167E+00 -8.59368E+00 -8.45106E+00 -8.23737E+00 -7.87032E+00 -7.25517E+00 -6.27873E+00 -4.86970E+00 -3.24146E+00 -1.74366E+00
  -6.80800E-01 -1.36979E-01  5.83968E-03 -1.22205E-01 -3.98865E-01 -7.22515E-01 -1.00372E+00 -1.00570E+00 -5.57342E-01  3.29414E-01
   1.54609E+00  2.85296E+00  3.92949E+00  4.46409E+00  4.26734E+00  3.30871E+00  1.71092E+00 -2.77531E-01 -2.20362E+00 -3.61570E+00
  -4.06996E+00 -3.40020E+00 -1.54974E+00  1.31417E+00  4.50437E+00  7.11558E+00  8.36709E+00  7.86662E+00  5.76856E+00  2.59904E+00
  -8.40341E-01 -3.68368E+00 -5.33168E+00 -5.46013E+00 -4.18775E+00 -1.96016E+00  8.02478E-01  3.39215E+00  5.40639E+00  6.82274E+00
   7.83412E+00  8.56540E+00  8.99775E+00  9.32095E+00  9.82227E+00  1.04837E+01  1.10475E+01  1.12931E+01  1.11351E+01  1.06400E+01
   9.95852E+00  9.35478E+00  9.18531E+00  9.60680E+00  1.04665E+01  1.15321E+01  1.26650E+01  1.36988E+01  1.44894E+01  1.50894E+01
   1.56324E+01  1.62647E+01  1.72861E+01  1.98879E+01  2.54842E+01  3.47643E+01  4.85364E+01  6.58392E+01  8.34018E+01  9.68855E+01
   1.02746E+02  1.00135E+02  9.11232E+01  7.87024E+01  6.50668E+01  5.17132E+01  3.94503E+01  2.82056E+01  1.82432E+01  1.18564E+01
   9.49540E+00  8.45206E+00  7.85479E+00  7.52574E+00  7.36773E+00  7.23682E+00  7.06290E+00  6.85303E+00  6.59984E+00  6.31763E+00
   6.03898E+00  5.78617E+00  5.57390E+00  5.43397E+00  5.38776E+00  5.43003E+00  5.54820E+00  5.73214E+00  5.97925E+00  6.28810E+00
   6.64897E+00  7.05718E+00  7.51613E+00  8.02269E+00  8.57129E+00  9.15375E+00  9.75807E+00  1.03698E+01  1.09726E+01  1.15503E+01
   1.20871E+01  1.25680E+01  1.29791E+01  1.33088E+01  1.35487E+01  1.36939E+01  1.37442E+01  1.37035E+01  1.35796E+01  1.33836E+01
   1.31288E+01  1.28305E+01  1.25051E+01  1.21698E+01  1.18409E+01  1.15322E+01  1.12558E+01  1.10208E+01  1.08340E+01  1.06987E+01
   1.06156E+01  1.05822E+01  1.05935E+01  1.06428E+01  1.07219E+01  1.08219E+01  1.09332E+01  1.10463E+01  1.11525E+01  1.12440E+01
   1.13147E+01  1.13598E+01  1.13763E+01  1.13628E+01  1.13199E+01  1.12498E+01  1.11565E+01  1.10447E+01  1.09204E+01  1.07899E+01
   1.06599E+01  1.05370E+01  1.04277E+01  1.03372E+01  1.02699E+01  1.02287E+01  1.02157E+01  1.02310E+01  1.02735E+01  1.03403E+01
   1.04272E+01  1.05288E+01  1.06390E+01  1.07509E+01  1.08569E+01  1.09494E+01  1.10211E+01  1.10652E+01  1.10755E+01  1.10472E+01
   1.09762E+01  1.08599E+01  1.06972E+01  1.04884E+01  1.02352E+01  9.94060E+00  9.60869E+00  9.24448E+00  8.85395E+00  8.44360E+00
   8.02036E+00  7.59108E+00  7.16259E+00  6.74145E+00  6.33404E+00  5.94614E+00  5.58305E+00  5.24932E+00  4.94904E+00  4.68578E+00
   4.46282E+00  4.28298E+00  4.14877E+00  4.06238E+00  4.02595E+00  4.04146E+00  4.11084E+00  4.23564E+00  4.41704E+00  4.65561E+00
   4.95128E+00  5.30299E+00  5.70847E+00  6.16375E+00  6.66316E+00  7.19903E+00  7.76188E+00  8.34025E+00  8.92097E+00  9.48927E+00
   1.00295E+01  1.05256E+01  1.09619E+01  1.13239E+01  1.15988E+01  1.17759E+01  1.18481E+01  1.18112E+01  1.16651E+01  1.14132E+01
   1.10622E+01  1.06219E+01  1.01048E+01  9.52478E+00  8.89734E+00  8.23790E+00  7.56159E+00  6.88246E+00  6.21319E+00  5.56460E+00
   4.94554E+00  4.36258E+00  3.82029E+00  3.32130E+00  2.86670E+00  2.45614E+00  2.08817E+00  1.76037E+00  1.46988E+00  1.21343E+00
   9.87788E-01  7.89635E-01  6.15807E-01  4.63226E-01  3.29179E-01  2.11213E-01  1.07263E-01  1.54216E-02 -6.59418E-02 -1.38322E-01
  -2.02878E-01 -2.60619E-01 -3.12322E-01 -3.58768E-01 -4.00590E-01 -4.38397E-01 -4.72578E-01 -5.03506E-01 -5.31447E-01 -5.56758E-01
  -5.79695E-01 -6.00527E-01 -6.19356E-01 -6.36338E-01 -6.51578E-01 -6.65296E-01 -6.77610E-01 -6.88657E-01 -6.98443E-01 -7.07064E-01
  -7.14580E-01 -7.21155E-01 -7.26829E-01 -7.31670E-01 -7.35644E-01 -7.38833E-01 -7.41285E-01 -7.43127E-01 -7.44354E-01 -7.44997E-01
  -7.45013E-01 -7.44490E-01 -7.43464E-01 -7.42029E-01 -7.40143E-01 -7.37824E-01 -7.35043E-01 -7.31896E-01 -7.28411E-01 -7.24653E-01
  -7.20559E-01 -7.16149E-01 -7.11409E-01 -7.06441E-01 -7.01250E-01 -6.95872E-01 -6.90234E-01 -6.84370E-01 -6.78280E-01 -6.72063E-01
  -6.65698E-01 -6.59201E-01 -6.52501E-01 -6.45645E-01 -6.38642E-01 -6.31572E-01 -6.24389E-01 -6.17089E-01
 NY background values follow
    -7.894E+00   -7.887E+00   -7.881E+00   -7.875E+00   -7.868E+00   -7.862E+00   -7.856E+00   -7.849E+00   -7.843E+00   -7.837E+00
    -7.831E+00   -7.824E+00   -7.818E+00   -7.812E+00   -7.805E+00   -7.799E+00   -7.793E+00   -7.786E+00   -7.780E+00   -7.774E+00
    -7.767E+00   -7.761E+00   -7.755E+00   -7.748E+00   -7.742E+00   -7.735E+00   -7.729E+00   -7.722E+00   -7.716E+00   -7.709E+00
    -7.703E+00   -7.696E+00   -7.689E+00   -7.682E+00   -7.676E+00   -7.669E+00   -7.662E+00   -7.655E+00   -7.648E+00   -7.641E+00
    -7.634E+00   -7.626E+00   -7.619E+00   -7.612E+00   -7.604E+00   -7.597E+00   -7.589E+00   -7.582E+00   -7.574E+00   -7.566E+00
    -7.558E+00   -7.550E+00   -7.542E+00   -7.534E+00   -7.526E+00   -7.517E+00   -7.509E+00   -7.500E+00   -7.491E+00   -7.482E+00
    -7.473E+00   -7.464E+00   -7.455E+00   -7.446E+00   -7.436E+00   -7.426E+00   -7.416E+00   -7.406E+00   -7.396E+00   -7.386E+00
    -7.375E+00   -7.364E+00   -7.353E+00   -7.342E+00   -7.331E+00   -7.319E+00   -7.308E+00   -7.296E+00   -7.284E+00   -7.271E+00
    -7.259E+00   -7.246E+00   -7.233E+00   -7.220E+00   -7.207E+00   -7.193E+00   -7.179E+00   -7.165E+00   -7.151E+00   -7.136E+00
    -7.121E+00   -7.106E+00   -7.090E+00   -7.075E+00   -7.059E+00   -7.042E+00   -7.026E+00   -7.009E+00   -6.992E+00   -6.975E+00
    -6.957E+00   -6.939E+00   -6.921E+00   -6.902E+00   -6.884E+00   -6.865E+00   -6.845E+00   -6.825E+00   -6.805E+00   -6.785E+00
    -6.764E+00   -6.743E+00   -6.722E+00   -6.700E+00   -6.678E+00   -6.656E+00   -6.634E+00   -6.611E+00   -6.587E+00   -6.564E+00
    -6.540E+00   -6.515E+00   -6.491E+00   -6.466E+00   -6.440E+00   -6.414E+00   -6.388E+00   -6.362E+00   -6.335E+00   -6.308E+00
    -6.280E+00   -6.252E+00   -6.224E+00   -6.195E+00   -6.166E+00   -6.137E+00   -6.107E+00   -6.076E+00   -6.046E+00   -6.015E+00
    -5.983E+00   -5.951E+00   -5.919E+00   -5.886E+00   -5.853E+00   -5.820E+00   -5.786E+00   -5.752E+00   -5.717E+00   -5.682E+00
    -5.647E+00   -5.611E+00   -5.575E+00   -5.538E+00   -5.501E+00   -5.463E+00   -5.426E+00   -5.387E+00   -5.349E+00   -5.310E+00
    -5.270E+00   -5.231E+00   -5.191E+00   -5.150E+00   -5.109E+00   -5.068E+00   -5.026E+00   -4.984E+00   -4.941E+00   -4.898E+00
    -4.855E+00   -4.811E+00   -4.767E+00   -4.722E+00   -4.677E+00   -4.632E+00   -4.586E+00   -4.540E+00   -4.494E+00   -4.447E+00
    -4.399E+00   -4.351E+00   -4.303E+00   -4.255E+00   -4.206E+00   -4.157E+00   -4.107E+00   -4.057E+00   -4.007E+00   -3.957E+00
    -3.906E+00   -3.855E+00   -3.804E+00   -3.753E+00   -3.702E+00   -3.650E+00   -3.598E+00   -3.547E+00   -3.495E+00   -3.443E+00
    -3.391E+00   -3.339E+00   -3.287E+00   -3.235E+00   -3.183E+00   -3.131E+00   -3.079E+00   -3.027E+00   -2.975E+00   -2.923E+00
    -2.872E+00   -2.821E+00   -2.769E+00   -2.718E+00   -2.668E+00   -2.617E+00   -2.567E+00   -2.517E+00   -2.467E+00   -2.418E+00
    -2.369E+00   -2.320E+00   -2.271E+00   -2.223E+00   -2.176E+00   -2.129E+00   -2.082E+00   -2.035E+00   -1.990E+00   -1.944E+00
    -1.899E+00   -1.855E+00   -1.811E+00   -1.767E+00   -1.724E+00   -1.682E+00   -1.640E+00   -1.598E+00   -1.557E+00   -1.517E+00
    -1.477E+00   -1.438E+00   -1.399E+00   -1.360E+00   -1.322E+00   -1.285E+00   -1.248E+00   -1.212E+00   -1.176E+00   -1.141E+00
    -1.106E+00   -1.072E+00   -1.039E+00   -1.006E+00   -9.736E-01   -9.419E-01   -9.107E-01   -8.801E-01   -8.501E-01   -8.207E-01
    -7.919E-01   -7.637E-01   -7.361E-01   -7.092E-01   -6.828E-01   -6.571E-01   -6.320E-01   -6.075E-01   -5.837E-01   -5.605E-01
    -5.379E-01   -5.160E-01   -4.947E-01   -4.741E-01   -4.542E-01   -4.348E-01   -4.161E-01   -3.981E-01   -3.807E-01   -3.639E-01
    -3.477E-01   -3.321E-01   -3.172E-01   -3.028E-01   -2.891E-01   -2.760E-01   -2.634E-01   -2.515E-01   -2.401E-01   -2.293E-01
    -2.191E-01   -2.095E-01   -2.004E-01   -1.920E-01   -1.840E-01   -1.767E-01   -1.699E-01   -1.636E-01   -1.579E-01   -1.527E-01
    -1.481E-01   -1.440E-01   -1.404E-01   -1.373E-01   -1.348E-01   -1.328E-01   -1.313E-01   -1.303E-01   -1.299E-01   -1.299E-01
    -1.304E-01   -1.314E-01   -1.329E-01   -1.349E-01   -1.374E-01   -1.403E-01   -1.437E-01   -1.476E-01   -1.519E-01   -1.567E-01
    -1.620E-01   -1.677E-01   -1.737E-01   -1.803E-01   -1.872E-01   -1.945E-01   -2.022E-01   -2.103E-01   -2.188E-01   -2.276E-01
    -2.368E-01   -2.464E-01   -2.562E-01   -2.664E-01   -2.770E-01   -2.878E-01   -2.990E-01   -3.104E-01   -3.221E-01   -3.341E-01
    -3.464E-01   -3.589E-01   -3.717E-01   -3.848E-01   -3.980E-01   -4.115E-01   -4.252E-01   -4.391E-01   -4.533E-01   -4.676E-01
    -4.821E-01   -4.967E-01   -5.115E-01   -5.265E-01   -5.417E-01   -5.569E-01   -5.723E-01   -5.879E-01   -6.035E-01   -6.192E-01
    -6.351E-01   -6.510E-01   -6.670E-01   -6.830E-01   -6.992E-01   -7.153E-01   -7.316E-01   -7.478E-01   -7.641E-01   -7.803E-01
    -7.966E-01   -8.129E-01   -8.291E-01   -8.453E-01   -8.615E-01   -8.776E-01   -8.937E-01   -9.096E-01   -9.256E-01   -9.414E-01
    -9.571E-01   -9.727E-01   -9.882E-01   -1.004E+00   -1.019E+00   -1.034E+00   -1.049E+00   -1.064E+00   -1.078E+00   -1.092E+00
    -1.107E+00   -1.121E+00   -1.134E+00   -1.148E+00   -1.161E+00   -1.174E+00   -1.187E+00   -1.200E+00   -1.212E+00   -1.224E+00
    -1.235E+00   -1.247E+00   -1.258E+00   -1.269E+00   -1.279E+00   -1.289E+00   -1.299E+00   -1.308E+00   -1.317E+00   -1.325E+00
    -1.334E+00   -1.341E+00   -1.349E+00   -1.356E+00   -1.363E+00   -1.369E+00   -1.375E+00   -1.381E+00   -1.386E+00   -1.391E+00
    -1.396E+00   -1.400E+00   -1.404E+00   -1.408E+00   -1.411E+00   -1.414E+00   -1.416E+00   -1.419E+00   -1.421E+00   -1.422E+00
    -1.423E+00   -1.424E+00   -1.425E+00   -1.425E+00   -1.425E+00   -1.425E+00   -1.424E+00   -1.423E+00   -1.422E+00   -1.420E+00
    -1.418E+00   -1.416E+00   -1.413E+00   -1.411E+00   -1.407E+00   -1.404E+00   -1.400E+00   -1.396E+00   -1.392E+00   -1.387E+00
    -1.382E+00   -1.377E+00   -1.372E+00   -1.366E+00   -1.360E+00   -1.354E+00   -1.347E+00   -1.340E+00   -1.333E+00   -1.326E+00
    -1.318E+00   -1.310E+00   -1.302E+00   -1.294E+00   -1.286E+00   -1.277E+00   -1.269E+00   -1.260E+00   -1.251E+00   -1.241E+00
    -1.232E+00   -1.222E+00   -1.213E+00   -1.203E+00   -1.193E+00   -1.183E+00   -1.172E+00   -1.162E+00   -1.152E+00   -1.141E+00
    -1.131E+00   -1.120E+00   -1.109E+00   -1.099E+00   -1.088E+00   -1.077E+00   -1.066E+00   -1.055E+00   -1.044E+00   -1.033E+00
    -1.022E+00   -1.011E+00   -1.000E+00   -9.893E-01   -9.784E-01   -9.675E-01   -9.567E-01   -9.459E-01
 Asp      Conc. = 1.25E+02
