 LCModel (Version 6.3-1L) Copyright: S.W. Provencher.          Ref.: Magn. Reson. Med. 30:672-679 (1993).                
 Slice#3 Row#9 Col#11  PD_24_press_1_raw_act
 36 lines in following concentration table = NCONC+1
    Conc.  %SD /Cr+PCr  Metabolite                                         
    0.000 999%   0.000 Ala                                                 
    0.000 999%   0.000 Asp                                                 
  215.740  92%   0.203 Cr                                                  
  848.839  25%   0.797 PCr                                                 
    0.000 999%   0.000 GABA                                                
   51.936 216% 4.9E-02 Glc                                                 
  392.225  41%   0.368 Gln                                                 
 1.02E+03  18%   0.959 Glu                                                 
  344.249   5%   0.323 GPC                                                 
    0.000 999%   0.000 PCh                                                 
  251.939  23%   0.237 GSH                                                 
  518.779  39%   0.487 Ins                                                 
    8.099 999% 7.6E-03 Lac                                                 
 1.77E+03   5%   1.664 NAA                                                 
  150.787  63%   0.142 NAAG                                                
   55.350  39% 5.2E-02 Scyllo                                              
    0.000 999%   0.000 Tau                                                 
  552.599  18%   0.519 -CrCH2                                              
  344.249   5%   0.323 GPC+PCh                                             
 1.92E+03   4%   1.805 NAA+NAAG                                            
 1.06E+03   5%   1.000 Cr+PCr                                              
 1.41E+03  17%   1.328 Glu+Gln                                             
    0.000 999%   0.000 Lip13a                                              
    0.000 999%   0.000 Lip13b                                              
    0.000 999%   0.000 Lip09                                               
 1.74E+03  14%   1.639 MM09                                                
 6.48E-03 999% 6.1E-06 Lip20                                               
 5.08E+03  10%   4.772 MM20                                                
    0.000 999%   0.000 MM12                                                
    0.000 999%   0.000 MM14                                                
 2.28E+03  15%   2.140 MM17                                                
    0.000 999%   0.000 Lip13a+Lip13b                                       
    0.000 999%   0.000 MM14+Lip13a+Lip13b+MM12                             
 1.74E+03  14%   1.639 MM09+Lip09                                          
 5.08E+03  10%   4.772 MM20+Lip20                                          
   6 lines in following misc. output table
  FWHM = 0.038 ppm    S/N =  13                                            
  Data shift = 0.015 ppm                                                   
  Ph:  -6 deg     -10.3 deg/ppm                                            
  alphaB,S = 2.5E-01,   7.5E+01                                            
   14 spline knots.   Ns = 6(1)                                            
  ( 6) 2 infls.   ( 3) 1 extrs.                                            
  498 points on ppm-axis = NY
      4.000000     3.992357     3.984714     3.977070     3.969427     3.961784     3.954141     3.946497     3.938854     3.931211
      3.923568     3.915925     3.908281     3.900638     3.892995     3.885352     3.877708     3.870065     3.862422     3.854779
      3.847136     3.839492     3.831849     3.824206     3.816563     3.808919     3.801276     3.793633     3.785990     3.778347
      3.770703     3.763060     3.755417     3.747774     3.740130     3.732487     3.724844     3.717201     3.709558     3.701914
      3.694271     3.686628     3.678985     3.671341     3.663698     3.656055     3.648412     3.640769     3.633125     3.625482
      3.617839     3.610196     3.602552     3.594909     3.587266     3.579623     3.571980     3.564336     3.556693     3.549050
      3.541407     3.533763     3.526120     3.518477     3.510834     3.503191     3.495547     3.487904     3.480261     3.472618
      3.464974     3.457331     3.449688     3.442045     3.434402     3.426758     3.419115     3.411472     3.403829     3.396185
      3.388542     3.380899     3.373256     3.365613     3.357969     3.350326     3.342683     3.335040     3.327396     3.319753
      3.312110     3.304467     3.296824     3.289180     3.281537     3.273894     3.266251     3.258607     3.250964     3.243321
      3.235678     3.228034     3.220391     3.212748     3.205105     3.197462     3.189818     3.182175     3.174532     3.166889
      3.159245     3.151602     3.143959     3.136316     3.128673     3.121029     3.113386     3.105743     3.098100     3.090456
      3.082813     3.075170     3.067527     3.059884     3.052240     3.044597     3.036954     3.029311     3.021667     3.014024
      3.006381     2.998738     2.991095     2.983451     2.975808     2.968165     2.960522     2.952878     2.945235     2.937592
      2.929949     2.922306     2.914662     2.907019     2.899376     2.891733     2.884089     2.876446     2.868803     2.861160
      2.853517     2.845873     2.838230     2.830587     2.822944     2.815300     2.807657     2.800014     2.792371     2.784728
      2.777084     2.769441     2.761798     2.754155     2.746511     2.738868     2.731225     2.723582     2.715939     2.708295
      2.700652     2.693009     2.685366     2.677722     2.670079     2.662436     2.654793     2.647150     2.639506     2.631863
      2.624220     2.616577     2.608933     2.601290     2.593647     2.586004     2.578361     2.570717     2.563074     2.555431
      2.547788     2.540144     2.532501     2.524858     2.517215     2.509572     2.501928     2.494285     2.486642     2.478999
      2.471355     2.463712     2.456069     2.448426     2.440783     2.433139     2.425496     2.417853     2.410210     2.402566
      2.394923     2.387280     2.379637     2.371994     2.364350     2.356707     2.349064     2.341421     2.333777     2.326134
      2.318491     2.310848     2.303205     2.295561     2.287918     2.280275     2.272632     2.264988     2.257345     2.249702
      2.242059     2.234416     2.226772     2.219129     2.211486     2.203843     2.196199     2.188556     2.180913     2.173270
      2.165627     2.157983     2.150340     2.142697     2.135054     2.127410     2.119767     2.112124     2.104481     2.096838
      2.089194     2.081551     2.073908     2.066265     2.058621     2.050978     2.043335     2.035692     2.028049     2.020405
      2.012762     2.005119     1.997476     1.989833     1.982190     1.974546     1.966903     1.959260     1.951617     1.943974
      1.936331     1.928688     1.921045     1.913402     1.905759     1.898115     1.890472     1.882829     1.875186     1.867543
      1.859900     1.852257     1.844614     1.836971     1.829327     1.821684     1.814041     1.806398     1.798755     1.791112
      1.783469     1.775826     1.768183     1.760540     1.752896     1.745253     1.737610     1.729967     1.722324     1.714681
      1.707038     1.699395     1.691752     1.684108     1.676465     1.668822     1.661179     1.653536     1.645893     1.638250
      1.630607     1.622964     1.615321     1.607677     1.600034     1.592391     1.584748     1.577105     1.569462     1.561819
      1.554176     1.546533     1.538890     1.531246     1.523603     1.515960     1.508317     1.500674     1.493031     1.485388
      1.477745     1.470102     1.462458     1.454815     1.447172     1.439529     1.431886     1.424243     1.416600     1.408957
      1.401314     1.393671     1.386027     1.378384     1.370741     1.363098     1.355455     1.347812     1.340169     1.332526
      1.324883     1.317240     1.309596     1.301953     1.294310     1.286667     1.279024     1.271381     1.263738     1.256095
      1.248452     1.240808     1.233165     1.225522     1.217879     1.210236     1.202593     1.194950     1.187307     1.179664
      1.172021     1.164377     1.156734     1.149091     1.141448     1.133805     1.126162     1.118519     1.110876     1.103233
      1.095590     1.087946     1.080303     1.072660     1.065017     1.057374     1.049731     1.042088     1.034445     1.026802
      1.019158     1.011515     1.003872     0.996229     0.988586     0.980943     0.973300     0.965657     0.958014     0.950371
      0.942727     0.935084     0.927441     0.919798     0.912155     0.904512     0.896869     0.889226     0.881583     0.873940
      0.866296     0.858653     0.851010     0.843367     0.835724     0.828081     0.820438     0.812795     0.805152     0.797508
      0.789865     0.782222     0.774579     0.766936     0.759293     0.751650     0.744007     0.736364     0.728721     0.721077
      0.713434     0.705791     0.698148     0.690505     0.682862     0.675219     0.667576     0.659933     0.652290     0.644646
      0.637003     0.629360     0.621717     0.614074     0.606431     0.598788     0.591145     0.583502     0.575858     0.568215
      0.560572     0.552929     0.545286     0.537643     0.530000     0.522357     0.514714     0.507071     0.499427     0.491784
      0.484141     0.476498     0.468855     0.461212     0.453569     0.445925     0.438282     0.430639     0.422996     0.415353
      0.407710     0.400067     0.392424     0.384780     0.377137     0.369494     0.361851     0.354208     0.346565     0.338922
      0.331278     0.323635     0.315992     0.308349     0.300706     0.293063     0.285420     0.277777     0.270133     0.262490
      0.254847     0.247204     0.239561     0.231918     0.224275     0.216631     0.208988     0.201345
 NY phased data points follow
   1.06745E+01  7.95511E+00  9.30465E+00  9.47839E+00  9.10305E+00  9.18906E+00  1.20534E+01  1.29797E+01  1.92609E+01  1.75397E+01
   2.43576E+01  2.27350E+01  2.35223E+01  2.13507E+01  2.02986E+01  1.64325E+01  1.47414E+01  1.35799E+01  1.08553E+01  8.89534E+00
   1.12205E+01  1.26743E+01  1.16739E+01  1.35352E+01  9.90639E+00  1.29405E+01  1.59739E+01  1.40733E+01  1.20872E+01  1.72903E+01
   1.57189E+01  1.55973E+01  1.39561E+01  1.47600E+01  1.28157E+01  1.37884E+01  1.57101E+01  1.07243E+01  1.35666E+01  1.67208E+01
   1.46526E+01  1.23476E+01  1.24405E+01  1.27936E+01  1.26249E+01  1.47077E+01  1.77518E+01  1.70924E+01  1.85287E+01  1.54414E+01
   1.62440E+01  1.26746E+01  1.33916E+01  1.26971E+01  1.38783E+01  1.49970E+01  1.51846E+01  1.47444E+01  1.59668E+01  1.29832E+01
   1.15127E+01  9.02765E+00  7.18018E+00  6.32478E+00  5.94700E+00  6.93823E+00  1.02182E+01  6.28482E+00  3.59180E+00  5.39089E+00
   6.20834E+00  7.89823E+00  8.96119E+00  6.71629E+00  9.63595E+00  9.69718E+00  7.57426E+00  6.86857E+00  9.29504E+00  8.44789E+00
   7.76639E+00  1.05760E+01  9.18489E+00  9.76891E+00  1.14531E+01  8.53001E+00  9.21868E+00  1.10826E+01  1.11303E+01  8.06978E+00
   1.12936E+01  1.33115E+01  1.42659E+01  1.34497E+01  1.19982E+01  1.14555E+01  1.02236E+01  1.20193E+01  1.01511E+01  1.50649E+01
   1.70580E+01  3.08300E+01  3.98591E+01  4.63491E+01  4.61210E+01  4.15184E+01  3.43702E+01  2.97751E+01  2.50146E+01  1.84564E+01
   1.51724E+01  1.45061E+01  1.54170E+01  1.24534E+01  1.13415E+01  9.83126E+00  1.03127E+01  8.25539E+00  1.14296E+01  8.97121E+00
   1.00148E+01  9.43907E+00  1.05752E+01  1.76883E+01  2.63106E+01  3.65448E+01  4.89319E+01  5.40324E+01  5.07214E+01  4.88486E+01
   3.87687E+01  3.72147E+01  2.83284E+01  2.33183E+01  2.29972E+01  2.02852E+01  1.41894E+01  1.70682E+01  1.10670E+01  1.62441E+01
   1.52461E+01  1.55837E+01  1.66270E+01  1.17984E+01  1.47018E+01  1.54560E+01  1.43045E+01  1.29638E+01  1.24696E+01  1.35487E+01
   1.50117E+01  1.24481E+01  1.37598E+01  1.18112E+01  1.28263E+01  1.26546E+01  1.23653E+01  1.11085E+01  1.23771E+01  1.47522E+01
   1.50252E+01  1.38760E+01  1.41859E+01  1.32596E+01  1.28592E+01  1.34178E+01  1.27076E+01  1.22763E+01  1.04379E+01  6.85163E+00
   8.50472E+00  1.01742E+01  8.14888E+00  7.28712E+00  9.95646E+00  4.87192E+00  8.48150E+00  7.51711E+00  5.19848E+00  9.91529E+00
   5.40677E+00  1.09330E+01  1.03105E+01  1.04041E+01  1.23796E+01  8.55296E+00  1.12643E+01  1.21685E+01  1.08731E+01  1.05278E+01
   1.57196E+01  1.65046E+01  2.00217E+01  2.18404E+01  2.07728E+01  1.82545E+01  2.05078E+01  1.67401E+01  1.48412E+01  1.51846E+01
   1.86869E+01  1.99555E+01  2.08360E+01  2.26492E+01  2.22703E+01  2.54873E+01  2.47851E+01  2.26501E+01  2.18374E+01  2.07184E+01
   2.06626E+01  2.47113E+01  2.55697E+01  2.92131E+01  3.30061E+01  3.37149E+01  3.72073E+01  3.54353E+01  3.44208E+01  3.00486E+01
   2.75342E+01  2.34356E+01  2.33993E+01  2.13344E+01  3.11276E+01  2.60913E+01  2.84474E+01  3.15039E+01  3.34987E+01  3.38297E+01
   3.24865E+01  3.13827E+01  3.01584E+01  3.03060E+01  3.23120E+01  3.03849E+01  3.20275E+01  3.05025E+01  2.86305E+01  2.85829E+01
   3.08216E+01  2.80864E+01  2.90891E+01  2.76495E+01  2.97191E+01  2.95863E+01  3.05839E+01  3.04417E+01  3.21079E+01  3.38521E+01
   3.64427E+01  3.61231E+01  3.74784E+01  3.80730E+01  3.95343E+01  4.60221E+01  5.10389E+01  5.96841E+01  7.44263E+01  8.99679E+01
   9.91538E+01  9.94238E+01  9.00924E+01  7.40155E+01  6.48772E+01  4.84553E+01  4.44444E+01  3.67812E+01  3.35433E+01  3.12375E+01
   2.71936E+01  2.28301E+01  2.54914E+01  2.28440E+01  2.50969E+01  2.18595E+01  2.02913E+01  1.75029E+01  2.13840E+01  1.82717E+01
   1.99437E+01  2.01414E+01  2.06741E+01  1.93724E+01  1.86906E+01  1.79109E+01  1.68717E+01  1.58614E+01  1.57261E+01  1.61919E+01
   2.00134E+01  1.74041E+01  1.51537E+01  1.29750E+01  1.51825E+01  1.41843E+01  1.52571E+01  1.23653E+01  1.21671E+01  1.33392E+01
   1.45143E+01  1.42285E+01  1.56183E+01  1.34446E+01  1.26141E+01  1.22858E+01  1.51849E+01  1.60603E+01  1.66802E+01  1.96434E+01
   1.31194E+01  1.74352E+01  1.45497E+01  1.86218E+01  1.55298E+01  1.49878E+01  1.48844E+01  1.35919E+01  1.42006E+01  1.06717E+01
   1.43896E+01  9.64300E+00  6.08001E+00  1.10744E+01  7.08782E+00  8.81153E+00  1.80504E+00  3.76414E+00 -7.97041E-01  4.48989E+00
  -2.06253E+00  1.53409E+00 -3.28487E+00 -1.26148E+00 -1.00914E+00  2.09192E+00 -2.41377E+00 -2.20186E+00 -4.93316E+00 -6.73401E+00
  -5.62440E+00 -4.33751E+00 -1.04941E+01 -8.65657E+00 -7.82213E+00 -1.27510E+01 -7.45224E+00 -9.18803E+00 -1.18644E+01 -1.35739E+01
  -1.52385E+01 -1.50968E+01 -1.29184E+01 -1.61971E+01 -1.33334E+01 -1.26002E+01 -1.43342E+01 -1.23193E+01 -1.27981E+01 -1.24441E+01
  -1.05733E+01 -1.12122E+01 -1.17581E+01 -9.45856E+00 -1.15705E+01 -1.15606E+01 -9.18078E+00 -6.40812E+00 -6.32710E+00 -9.19934E+00
  -7.15889E+00 -2.98948E+00 -7.17920E+00 -6.54728E+00 -4.53638E+00 -4.11373E+00 -5.88559E+00 -5.38211E+00 -4.27543E+00 -4.23996E+00
  -8.65645E-01 -1.17568E+00 -3.42852E+00 -1.71809E+00 -4.46196E+00 -6.45323E+00 -1.79652E+00 -1.69048E+00 -2.10753E+00 -7.41500E-01
  -2.17824E+00 -1.64453E+00 -8.05079E-01 -1.40041E+00 -6.87541E-01  1.12266E+00  2.05918E+00  5.88163E-01 -2.03095E-01 -2.95448E+00
   1.95954E+00  1.15899E+00  1.20855E+00  2.12984E+00  3.53646E-01  2.08536E-01  3.75489E+00  4.29992E+00  1.93688E+00  2.92874E+00
   3.57469E+00  3.40112E+00  3.23686E+00  3.74192E+00  2.10927E+00  3.12112E+00 -7.14627E-01  1.47674E+00  1.51938E+00  2.91671E+00
   1.39630E+00 -5.77093E-01 -3.03675E+00 -2.07215E+00 -1.09633E-01 -3.31386E+00 -7.50279E-01 -3.57060E+00 -1.71948E+00  4.63265E-01
  -1.44999E+00 -1.69002E+00  3.93310E-01 -4.78587E+00 -3.71124E+00 -2.46572E+00  1.04529E+00 -8.70539E-01 -1.51120E+00 -3.07901E+00
  -2.29393E+00 -1.84952E+00 -3.82456E-01  1.95865E+00  4.56118E-01  6.54398E-01 -2.49494E+00  8.57183E-02 -3.73567E-01 -5.50849E-01
  -2.02221E+00  1.64552E+00 -1.98907E+00  7.52609E-01 -4.88002E-02 -8.32614E-01 -1.83772E+00 -2.90382E+00  1.49932E+00  1.25264E+00
   4.31066E-01  2.16264E+00 -6.24135E-01 -9.54063E-01 -2.64267E-01  1.54423E+00 -3.02259E+00  5.21929E-01  6.98241E-01 -4.10826E-01
   5.30475E-01  2.88604E+00  1.61740E-01  6.41908E-01  1.01195E-01 -6.51140E-02 -2.42945E+00 -1.06672E+00 -8.79428E-01  2.50380E-01
  -1.79512E-01  1.48567E+00 -4.76554E-01  1.58711E+00 -1.05204E+00  2.53756E+00 -4.58508E+00  1.28035E+00  2.96092E+00  1.29233E+00
  -5.05514E-01 -3.87838E-01 -6.40910E-01  2.65810E+00 -2.89025E+00  1.82871E-01  3.20423E-01 -3.50590E-02
 NY points of the fit to the data follow
   9.54683E+00  9.35662E+00  9.28748E+00  9.30866E+00  9.50376E+00  1.01002E+01  1.14413E+01  1.38820E+01  1.73135E+01  2.08612E+01
   2.33521E+01  2.40439E+01  2.30676E+01  2.11805E+01  1.91143E+01  1.73200E+01  1.57275E+01  1.41522E+01  1.31678E+01  1.25543E+01
   1.22317E+01  1.20120E+01  1.17785E+01  1.14834E+01  1.11592E+01  1.09797E+01  1.11760E+01  1.20020E+01  1.35043E+01  1.53462E+01
   1.70012E+01  1.80234E+01  1.82082E+01  1.76007E+01  1.63285E+01  1.47204E+01  1.30078E+01  1.15375E+01  1.07880E+01  1.06009E+01
   1.07597E+01  1.11412E+01  1.16921E+01  1.24593E+01  1.34039E+01  1.44614E+01  1.53547E+01  1.57025E+01  1.54318E+01  1.46898E+01
   1.37117E+01  1.27692E+01  1.19973E+01  1.13350E+01  1.07957E+01  1.05331E+01  1.05663E+01  1.07681E+01  1.10288E+01  1.12504E+01
   1.12869E+01  1.10675E+01  1.06306E+01  1.01139E+01  9.67555E+00  9.38895E+00  9.25083E+00  9.26297E+00  9.39617E+00  9.60550E+00
   9.84050E+00  1.00238E+01  1.01086E+01  1.00861E+01  9.98482E+00  9.85821E+00  9.72857E+00  9.60921E+00  9.48597E+00  9.36495E+00
   9.29181E+00  9.31827E+00  9.52964E+00  9.97557E+00  1.06010E+01  1.11830E+01  1.14246E+01  1.11920E+01  1.06104E+01  9.95358E+00
   9.44055E+00  9.13167E+00  8.97310E+00  8.85648E+00  8.76726E+00  8.76496E+00  8.76965E+00  9.04236E+00  1.04531E+01  1.41861E+01
   2.09885E+01  3.03148E+01  3.96332E+01  4.55336E+01  4.61206E+01  4.20741E+01  3.57698E+01  2.93967E+01  2.39397E+01  1.94230E+01
   1.54172E+01  1.26564E+01  1.17511E+01  1.14776E+01  1.13804E+01  1.13557E+01  1.13655E+01  1.13924E+01  1.14382E+01  1.15315E+01
   1.17559E+01  1.24470E+01  1.44922E+01  1.90464E+01  2.67746E+01  3.69179E+01  4.66341E+01  5.23922E+01  5.24715E+01  4.79136E+01
   4.13469E+01  3.48928E+01  2.92893E+01  2.43086E+01  1.94960E+01  1.59967E+01  1.45215E+01  1.39406E+01  1.38834E+01  1.41483E+01
   1.45106E+01  1.48178E+01  1.49931E+01  1.49803E+01  1.48271E+01  1.46123E+01  1.43688E+01  1.41358E+01  1.39190E+01  1.37215E+01
   1.35551E+01  1.34006E+01  1.32656E+01  1.31779E+01  1.31658E+01  1.32209E+01  1.32728E+01  1.32174E+01  1.29668E+01  1.25522E+01
   1.21689E+01  1.20562E+01  1.23028E+01  1.27604E+01  1.31380E+01  1.32106E+01  1.29707E+01  1.25988E+01  1.22908E+01  1.20604E+01
   1.18641E+01  1.16490E+01  1.13416E+01  1.10027E+01  1.07110E+01  1.05897E+01  1.07677E+01  1.11754E+01  1.15835E+01  1.18168E+01
   1.19049E+01  1.20045E+01  1.21954E+01  1.24294E+01  1.26080E+01  1.27951E+01  1.33288E+01  1.43939E+01  1.58894E+01  1.74334E+01
   1.86432E+01  1.93650E+01  1.96189E+01  1.95236E+01  1.92517E+01  1.88945E+01  1.85841E+01  1.85303E+01  1.88368E+01  1.95432E+01
   2.06108E+01  2.18891E+01  2.31454E+01  2.41086E+01  2.44817E+01  2.40948E+01  2.29334E+01  2.12755E+01  1.95548E+01  1.82535E+01
   1.77226E+01  1.81506E+01  1.96490E+01  2.20503E+01  2.48737E+01  2.73222E+01  2.86252E+01  2.84631E+01  2.68734E+01  2.44602E+01
   2.19356E+01  1.98895E+01  1.89431E+01  1.94141E+01  2.11902E+01  2.36518E+01  2.59785E+01  2.77691E+01  2.89296E+01  2.95423E+01
   2.97182E+01  2.96107E+01  2.95462E+01  2.97974E+01  3.03415E+01  3.10906E+01  3.18940E+01  3.25290E+01  3.28140E+01  3.26503E+01
   3.21262E+01  3.15511E+01  3.12743E+01  3.14866E+01  3.21109E+01  3.29865E+01  3.38522E+01  3.44831E+01  3.48335E+01  3.50186E+01
   3.52525E+01  3.57393E+01  3.67197E+01  3.83051E+01  4.05932E+01  4.42553E+01  5.07588E+01  6.13742E+01  7.56772E+01  8.99407E+01
   9.85256E+01  9.80126E+01  8.93573E+01  7.66534E+01  6.40224E+01  5.32048E+01  4.41564E+01  3.60593E+01  2.99498E+01  2.72128E+01
   2.57404E+01  2.46575E+01  2.38207E+01  2.31456E+01  2.25002E+01  2.18392E+01  2.11413E+01  2.04131E+01  1.96764E+01  1.89553E+01
   1.82601E+01  1.76058E+01  1.70103E+01  1.64712E+01  1.59690E+01  1.54883E+01  1.50286E+01  1.45990E+01  1.42082E+01  1.38604E+01
   1.35667E+01  1.33355E+01  1.31664E+01  1.30535E+01  1.29942E+01  1.29894E+01  1.30407E+01  1.31500E+01  1.33194E+01  1.35487E+01
   1.38362E+01  1.41740E+01  1.45481E+01  1.49420E+01  1.53374E+01  1.57161E+01  1.60591E+01  1.63463E+01  1.65597E+01  1.66829E+01
   1.67003E+01  1.66001E+01  1.63740E+01  1.60179E+01  1.55319E+01  1.49205E+01  1.41923E+01  1.33598E+01  1.24384E+01  1.14461E+01
   1.04013E+01  9.32333E+00  8.23042E+00  7.14022E+00  6.06828E+00  5.02807E+00  4.02999E+00  3.08212E+00  2.18976E+00  1.35636E+00
   5.82944E-01 -1.31049E-01 -7.88012E-01 -1.39099E+00 -1.94385E+00 -2.45040E+00 -2.91495E+00 -3.34155E+00 -3.73434E+00 -4.09660E+00
  -4.43107E+00 -4.73899E+00 -5.02115E+00 -5.27963E+00 -5.52054E+00 -5.75391E+00 -5.99170E+00 -6.23928E+00 -6.49135E+00 -6.73494E+00
  -6.95667E+00 -7.14758E+00 -7.30348E+00 -7.42478E+00 -7.51971E+00 -7.59883E+00 -7.67686E+00 -7.76295E+00 -7.85252E+00 -7.93840E+00
  -8.01594E+00 -8.08370E+00 -8.14273E+00 -8.18724E+00 -8.21469E+00 -8.22723E+00 -8.22597E+00 -8.21093E+00 -8.18206E+00 -8.13881E+00
  -8.08095E+00 -8.00787E+00 -7.91915E+00 -7.81381E+00 -7.69101E+00 -7.54958E+00 -7.38860E+00 -7.20683E+00 -7.00316E+00 -6.77602E+00
  -6.52412E+00 -6.24599E+00 -5.94064E+00 -5.60696E+00 -5.24427E+00 -4.85193E+00 -4.43010E+00 -3.97935E+00 -3.50134E+00 -2.99818E+00
  -2.47312E+00 -1.93006E+00 -1.37429E+00 -8.11877E-01 -2.50102E-01  3.03365E-01  8.40046E-01  1.35139E+00  1.82843E+00  2.26269E+00
   2.64604E+00  2.97173E+00  3.23395E+00  3.42868E+00  3.55317E+00  3.60682E+00  3.59063E+00  3.50780E+00  3.36289E+00  3.16216E+00
   2.91270E+00  2.62273E+00  2.30076E+00  1.95578E+00  1.59627E+00  1.23048E+00  8.65653E-01  5.08515E-01  1.64610E-01 -1.61266E-01
  -4.65716E-01 -7.46126E-01 -1.00107E+00 -1.22958E+00 -1.43164E+00 -1.60754E+00 -1.75840E+00 -1.88545E+00 -1.99036E+00 -2.07459E+00
  -2.13993E+00 -2.18796E+00 -2.22058E+00 -2.23931E+00 -2.24580E+00 -2.24126E+00 -2.22706E+00 -2.20427E+00 -2.17417E+00 -2.13760E+00
  -2.09551E+00 -2.04847E+00 -1.99727E+00 -1.94245E+00 -1.88475E+00 -1.82453E+00 -1.76230E+00 -1.69827E+00 -1.63294E+00 -1.56656E+00
  -1.49961E+00 -1.43218E+00 -1.36458E+00 -1.29684E+00 -1.22926E+00 -1.16186E+00 -1.09486E+00 -1.02814E+00 -9.61844E-01 -8.95882E-01
  -8.30494E-01 -7.65617E-01 -7.01389E-01 -6.37625E-01 -5.74445E-01 -5.11753E-01 -4.49757E-01 -3.88335E-01 -3.27578E-01 -2.67279E-01
  -2.07564E-01 -1.48337E-01 -8.97698E-02 -3.16925E-02  2.58370E-02  8.30171E-02  1.39704E-01  1.95997E-01  2.51757E-01  3.07189E-01
   3.62245E-01  4.17102E-01  4.71604E-01  5.25868E-01  5.79793E-01  6.33609E-01  6.87258E-01  7.40894E-01  7.94357E-01  8.47788E-01
   9.01121E-01  9.54596E-01  1.00814E+00  1.06188E+00  1.11567E+00  1.16969E+00  1.22391E+00  1.27856E+00
 NY background values follow
     9.050E+00    9.051E+00    9.053E+00    9.054E+00    9.056E+00    9.057E+00    9.058E+00    9.060E+00    9.061E+00    9.062E+00
     9.063E+00    9.064E+00    9.065E+00    9.066E+00    9.067E+00    9.067E+00    9.068E+00    9.068E+00    9.068E+00    9.068E+00
     9.067E+00    9.067E+00    9.066E+00    9.065E+00    9.063E+00    9.062E+00    9.060E+00    9.057E+00    9.055E+00    9.052E+00
     9.049E+00    9.045E+00    9.041E+00    9.036E+00    9.032E+00    9.026E+00    9.021E+00    9.015E+00    9.008E+00    9.001E+00
     8.993E+00    8.985E+00    8.977E+00    8.968E+00    8.958E+00    8.948E+00    8.937E+00    8.926E+00    8.914E+00    8.902E+00
     8.890E+00    8.877E+00    8.863E+00    8.849E+00    8.835E+00    8.821E+00    8.807E+00    8.792E+00    8.777E+00    8.762E+00
     8.747E+00    8.732E+00    8.717E+00    8.701E+00    8.686E+00    8.671E+00    8.657E+00    8.642E+00    8.627E+00    8.613E+00
     8.599E+00    8.585E+00    8.572E+00    8.559E+00    8.546E+00    8.534E+00    8.523E+00    8.511E+00    8.501E+00    8.491E+00
     8.481E+00    8.472E+00    8.464E+00    8.457E+00    8.450E+00    8.444E+00    8.439E+00    8.435E+00    8.432E+00    8.429E+00
     8.428E+00    8.428E+00    8.428E+00    8.430E+00    8.433E+00    8.437E+00    8.441E+00    8.448E+00    8.455E+00    8.463E+00
     8.473E+00    8.483E+00    8.495E+00    8.508E+00    8.523E+00    8.539E+00    8.556E+00    8.574E+00    8.594E+00    8.615E+00
     8.637E+00    8.661E+00    8.686E+00    8.713E+00    8.741E+00    8.771E+00    8.802E+00    8.834E+00    8.869E+00    8.904E+00
     8.942E+00    8.981E+00    9.021E+00    9.063E+00    9.107E+00    9.152E+00    9.200E+00    9.248E+00    9.299E+00    9.351E+00
     9.406E+00    9.462E+00    9.519E+00    9.579E+00    9.640E+00    9.704E+00    9.769E+00    9.836E+00    9.905E+00    9.976E+00
     1.005E+01    1.012E+01    1.020E+01    1.028E+01    1.036E+01    1.044E+01    1.052E+01    1.061E+01    1.070E+01    1.079E+01
     1.088E+01    1.097E+01    1.107E+01    1.117E+01    1.126E+01    1.137E+01    1.147E+01    1.157E+01    1.168E+01    1.179E+01
     1.190E+01    1.201E+01    1.212E+01    1.224E+01    1.236E+01    1.247E+01    1.260E+01    1.272E+01    1.284E+01    1.297E+01
     1.310E+01    1.323E+01    1.336E+01    1.349E+01    1.363E+01    1.376E+01    1.390E+01    1.404E+01    1.419E+01    1.433E+01
     1.448E+01    1.463E+01    1.477E+01    1.493E+01    1.508E+01    1.523E+01    1.539E+01    1.554E+01    1.570E+01    1.585E+01
     1.601E+01    1.616E+01    1.632E+01    1.647E+01    1.663E+01    1.678E+01    1.693E+01    1.708E+01    1.723E+01    1.737E+01
     1.752E+01    1.766E+01    1.780E+01    1.794E+01    1.807E+01    1.820E+01    1.833E+01    1.846E+01    1.858E+01    1.869E+01
     1.881E+01    1.891E+01    1.902E+01    1.912E+01    1.921E+01    1.930E+01    1.938E+01    1.946E+01    1.953E+01    1.960E+01
     1.965E+01    1.971E+01    1.975E+01    1.979E+01    1.983E+01    1.985E+01    1.987E+01    1.988E+01    1.988E+01    1.987E+01
     1.986E+01    1.984E+01    1.981E+01    1.978E+01    1.974E+01    1.969E+01    1.963E+01    1.957E+01    1.950E+01    1.942E+01
     1.934E+01    1.925E+01    1.915E+01    1.905E+01    1.894E+01    1.882E+01    1.870E+01    1.857E+01    1.844E+01    1.830E+01
     1.815E+01    1.800E+01    1.784E+01    1.768E+01    1.751E+01    1.733E+01    1.715E+01    1.697E+01    1.677E+01    1.658E+01
     1.638E+01    1.617E+01    1.596E+01    1.574E+01    1.552E+01    1.529E+01    1.506E+01    1.482E+01    1.458E+01    1.433E+01
     1.408E+01    1.383E+01    1.357E+01    1.331E+01    1.304E+01    1.277E+01    1.249E+01    1.222E+01    1.193E+01    1.165E+01
     1.136E+01    1.107E+01    1.078E+01    1.048E+01    1.018E+01    9.876E+00    9.572E+00    9.265E+00    8.957E+00    8.646E+00
     8.334E+00    8.020E+00    7.705E+00    7.388E+00    7.070E+00    6.751E+00    6.431E+00    6.111E+00    5.790E+00    5.468E+00
     5.146E+00    4.824E+00    4.502E+00    4.180E+00    3.859E+00    3.537E+00    3.217E+00    2.897E+00    2.577E+00    2.259E+00
     1.942E+00    1.626E+00    1.312E+00    9.989E-01    6.878E-01    3.784E-01    7.109E-02   -2.341E-01   -5.371E-01   -8.377E-01
    -1.136E+00   -1.431E+00   -1.724E+00   -2.013E+00   -2.300E+00   -2.583E+00   -2.864E+00   -3.140E+00   -3.413E+00   -3.683E+00
    -3.948E+00   -4.210E+00   -4.467E+00   -4.721E+00   -4.969E+00   -5.214E+00   -5.454E+00   -5.689E+00   -5.919E+00   -6.144E+00
    -6.364E+00   -6.578E+00   -6.787E+00   -6.991E+00   -7.189E+00   -7.381E+00   -7.567E+00   -7.748E+00   -7.921E+00   -8.089E+00
    -8.250E+00   -8.405E+00   -8.553E+00   -8.693E+00   -8.827E+00   -8.954E+00   -9.074E+00   -9.186E+00   -9.291E+00   -9.388E+00
    -9.477E+00   -9.558E+00   -9.631E+00   -9.696E+00   -9.754E+00   -9.804E+00   -9.846E+00   -9.881E+00   -9.908E+00   -9.929E+00
    -9.943E+00   -9.950E+00   -9.950E+00   -9.945E+00   -9.933E+00   -9.915E+00   -9.891E+00   -9.861E+00   -9.826E+00   -9.786E+00
    -9.740E+00   -9.689E+00   -9.634E+00   -9.574E+00   -9.509E+00   -9.440E+00   -9.367E+00   -9.289E+00   -9.208E+00   -9.123E+00
    -9.035E+00   -8.943E+00   -8.848E+00   -8.750E+00   -8.649E+00   -8.545E+00   -8.439E+00   -8.330E+00   -8.220E+00   -8.107E+00
    -7.992E+00   -7.876E+00   -7.758E+00   -7.639E+00   -7.518E+00   -7.396E+00   -7.274E+00   -7.151E+00   -7.027E+00   -6.903E+00
    -6.778E+00   -6.652E+00   -6.527E+00   -6.401E+00   -6.275E+00   -6.148E+00   -6.022E+00   -5.895E+00   -5.768E+00   -5.641E+00
    -5.515E+00   -5.388E+00   -5.262E+00   -5.135E+00   -5.009E+00   -4.884E+00   -4.758E+00   -4.634E+00   -4.509E+00   -4.385E+00
    -4.262E+00   -4.140E+00   -4.018E+00   -3.897E+00   -3.776E+00   -3.657E+00   -3.539E+00   -3.421E+00   -3.304E+00   -3.189E+00
    -3.075E+00   -2.962E+00   -2.850E+00   -2.739E+00   -2.630E+00   -2.522E+00   -2.416E+00   -2.311E+00   -2.207E+00   -2.106E+00
    -2.006E+00   -1.907E+00   -1.811E+00   -1.716E+00   -1.623E+00   -1.532E+00   -1.443E+00   -1.355E+00   -1.268E+00   -1.184E+00
    -1.100E+00   -1.019E+00   -9.383E-01   -8.593E-01   -7.818E-01   -7.055E-01   -6.304E-01   -5.566E-01   -4.839E-01   -4.124E-01
    -3.419E-01   -2.725E-01   -2.041E-01   -1.366E-01   -7.011E-02   -4.430E-03    6.042E-02    1.245E-01    1.878E-01    2.504E-01
     3.124E-01    3.738E-01    4.346E-01    4.948E-01    5.546E-01    6.139E-01    6.729E-01    7.315E-01    7.897E-01    8.478E-01
     9.055E-01    9.631E-01    1.021E+00    1.078E+00    1.135E+00    1.193E+00    1.250E+00    1.307E+00
 Cr       Conc. = 2.16E+02
