 LCModel (Version 6.3-1L) Copyright: S.W. Provencher.          Ref.: Magn. Reson. Med. 30:672-679 (1993).                
 Slice#3 Row#6 Col#12  PD_24_press_1_raw_act
 36 lines in following concentration table = NCONC+1
    Conc.  %SD /Cr+PCr  Metabolite                                         
    0.000 999%   0.000 Ala                                                 
  119.640  23%   0.125 Asp                                                 
    0.000 999%   0.000 Cr                                                  
  954.336  87%   1.000 PCr                                                 
   72.580  22% 7.6E-02 GABA                                                
   72.701  22% 7.6E-02 Glc                                                 
  119.673 603%   0.125 Gln                                                 
    0.000 999%   0.000 Glu                                                 
    0.000 999%   0.000 GPC                                                 
  240.234 220%   0.252 PCh                                                 
   89.021 187% 9.3E-02 GSH                                                 
    0.000 999%   0.000 Ins                                                 
    0.000 999%   0.000 Lac                                                 
    0.000 999%   0.000 NAA                                                 
  743.724  19%   0.779 NAAG                                                
   24.944  22% 2.6E-02 Scyllo                                              
  123.597  22%   0.130 Tau                                                 
  107.798  69%   0.113 -CrCH2                                              
  240.234  20%   0.252 GPC+PCh                                             
  743.724  19%   0.779 NAA+NAAG                                            
  954.336  10%   1.000 Cr+PCr                                              
  119.673 999%   0.125 Glu+Gln                                             
 8.60E+04  13%  90.125 Lip13a                                              
    0.000 999%   0.000 Lip13b                                              
 3.37E+04  12%  35.281 Lip09                                               
 1.39E+04  18%  14.607 MM09                                                
 6.74E+03  20%   7.059 Lip20                                               
    0.000 999%   0.000 MM20                                                
 8.18E+03  22%   8.568 MM12                                                
 3.87E+04  16%  40.570+MM14                                                
 1.40E+04  29%  14.699 MM17                                                
 8.60E+04  13%  90.125 Lip13a+Lip13b                                       
 1.33E+05   7% 139.262 MM14+Lip13a+Lip13b+MM12                             
 4.76E+04   9%  49.888 MM09+Lip09                                          
 6.74E+03  20%   7.059 MM20+Lip20                                          
   6 lines in following misc. output table
  FWHM = 0.138 ppm    S/N =  54                                            
  Data shift = 0.145 ppm                                                   
  Ph:  11 deg     -36.2 deg/ppm                                            
  alphaB,S = 6.5E+00,   7.9E+01                                            
    6 spline knots.   Ns = 9(2)                                            
  (12) 5 infls.   (13) 3 extrs.                                            
  498 points on ppm-axis = NY
      4.000000     3.992357     3.984714     3.977070     3.969427     3.961784     3.954141     3.946497     3.938854     3.931211
      3.923568     3.915925     3.908281     3.900638     3.892995     3.885352     3.877708     3.870065     3.862422     3.854779
      3.847136     3.839492     3.831849     3.824206     3.816563     3.808919     3.801276     3.793633     3.785990     3.778347
      3.770703     3.763060     3.755417     3.747774     3.740130     3.732487     3.724844     3.717201     3.709558     3.701914
      3.694271     3.686628     3.678985     3.671341     3.663698     3.656055     3.648412     3.640769     3.633125     3.625482
      3.617839     3.610196     3.602552     3.594909     3.587266     3.579623     3.571980     3.564336     3.556693     3.549050
      3.541407     3.533763     3.526120     3.518477     3.510834     3.503191     3.495547     3.487904     3.480261     3.472618
      3.464974     3.457331     3.449688     3.442045     3.434402     3.426758     3.419115     3.411472     3.403829     3.396185
      3.388542     3.380899     3.373256     3.365613     3.357969     3.350326     3.342683     3.335040     3.327396     3.319753
      3.312110     3.304467     3.296824     3.289180     3.281537     3.273894     3.266251     3.258607     3.250964     3.243321
      3.235678     3.228034     3.220391     3.212748     3.205105     3.197462     3.189818     3.182175     3.174532     3.166889
      3.159245     3.151602     3.143959     3.136316     3.128673     3.121029     3.113386     3.105743     3.098100     3.090456
      3.082813     3.075170     3.067527     3.059884     3.052240     3.044597     3.036954     3.029311     3.021667     3.014024
      3.006381     2.998738     2.991095     2.983451     2.975808     2.968165     2.960522     2.952878     2.945235     2.937592
      2.929949     2.922306     2.914662     2.907019     2.899376     2.891733     2.884089     2.876446     2.868803     2.861160
      2.853517     2.845873     2.838230     2.830587     2.822944     2.815300     2.807657     2.800014     2.792371     2.784728
      2.777084     2.769441     2.761798     2.754155     2.746511     2.738868     2.731225     2.723582     2.715939     2.708295
      2.700652     2.693009     2.685366     2.677722     2.670079     2.662436     2.654793     2.647150     2.639506     2.631863
      2.624220     2.616577     2.608933     2.601290     2.593647     2.586004     2.578361     2.570717     2.563074     2.555431
      2.547788     2.540144     2.532501     2.524858     2.517215     2.509572     2.501928     2.494285     2.486642     2.478999
      2.471355     2.463712     2.456069     2.448426     2.440783     2.433139     2.425496     2.417853     2.410210     2.402566
      2.394923     2.387280     2.379637     2.371994     2.364350     2.356707     2.349064     2.341421     2.333777     2.326134
      2.318491     2.310848     2.303205     2.295561     2.287918     2.280275     2.272632     2.264988     2.257345     2.249702
      2.242059     2.234416     2.226772     2.219129     2.211486     2.203843     2.196199     2.188556     2.180913     2.173270
      2.165627     2.157983     2.150340     2.142697     2.135054     2.127410     2.119767     2.112124     2.104481     2.096838
      2.089194     2.081551     2.073908     2.066265     2.058621     2.050978     2.043335     2.035692     2.028049     2.020405
      2.012762     2.005119     1.997476     1.989833     1.982190     1.974546     1.966903     1.959260     1.951617     1.943974
      1.936331     1.928688     1.921045     1.913402     1.905759     1.898115     1.890472     1.882829     1.875186     1.867543
      1.859900     1.852257     1.844614     1.836971     1.829327     1.821684     1.814041     1.806398     1.798755     1.791112
      1.783469     1.775826     1.768183     1.760540     1.752896     1.745253     1.737610     1.729967     1.722324     1.714681
      1.707038     1.699395     1.691752     1.684108     1.676465     1.668822     1.661179     1.653536     1.645893     1.638250
      1.630607     1.622964     1.615321     1.607677     1.600034     1.592391     1.584748     1.577105     1.569462     1.561819
      1.554176     1.546533     1.538890     1.531246     1.523603     1.515960     1.508317     1.500674     1.493031     1.485388
      1.477745     1.470102     1.462458     1.454815     1.447172     1.439529     1.431886     1.424243     1.416600     1.408957
      1.401314     1.393671     1.386027     1.378384     1.370741     1.363098     1.355455     1.347812     1.340169     1.332526
      1.324883     1.317240     1.309596     1.301953     1.294310     1.286667     1.279024     1.271381     1.263738     1.256095
      1.248452     1.240808     1.233165     1.225522     1.217879     1.210236     1.202593     1.194950     1.187307     1.179664
      1.172021     1.164377     1.156734     1.149091     1.141448     1.133805     1.126162     1.118519     1.110876     1.103233
      1.095590     1.087946     1.080303     1.072660     1.065017     1.057374     1.049731     1.042088     1.034445     1.026802
      1.019158     1.011515     1.003872     0.996229     0.988586     0.980943     0.973300     0.965657     0.958014     0.950371
      0.942727     0.935084     0.927441     0.919798     0.912155     0.904512     0.896869     0.889226     0.881583     0.873940
      0.866296     0.858653     0.851010     0.843367     0.835724     0.828081     0.820438     0.812795     0.805152     0.797508
      0.789865     0.782222     0.774579     0.766936     0.759293     0.751650     0.744007     0.736364     0.728721     0.721077
      0.713434     0.705791     0.698148     0.690505     0.682862     0.675219     0.667576     0.659933     0.652290     0.644646
      0.637003     0.629360     0.621717     0.614074     0.606431     0.598788     0.591145     0.583502     0.575858     0.568215
      0.560572     0.552929     0.545286     0.537643     0.530000     0.522357     0.514714     0.507071     0.499427     0.491784
      0.484141     0.476498     0.468855     0.461212     0.453569     0.445925     0.438282     0.430639     0.422996     0.415353
      0.407710     0.400067     0.392424     0.384780     0.377137     0.369494     0.361851     0.354208     0.346565     0.338922
      0.331278     0.323635     0.315992     0.308349     0.300706     0.293063     0.285420     0.277777     0.270133     0.262490
      0.254847     0.247204     0.239561     0.231918     0.224275     0.216631     0.208988     0.201345
 NY phased data points follow
   6.85254E+00  9.41058E+00  8.79286E+00  5.83686E+00  6.74256E+00  6.98299E+00  4.57557E+00  5.83218E+00  6.46963E+00  5.53450E+00
   4.94204E+00  6.00651E+00  7.87457E+00  4.30946E+00  3.44553E+00  3.15234E+00  3.76124E+00  2.10217E+00  3.41372E+00  4.92226E+00
   2.01867E+00  5.31213E+00  3.17294E+00  3.40355E+00  1.13368E-01  1.46792E+00  3.12530E+00  1.33617E+00  3.18638E-01  2.55834E+00
   1.00164E+00 -1.40151E-01 -6.53347E-01 -1.31769E+00 -1.84855E+00 -9.03872E-01  1.35753E+00 -2.59832E+00 -1.91563E+00  2.41934E+00
  -2.29076E+00  7.41785E-01 -1.64593E+00  2.63575E-01 -7.34470E+00 -5.80479E+00 -3.08215E+00 -3.71533E+00 -4.96008E+00 -6.43225E+00
  -4.99110E+00 -5.16235E+00 -7.49067E+00 -5.18419E+00 -9.40240E+00 -9.26006E+00 -1.15771E+01 -7.06203E+00 -1.00205E+01 -8.35691E+00
  -1.32978E+01 -7.20503E+00 -1.32305E+01 -1.10956E+01 -1.10316E+01 -1.06580E+01 -1.35377E+01 -1.19075E+01 -1.54539E+01 -1.41027E+01
  -1.19677E+01 -1.59013E+01 -1.21673E+01 -1.67194E+01 -1.61340E+01 -1.28998E+01 -1.69679E+01 -1.51280E+01 -1.66033E+01 -2.06303E+01
  -1.81896E+01 -2.05631E+01 -2.14443E+01 -1.81985E+01 -1.80461E+01 -1.45401E+01 -1.65931E+01 -1.58332E+01 -1.98699E+01 -1.91699E+01
  -1.63409E+01 -1.66721E+01 -1.85988E+01 -2.28373E+01 -2.16749E+01 -2.17325E+01 -2.35204E+01 -2.35268E+01 -2.22087E+01 -2.43024E+01
  -2.75990E+01 -2.30816E+01 -2.80873E+01 -2.65669E+01 -2.71255E+01 -2.90919E+01 -2.60855E+01 -2.72526E+01 -2.72470E+01 -2.29674E+01
  -2.71516E+01 -2.59019E+01 -2.94105E+01 -2.99195E+01 -2.76633E+01 -2.62308E+01 -2.83406E+01 -2.67039E+01 -3.15303E+01 -3.17145E+01
  -3.65896E+01 -3.46735E+01 -3.66689E+01 -3.40226E+01 -3.59336E+01 -3.72071E+01 -4.01532E+01 -4.00024E+01 -4.23622E+01 -3.92780E+01
  -4.08514E+01 -4.08425E+01 -4.40216E+01 -4.35168E+01 -4.37706E+01 -4.65202E+01 -4.64126E+01 -4.74433E+01 -4.56941E+01 -4.58141E+01
  -4.53117E+01 -4.62714E+01 -5.14216E+01 -4.78276E+01 -5.26999E+01 -4.83858E+01 -5.36295E+01 -5.36935E+01 -5.21670E+01 -5.42157E+01
  -5.46173E+01 -5.57350E+01 -5.78745E+01 -5.75414E+01 -5.88199E+01 -5.97312E+01 -6.09947E+01 -6.33543E+01 -6.52470E+01 -6.27106E+01
  -6.35884E+01 -6.62008E+01 -6.77529E+01 -6.65879E+01 -7.19939E+01 -6.57463E+01 -6.69243E+01 -7.07005E+01 -7.22978E+01 -6.99437E+01
  -7.31783E+01 -7.05980E+01 -7.72236E+01 -7.08628E+01 -7.62796E+01 -7.34505E+01 -7.51321E+01 -7.84748E+01 -7.81384E+01 -7.66862E+01
  -7.97085E+01 -7.82122E+01 -7.85657E+01 -7.72995E+01 -8.15343E+01 -7.82591E+01 -8.40507E+01 -7.78958E+01 -7.85807E+01 -7.99176E+01
  -8.08629E+01 -7.77076E+01 -8.07789E+01 -7.96045E+01 -7.92962E+01 -7.89222E+01 -8.01151E+01 -7.60141E+01 -7.90080E+01 -7.96010E+01
  -7.85602E+01 -7.73686E+01 -7.82313E+01 -7.74422E+01 -7.73089E+01 -7.94168E+01 -7.84600E+01 -7.95169E+01 -7.78616E+01 -7.94433E+01
  -8.03286E+01 -7.79627E+01 -7.61288E+01 -7.66460E+01 -7.52579E+01 -7.57093E+01 -7.70893E+01 -7.43797E+01 -7.64902E+01 -7.80373E+01
  -7.72127E+01 -7.47268E+01 -7.61333E+01 -7.78635E+01 -7.56288E+01 -7.06302E+01 -7.41359E+01 -6.89797E+01 -7.15528E+01 -7.17654E+01
  -7.29288E+01 -7.44998E+01 -7.04914E+01 -6.87808E+01 -6.76700E+01 -6.79880E+01 -6.56001E+01 -6.64100E+01 -6.41767E+01 -5.93215E+01
  -5.91890E+01 -5.47100E+01 -5.88657E+01 -5.21938E+01 -5.46383E+01 -5.78240E+01 -5.91281E+01 -5.48559E+01 -5.70031E+01 -5.58328E+01
  -5.92632E+01 -5.76916E+01 -6.06408E+01 -6.18483E+01 -6.14714E+01 -6.27185E+01 -6.43506E+01 -6.33168E+01 -6.48344E+01 -6.31664E+01
  -6.53512E+01 -6.38378E+01 -6.60685E+01 -6.33509E+01 -6.29722E+01 -6.41817E+01 -6.60098E+01 -6.38817E+01 -6.55355E+01 -6.49876E+01
  -6.21271E+01 -6.58185E+01 -6.40212E+01 -6.42390E+01 -6.12643E+01 -6.13209E+01 -6.03082E+01 -5.74220E+01 -6.00454E+01 -5.34255E+01
  -5.15926E+01 -5.18424E+01 -5.13202E+01 -5.01663E+01 -4.89048E+01 -4.40540E+01 -4.20009E+01 -4.00499E+01 -3.59230E+01 -3.49982E+01
  -3.29696E+01 -2.62318E+01 -2.29408E+01 -1.77224E+01 -1.44940E+01 -1.00289E+01 -2.04090E+00  5.20595E+00  9.91674E+00  2.19591E+01
   2.68676E+01  3.66855E+01  4.40038E+01  5.62205E+01  6.70574E+01  8.03928E+01  8.80044E+01  9.95217E+01  1.08192E+02  1.19223E+02
   1.30205E+02  1.38478E+02  1.48359E+02  1.58720E+02  1.68731E+02  1.80944E+02  1.93180E+02  2.05730E+02  2.16472E+02  2.28266E+02
   2.39391E+02  2.47405E+02  2.57331E+02  2.64015E+02  2.71296E+02  2.74996E+02  2.76827E+02  2.84043E+02  2.83600E+02  2.90387E+02
   2.85658E+02  2.88810E+02  2.91264E+02  2.92069E+02  2.88621E+02  2.88216E+02  2.83850E+02  2.83399E+02  2.79494E+02  2.77534E+02
   2.78266E+02  2.74256E+02  2.69216E+02  2.68148E+02  2.70101E+02  2.64880E+02  2.65125E+02  2.64501E+02  2.59913E+02  2.58867E+02
   2.57206E+02  2.56604E+02  2.55627E+02  2.50017E+02  2.49101E+02  2.46649E+02  2.45286E+02  2.42232E+02  2.37549E+02  2.37822E+02
   2.34824E+02  2.36738E+02  2.29446E+02  2.28130E+02  2.23588E+02  2.25508E+02  2.22503E+02  2.18995E+02  2.15440E+02  2.14138E+02
   2.13686E+02  2.08221E+02  2.07845E+02  2.02287E+02  2.03067E+02  2.00570E+02  1.93974E+02  1.96272E+02  1.96144E+02  1.93706E+02
   1.87450E+02  1.86623E+02  1.83058E+02  1.80519E+02  1.79549E+02  1.77625E+02  1.76481E+02  1.75943E+02  1.71414E+02  1.69545E+02
   1.68866E+02  1.66722E+02  1.64586E+02  1.64392E+02  1.60663E+02  1.59244E+02  1.59559E+02  1.57791E+02  1.54311E+02  1.51717E+02
   1.49701E+02  1.49772E+02  1.47571E+02  1.44175E+02  1.44046E+02  1.40283E+02  1.40565E+02  1.39257E+02  1.37487E+02  1.35525E+02
   1.30468E+02  1.34752E+02  1.29351E+02  1.28936E+02  1.27127E+02  1.28963E+02  1.25872E+02  1.22621E+02  1.26175E+02  1.21252E+02
   1.19213E+02  1.18891E+02  1.12811E+02  1.14840E+02  1.12987E+02  1.10887E+02  1.12353E+02  1.12113E+02  1.09363E+02  1.08053E+02
   1.08266E+02  1.05428E+02  1.02647E+02  1.04651E+02  1.01914E+02  1.02202E+02  9.70995E+01  9.76238E+01  1.00975E+02  9.65289E+01
   9.35665E+01  9.39460E+01  9.28689E+01  8.98967E+01  9.31975E+01  9.27581E+01  8.75507E+01  8.76755E+01  8.78788E+01  8.70734E+01
   8.56712E+01  8.36474E+01  8.47772E+01  8.02440E+01  8.40517E+01  8.00946E+01  7.91196E+01  8.01993E+01  7.92445E+01  7.91679E+01
   7.89024E+01  7.66864E+01  7.55143E+01  7.15713E+01  7.30673E+01  7.32945E+01  6.99698E+01  6.91969E+01  7.21393E+01  6.97332E+01
   6.93218E+01  7.08512E+01  6.90123E+01  6.89437E+01  6.49082E+01  6.79763E+01  6.56889E+01  6.45973E+01  6.43593E+01  6.28047E+01
   6.27405E+01  5.87855E+01  6.14355E+01  6.04594E+01  5.82112E+01  6.16481E+01  5.91024E+01  5.78065E+01  6.03081E+01  5.54965E+01
   5.52294E+01  5.52060E+01  5.73190E+01  5.52217E+01  5.24680E+01  5.51046E+01  5.61131E+01  4.97645E+01
 NY points of the fit to the data follow
   7.03135E+00  7.99670E+00  6.62050E+00  7.46536E+00  6.28939E+00  7.07555E+00  5.97736E+00  6.65483E+00  5.62767E+00  6.21282E+00
   5.34638E+00  5.97788E+00  5.34803E+00  5.85128E+00  5.18327E+00  5.37480E+00  4.74506E+00  4.74693E+00  4.29334E+00  4.30731E+00
   3.97787E+00  4.08972E+00  3.60607E+00  3.59822E+00  2.92749E+00  2.68783E+00  2.14231E+00  1.80469E+00  1.37398E+00  9.93418E-01
   7.30991E-01  4.42681E-01  1.89397E-01 -1.16244E-01 -3.34480E-01 -6.46689E-01 -8.94111E-01 -1.22498E+00 -1.49809E+00 -1.84388E+00
  -2.11530E+00 -2.46117E+00 -2.72379E+00 -3.08217E+00 -3.39156E+00 -3.78297E+00 -4.15595E+00 -4.56165E+00 -4.93528E+00 -5.33019E+00
  -5.73149E+00 -6.08980E+00 -6.52867E+00 -6.89145E+00 -7.35344E+00 -7.73184E+00 -8.21000E+00 -8.52871E+00 -8.97642E+00 -9.32882E+00
  -9.80299E+00 -1.02174E+01 -1.07331E+01 -1.11877E+01 -1.16863E+01 -1.21615E+01 -1.26586E+01 -1.31070E+01 -1.34529E+01 -1.39030E+01
  -1.42783E+01 -1.47687E+01 -1.52148E+01 -1.57420E+01 -1.62202E+01 -1.68095E+01 -1.73738E+01 -1.80006E+01 -1.85886E+01 -1.92091E+01
  -1.97401E+01 -2.02789E+01 -2.07840E+01 -2.11344E+01 -2.08561E+01 -1.88631E+01 -1.86579E+01 -1.67282E+01 -1.72107E+01 -1.60097E+01
  -1.70658E+01 -1.65034E+01 -1.80361E+01 -1.82300E+01 -1.99168E+01 -2.03871E+01 -2.20227E+01 -2.25761E+01 -2.40708E+01 -2.45677E+01
  -2.59759E+01 -2.65236E+01 -2.78869E+01 -2.84390E+01 -2.96577E+01 -3.00679E+01 -3.11048E+01 -3.10849E+01 -2.97438E+01 -2.80909E+01
  -2.76835E+01 -2.58595E+01 -2.68313E+01 -2.51056E+01 -2.69759E+01 -2.54070E+01 -2.82436E+01 -2.75171E+01 -3.06317E+01 -3.05694E+01
  -3.35024E+01 -3.35398E+01 -3.60281E+01 -3.60493E+01 -3.81921E+01 -3.80708E+01 -3.99367E+01 -3.98361E+01 -4.13539E+01 -4.12359E+01
  -4.27411E+01 -4.27888E+01 -4.44484E+01 -4.47633E+01 -4.62339E+01 -4.66626E+01 -4.77010E+01 -4.79312E+01 -4.85733E+01 -4.85754E+01
  -4.93881E+01 -4.96279E+01 -5.07603E+01 -5.12919E+01 -5.22566E+01 -5.28702E+01 -5.37222E+01 -5.43993E+01 -5.49585E+01 -5.55155E+01
  -5.61171E+01 -5.67403E+01 -5.73343E+01 -5.79016E+01 -5.85032E+01 -5.90655E+01 -5.97713E+01 -6.04230E+01 -6.11421E+01 -6.18323E+01
  -6.25570E+01 -6.33030E+01 -6.40570E+01 -6.48870E+01 -6.56970E+01 -6.64238E+01 -6.71806E+01 -6.77916E+01 -6.85030E+01 -6.90422E+01
  -6.97187E+01 -7.02158E+01 -7.08176E+01 -7.12199E+01 -7.17981E+01 -7.22715E+01 -7.28623E+01 -7.34044E+01 -7.40076E+01 -7.45915E+01
  -7.51475E+01 -7.55972E+01 -7.60883E+01 -7.63899E+01 -7.68216E+01 -7.70341E+01 -7.74344E+01 -7.75962E+01 -7.79757E+01 -7.81866E+01
  -7.86493E+01 -7.88934E+01 -7.94080E+01 -7.95608E+01 -7.99869E+01 -8.00343E+01 -8.03604E+01 -8.03376E+01 -8.05614E+01 -8.04896E+01
  -8.06252E+01 -8.04915E+01 -8.05482E+01 -8.03704E+01 -8.03615E+01 -8.01367E+01 -8.00387E+01 -7.97613E+01 -7.95944E+01 -7.92986E+01
  -7.90844E+01 -7.87473E+01 -7.85778E+01 -7.82410E+01 -7.80754E+01 -7.77013E+01 -7.74115E+01 -7.69947E+01 -7.67264E+01 -7.63448E+01
  -7.60366E+01 -7.57061E+01 -7.53990E+01 -7.51943E+01 -7.49110E+01 -7.47390E+01 -7.44346E+01 -7.42604E+01 -7.39196E+01 -7.37333E+01
  -7.33882E+01 -7.31569E+01 -7.27820E+01 -7.24358E+01 -7.19368E+01 -7.13827E+01 -7.00557E+01 -6.69315E+01 -6.55872E+01 -6.25334E+01
  -6.18450E+01 -5.95531E+01 -5.94500E+01 -5.77861E+01 -5.81496E+01 -5.72796E+01 -5.78388E+01 -5.72706E+01 -5.78735E+01 -5.74998E+01
  -5.80884E+01 -5.77805E+01 -5.83943E+01 -5.82125E+01 -5.88504E+01 -5.87407E+01 -5.93080E+01 -5.91404E+01 -5.97724E+01 -5.97735E+01
  -6.05065E+01 -6.08261E+01 -6.15155E+01 -6.18559E+01 -6.22973E+01 -6.22887E+01 -6.24685E+01 -6.20514E+01 -6.21510E+01 -6.18284E+01
  -6.19253E+01 -6.18191E+01 -6.17530E+01 -6.14227E+01 -6.10872E+01 -6.05361E+01 -5.98633E+01 -5.88653E+01 -5.79166E+01 -5.66894E+01
  -5.55023E+01 -5.40161E+01 -5.25222E+01 -5.07079E+01 -4.88317E+01 -4.66183E+01 -4.42855E+01 -4.15837E+01 -3.86977E+01 -3.53993E+01
  -3.18375E+01 -2.78190E+01 -2.34523E+01 -1.85860E+01 -1.33099E+01 -7.49982E+00 -1.24366E+00  5.55292E+00  1.28035E+01  2.05738E+01
   2.87820E+01  3.74584E+01  4.65221E+01  5.59812E+01  6.57550E+01  7.58298E+01  8.61343E+01  9.66477E+01  1.07314E+02  1.18115E+02
   1.29006E+02  1.39972E+02  1.50977E+02  1.62004E+02  1.73010E+02  1.83962E+02  1.94806E+02  2.05488E+02  2.15930E+02  2.26055E+02
   2.35765E+02  2.44966E+02  2.53551E+02  2.61427E+02  2.68494E+02  2.74681E+02  2.79920E+02  2.84182E+02  2.87447E+02  2.89738E+02
   2.91092E+02  2.91583E+02  2.91296E+02  2.90346E+02  2.88845E+02  2.86927E+02  2.84708E+02  2.82315E+02  2.79845E+02  2.77397E+02
   2.75030E+02  2.72803E+02  2.70733E+02  2.68836E+02  2.67092E+02  2.65482E+02  2.63959E+02  2.62487E+02  2.61011E+02  2.59493E+02
   2.57885E+02  2.56162E+02  2.54295E+02  2.52281E+02  2.50115E+02  2.47817E+02  2.45400E+02  2.42902E+02  2.40349E+02  2.37782E+02
   2.35226E+02  2.32717E+02  2.30266E+02  2.27894E+02  2.25594E+02  2.23367E+02  2.21189E+02  2.19045E+02  2.16900E+02  2.14735E+02
   2.12518E+02  2.10234E+02  2.07863E+02  2.05408E+02  2.02868E+02  2.00266E+02  1.97617E+02  1.94960E+02  1.92320E+02  1.89742E+02
   1.87250E+02  1.84881E+02  1.82647E+02  1.80568E+02  1.78639E+02  1.76860E+02  1.75206E+02  1.73660E+02  1.72186E+02  1.70759E+02
   1.69337E+02  1.67896E+02  1.66402E+02  1.64839E+02  1.63184E+02  1.61437E+02  1.59588E+02  1.57652E+02  1.55632E+02  1.53553E+02
   1.51426E+02  1.49282E+02  1.47135E+02  1.45014E+02  1.42932E+02  1.40914E+02  1.38967E+02  1.37108E+02  1.35338E+02  1.33666E+02
   1.32086E+02  1.30601E+02  1.29199E+02  1.27879E+02  1.26625E+02  1.25433E+02  1.24286E+02  1.23181E+02  1.22099E+02  1.21038E+02
   1.19982E+02  1.18929E+02  1.17866E+02  1.16794E+02  1.15701E+02  1.14591E+02  1.13454E+02  1.12296E+02  1.11110E+02  1.09904E+02
   1.08671E+02  1.07421E+02  1.06149E+02  1.04865E+02  1.03565E+02  1.02259E+02  1.00945E+02  9.96327E+01  9.83185E+01  9.70131E+01
   9.57127E+01  9.44278E+01  9.31540E+01  9.19012E+01  9.06648E+01  8.94540E+01  8.82636E+01  8.71024E+01  8.59646E+01  8.48585E+01
   8.37777E+01  8.27301E+01  8.17087E+01  8.07210E+01  7.97599E+01  7.88322E+01  7.79305E+01  7.70615E+01  7.62174E+01  7.54047E+01
   7.46154E+01  7.38558E+01  7.31179E+01  7.24079E+01  7.17174E+01  7.10527E+01  7.04054E+01  6.97818E+01  6.91734E+01  6.85863E+01
   6.80123E+01  6.74574E+01  6.69134E+01  6.63864E+01  6.58680E+01  6.53645E+01  6.48676E+01  6.43835E+01  6.39041E+01  6.34356E+01
   6.29698E+01  6.25129E+01  6.20571E+01  6.16085E+01  6.11592E+01  6.07154E+01  6.02694E+01  5.98273E+01  5.93814E+01  5.89380E+01
   5.84894E+01  5.80419E+01  5.75879E+01  5.71337E+01  5.66717E+01  5.62084E+01  5.57361E+01  5.52615E+01
 NY background values follow
    -1.107E+00   -9.576E-01   -8.229E-01   -7.024E-01   -5.958E-01   -5.032E-01   -4.243E-01   -3.590E-01   -3.073E-01   -2.689E-01
    -2.438E-01   -2.318E-01   -2.329E-01   -2.469E-01   -2.736E-01   -3.129E-01   -3.648E-01   -4.291E-01   -5.056E-01   -5.943E-01
    -6.950E-01   -8.077E-01   -9.320E-01   -1.068E+00   -1.216E+00   -1.375E+00   -1.545E+00   -1.726E+00   -1.919E+00   -2.122E+00
    -2.336E+00   -2.561E+00   -2.796E+00   -3.042E+00   -3.298E+00   -3.564E+00   -3.840E+00   -4.127E+00   -4.422E+00   -4.728E+00
    -5.043E+00   -5.368E+00   -5.702E+00   -6.045E+00   -6.397E+00   -6.758E+00   -7.127E+00   -7.506E+00   -7.893E+00   -8.288E+00
    -8.692E+00   -9.104E+00   -9.524E+00   -9.952E+00   -1.039E+01   -1.083E+01   -1.128E+01   -1.174E+01   -1.221E+01   -1.268E+01
    -1.316E+01   -1.365E+01   -1.414E+01   -1.464E+01   -1.515E+01   -1.566E+01   -1.618E+01   -1.671E+01   -1.724E+01   -1.778E+01
    -1.832E+01   -1.887E+01   -1.942E+01   -1.998E+01   -2.055E+01   -2.112E+01   -2.170E+01   -2.228E+01   -2.286E+01   -2.345E+01
    -2.405E+01   -2.465E+01   -2.525E+01   -2.586E+01   -2.647E+01   -2.709E+01   -2.771E+01   -2.833E+01   -2.896E+01   -2.959E+01
    -3.022E+01   -3.086E+01   -3.150E+01   -3.214E+01   -3.279E+01   -3.344E+01   -3.409E+01   -3.475E+01   -3.540E+01   -3.606E+01
    -3.672E+01   -3.738E+01   -3.805E+01   -3.871E+01   -3.938E+01   -4.005E+01   -4.072E+01   -4.139E+01   -4.207E+01   -4.274E+01
    -4.341E+01   -4.409E+01   -4.477E+01   -4.544E+01   -4.612E+01   -4.680E+01   -4.747E+01   -4.815E+01   -4.883E+01   -4.951E+01
    -5.018E+01   -5.086E+01   -5.153E+01   -5.221E+01   -5.288E+01   -5.355E+01   -5.423E+01   -5.490E+01   -5.557E+01   -5.623E+01
    -5.690E+01   -5.756E+01   -5.823E+01   -5.889E+01   -5.954E+01   -6.020E+01   -6.085E+01   -6.150E+01   -6.215E+01   -6.280E+01
    -6.344E+01   -6.408E+01   -6.472E+01   -6.535E+01   -6.598E+01   -6.661E+01   -6.723E+01   -6.785E+01   -6.847E+01   -6.908E+01
    -6.968E+01   -7.029E+01   -7.089E+01   -7.148E+01   -7.207E+01   -7.266E+01   -7.324E+01   -7.381E+01   -7.438E+01   -7.495E+01
    -7.551E+01   -7.606E+01   -7.661E+01   -7.715E+01   -7.769E+01   -7.822E+01   -7.874E+01   -7.926E+01   -7.977E+01   -8.028E+01
    -8.078E+01   -8.127E+01   -8.176E+01   -8.224E+01   -8.272E+01   -8.319E+01   -8.365E+01   -8.410E+01   -8.455E+01   -8.500E+01
    -8.544E+01   -8.587E+01   -8.629E+01   -8.671E+01   -8.712E+01   -8.753E+01   -8.792E+01   -8.832E+01   -8.870E+01   -8.908E+01
    -8.946E+01   -8.982E+01   -9.018E+01   -9.054E+01   -9.088E+01   -9.122E+01   -9.156E+01   -9.189E+01   -9.221E+01   -9.252E+01
    -9.283E+01   -9.313E+01   -9.342E+01   -9.371E+01   -9.399E+01   -9.427E+01   -9.453E+01   -9.480E+01   -9.505E+01   -9.530E+01
    -9.554E+01   -9.577E+01   -9.600E+01   -9.622E+01   -9.644E+01   -9.664E+01   -9.684E+01   -9.704E+01   -9.722E+01   -9.740E+01
    -9.758E+01   -9.774E+01   -9.790E+01   -9.806E+01   -9.820E+01   -9.834E+01   -9.847E+01   -9.860E+01   -9.872E+01   -9.883E+01
    -9.893E+01   -9.903E+01   -9.912E+01   -9.920E+01   -9.928E+01   -9.935E+01   -9.941E+01   -9.946E+01   -9.951E+01   -9.955E+01
    -9.958E+01   -9.961E+01   -9.963E+01   -9.964E+01   -9.965E+01   -9.964E+01   -9.964E+01   -9.962E+01   -9.960E+01   -9.956E+01
    -9.953E+01   -9.948E+01   -9.943E+01   -9.937E+01   -9.930E+01   -9.923E+01   -9.915E+01   -9.906E+01   -9.896E+01   -9.886E+01
    -9.875E+01   -9.863E+01   -9.850E+01   -9.837E+01   -9.823E+01   -9.808E+01   -9.792E+01   -9.776E+01   -9.759E+01   -9.741E+01
    -9.723E+01   -9.703E+01   -9.683E+01   -9.663E+01   -9.641E+01   -9.619E+01   -9.596E+01   -9.572E+01   -9.547E+01   -9.522E+01
    -9.496E+01   -9.469E+01   -9.442E+01   -9.413E+01   -9.384E+01   -9.354E+01   -9.324E+01   -9.292E+01   -9.260E+01   -9.227E+01
    -9.193E+01   -9.159E+01   -9.123E+01   -9.087E+01   -9.051E+01   -9.013E+01   -8.974E+01   -8.935E+01   -8.895E+01   -8.855E+01
    -8.813E+01   -8.771E+01   -8.728E+01   -8.684E+01   -8.639E+01   -8.593E+01   -8.547E+01   -8.500E+01   -8.452E+01   -8.404E+01
    -8.354E+01   -8.304E+01   -8.253E+01   -8.201E+01   -8.148E+01   -8.095E+01   -8.040E+01   -7.985E+01   -7.929E+01   -7.873E+01
    -7.815E+01   -7.757E+01   -7.698E+01   -7.638E+01   -7.577E+01   -7.515E+01   -7.453E+01   -7.390E+01   -7.326E+01   -7.261E+01
    -7.195E+01   -7.128E+01   -7.061E+01   -6.993E+01   -6.924E+01   -6.854E+01   -6.784E+01   -6.712E+01   -6.640E+01   -6.568E+01
    -6.494E+01   -6.420E+01   -6.345E+01   -6.270E+01   -6.194E+01   -6.117E+01   -6.040E+01   -5.962E+01   -5.883E+01   -5.804E+01
    -5.724E+01   -5.644E+01   -5.563E+01   -5.482E+01   -5.400E+01   -5.318E+01   -5.236E+01   -5.153E+01   -5.069E+01   -4.985E+01
    -4.901E+01   -4.816E+01   -4.731E+01   -4.646E+01   -4.560E+01   -4.474E+01   -4.388E+01   -4.301E+01   -4.214E+01   -4.127E+01
    -4.039E+01   -3.952E+01   -3.864E+01   -3.776E+01   -3.688E+01   -3.599E+01   -3.511E+01   -3.422E+01   -3.333E+01   -3.245E+01
    -3.156E+01   -3.067E+01   -2.978E+01   -2.889E+01   -2.799E+01   -2.710E+01   -2.621E+01   -2.532E+01   -2.443E+01   -2.354E+01
    -2.265E+01   -2.176E+01   -2.088E+01   -1.999E+01   -1.911E+01   -1.822E+01   -1.734E+01   -1.646E+01   -1.558E+01   -1.471E+01
    -1.384E+01   -1.297E+01   -1.210E+01   -1.123E+01   -1.037E+01   -9.510E+00   -8.654E+00   -7.801E+00   -6.952E+00   -6.106E+00
    -5.265E+00   -4.427E+00   -3.594E+00   -2.764E+00   -1.940E+00   -1.120E+00   -3.042E-01    5.062E-01    1.311E+00    2.111E+00
     2.906E+00    3.695E+00    4.478E+00    5.256E+00    6.027E+00    6.793E+00    7.551E+00    8.304E+00    9.050E+00    9.788E+00
     1.052E+01    1.125E+01    1.196E+01    1.267E+01    1.338E+01    1.407E+01    1.476E+01    1.544E+01    1.611E+01    1.677E+01
     1.742E+01    1.807E+01    1.870E+01    1.933E+01    1.995E+01    2.056E+01    2.116E+01    2.175E+01    2.233E+01    2.290E+01
     2.346E+01    2.400E+01    2.454E+01    2.507E+01    2.559E+01    2.610E+01    2.659E+01    2.708E+01    2.755E+01    2.801E+01
     2.846E+01    2.890E+01    2.933E+01    2.974E+01    3.015E+01    3.054E+01    3.091E+01    3.128E+01    3.163E+01    3.197E+01
     3.229E+01    3.260E+01    3.290E+01    3.319E+01    3.346E+01    3.371E+01    3.396E+01    3.419E+01    3.440E+01    3.460E+01
     3.478E+01    3.495E+01    3.511E+01    3.525E+01    3.537E+01    3.548E+01    3.557E+01    3.565E+01    3.571E+01    3.575E+01
     3.578E+01    3.579E+01    3.579E+01    3.577E+01    3.573E+01    3.567E+01    3.560E+01    3.551E+01
 Asp      Conc. = 1.20E+02
