 LCModel (Version 6.3-1L) Copyright: S.W. Provencher.          Ref.: Magn. Reson. Med. 30:672-679 (1993).                
 Slice#2 Row#10 Col#9  PD_24_press_1_raw_act
 36 lines in following concentration table = NCONC+1
    Conc.  %SD /Cr+PCr  Metabolite                                         
   43.214 215% 2.6E-02 Ala                                                 
    0.000 999%   0.000 Asp                                                 
  588.746  31%   0.359 Cr                                                  
 1.05E+03  18%   0.641 PCr                                                 
    0.000 999%   0.000 GABA                                                
  255.534  62%   0.156 Glc                                                 
  381.122  50%   0.232 Gln                                                 
 1.55E+03  14%   0.944 Glu                                                 
  599.436   6%   0.366 GPC                                                 
  263.904  15%   0.161 PCh                                                 
  224.671  29%   0.137 GSH                                                 
 1.84E+03  13%   1.120 Ins                                                 
  225.967  45%   0.138 Lac                                                 
 2.43E+03   4%   1.485 NAA                                                 
  400.597  24%   0.244 NAAG                                                
  214.420  12%   0.131 Scyllo                                              
    0.000 999%   0.000 Tau                                                 
   67.403 139% 4.1E-02 -CrCH2                                              
  863.340   3%   0.527 GPC+PCh                                             
 2.84E+03   3%   1.729 NAA+NAAG                                            
 1.64E+03   3%   1.000 Cr+PCr                                              
 1.93E+03  15%   1.177 Glu+Gln                                             
 1.73E+03  24%   1.057 Lip13a                                              
  405.221  44%   0.247 Lip13b                                              
  407.923  73%   0.249 Lip09                                               
 1.19E+03  22%   0.723 MM09                                                
  350.038  62%   0.214 Lip20                                               
 2.50E+03  14%   1.525 MM20                                                
  445.908  45%   0.272 MM12                                                
    0.000 999%   0.000 MM14                                                
   47.048 408% 2.9E-02 MM17                                                
 2.14E+03  15%   1.304 Lip13a+Lip13b                                       
 2.58E+03  10%   1.576 MM14+Lip13a+Lip13b+MM12                             
 1.59E+03  10%   0.972 MM09+Lip09                                          
 2.85E+03  12%   1.738 MM20+Lip20                                          
   6 lines in following misc. output table
  FWHM = 0.046 ppm    S/N =  15                                            
  Data shift = 0.008 ppm                                                   
  Ph: -30 deg     -10.7 deg/ppm                                            
  alphaB,S = 1.6E+00,   5.3E+01                                            
   14 spline knots.   Ns = 7(1)                                            
  (12) 3 infls.   ( 7) 1 extrs.                                            
  498 points on ppm-axis = NY
      4.000000     3.992357     3.984714     3.977070     3.969427     3.961784     3.954141     3.946497     3.938854     3.931211
      3.923568     3.915925     3.908281     3.900638     3.892995     3.885352     3.877708     3.870065     3.862422     3.854779
      3.847136     3.839492     3.831849     3.824206     3.816563     3.808919     3.801276     3.793633     3.785990     3.778347
      3.770703     3.763060     3.755417     3.747774     3.740130     3.732487     3.724844     3.717201     3.709558     3.701914
      3.694271     3.686628     3.678985     3.671341     3.663698     3.656055     3.648412     3.640769     3.633125     3.625482
      3.617839     3.610196     3.602552     3.594909     3.587266     3.579623     3.571980     3.564336     3.556693     3.549050
      3.541407     3.533763     3.526120     3.518477     3.510834     3.503191     3.495547     3.487904     3.480261     3.472618
      3.464974     3.457331     3.449688     3.442045     3.434402     3.426758     3.419115     3.411472     3.403829     3.396185
      3.388542     3.380899     3.373256     3.365613     3.357969     3.350326     3.342683     3.335040     3.327396     3.319753
      3.312110     3.304467     3.296824     3.289180     3.281537     3.273894     3.266251     3.258607     3.250964     3.243321
      3.235678     3.228034     3.220391     3.212748     3.205105     3.197462     3.189818     3.182175     3.174532     3.166889
      3.159245     3.151602     3.143959     3.136316     3.128673     3.121029     3.113386     3.105743     3.098100     3.090456
      3.082813     3.075170     3.067527     3.059884     3.052240     3.044597     3.036954     3.029311     3.021667     3.014024
      3.006381     2.998738     2.991095     2.983451     2.975808     2.968165     2.960522     2.952878     2.945235     2.937592
      2.929949     2.922306     2.914662     2.907019     2.899376     2.891733     2.884089     2.876446     2.868803     2.861160
      2.853517     2.845873     2.838230     2.830587     2.822944     2.815300     2.807657     2.800014     2.792371     2.784728
      2.777084     2.769441     2.761798     2.754155     2.746511     2.738868     2.731225     2.723582     2.715939     2.708295
      2.700652     2.693009     2.685366     2.677722     2.670079     2.662436     2.654793     2.647150     2.639506     2.631863
      2.624220     2.616577     2.608933     2.601290     2.593647     2.586004     2.578361     2.570717     2.563074     2.555431
      2.547788     2.540144     2.532501     2.524858     2.517215     2.509572     2.501928     2.494285     2.486642     2.478999
      2.471355     2.463712     2.456069     2.448426     2.440783     2.433139     2.425496     2.417853     2.410210     2.402566
      2.394923     2.387280     2.379637     2.371994     2.364350     2.356707     2.349064     2.341421     2.333777     2.326134
      2.318491     2.310848     2.303205     2.295561     2.287918     2.280275     2.272632     2.264988     2.257345     2.249702
      2.242059     2.234416     2.226772     2.219129     2.211486     2.203843     2.196199     2.188556     2.180913     2.173270
      2.165627     2.157983     2.150340     2.142697     2.135054     2.127410     2.119767     2.112124     2.104481     2.096838
      2.089194     2.081551     2.073908     2.066265     2.058621     2.050978     2.043335     2.035692     2.028049     2.020405
      2.012762     2.005119     1.997476     1.989833     1.982190     1.974546     1.966903     1.959260     1.951617     1.943974
      1.936331     1.928688     1.921045     1.913402     1.905759     1.898115     1.890472     1.882829     1.875186     1.867543
      1.859900     1.852257     1.844614     1.836971     1.829327     1.821684     1.814041     1.806398     1.798755     1.791112
      1.783469     1.775826     1.768183     1.760540     1.752896     1.745253     1.737610     1.729967     1.722324     1.714681
      1.707038     1.699395     1.691752     1.684108     1.676465     1.668822     1.661179     1.653536     1.645893     1.638250
      1.630607     1.622964     1.615321     1.607677     1.600034     1.592391     1.584748     1.577105     1.569462     1.561819
      1.554176     1.546533     1.538890     1.531246     1.523603     1.515960     1.508317     1.500674     1.493031     1.485388
      1.477745     1.470102     1.462458     1.454815     1.447172     1.439529     1.431886     1.424243     1.416600     1.408957
      1.401314     1.393671     1.386027     1.378384     1.370741     1.363098     1.355455     1.347812     1.340169     1.332526
      1.324883     1.317240     1.309596     1.301953     1.294310     1.286667     1.279024     1.271381     1.263738     1.256095
      1.248452     1.240808     1.233165     1.225522     1.217879     1.210236     1.202593     1.194950     1.187307     1.179664
      1.172021     1.164377     1.156734     1.149091     1.141448     1.133805     1.126162     1.118519     1.110876     1.103233
      1.095590     1.087946     1.080303     1.072660     1.065017     1.057374     1.049731     1.042088     1.034445     1.026802
      1.019158     1.011515     1.003872     0.996229     0.988586     0.980943     0.973300     0.965657     0.958014     0.950371
      0.942727     0.935084     0.927441     0.919798     0.912155     0.904512     0.896869     0.889226     0.881583     0.873940
      0.866296     0.858653     0.851010     0.843367     0.835724     0.828081     0.820438     0.812795     0.805152     0.797508
      0.789865     0.782222     0.774579     0.766936     0.759293     0.751650     0.744007     0.736364     0.728721     0.721077
      0.713434     0.705791     0.698148     0.690505     0.682862     0.675219     0.667576     0.659933     0.652290     0.644646
      0.637003     0.629360     0.621717     0.614074     0.606431     0.598788     0.591145     0.583502     0.575858     0.568215
      0.560572     0.552929     0.545286     0.537643     0.530000     0.522357     0.514714     0.507071     0.499427     0.491784
      0.484141     0.476498     0.468855     0.461212     0.453569     0.445925     0.438282     0.430639     0.422996     0.415353
      0.407710     0.400067     0.392424     0.384780     0.377137     0.369494     0.361851     0.354208     0.346565     0.338922
      0.331278     0.323635     0.315992     0.308349     0.300706     0.293063     0.285420     0.277777     0.270133     0.262490
      0.254847     0.247204     0.239561     0.231918     0.224275     0.216631     0.208988     0.201345
 NY phased data points follow
  -4.43518E+01 -4.50547E+01 -4.26845E+01 -3.86290E+01 -3.11665E+01 -2.38822E+01 -1.95249E+01 -1.01381E+01 -4.52241E+00 -4.49750E+00
  -1.14269E+00 -4.64213E+00 -8.98265E+00 -1.92551E+01 -2.71652E+01 -3.16655E+01 -3.56910E+01 -3.85172E+01 -3.86941E+01 -3.99891E+01
  -3.71131E+01 -3.81057E+01 -3.31002E+01 -3.21659E+01 -3.15629E+01 -3.27279E+01 -2.85021E+01 -2.97423E+01 -2.94167E+01 -3.21164E+01
  -2.62353E+01 -2.67625E+01 -2.81668E+01 -2.95291E+01 -2.70458E+01 -2.94302E+01 -2.77758E+01 -2.79380E+01 -2.56500E+01 -2.44796E+01
  -2.50129E+01 -2.19095E+01 -2.30224E+01 -2.05182E+01 -1.76685E+01 -1.94116E+01 -1.51590E+01 -1.73577E+01 -1.51749E+01 -1.63782E+01
  -2.01573E+01 -2.30600E+01 -2.73701E+01 -2.84116E+01 -2.09063E+01 -2.80875E+01 -2.30335E+01 -1.96442E+01 -2.37691E+01 -2.34853E+01
  -2.68854E+01 -2.67540E+01 -2.71006E+01 -3.32685E+01 -2.57524E+01 -2.87255E+01 -3.04899E+01 -3.15611E+01 -2.74091E+01 -2.72244E+01
  -2.41304E+01 -2.72251E+01 -2.75196E+01 -2.01313E+01 -1.96895E+01 -2.37363E+01 -1.83120E+01 -2.36848E+01 -1.89040E+01 -2.11444E+01
  -1.87913E+01 -2.13581E+01 -1.90359E+01 -1.84991E+01 -1.44248E+01 -1.77181E+01 -1.68924E+01 -1.53339E+01 -1.09217E+01 -1.52200E+01
  -1.74341E+01 -1.33912E+01 -1.34948E+01 -1.47555E+01 -1.01339E+01 -6.72610E+00 -3.25187E+00  3.78441E+00  1.32560E+01  2.26297E+01
   3.81586E+01  4.51727E+01  4.99807E+01  5.29101E+01  4.23519E+01  3.09690E+01  1.60010E+01  6.88920E+00 -4.13536E+00 -1.01921E+01
  -1.06583E+01 -1.85669E+01 -1.55501E+01 -1.68487E+01 -1.68793E+01 -1.95364E+01 -1.82755E+01 -1.33100E+01 -1.67229E+01 -1.53637E+01
  -4.98674E+00 -5.65709E+00 -2.40589E+00  1.59883E+00  2.19383E+01  2.69702E+01  3.93564E+01  3.60112E+01  3.49336E+01  2.47526E+01
   1.52595E+01  4.19097E+00 -7.13963E-01 -9.70919E+00 -7.72188E+00 -1.44438E+01 -1.22875E+01 -1.57691E+01 -1.72603E+01 -1.42023E+01
  -1.29060E+01 -1.69065E+01 -2.01016E+01 -1.33898E+01 -1.27201E+01 -1.43856E+01 -1.61036E+01 -1.57478E+01 -1.18490E+01 -1.34785E+01
  -9.26573E+00 -1.43263E+01 -1.39993E+01 -1.46294E+01 -1.17141E+01 -1.63103E+01 -1.41552E+01 -1.43490E+01 -1.07762E+01 -1.58178E+01
  -1.69575E+01 -1.63604E+01 -1.77827E+01 -1.69580E+01 -9.23998E+00 -1.83516E+01 -1.39485E+01 -1.04755E+01 -1.61550E+01 -1.96489E+01
  -1.62787E+01 -1.85384E+01 -1.61072E+01 -1.86573E+01 -1.81951E+01 -2.16724E+01 -2.28007E+01 -1.68217E+01 -2.20546E+01 -1.89723E+01
  -1.68894E+01 -2.22714E+01 -2.10493E+01 -1.74012E+01 -2.09085E+01 -1.81344E+01 -1.90918E+01 -1.15188E+01 -6.29023E+00 -8.00947E+00
  -5.63773E+00 -4.15067E+00 -4.42230E+00 -1.21915E+00 -3.44858E+00 -3.70988E+00 -6.15029E+00 -4.39776E+00 -5.25306E+00 -8.82608E+00
  -6.59555E+00 -6.83670E+00 -1.51867E+00 -6.43790E+00 -6.21103E+00 -2.76348E+00 -7.60980E+00 -9.04929E+00 -6.75821E+00 -9.78067E+00
  -1.06906E+01 -9.19849E+00 -5.26312E+00 -3.66456E+00  2.10496E-01  2.49412E+00  8.52466E+00  6.81116E+00  4.68934E+00 -3.08719E+00
  -5.71659E+00 -1.01102E+01 -8.92558E+00 -8.43405E+00 -8.44075E+00 -1.00229E+00 -1.26622E-01  3.78037E+00  2.90637E+00  6.02631E+00
   5.92046E+00  3.75041E+00  4.27391E+00  5.98740E+00 -1.86044E+00  9.84822E-01  2.32666E+00  1.52694E+00  3.03277E-01 -9.13902E-01
  -1.63459E+00 -1.32623E+00 -1.90543E+00  1.00564E+00  1.53841E-01  3.21824E+00  3.89517E+00  7.17234E+00  8.78759E+00  1.01295E+01
   9.63823E+00  1.39728E+01  2.18443E+01  2.24399E+01  2.90523E+01  3.51608E+01  5.33548E+01  6.19553E+01  7.39287E+01  8.70817E+01
   9.56241E+01  9.16223E+01  8.35172E+01  6.17536E+01  4.41370E+01  3.26375E+01  2.14523E+01  1.09038E+01  1.14116E+01  1.12188E+01
   6.04028E+00  2.71757E+00  7.91394E+00  3.94665E+00  1.03821E+01  7.98885E+00  6.07090E+00  5.63488E+00  3.21648E+00  4.34776E+00
  -1.48669E+00  5.06335E+00  3.28557E+00  6.71879E+00  2.56365E+00 -7.51102E-02 -1.21889E-01  3.22146E+00  3.71000E+00 -6.51246E-01
   3.45699E+00  1.40195E-01  3.74914E+00  3.47428E+00  1.45894E+00 -1.92898E-01  2.58187E+00 -1.12807E+00 -3.90584E+00 -2.72385E+00
  -5.11894E-01  1.04576E+00  4.12748E+00  2.10030E+00  8.30073E-01  3.34437E+00  1.19039E+00  2.18026E+00  6.47547E+00  2.74464E+00
   4.62916E+00  4.32533E+00  2.68585E+00  3.86940E+00  6.51295E+00  1.82674E+00  5.08061E-01  4.10697E+00  6.00192E+00  4.47672E+00
   2.97023E+00  3.03288E+00  2.14384E+00 -1.06978E+00  6.14916E+00  2.24586E+00  9.45972E-01  3.64026E+00  3.97433E+00  1.44695E+00
   2.01479E+00  3.55501E-01  1.55614E+00 -1.75840E-01  5.42283E+00  5.98771E+00  4.32273E+00  2.14371E+00  4.59728E+00  4.58815E+00
   4.73420E+00  1.60002E+00  9.57666E+00  1.26903E+01  1.08048E+01  1.12986E+01  1.17688E+01  9.19779E+00  1.42682E+01  8.82396E+00
   9.70679E+00  1.26547E+01  1.54376E+01  1.72509E+01  1.84236E+01  2.41778E+01  2.20080E+01  1.92300E+01  2.04904E+01  2.60922E+01
   2.52486E+01  2.42951E+01  1.73428E+01  1.81658E+01  1.63723E+01  1.65611E+01  1.59057E+01  1.83377E+01  1.34761E+01  1.41245E+01
   1.62578E+01  1.58875E+01  1.39102E+01  1.16779E+01  9.45774E+00  9.38880E+00  1.00846E+01  1.11385E+01  1.16198E+01  9.45874E+00
   1.18491E+01  1.29450E+01  1.27295E+01  7.88391E+00  8.85444E+00  7.20808E+00  1.06434E+01  7.41494E+00  1.16702E+01  9.98189E+00
   8.26458E+00  8.24891E+00  1.14606E+01  8.27419E+00  1.47094E+01  1.03226E+01  1.23968E+01  1.07220E+01  1.11165E+01  1.36808E+01
   1.28619E+01  1.50020E+01  1.46439E+01  1.68234E+01  1.46571E+01  2.02189E+01  1.77065E+01  2.06278E+01  2.34663E+01  1.95534E+01
   1.74359E+01  2.27884E+01  2.06654E+01  2.08878E+01  1.84636E+01  2.00311E+01  2.10549E+01  1.51678E+01  1.51689E+01  1.32649E+01
   1.12744E+01  1.15233E+01  1.55655E+01  1.11372E+01  1.39738E+01  1.34546E+01  1.43204E+01  1.55477E+01  6.43861E+00  1.28925E+01
   1.12818E+01  5.86816E+00  1.37116E+01  1.45183E+01  1.27716E+01  9.91980E+00  1.42220E+01  9.13814E+00  1.46830E+01  9.67202E+00
   1.35100E+01  8.84850E+00  1.29997E+01  9.00573E+00  1.02220E+01  9.93975E+00  1.48419E+01  1.03735E+01  1.19586E+01  1.12801E+01
   1.10507E+01  9.05353E+00  1.01805E+01  1.23471E+01  1.10328E+01  8.14584E+00  1.16141E+01  3.97936E+00  1.07598E+01  9.81234E+00
   6.73989E+00  1.13174E+01  1.21838E+01  1.08601E+01  6.64313E+00  5.69274E+00  1.26991E+01  9.54758E+00  1.30900E+01  8.79570E+00
   1.10655E+01  7.47416E+00  4.95875E+00  8.62228E+00  1.24473E+01  1.07982E+01  8.12072E+00  6.56799E+00  7.54199E+00  1.11508E+01
   9.62428E+00  9.98427E+00  9.03351E+00  1.03763E+01  6.69414E+00  8.69497E+00  7.77737E+00  8.37444E+00  9.58600E+00  8.07976E+00
   1.15340E+01  8.87442E+00  9.34217E+00  1.05233E+01  1.01458E+01  1.22814E+01  1.09104E+01  7.98421E+00
 NY points of the fit to the data follow
  -3.85225E+01 -3.78284E+01 -3.56025E+01 -3.24821E+01 -2.87881E+01 -2.43555E+01 -1.88753E+01 -1.26938E+01 -6.93182E+00 -3.12151E+00
  -2.47510E+00 -5.54376E+00 -1.15318E+01 -1.84806E+01 -2.45923E+01 -2.92032E+01 -3.22897E+01 -3.42791E+01 -3.53224E+01 -3.57013E+01
  -3.55670E+01 -3.53429E+01 -3.49263E+01 -3.42546E+01 -3.37567E+01 -3.30960E+01 -3.21748E+01 -3.10959E+01 -2.97895E+01 -2.84324E+01
  -2.69785E+01 -2.57103E+01 -2.51826E+01 -2.51287E+01 -2.54082E+01 -2.63722E+01 -2.78842E+01 -2.94110E+01 -3.04835E+01 -3.06396E+01
  -2.97089E+01 -2.79918E+01 -2.58184E+01 -2.33992E+01 -2.07895E+01 -1.83483E+01 -1.66426E+01 -1.63024E+01 -1.76682E+01 -2.04261E+01
  -2.37749E+01 -2.65545E+01 -2.81006E+01 -2.86384E+01 -2.83207E+01 -2.75106E+01 -2.64301E+01 -2.52325E+01 -2.41944E+01 -2.35584E+01
  -2.34668E+01 -2.40660E+01 -2.50940E+01 -2.61592E+01 -2.67832E+01 -2.68320E+01 -2.63823E+01 -2.55552E+01 -2.45172E+01 -2.35054E+01
  -2.26522E+01 -2.20512E+01 -2.17191E+01 -2.16385E+01 -2.17435E+01 -2.18913E+01 -2.19714E+01 -2.20200E+01 -2.20266E+01 -2.19335E+01
  -2.12390E+01 -2.05760E+01 -1.99400E+01 -1.87825E+01 -1.72624E+01 -1.56407E+01 -1.42929E+01 -1.37454E+01 -1.41450E+01 -1.54059E+01
  -1.70893E+01 -1.82787E+01 -1.86491E+01 -1.81158E+01 -1.52409E+01 -1.04992E+01 -5.95425E+00  1.67776E+00  1.25685E+01  2.46192E+01
   3.72817E+01  4.76693E+01  5.27466E+01  5.10423E+01  4.25640E+01  3.04755E+01  1.77869E+01  5.63186E+00 -4.24906E+00 -1.09036E+01
  -1.53125E+01 -1.75690E+01 -1.85683E+01 -1.90371E+01 -1.90134E+01 -1.88203E+01 -1.85476E+01 -1.81556E+01 -1.74655E+01 -1.54603E+01
  -1.06911E+01 -6.07136E+00 -6.00344E-01  7.59888E+00  1.76113E+01  2.78955E+01  3.59501E+01  3.88922E+01  3.55492E+01  2.63487E+01
   1.45629E+01  4.24627E+00 -3.36564E+00 -8.81892E+00 -1.21408E+01 -1.43603E+01 -1.54771E+01 -1.56887E+01 -1.54767E+01 -1.50538E+01
  -1.45671E+01 -1.41673E+01 -1.39364E+01 -1.38700E+01 -1.39209E+01 -1.40117E+01 -1.40827E+01 -1.41486E+01 -1.41870E+01 -1.41903E+01
  -1.41907E+01 -1.41802E+01 -1.41429E+01 -1.41216E+01 -1.41785E+01 -1.41546E+01 -1.40787E+01 -1.40626E+01 -1.41128E+01 -1.43944E+01
  -1.47240E+01 -1.48440E+01 -1.47167E+01 -1.43701E+01 -1.39970E+01 -1.38985E+01 -1.41696E+01 -1.47125E+01 -1.53499E+01 -1.58885E+01
  -1.62160E+01 -1.63376E+01 -1.64848E+01 -1.67219E+01 -1.70222E+01 -1.71511E+01 -1.69659E+01 -1.65486E+01 -1.60465E+01 -1.56345E+01
  -1.55119E+01 -1.53958E+01 -1.50931E+01 -1.46482E+01 -1.40227E+01 -1.32439E+01 -1.23501E+01 -1.11892E+01 -9.77932E+00 -8.31200E+00
  -7.07796E+00 -6.45690E+00 -6.32879E+00 -6.49355E+00 -6.83510E+00 -7.14591E+00 -7.25319E+00 -7.06532E+00 -6.67307E+00 -6.04876E+00
  -5.19341E+00 -4.28258E+00 -3.45098E+00 -3.08119E+00 -3.15172E+00 -3.87182E+00 -5.38812E+00 -7.18319E+00 -8.79036E+00 -9.77360E+00
  -9.84645E+00 -9.20720E+00 -7.49600E+00 -4.92381E+00 -2.17204E+00  1.05618E-02  9.17625E-01  2.83216E-01 -1.74521E+00 -4.95158E+00
  -8.29348E+00 -1.07251E+01 -1.18087E+01 -1.12415E+01 -9.15561E+00 -6.13057E+00 -2.87707E+00 -3.45768E-01  1.16039E+00  1.82972E+00
   1.98880E+00  1.86040E+00  1.72992E+00  1.82244E+00  2.17533E+00  2.65361E+00  3.01676E+00  3.26360E+00  3.33895E+00  3.10420E+00
   2.61958E+00  2.21502E+00  2.14384E+00  2.50544E+00  3.31637E+00  4.43257E+00  5.62675E+00  6.61131E+00  7.45865E+00  8.72987E+00
   9.89843E+00  1.14164E+01  1.44871E+01  2.18984E+01  3.16174E+01  4.00508E+01  5.05852E+01  6.32488E+01  7.62467E+01  8.75336E+01
   9.37827E+01  9.21061E+01  8.14491E+01  6.41701E+01  4.64066E+01  3.23528E+01  2.19385E+01  1.49423E+01  1.06009E+01  7.72333E+00
   6.42001E+00  5.72825E+00  5.32151E+00  5.05618E+00  4.86271E+00  4.66447E+00  4.41382E+00  4.09501E+00  3.74517E+00  3.42202E+00
   3.14780E+00  2.92787E+00  2.75847E+00  2.63113E+00  2.52745E+00  2.42958E+00  2.31778E+00  2.20172E+00  2.09575E+00  2.01250E+00
   1.96073E+00  1.94152E+00  1.94371E+00  1.96235E+00  1.97820E+00  1.97951E+00  1.97033E+00  1.95690E+00  1.94490E+00  1.94421E+00
   1.95831E+00  1.99021E+00  2.03570E+00  2.08594E+00  2.13591E+00  2.18347E+00  2.22627E+00  2.26581E+00  2.30307E+00  2.33933E+00
   2.37602E+00  2.41354E+00  2.45215E+00  2.49240E+00  2.53510E+00  2.58119E+00  2.63198E+00  2.68910E+00  2.75562E+00  2.83895E+00
   2.94900E+00  3.04975E+00  3.14514E+00  3.25980E+00  3.36769E+00  3.44213E+00  3.45842E+00  3.39996E+00  3.31311E+00  3.23510E+00
   3.18920E+00  3.25111E+00  3.44085E+00  3.74319E+00  4.14811E+00  4.61477E+00  5.10360E+00  5.58170E+00  6.03609E+00  6.53658E+00
   7.18626E+00  7.81410E+00  8.44946E+00  9.24671E+00  1.00746E+01  1.07997E+01  1.12854E+01  1.14678E+01  1.16113E+01  1.17509E+01
   1.21084E+01  1.30623E+01  1.46166E+01  1.65888E+01  1.87774E+01  2.08248E+01  2.24296E+01  2.33359E+01  2.34608E+01  2.30247E+01
   2.22506E+01  2.12587E+01  2.01922E+01  1.90995E+01  1.80422E+01  1.70645E+01  1.61646E+01  1.53402E+01  1.45869E+01  1.38978E+01
   1.32657E+01  1.26846E+01  1.21504E+01  1.16606E+01  1.12143E+01  1.08117E+01  1.04531E+01  1.01389E+01  9.86932E+00  9.64419E+00
   9.46340E+00  9.32660E+00  9.23356E+00  9.18399E+00  9.17790E+00  9.21554E+00  9.29762E+00  9.42502E+00  9.59891E+00  9.82044E+00
   1.00908E+01  1.04110E+01  1.07816E+01  1.12024E+01  1.16722E+01  1.21885E+01  1.27475E+01  1.33433E+01  1.39688E+01  1.46146E+01
   1.52696E+01  1.59213E+01  1.65559E+01  1.71591E+01  1.77163E+01  1.82134E+01  1.86374E+01  1.89770E+01  1.92235E+01  1.93707E+01
   1.94159E+01  1.93592E+01  1.92042E+01  1.89573E+01  1.86278E+01  1.82266E+01  1.77666E+01  1.72612E+01  1.67240E+01  1.61683E+01
   1.56066E+01  1.50500E+01  1.45080E+01  1.39884E+01  1.34972E+01  1.30386E+01  1.26155E+01  1.22289E+01  1.18791E+01  1.15650E+01
   1.12851E+01  1.10371E+01  1.08189E+01  1.06275E+01  1.04605E+01  1.03152E+01  1.01892E+01  1.00802E+01  9.98630E+00  9.90547E+00
   9.83613E+00  9.77676E+00  9.72622E+00  9.68338E+00  9.64732E+00  9.61713E+00  9.59213E+00  9.57167E+00  9.55534E+00  9.54260E+00
   9.53310E+00  9.52639E+00  9.52222E+00  9.52032E+00  9.52053E+00  9.52261E+00  9.52638E+00  9.53161E+00  9.53824E+00  9.54612E+00
   9.55522E+00  9.56535E+00  9.57645E+00  9.58837E+00  9.60113E+00  9.61466E+00  9.62895E+00  9.64383E+00  9.65930E+00  9.67527E+00
   9.69180E+00  9.70882E+00  9.72633E+00  9.74420E+00  9.76246E+00  9.78106E+00  9.80006E+00  9.81939E+00  9.83905E+00  9.85892E+00
   9.87907E+00  9.89946E+00  9.92015E+00  9.94106E+00  9.96219E+00  9.98346E+00  1.00049E+01  1.00266E+01  1.00485E+01  1.00705E+01
   1.00927E+01  1.01149E+01  1.01373E+01  1.01598E+01  1.01825E+01  1.02052E+01  1.02279E+01  1.02507E+01
 NY background values follow
    -4.540E+01   -4.516E+01   -4.493E+01   -4.469E+01   -4.446E+01   -4.422E+01   -4.399E+01   -4.375E+01   -4.352E+01   -4.329E+01
    -4.305E+01   -4.282E+01   -4.258E+01   -4.235E+01   -4.211E+01   -4.188E+01   -4.165E+01   -4.141E+01   -4.118E+01   -4.095E+01
    -4.071E+01   -4.048E+01   -4.025E+01   -4.002E+01   -3.979E+01   -3.955E+01   -3.932E+01   -3.909E+01   -3.886E+01   -3.863E+01
    -3.840E+01   -3.817E+01   -3.794E+01   -3.771E+01   -3.748E+01   -3.725E+01   -3.703E+01   -3.680E+01   -3.657E+01   -3.635E+01
    -3.612E+01   -3.589E+01   -3.567E+01   -3.544E+01   -3.522E+01   -3.500E+01   -3.477E+01   -3.455E+01   -3.433E+01   -3.411E+01
    -3.389E+01   -3.367E+01   -3.345E+01   -3.323E+01   -3.301E+01   -3.280E+01   -3.258E+01   -3.236E+01   -3.215E+01   -3.193E+01
    -3.172E+01   -3.151E+01   -3.129E+01   -3.108E+01   -3.087E+01   -3.066E+01   -3.045E+01   -3.024E+01   -3.003E+01   -2.982E+01
    -2.962E+01   -2.941E+01   -2.920E+01   -2.900E+01   -2.879E+01   -2.859E+01   -2.839E+01   -2.819E+01   -2.799E+01   -2.779E+01
    -2.759E+01   -2.739E+01   -2.719E+01   -2.699E+01   -2.680E+01   -2.660E+01   -2.641E+01   -2.621E+01   -2.602E+01   -2.583E+01
    -2.564E+01   -2.545E+01   -2.526E+01   -2.507E+01   -2.488E+01   -2.470E+01   -2.451E+01   -2.433E+01   -2.414E+01   -2.396E+01
    -2.378E+01   -2.360E+01   -2.342E+01   -2.324E+01   -2.306E+01   -2.288E+01   -2.271E+01   -2.253E+01   -2.235E+01   -2.218E+01
    -2.201E+01   -2.183E+01   -2.166E+01   -2.149E+01   -2.132E+01   -2.115E+01   -2.098E+01   -2.081E+01   -2.065E+01   -2.048E+01
    -2.031E+01   -2.015E+01   -1.998E+01   -1.982E+01   -1.966E+01   -1.950E+01   -1.934E+01   -1.918E+01   -1.902E+01   -1.886E+01
    -1.870E+01   -1.854E+01   -1.839E+01   -1.823E+01   -1.808E+01   -1.792E+01   -1.777E+01   -1.762E+01   -1.746E+01   -1.731E+01
    -1.716E+01   -1.701E+01   -1.686E+01   -1.672E+01   -1.657E+01   -1.642E+01   -1.627E+01   -1.613E+01   -1.598E+01   -1.584E+01
    -1.569E+01   -1.555E+01   -1.541E+01   -1.527E+01   -1.512E+01   -1.498E+01   -1.484E+01   -1.470E+01   -1.456E+01   -1.443E+01
    -1.429E+01   -1.415E+01   -1.401E+01   -1.388E+01   -1.374E+01   -1.360E+01   -1.347E+01   -1.333E+01   -1.320E+01   -1.307E+01
    -1.293E+01   -1.280E+01   -1.267E+01   -1.254E+01   -1.240E+01   -1.227E+01   -1.214E+01   -1.201E+01   -1.188E+01   -1.175E+01
    -1.162E+01   -1.150E+01   -1.137E+01   -1.124E+01   -1.111E+01   -1.098E+01   -1.086E+01   -1.073E+01   -1.060E+01   -1.048E+01
    -1.035E+01   -1.023E+01   -1.010E+01   -9.980E+00   -9.857E+00   -9.734E+00   -9.611E+00   -9.489E+00   -9.368E+00   -9.247E+00
    -9.127E+00   -9.007E+00   -8.888E+00   -8.769E+00   -8.651E+00   -8.534E+00   -8.417E+00   -8.301E+00   -8.185E+00   -8.070E+00
    -7.956E+00   -7.842E+00   -7.729E+00   -7.617E+00   -7.505E+00   -7.394E+00   -7.284E+00   -7.175E+00   -7.066E+00   -6.958E+00
    -6.850E+00   -6.744E+00   -6.638E+00   -6.533E+00   -6.429E+00   -6.325E+00   -6.223E+00   -6.121E+00   -6.020E+00   -5.919E+00
    -5.820E+00   -5.721E+00   -5.623E+00   -5.526E+00   -5.430E+00   -5.334E+00   -5.239E+00   -5.145E+00   -5.051E+00   -4.959E+00
    -4.867E+00   -4.775E+00   -4.684E+00   -4.594E+00   -4.505E+00   -4.416E+00   -4.328E+00   -4.241E+00   -4.154E+00   -4.068E+00
    -3.982E+00   -3.897E+00   -3.812E+00   -3.729E+00   -3.645E+00   -3.562E+00   -3.480E+00   -3.399E+00   -3.318E+00   -3.237E+00
    -3.157E+00   -3.077E+00   -2.998E+00   -2.920E+00   -2.842E+00   -2.764E+00   -2.687E+00   -2.610E+00   -2.534E+00   -2.458E+00
    -2.383E+00   -2.308E+00   -2.233E+00   -2.159E+00   -2.085E+00   -2.012E+00   -1.939E+00   -1.866E+00   -1.794E+00   -1.722E+00
    -1.651E+00   -1.579E+00   -1.509E+00   -1.438E+00   -1.368E+00   -1.298E+00   -1.229E+00   -1.160E+00   -1.091E+00   -1.022E+00
    -9.541E-01   -8.863E-01   -8.187E-01   -7.514E-01   -6.843E-01   -6.176E-01   -5.511E-01   -4.849E-01   -4.190E-01   -3.533E-01
    -2.879E-01   -2.227E-01   -1.577E-01   -9.300E-02   -2.851E-02    3.576E-02    9.981E-02    1.636E-01    2.273E-01    2.907E-01
     3.540E-01    4.170E-01    4.799E-01    5.426E-01    6.051E-01    6.675E-01    7.297E-01    7.917E-01    8.536E-01    9.153E-01
     9.769E-01    1.038E+00    1.100E+00    1.161E+00    1.222E+00    1.283E+00    1.343E+00    1.404E+00    1.464E+00    1.525E+00
     1.585E+00    1.645E+00    1.704E+00    1.764E+00    1.824E+00    1.883E+00    1.942E+00    2.001E+00    2.060E+00    2.119E+00
     2.178E+00    2.236E+00    2.295E+00    2.353E+00    2.411E+00    2.469E+00    2.527E+00    2.585E+00    2.643E+00    2.700E+00
     2.757E+00    2.815E+00    2.872E+00    2.929E+00    2.985E+00    3.042E+00    3.099E+00    3.155E+00    3.211E+00    3.268E+00
     3.324E+00    3.380E+00    3.435E+00    3.491E+00    3.547E+00    3.602E+00    3.657E+00    3.713E+00    3.768E+00    3.822E+00
     3.877E+00    3.932E+00    3.986E+00    4.041E+00    4.095E+00    4.149E+00    4.203E+00    4.256E+00    4.310E+00    4.363E+00
     4.417E+00    4.470E+00    4.523E+00    4.575E+00    4.628E+00    4.681E+00    4.733E+00    4.785E+00    4.837E+00    4.889E+00
     4.940E+00    4.992E+00    5.043E+00    5.094E+00    5.145E+00    5.195E+00    5.246E+00    5.296E+00    5.346E+00    5.396E+00
     5.446E+00    5.496E+00    5.545E+00    5.594E+00    5.643E+00    5.692E+00    5.740E+00    5.789E+00    5.837E+00    5.885E+00
     5.933E+00    5.980E+00    6.027E+00    6.074E+00    6.121E+00    6.168E+00    6.214E+00    6.261E+00    6.307E+00    6.352E+00
     6.398E+00    6.443E+00    6.488E+00    6.533E+00    6.578E+00    6.622E+00    6.666E+00    6.710E+00    6.754E+00    6.798E+00
     6.841E+00    6.884E+00    6.927E+00    6.969E+00    7.012E+00    7.054E+00    7.095E+00    7.137E+00    7.178E+00    7.220E+00
     7.260E+00    7.301E+00    7.341E+00    7.381E+00    7.421E+00    7.461E+00    7.500E+00    7.539E+00    7.578E+00    7.617E+00
     7.655E+00    7.693E+00    7.731E+00    7.769E+00    7.806E+00    7.843E+00    7.880E+00    7.916E+00    7.953E+00    7.989E+00
     8.025E+00    8.060E+00    8.096E+00    8.131E+00    8.167E+00    8.202E+00    8.236E+00    8.271E+00    8.306E+00    8.340E+00
     8.374E+00    8.408E+00    8.442E+00    8.476E+00    8.510E+00    8.543E+00    8.577E+00    8.610E+00    8.644E+00    8.677E+00
     8.710E+00    8.744E+00    8.777E+00    8.810E+00    8.843E+00    8.876E+00    8.909E+00    8.942E+00    8.975E+00    9.008E+00
     9.041E+00    9.074E+00    9.107E+00    9.140E+00    9.173E+00    9.206E+00    9.239E+00    9.273E+00
 Ala      Conc. = 4.32E+01
