 LCModel (Version 6.3-1L) Copyright: S.W. Provencher.          Ref.: Magn. Reson. Med. 30:672-679 (1993).                
 Slice#2 Row#11 Col#5  PD_24_press_1_raw_act
 36 lines in following concentration table = NCONC+1
    Conc.  %SD /Cr+PCr  Metabolite                                         
   65.888 208% 3.5E-02 Ala                                                 
    0.000 999%   0.000 Asp                                                 
  251.910 115%   0.133 Cr                                                  
 1.64E+03  18%   0.867 PCr                                                 
    0.000 999%   0.000 GABA                                                
  126.049 175% 6.7E-02 Glc                                                 
  518.691  58%   0.274 Gln                                                 
 1.49E+03  23%   0.784 Glu                                                 
  626.167  18%   0.331 GPC                                                 
  334.405  35%   0.177 PCh                                                 
  531.932  18%   0.281 GSH                                                 
 2.25E+03  15%   1.188 Ins                                                 
  176.886  89% 9.3E-02 Lac                                                 
 2.98E+03   6%   1.573 NAA                                                 
  234.592  87%   0.124 NAAG                                                
  322.281  11%   0.170 Scyllo                                              
  366.211  77%   0.193 Tau                                                 
  105.035 118% 5.5E-02 -CrCH2                                              
  960.572   3%   0.507 GPC+PCh                                             
 3.21E+03   3%   1.697 NAA+NAAG                                            
 1.89E+03   4%   1.000 Cr+PCr                                              
 2.00E+03  26%   1.058 Glu+Gln                                             
 2.22E+03  28%   1.174 Lip13a                                              
    0.000 999%   0.000 Lip13b                                              
  355.885  97%   0.188 Lip09                                               
 1.36E+03  27%   0.716 MM09                                                
  494.840  49%   0.261 Lip20                                               
 3.17E+03  15%   1.674 MM20                                                
  568.266  47%   0.300 MM12                                                
  457.758  71%   0.242 MM14                                                
  268.191  74%   0.142 MM17                                                
 2.22E+03  28%   1.174 Lip13a+Lip13b                                       
 3.25E+03  14%   1.715 MM14+Lip13a+Lip13b+MM12                             
 1.71E+03  11%   0.904 MM09+Lip09                                          
 3.67E+03  12%   1.936 MM20+Lip20                                          
   6 lines in following misc. output table
  FWHM = 0.076 ppm    S/N =  14                                            
  Data shift = 0.015 ppm                                                   
  Ph: -49 deg     -14.9 deg/ppm                                            
  alphaB,S = 2.4E+00,   9.3E+01                                            
   14 spline knots.   Ns = 9(1)                                            
  (16) 2 infls.   (11) 1 extrs.                                            
  498 points on ppm-axis = NY
      4.000000     3.992357     3.984714     3.977070     3.969427     3.961784     3.954141     3.946497     3.938854     3.931211
      3.923568     3.915925     3.908281     3.900638     3.892995     3.885352     3.877708     3.870065     3.862422     3.854779
      3.847136     3.839492     3.831849     3.824206     3.816563     3.808919     3.801276     3.793633     3.785990     3.778347
      3.770703     3.763060     3.755417     3.747774     3.740130     3.732487     3.724844     3.717201     3.709558     3.701914
      3.694271     3.686628     3.678985     3.671341     3.663698     3.656055     3.648412     3.640769     3.633125     3.625482
      3.617839     3.610196     3.602552     3.594909     3.587266     3.579623     3.571980     3.564336     3.556693     3.549050
      3.541407     3.533763     3.526120     3.518477     3.510834     3.503191     3.495547     3.487904     3.480261     3.472618
      3.464974     3.457331     3.449688     3.442045     3.434402     3.426758     3.419115     3.411472     3.403829     3.396185
      3.388542     3.380899     3.373256     3.365613     3.357969     3.350326     3.342683     3.335040     3.327396     3.319753
      3.312110     3.304467     3.296824     3.289180     3.281537     3.273894     3.266251     3.258607     3.250964     3.243321
      3.235678     3.228034     3.220391     3.212748     3.205105     3.197462     3.189818     3.182175     3.174532     3.166889
      3.159245     3.151602     3.143959     3.136316     3.128673     3.121029     3.113386     3.105743     3.098100     3.090456
      3.082813     3.075170     3.067527     3.059884     3.052240     3.044597     3.036954     3.029311     3.021667     3.014024
      3.006381     2.998738     2.991095     2.983451     2.975808     2.968165     2.960522     2.952878     2.945235     2.937592
      2.929949     2.922306     2.914662     2.907019     2.899376     2.891733     2.884089     2.876446     2.868803     2.861160
      2.853517     2.845873     2.838230     2.830587     2.822944     2.815300     2.807657     2.800014     2.792371     2.784728
      2.777084     2.769441     2.761798     2.754155     2.746511     2.738868     2.731225     2.723582     2.715939     2.708295
      2.700652     2.693009     2.685366     2.677722     2.670079     2.662436     2.654793     2.647150     2.639506     2.631863
      2.624220     2.616577     2.608933     2.601290     2.593647     2.586004     2.578361     2.570717     2.563074     2.555431
      2.547788     2.540144     2.532501     2.524858     2.517215     2.509572     2.501928     2.494285     2.486642     2.478999
      2.471355     2.463712     2.456069     2.448426     2.440783     2.433139     2.425496     2.417853     2.410210     2.402566
      2.394923     2.387280     2.379637     2.371994     2.364350     2.356707     2.349064     2.341421     2.333777     2.326134
      2.318491     2.310848     2.303205     2.295561     2.287918     2.280275     2.272632     2.264988     2.257345     2.249702
      2.242059     2.234416     2.226772     2.219129     2.211486     2.203843     2.196199     2.188556     2.180913     2.173270
      2.165627     2.157983     2.150340     2.142697     2.135054     2.127410     2.119767     2.112124     2.104481     2.096838
      2.089194     2.081551     2.073908     2.066265     2.058621     2.050978     2.043335     2.035692     2.028049     2.020405
      2.012762     2.005119     1.997476     1.989833     1.982190     1.974546     1.966903     1.959260     1.951617     1.943974
      1.936331     1.928688     1.921045     1.913402     1.905759     1.898115     1.890472     1.882829     1.875186     1.867543
      1.859900     1.852257     1.844614     1.836971     1.829327     1.821684     1.814041     1.806398     1.798755     1.791112
      1.783469     1.775826     1.768183     1.760540     1.752896     1.745253     1.737610     1.729967     1.722324     1.714681
      1.707038     1.699395     1.691752     1.684108     1.676465     1.668822     1.661179     1.653536     1.645893     1.638250
      1.630607     1.622964     1.615321     1.607677     1.600034     1.592391     1.584748     1.577105     1.569462     1.561819
      1.554176     1.546533     1.538890     1.531246     1.523603     1.515960     1.508317     1.500674     1.493031     1.485388
      1.477745     1.470102     1.462458     1.454815     1.447172     1.439529     1.431886     1.424243     1.416600     1.408957
      1.401314     1.393671     1.386027     1.378384     1.370741     1.363098     1.355455     1.347812     1.340169     1.332526
      1.324883     1.317240     1.309596     1.301953     1.294310     1.286667     1.279024     1.271381     1.263738     1.256095
      1.248452     1.240808     1.233165     1.225522     1.217879     1.210236     1.202593     1.194950     1.187307     1.179664
      1.172021     1.164377     1.156734     1.149091     1.141448     1.133805     1.126162     1.118519     1.110876     1.103233
      1.095590     1.087946     1.080303     1.072660     1.065017     1.057374     1.049731     1.042088     1.034445     1.026802
      1.019158     1.011515     1.003872     0.996229     0.988586     0.980943     0.973300     0.965657     0.958014     0.950371
      0.942727     0.935084     0.927441     0.919798     0.912155     0.904512     0.896869     0.889226     0.881583     0.873940
      0.866296     0.858653     0.851010     0.843367     0.835724     0.828081     0.820438     0.812795     0.805152     0.797508
      0.789865     0.782222     0.774579     0.766936     0.759293     0.751650     0.744007     0.736364     0.728721     0.721077
      0.713434     0.705791     0.698148     0.690505     0.682862     0.675219     0.667576     0.659933     0.652290     0.644646
      0.637003     0.629360     0.621717     0.614074     0.606431     0.598788     0.591145     0.583502     0.575858     0.568215
      0.560572     0.552929     0.545286     0.537643     0.530000     0.522357     0.514714     0.507071     0.499427     0.491784
      0.484141     0.476498     0.468855     0.461212     0.453569     0.445925     0.438282     0.430639     0.422996     0.415353
      0.407710     0.400067     0.392424     0.384780     0.377137     0.369494     0.361851     0.354208     0.346565     0.338922
      0.331278     0.323635     0.315992     0.308349     0.300706     0.293063     0.285420     0.277777     0.270133     0.262490
      0.254847     0.247204     0.239561     0.231918     0.224275     0.216631     0.208988     0.201345
 NY phased data points follow
  -5.26681E+01 -5.15027E+01 -4.73044E+01 -4.09972E+01 -3.83907E+01 -3.00232E+01 -2.19688E+01 -1.40706E+01 -1.85427E+01 -1.59900E+01
  -1.19278E+01 -1.62448E+01 -1.53155E+01 -2.16471E+01 -2.48818E+01 -3.48307E+01 -3.73834E+01 -4.45750E+01 -4.00093E+01 -5.23455E+01
  -4.60390E+01 -4.56160E+01 -4.55038E+01 -4.90527E+01 -3.92774E+01 -3.60546E+01 -3.80879E+01 -3.51630E+01 -3.23287E+01 -3.20095E+01
  -3.18622E+01 -3.41880E+01 -3.08426E+01 -3.42751E+01 -3.10978E+01 -3.92462E+01 -3.67617E+01 -3.44818E+01 -3.34030E+01 -3.64201E+01
  -3.34486E+01 -3.03722E+01 -2.63181E+01 -2.93075E+01 -2.90004E+01 -2.76829E+01 -2.60021E+01 -2.94792E+01 -2.44085E+01 -2.65019E+01
  -2.56703E+01 -3.26742E+01 -2.74732E+01 -3.93120E+01 -3.59589E+01 -3.74065E+01 -3.08245E+01 -3.26920E+01 -3.12687E+01 -3.58744E+01
  -3.19368E+01 -3.34183E+01 -3.64161E+01 -3.39944E+01 -3.83456E+01 -3.95658E+01 -3.54982E+01 -3.62033E+01 -4.24779E+01 -3.60442E+01
  -3.35100E+01 -3.43075E+01 -2.63678E+01 -3.40190E+01 -3.02188E+01 -2.96472E+01 -2.87996E+01 -2.82919E+01 -3.01993E+01 -3.21681E+01
  -2.40132E+01 -2.63107E+01 -2.57606E+01 -2.32187E+01 -2.40541E+01 -2.59444E+01 -1.63564E+01 -2.71918E+01 -2.16871E+01 -2.40290E+01
  -1.84906E+01 -1.55016E+01 -2.04780E+01 -1.73309E+01 -1.53755E+01 -1.22277E+01  7.17485E-01  3.57245E+00  1.14066E+01  2.02958E+01
   2.58617E+01  2.98487E+01  3.66836E+01  3.31780E+01  3.34733E+01  2.66470E+01  1.62234E+01  4.39023E-01 -4.48799E+00 -1.34789E+01
  -1.51142E+01 -2.45630E+01 -2.07734E+01 -2.79276E+01 -2.54647E+01 -2.07331E+01 -2.02186E+01 -2.39893E+01 -2.13126E+01 -2.04707E+01
  -1.91598E+01 -1.48523E+01 -5.90137E+00  1.26370E+00  1.49401E+01  1.85005E+01  2.24445E+01  2.54402E+01  2.71369E+01  2.18778E+01
   1.48436E+01  6.34974E+00  2.00669E+00 -8.23896E+00 -1.46042E+01 -2.74118E+01 -2.46357E+01 -3.04018E+01 -2.21009E+01 -2.90115E+01
  -2.41350E+01 -1.95128E+01 -2.14558E+01 -2.26623E+01 -2.38749E+01 -1.96953E+01 -2.02139E+01 -2.26077E+01 -2.45719E+01 -1.97906E+01
  -2.09615E+01 -1.74851E+01 -2.25928E+01 -2.40397E+01 -1.83859E+01 -2.25833E+01 -2.32276E+01 -2.42556E+01 -2.38685E+01 -2.08502E+01
  -2.30096E+01 -2.30969E+01 -2.43409E+01 -2.41643E+01 -2.09672E+01 -2.32969E+01 -2.09680E+01 -2.00585E+01 -2.20185E+01 -2.58170E+01
  -2.68573E+01 -2.92443E+01 -2.95615E+01 -3.31473E+01 -2.61580E+01 -3.22203E+01 -2.94362E+01 -2.80697E+01 -2.65934E+01 -3.13875E+01
  -2.90914E+01 -2.90598E+01 -3.28065E+01 -2.79958E+01 -2.60385E+01 -2.74018E+01 -2.14561E+01 -2.18226E+01 -1.96502E+01 -2.04979E+01
  -1.60652E+01 -9.45393E+00 -9.26286E+00 -1.24220E+01 -1.08429E+01 -1.99801E+01 -1.38946E+01 -1.43587E+01 -1.17089E+01 -1.23291E+01
  -1.60732E+01 -1.38830E+01 -1.29116E+01 -1.15741E+01 -8.41608E+00 -1.55749E+01 -1.47195E+01 -9.77570E+00 -1.06163E+01 -1.43927E+01
  -1.73249E+01 -1.28634E+01 -1.12219E+01 -7.92363E+00 -3.14721E+00 -9.91017E+00 -5.54269E+00 -5.03609E+00 -5.77321E+00 -1.11117E+01
  -1.06054E+01 -1.18096E+01 -1.16409E+01 -1.38983E+01 -1.25408E+01 -9.89347E+00 -8.59789E+00 -5.08778E+00 -6.33654E+00 -5.32005E+00
  -1.39038E+00 -2.62501E+00 -4.22038E+00 -2.70216E+00  1.10293E+00 -9.23265E-01 -2.59971E+00 -2.62492E+00 -1.75395E+00 -1.01330E+01
  -9.26891E+00 -3.66947E+00 -5.71086E+00 -1.77222E+00 -3.61373E+00 -5.29359E+00 -5.17326E+00  4.41792E-01  3.88087E-01  4.04842E+00
   5.80692E+00  1.15114E+01  1.76828E+01  2.44921E+01  3.18375E+01  4.11702E+01  5.55005E+01  6.41145E+01  7.01194E+01  8.05557E+01
   8.21057E+01  8.33024E+01  7.68968E+01  6.27631E+01  5.02611E+01  4.16822E+01  2.71664E+01  1.76118E+01  5.54770E+00  4.84937E+00
   1.52402E+00  2.83140E+00 -4.07516E-01  1.22542E+00 -2.90345E+00  1.84926E+00 -1.39783E+00 -2.60803E+00  1.56312E+00 -1.74884E+00
   2.59723E+00 -4.14366E+00 -8.96786E-01 -5.38799E+00 -1.85154E+00 -5.21231E+00 -8.69681E+00 -3.11191E+00 -1.23137E+00 -6.52725E+00
  -5.10685E+00 -3.86422E+00 -6.47175E+00 -8.77161E+00 -7.46747E+00 -6.13497E+00 -5.65320E+00 -6.48307E+00 -1.28255E+00 -2.71941E+00
  -3.43788E-01 -2.76495E+00 -5.45739E+00 -6.13493E+00 -1.34042E+00 -2.24390E+00 -2.03001E+00 -1.33112E+00 -1.11378E+00 -6.80034E+00
  -3.33468E+00 -4.60610E+00  1.25833E-01 -1.18177E+00  4.11336E+00  6.44685E-01 -6.35951E-01  5.98709E-01 -2.93675E+00 -1.68359E+00
   1.07761E+00  2.59502E-01 -1.52285E+00  1.15211E+00  2.17840E+00 -9.98326E-01  1.51922E+00  3.34136E+00 -2.98103E+00 -2.43349E-01
   2.01212E-01  1.55624E+00  4.36772E+00  2.12050E+00  6.53382E-01 -4.00969E-01 -1.05032E+00  2.53714E+00  3.13912E+00  5.83595E+00
   7.72886E+00  2.80702E+00  7.33451E+00  3.11567E+00  8.24360E+00  8.49678E+00  7.27131E+00  3.07462E+00  7.78597E+00  1.05721E+01
   9.14240E+00  6.34774E+00  7.25618E+00  5.22471E+00  5.25296E+00  7.22323E+00  8.34217E+00  6.78916E+00  1.10420E+01  1.29034E+01
   8.71702E+00  1.07535E+01  9.45171E+00  7.93731E+00  6.71677E+00  1.36324E+01  1.12616E+01  6.23151E+00  1.00532E+01  1.05228E+01
   6.89855E+00  7.59841E+00  4.83197E+00  1.19002E+01  6.63461E+00  6.91808E+00  9.05139E+00  4.05472E+00  8.68415E+00  5.60219E+00
   4.31764E+00  6.62416E+00  8.61420E+00  4.14151E+00  6.01490E+00  1.76028E+00  2.52947E+00  2.28738E+00  6.78445E+00  7.15475E+00
   4.38151E+00  3.74206E+00  3.95452E+00  9.49317E+00  4.01792E+00  7.22486E+00  1.15069E+01  8.44352E+00  6.06647E+00  1.23145E+01
   1.03209E+01  9.07754E+00  8.18462E+00  1.12992E+01  1.19167E+01  1.20232E+01  1.62752E+01  1.52686E+01  1.44205E+01  1.62147E+01
   1.50657E+01  1.02339E+01  1.42577E+01  1.08874E+01  1.07511E+01  1.12798E+01  1.30709E+01  8.68846E+00  1.12032E+01  9.44317E+00
   8.77749E+00  9.61870E+00  8.87615E+00  6.87490E+00  2.05691E+00  5.89601E+00  8.15562E+00  2.76990E+00  8.03875E+00  3.83664E+00
   6.43813E+00  4.72125E+00  5.19576E+00  5.55253E+00  3.64890E+00  6.71795E+00  2.59867E+00 -1.13743E-01  5.41997E+00  7.12612E+00
   1.31570E-01  1.12231E+00  5.84093E+00  2.63989E+00  3.37217E+00  7.77776E+00  1.57572E+00  1.44245E+00  4.17709E+00  1.53011E+00
   3.41522E+00  4.09167E+00  9.13236E-01  2.21293E+00  5.06444E+00  3.03848E+00  2.23820E+00  2.23084E+00  2.31325E+00  3.37518E+00
  -1.07508E+00  9.54991E-01  6.45078E+00  6.68413E+00  4.65181E+00  4.92418E-01  2.77438E+00  2.00701E+00  3.45235E+00  4.58362E+00
   2.49148E+00  1.82008E+00  5.77118E+00  5.94155E+00  3.06074E+00  3.09990E+00  2.94533E+00  2.66930E+00  4.50457E+00  3.90771E+00
   3.49862E+00  1.42427E+00  1.82378E+00  4.10124E+00  4.88048E+00  3.85246E+00  6.43923E+00  2.63477E+00 -2.89422E-01  1.41652E-01
   4.84105E+00  3.58501E+00  2.52614E+00  3.26745E-01 -2.69352E-01 -1.90476E-01  3.56446E+00  5.31911E-01
 NY points of the fit to the data follow
  -4.57988E+01 -4.40755E+01 -4.18993E+01 -3.89733E+01 -3.47252E+01 -2.95355E+01 -2.44512E+01 -2.02503E+01 -1.70346E+01 -1.46560E+01
  -1.36186E+01 -1.47323E+01 -1.78344E+01 -2.19681E+01 -2.66848E+01 -3.18507E+01 -3.67444E+01 -4.04402E+01 -4.25096E+01 -4.33958E+01
  -4.35777E+01 -4.31855E+01 -4.26370E+01 -4.19473E+01 -4.08042E+01 -3.91711E+01 -3.73156E+01 -3.55349E+01 -3.38170E+01 -3.21587E+01
  -3.08614E+01 -3.01728E+01 -3.01447E+01 -3.07190E+01 -3.18769E+01 -3.34978E+01 -3.52338E+01 -3.65896E+01 -3.71810E+01 -3.71017E+01
  -3.64520E+01 -3.50847E+01 -3.30975E+01 -3.09828E+01 -2.91138E+01 -2.76731E+01 -2.67949E+01 -2.66205E+01 -2.73382E+01 -2.88568E+01
  -3.07324E+01 -3.26539E+01 -3.44430E+01 -3.58987E+01 -3.66666E+01 -3.65464E+01 -3.57625E+01 -3.47549E+01 -3.38638E+01 -3.32794E+01
  -3.30328E+01 -3.31166E+01 -3.33681E+01 -3.36762E+01 -3.39941E+01 -3.42238E+01 -3.41869E+01 -3.37821E+01 -3.31422E+01 -3.24019E+01
  -3.16430E+01 -3.09782E+01 -3.05501E+01 -3.04126E+01 -3.05036E+01 -3.06941E+01 -3.09153E+01 -3.11164E+01 -3.08625E+01 -3.02845E+01
  -2.96579E+01 -2.86582E+01 -2.71046E+01 -2.52941E+01 -2.36376E+01 -2.23452E+01 -2.13267E+01 -2.05609E+01 -2.04660E+01 -2.12475E+01
  -2.24238E+01 -2.32095E+01 -2.25121E+01 -2.08536E+01 -1.84616E+01 -1.33684E+01 -5.36205E+00  3.56395E+00  1.22902E+01  2.06079E+01
   2.81660E+01  3.39562E+01  3.64733E+01  3.51191E+01  3.08341E+01  2.42575E+01  1.51866E+01  4.60868E+00 -5.37116E+00 -1.34167E+01
  -1.94146E+01 -2.35984E+01 -2.61558E+01 -2.73704E+01 -2.77433E+01 -2.77821E+01 -2.76591E+01 -2.70566E+01 -2.45857E+01 -2.07178E+01
  -1.67550E+01 -1.15058E+01 -4.17885E+00  4.05666E+00  1.15353E+01  1.74542E+01  2.19498E+01  2.50655E+01  2.55479E+01  2.22494E+01
   1.61304E+01  8.80031E+00  6.37969E-01 -7.93257E+00 -1.54580E+01 -2.04608E+01 -2.27546E+01 -2.33383E+01 -2.33234E+01 -2.31803E+01
  -2.28693E+01 -2.24194E+01 -2.19404E+01 -2.15739E+01 -2.14123E+01 -2.14656E+01 -2.16865E+01 -2.19819E+01 -2.22629E+01 -2.24681E+01
  -2.25762E+01 -2.26231E+01 -2.26979E+01 -2.27774E+01 -2.28313E+01 -2.28948E+01 -2.29554E+01 -2.30499E+01 -2.31500E+01 -2.31725E+01
  -2.31558E+01 -2.31946E+01 -2.32726E+01 -2.33209E+01 -2.33431E+01 -2.34020E+01 -2.35600E+01 -2.38563E+01 -2.42316E+01 -2.46194E+01
  -2.51082E+01 -2.56627E+01 -2.61310E+01 -2.63587E+01 -2.63616E+01 -2.63094E+01 -2.63111E+01 -2.62715E+01 -2.61218E+01 -2.58538E+01
  -2.55187E+01 -2.51574E+01 -2.46847E+01 -2.40198E+01 -2.32047E+01 -2.22772E+01 -2.11764E+01 -1.99078E+01 -1.85691E+01 -1.73717E+01
  -1.63888E+01 -1.56565E+01 -1.51922E+01 -1.50182E+01 -1.50756E+01 -1.51927E+01 -1.52596E+01 -1.51728E+01 -1.48122E+01 -1.41475E+01
  -1.32909E+01 -1.25488E+01 -1.20226E+01 -1.17763E+01 -1.19813E+01 -1.25994E+01 -1.34594E+01 -1.43173E+01 -1.50320E+01 -1.55747E+01
  -1.56508E+01 -1.50464E+01 -1.39310E+01 -1.27283E+01 -1.16775E+01 -1.07339E+01 -1.00510E+01 -1.00699E+01 -1.08657E+01 -1.20030E+01
  -1.30644E+01 -1.39334E+01 -1.45777E+01 -1.46980E+01 -1.39271E+01 -1.23823E+01 -1.05801E+01 -8.86069E+00 -7.21989E+00 -5.78955E+00
  -4.85125E+00 -4.39962E+00 -4.17392E+00 -3.95518E+00 -3.74656E+00 -3.56072E+00 -3.33706E+00 -3.09088E+00 -2.97958E+00 -3.03902E+00
  -3.12924E+00 -3.12422E+00 -3.02253E+00 -2.79832E+00 -2.30221E+00 -1.45725E+00 -3.39161E-01  1.03798E+00  2.50941E+00  4.03597E+00
   6.07946E+00  1.04049E+01  1.69613E+01  2.35970E+01  3.15813E+01  4.23607E+01  5.45557E+01  6.54278E+01  7.35017E+01  7.90262E+01
   8.22944E+01  8.17619E+01  7.57868E+01  6.55688E+01  5.36802E+01  4.08929E+01  2.74832E+01  1.53438E+01  6.74448E+00  2.23599E+00
   4.46116E-01 -2.77560E-01 -8.16108E-01 -1.23590E+00 -1.56094E+00 -1.83608E+00 -2.10157E+00 -2.36348E+00 -2.61788E+00 -2.86824E+00
  -3.12209E+00 -3.36916E+00 -3.58318E+00 -3.74584E+00 -3.86578E+00 -3.95944E+00 -4.03080E+00 -4.07869E+00 -4.10716E+00 -4.12216E+00
  -4.12397E+00 -4.10637E+00 -4.06544E+00 -4.00506E+00 -3.93026E+00 -3.84321E+00 -3.74529E+00 -3.63943E+00 -3.52836E+00 -3.41247E+00
  -3.28976E+00 -3.15949E+00 -3.02376E+00 -2.88565E+00 -2.74747E+00 -2.61197E+00 -2.48210E+00 -2.35986E+00 -2.24559E+00 -2.13852E+00
  -2.03708E+00 -1.93941E+00 -1.84341E+00 -1.74680E+00 -1.64701E+00 -1.54089E+00 -1.42397E+00 -1.28854E+00 -1.12315E+00 -9.46996E-01
  -7.74418E-01 -5.85557E-01 -3.85305E-01 -2.04283E-01 -6.34234E-02  3.88876E-02  1.35250E-01  2.44789E-01  3.35939E-01  4.22134E-01
   5.65155E-01  7.98145E-01  1.10499E+00  1.47241E+00  1.91162E+00  2.43060E+00  2.99922E+00  3.56914E+00  4.13888E+00  4.69034E+00
   5.16105E+00  5.59260E+00  6.00449E+00  6.34659E+00  6.57025E+00  6.67401E+00  6.74434E+00  6.81397E+00  6.79567E+00  6.71302E+00
   6.71514E+00  6.89372E+00  7.20634E+00  7.60428E+00  8.11788E+00  8.77006E+00  9.46498E+00  1.00312E+01  1.03866E+01  1.05553E+01
   1.05578E+01  1.03888E+01  1.00879E+01  9.73780E+00  9.40370E+00  9.09790E+00  8.80046E+00  8.49310E+00  8.17451E+00  7.84718E+00
   7.51481E+00  7.18172E+00  6.85254E+00  6.53193E+00  6.22442E+00  5.93430E+00  5.66552E+00  5.42172E+00  5.20615E+00  5.02175E+00
   4.87116E+00  4.75677E+00  4.68077E+00  4.64519E+00  4.65196E+00  4.70290E+00  4.79975E+00  4.94407E+00  5.13723E+00  5.38024E+00
   5.67367E+00  6.01744E+00  6.41059E+00  6.85111E+00  7.33574E+00  7.85973E+00  8.41679E+00  8.99896E+00  9.59663E+00  1.01987E+01
   1.07928E+01  1.13655E+01  1.19031E+01  1.23917E+01  1.28182E+01  1.31705E+01  1.34384E+01  1.36141E+01  1.36924E+01  1.36710E+01
   1.35507E+01  1.33354E+01  1.30318E+01  1.26489E+01  1.21978E+01  1.16909E+01  1.11415E+01  1.05630E+01  9.96831E+00  9.36973E+00
   8.77816E+00  8.20304E+00  7.65210E+00  7.13135E+00  6.64510E+00  6.19607E+00  5.78558E+00  5.41375E+00  5.07970E+00  4.78183E+00
   4.51800E+00  4.28569E+00  4.08223E+00  3.90488E+00  3.75096E+00  3.61790E+00  3.50332E+00  3.40500E+00  3.32099E+00  3.24950E+00
   3.18899E+00  3.13809E+00  3.09561E+00  3.06051E+00  3.03191E+00  3.00901E+00  2.99117E+00  2.97780E+00  2.96840E+00  2.96253E+00
   2.95983E+00  2.95996E+00  2.96264E+00  2.96762E+00  2.97469E+00  2.98363E+00  2.99430E+00  3.00652E+00  3.02017E+00  3.03513E+00
   3.05128E+00  3.06853E+00  3.08680E+00  3.10600E+00  3.12607E+00  3.14693E+00  3.16855E+00  3.19085E+00  3.21380E+00  3.23734E+00
   3.26146E+00  3.28610E+00  3.31124E+00  3.33684E+00  3.36289E+00  3.38935E+00  3.41621E+00  3.44343E+00  3.47102E+00  3.49894E+00
   3.52718E+00  3.55573E+00  3.58458E+00  3.61371E+00  3.64311E+00  3.67279E+00  3.70272E+00  3.73291E+00  3.76335E+00  3.79403E+00
   3.82495E+00  3.85612E+00  3.88753E+00  3.91919E+00  3.95110E+00  3.98327E+00  4.01570E+00  4.04842E+00
 NY background values follow
    -5.323E+01   -5.303E+01   -5.283E+01   -5.263E+01   -5.243E+01   -5.224E+01   -5.204E+01   -5.184E+01   -5.164E+01   -5.144E+01
    -5.124E+01   -5.104E+01   -5.085E+01   -5.065E+01   -5.045E+01   -5.025E+01   -5.005E+01   -4.986E+01   -4.966E+01   -4.946E+01
    -4.926E+01   -4.906E+01   -4.887E+01   -4.867E+01   -4.847E+01   -4.827E+01   -4.808E+01   -4.788E+01   -4.768E+01   -4.748E+01
    -4.729E+01   -4.709E+01   -4.689E+01   -4.670E+01   -4.650E+01   -4.630E+01   -4.611E+01   -4.591E+01   -4.571E+01   -4.552E+01
    -4.532E+01   -4.513E+01   -4.493E+01   -4.473E+01   -4.454E+01   -4.434E+01   -4.415E+01   -4.395E+01   -4.376E+01   -4.356E+01
    -4.337E+01   -4.318E+01   -4.298E+01   -4.279E+01   -4.260E+01   -4.240E+01   -4.221E+01   -4.202E+01   -4.182E+01   -4.163E+01
    -4.144E+01   -4.125E+01   -4.105E+01   -4.086E+01   -4.067E+01   -4.048E+01   -4.029E+01   -4.010E+01   -3.991E+01   -3.972E+01
    -3.953E+01   -3.934E+01   -3.915E+01   -3.896E+01   -3.877E+01   -3.858E+01   -3.840E+01   -3.821E+01   -3.802E+01   -3.783E+01
    -3.765E+01   -3.746E+01   -3.727E+01   -3.709E+01   -3.690E+01   -3.672E+01   -3.653E+01   -3.635E+01   -3.616E+01   -3.598E+01
    -3.579E+01   -3.561E+01   -3.543E+01   -3.525E+01   -3.506E+01   -3.488E+01   -3.470E+01   -3.452E+01   -3.434E+01   -3.416E+01
    -3.398E+01   -3.380E+01   -3.362E+01   -3.344E+01   -3.326E+01   -3.308E+01   -3.291E+01   -3.273E+01   -3.255E+01   -3.238E+01
    -3.220E+01   -3.202E+01   -3.185E+01   -3.167E+01   -3.150E+01   -3.132E+01   -3.115E+01   -3.098E+01   -3.080E+01   -3.063E+01
    -3.046E+01   -3.028E+01   -3.011E+01   -2.994E+01   -2.977E+01   -2.960E+01   -2.943E+01   -2.926E+01   -2.909E+01   -2.892E+01
    -2.875E+01   -2.858E+01   -2.842E+01   -2.825E+01   -2.808E+01   -2.792E+01   -2.775E+01   -2.758E+01   -2.742E+01   -2.725E+01
    -2.709E+01   -2.692E+01   -2.676E+01   -2.660E+01   -2.643E+01   -2.627E+01   -2.611E+01   -2.595E+01   -2.578E+01   -2.562E+01
    -2.546E+01   -2.530E+01   -2.514E+01   -2.498E+01   -2.482E+01   -2.467E+01   -2.451E+01   -2.435E+01   -2.419E+01   -2.404E+01
    -2.388E+01   -2.372E+01   -2.357E+01   -2.341E+01   -2.326E+01   -2.310E+01   -2.295E+01   -2.279E+01   -2.264E+01   -2.249E+01
    -2.234E+01   -2.218E+01   -2.203E+01   -2.188E+01   -2.173E+01   -2.158E+01   -2.143E+01   -2.128E+01   -2.113E+01   -2.098E+01
    -2.084E+01   -2.069E+01   -2.054E+01   -2.039E+01   -2.025E+01   -2.010E+01   -1.996E+01   -1.981E+01   -1.967E+01   -1.952E+01
    -1.938E+01   -1.924E+01   -1.909E+01   -1.895E+01   -1.881E+01   -1.867E+01   -1.853E+01   -1.839E+01   -1.825E+01   -1.811E+01
    -1.797E+01   -1.783E+01   -1.769E+01   -1.756E+01   -1.742E+01   -1.728E+01   -1.715E+01   -1.701E+01   -1.688E+01   -1.674E+01
    -1.661E+01   -1.648E+01   -1.635E+01   -1.621E+01   -1.608E+01   -1.595E+01   -1.582E+01   -1.569E+01   -1.556E+01   -1.544E+01
    -1.531E+01   -1.518E+01   -1.506E+01   -1.493E+01   -1.480E+01   -1.468E+01   -1.456E+01   -1.443E+01   -1.431E+01   -1.419E+01
    -1.407E+01   -1.394E+01   -1.382E+01   -1.370E+01   -1.359E+01   -1.347E+01   -1.335E+01   -1.323E+01   -1.311E+01   -1.300E+01
    -1.288E+01   -1.277E+01   -1.265E+01   -1.254E+01   -1.243E+01   -1.231E+01   -1.220E+01   -1.209E+01   -1.198E+01   -1.187E+01
    -1.176E+01   -1.165E+01   -1.154E+01   -1.143E+01   -1.132E+01   -1.122E+01   -1.111E+01   -1.100E+01   -1.090E+01   -1.079E+01
    -1.069E+01   -1.059E+01   -1.048E+01   -1.038E+01   -1.028E+01   -1.017E+01   -1.007E+01   -9.972E+00   -9.872E+00   -9.772E+00
    -9.673E+00   -9.574E+00   -9.476E+00   -9.378E+00   -9.281E+00   -9.184E+00   -9.087E+00   -8.992E+00   -8.896E+00   -8.801E+00
    -8.707E+00   -8.613E+00   -8.520E+00   -8.427E+00   -8.334E+00   -8.242E+00   -8.151E+00   -8.060E+00   -7.969E+00   -7.879E+00
    -7.789E+00   -7.700E+00   -7.612E+00   -7.523E+00   -7.436E+00   -7.348E+00   -7.261E+00   -7.175E+00   -7.089E+00   -7.003E+00
    -6.918E+00   -6.834E+00   -6.750E+00   -6.666E+00   -6.583E+00   -6.500E+00   -6.417E+00   -6.335E+00   -6.254E+00   -6.173E+00
    -6.092E+00   -6.012E+00   -5.932E+00   -5.853E+00   -5.774E+00   -5.695E+00   -5.617E+00   -5.539E+00   -5.462E+00   -5.385E+00
    -5.309E+00   -5.232E+00   -5.157E+00   -5.082E+00   -5.007E+00   -4.932E+00   -4.858E+00   -4.785E+00   -4.711E+00   -4.639E+00
    -4.566E+00   -4.494E+00   -4.422E+00   -4.351E+00   -4.280E+00   -4.210E+00   -4.140E+00   -4.070E+00   -4.001E+00   -3.932E+00
    -3.863E+00   -3.795E+00   -3.727E+00   -3.659E+00   -3.592E+00   -3.525E+00   -3.459E+00   -3.393E+00   -3.327E+00   -3.262E+00
    -3.197E+00   -3.132E+00   -3.068E+00   -3.004E+00   -2.941E+00   -2.877E+00   -2.814E+00   -2.752E+00   -2.690E+00   -2.628E+00
    -2.566E+00   -2.505E+00   -2.444E+00   -2.384E+00   -2.324E+00   -2.264E+00   -2.204E+00   -2.145E+00   -2.086E+00   -2.027E+00
    -1.969E+00   -1.911E+00   -1.854E+00   -1.796E+00   -1.739E+00   -1.682E+00   -1.626E+00   -1.570E+00   -1.514E+00   -1.458E+00
    -1.403E+00   -1.348E+00   -1.294E+00   -1.239E+00   -1.185E+00   -1.131E+00   -1.078E+00   -1.024E+00   -9.713E-01   -9.185E-01
    -8.661E-01   -8.138E-01   -7.619E-01   -7.102E-01   -6.588E-01   -6.076E-01   -5.567E-01   -5.060E-01   -4.556E-01   -4.054E-01
    -3.555E-01   -3.058E-01   -2.564E-01   -2.072E-01   -1.582E-01   -1.095E-01   -6.099E-02   -1.271E-02    3.534E-02    8.316E-02
     1.308E-01    1.781E-01    2.253E-01    2.723E-01    3.190E-01    3.655E-01    4.119E-01    4.580E-01    5.039E-01    5.496E-01
     5.951E-01    6.404E-01    6.856E-01    7.305E-01    7.752E-01    8.198E-01    8.642E-01    9.083E-01    9.524E-01    9.962E-01
     1.040E+00    1.083E+00    1.127E+00    1.170E+00    1.213E+00    1.256E+00    1.298E+00    1.341E+00    1.383E+00    1.425E+00
     1.467E+00    1.509E+00    1.551E+00    1.593E+00    1.634E+00    1.675E+00    1.717E+00    1.758E+00    1.798E+00    1.839E+00
     1.880E+00    1.920E+00    1.961E+00    2.001E+00    2.041E+00    2.081E+00    2.121E+00    2.161E+00    2.201E+00    2.240E+00
     2.280E+00    2.319E+00    2.359E+00    2.398E+00    2.437E+00    2.476E+00    2.515E+00    2.554E+00    2.593E+00    2.631E+00
     2.670E+00    2.709E+00    2.747E+00    2.786E+00    2.824E+00    2.862E+00    2.901E+00    2.939E+00    2.977E+00    3.015E+00
     3.053E+00    3.092E+00    3.130E+00    3.168E+00    3.206E+00    3.243E+00    3.281E+00    3.319E+00    3.357E+00    3.395E+00
     3.433E+00    3.471E+00    3.509E+00    3.546E+00    3.584E+00    3.622E+00    3.660E+00    3.698E+00
 Ala      Conc. = 6.59E+01
