 LCModel (Version 6.3-1L) Copyright: S.W. Provencher.          Ref.: Magn. Reson. Med. 30:672-679 (1993).                
 Slice#1 Row#2 Col#11  PD_24_press_1_raw_act
 36 lines in following concentration table = NCONC+1
    Conc.  %SD /Cr+PCr  Metabolite                                         
  130.612  71%   2.144 Ala                                                 
   11.030  72%   0.181 Asp                                                 
   60.919  46%   1.000 Cr                                                  
    0.000 999%   0.000 PCr                                                 
    6.076  79%   0.100 GABA                                                
    6.030  79% 9.9E-02 Glc                                                 
    0.000 999%   0.000 Gln                                                 
    0.000 999%   0.000 Glu                                                 
   39.562  30%   0.649 GPC                                                 
    0.000 999%   0.000 PCh                                                 
   14.662 297%   0.241 GSH                                                 
  357.781  39%   5.873 Ins                                                 
  130.310  82%   2.139 Lac                                                 
   19.721 182%   0.324 NAA                                                 
    0.000 999%   0.000 NAAG                                                
    2.263  71% 3.7E-02 Scyllo                                              
   10.099  79%   0.166 Tau                                                 
    0.000 999%   0.000 -CrCH2                                              
   39.562  30%   0.649 GPC+PCh                                             
   19.721 182%   0.324 NAA+NAAG                                            
   60.919  46%   1.000 Cr+PCr                                              
    0.000 999%   0.000 Glu+Gln                                             
 3.41E+03  18%  56.047 Lip13a                                              
  299.461  50%   4.916 Lip13b                                              
  453.607  43%   7.446 Lip09                                               
 1.08E+03  17%  17.797 MM09                                                
    0.000 999%   0.000 Lip20                                               
  653.483  29%  10.727 MM20                                                
  394.112  34%   6.469 MM12                                                
 2.35E+03  17%  38.537 MM14                                                
  719.395  32%  11.809 MM17                                                
 3.71E+03  16%  60.962 Lip13a+Lip13b                                       
 6.46E+03   7% 105.969 MM14+Lip13a+Lip13b+MM12                             
 1.54E+03  12%  25.243 MM09+Lip09                                          
  653.483  29%  10.727 MM20+Lip20                                          
   6 lines in following misc. output table
  FWHM = 0.061 ppm    S/N =   5                                            
  Data shift = 0.023 ppm                                                   
  Ph: -60 deg      17.4 deg/ppm                                            
  alphaB,S = 8.5E+01,   2.6E+01                                            
   14 spline knots.   Ns = 7(1)                                            
   2 inflections.     1 extrema                                            
  498 points on ppm-axis = NY
      4.000000     3.992357     3.984714     3.977070     3.969427     3.961784     3.954141     3.946497     3.938854     3.931211
      3.923568     3.915925     3.908281     3.900638     3.892995     3.885352     3.877708     3.870065     3.862422     3.854779
      3.847136     3.839492     3.831849     3.824206     3.816563     3.808919     3.801276     3.793633     3.785990     3.778347
      3.770703     3.763060     3.755417     3.747774     3.740130     3.732487     3.724844     3.717201     3.709558     3.701914
      3.694271     3.686628     3.678985     3.671341     3.663698     3.656055     3.648412     3.640769     3.633125     3.625482
      3.617839     3.610196     3.602552     3.594909     3.587266     3.579623     3.571980     3.564336     3.556693     3.549050
      3.541407     3.533763     3.526120     3.518477     3.510834     3.503191     3.495547     3.487904     3.480261     3.472618
      3.464974     3.457331     3.449688     3.442045     3.434402     3.426758     3.419115     3.411472     3.403829     3.396185
      3.388542     3.380899     3.373256     3.365613     3.357969     3.350326     3.342683     3.335040     3.327396     3.319753
      3.312110     3.304467     3.296824     3.289180     3.281537     3.273894     3.266251     3.258607     3.250964     3.243321
      3.235678     3.228034     3.220391     3.212748     3.205105     3.197462     3.189818     3.182175     3.174532     3.166889
      3.159245     3.151602     3.143959     3.136316     3.128673     3.121029     3.113386     3.105743     3.098100     3.090456
      3.082813     3.075170     3.067527     3.059884     3.052240     3.044597     3.036954     3.029311     3.021667     3.014024
      3.006381     2.998738     2.991095     2.983451     2.975808     2.968165     2.960522     2.952878     2.945235     2.937592
      2.929949     2.922306     2.914662     2.907019     2.899376     2.891733     2.884089     2.876446     2.868803     2.861160
      2.853517     2.845873     2.838230     2.830587     2.822944     2.815300     2.807657     2.800014     2.792371     2.784728
      2.777084     2.769441     2.761798     2.754155     2.746511     2.738868     2.731225     2.723582     2.715939     2.708295
      2.700652     2.693009     2.685366     2.677722     2.670079     2.662436     2.654793     2.647150     2.639506     2.631863
      2.624220     2.616577     2.608933     2.601290     2.593647     2.586004     2.578361     2.570717     2.563074     2.555431
      2.547788     2.540144     2.532501     2.524858     2.517215     2.509572     2.501928     2.494285     2.486642     2.478999
      2.471355     2.463712     2.456069     2.448426     2.440783     2.433139     2.425496     2.417853     2.410210     2.402566
      2.394923     2.387280     2.379637     2.371994     2.364350     2.356707     2.349064     2.341421     2.333777     2.326134
      2.318491     2.310848     2.303205     2.295561     2.287918     2.280275     2.272632     2.264988     2.257345     2.249702
      2.242059     2.234416     2.226772     2.219129     2.211486     2.203843     2.196199     2.188556     2.180913     2.173270
      2.165627     2.157983     2.150340     2.142697     2.135054     2.127410     2.119767     2.112124     2.104481     2.096838
      2.089194     2.081551     2.073908     2.066265     2.058621     2.050978     2.043335     2.035692     2.028049     2.020405
      2.012762     2.005119     1.997476     1.989833     1.982190     1.974546     1.966903     1.959260     1.951617     1.943974
      1.936331     1.928688     1.921045     1.913402     1.905759     1.898115     1.890472     1.882829     1.875186     1.867543
      1.859900     1.852257     1.844614     1.836971     1.829327     1.821684     1.814041     1.806398     1.798755     1.791112
      1.783469     1.775826     1.768183     1.760540     1.752896     1.745253     1.737610     1.729967     1.722324     1.714681
      1.707038     1.699395     1.691752     1.684108     1.676465     1.668822     1.661179     1.653536     1.645893     1.638250
      1.630607     1.622964     1.615321     1.607677     1.600034     1.592391     1.584748     1.577105     1.569462     1.561819
      1.554176     1.546533     1.538890     1.531246     1.523603     1.515960     1.508317     1.500674     1.493031     1.485388
      1.477745     1.470102     1.462458     1.454815     1.447172     1.439529     1.431886     1.424243     1.416600     1.408957
      1.401314     1.393671     1.386027     1.378384     1.370741     1.363098     1.355455     1.347812     1.340169     1.332526
      1.324883     1.317240     1.309596     1.301953     1.294310     1.286667     1.279024     1.271381     1.263738     1.256095
      1.248452     1.240808     1.233165     1.225522     1.217879     1.210236     1.202593     1.194950     1.187307     1.179664
      1.172021     1.164377     1.156734     1.149091     1.141448     1.133805     1.126162     1.118519     1.110876     1.103233
      1.095590     1.087946     1.080303     1.072660     1.065017     1.057374     1.049731     1.042088     1.034445     1.026802
      1.019158     1.011515     1.003872     0.996229     0.988586     0.980943     0.973300     0.965657     0.958014     0.950371
      0.942727     0.935084     0.927441     0.919798     0.912155     0.904512     0.896869     0.889226     0.881583     0.873940
      0.866296     0.858653     0.851010     0.843367     0.835724     0.828081     0.820438     0.812795     0.805152     0.797508
      0.789865     0.782222     0.774579     0.766936     0.759293     0.751650     0.744007     0.736364     0.728721     0.721077
      0.713434     0.705791     0.698148     0.690505     0.682862     0.675219     0.667576     0.659933     0.652290     0.644646
      0.637003     0.629360     0.621717     0.614074     0.606431     0.598788     0.591145     0.583502     0.575858     0.568215
      0.560572     0.552929     0.545286     0.537643     0.530000     0.522357     0.514714     0.507071     0.499427     0.491784
      0.484141     0.476498     0.468855     0.461212     0.453569     0.445925     0.438282     0.430639     0.422996     0.415353
      0.407710     0.400067     0.392424     0.384780     0.377137     0.369494     0.361851     0.354208     0.346565     0.338922
      0.331278     0.323635     0.315992     0.308349     0.300706     0.293063     0.285420     0.277777     0.270133     0.262490
      0.254847     0.247204     0.239561     0.231918     0.224275     0.216631     0.208988     0.201345
 NY phased data points follow
   5.24118E+00  4.08532E+00  4.58042E+00 -4.05851E-01  2.54644E+00  5.85911E+00  2.16332E+00  2.41652E+00  4.83530E+00  4.52073E+00
   7.04327E+00  3.59108E+00  5.46350E+00  4.28714E+00  2.39368E+00  5.52425E+00  3.31434E+00  8.81467E-01 -7.58944E-01 -7.01421E-01
   2.24664E+00  1.69219E+00  3.91710E+00  3.04026E+00  6.00731E+00  4.23655E+00  2.61481E+00  1.68716E+00  1.32517E+00  2.15228E+00
   5.48855E+00 -1.11377E+00  5.98890E-01  1.63436E+00  4.63203E+00  2.87126E+00  2.87880E+00  2.24655E+00  2.85349E+00  3.75879E+00
   2.41660E+00  3.23242E+00  7.22084E-01  2.85184E+00  2.54221E+00  4.03364E+00  1.43511E+00  2.26822E+00  5.46442E+00  4.28887E+00
   2.92899E+00 -1.06649E+00  3.77081E+00  2.57855E+00  3.41620E-01  2.83871E+00  5.24019E+00  1.93808E+00  2.41853E+00  2.02660E+00
   3.36383E+00  3.11240E+00  5.52145E+00  3.33668E+00 -1.37209E-01  8.50027E-01  1.25716E+00  2.54612E+00  2.96318E+00  5.74576E-01
  -4.72463E-01  1.93905E+00  4.39259E+00  1.02018E+00 -1.37835E-01 -2.36158E+00  3.43958E+00  3.11811E+00 -1.64798E+00  2.84250E+00
   4.30828E+00  1.45107E+00  4.96770E-01  3.02114E+00  2.34430E+00  1.66144E-01  4.32104E+00  3.26993E+00  1.64307E+00  1.52026E+00
   1.31737E+00  2.90057E+00 -9.76145E-01  2.76390E+00  2.70767E+00  3.60211E+00 -1.41939E+00  2.73804E+00  3.56243E+00  1.36219E+00
   4.91490E+00  3.19725E+00  4.48513E+00  1.62415E+00  3.24243E+00  1.59784E+00  3.99014E+00  3.10184E+00  2.02644E+00  3.15442E-02
   1.43312E+00  1.46256E+00  4.52554E+00  7.17162E-01 -1.98039E+00  1.23566E+00 -1.38637E+00 -2.04922E+00  1.65912E+00 -4.86785E-01
  -1.10351E+00 -1.95391E+00  2.70642E+00 -4.36307E+00  2.67305E+00  3.98432E+00  5.22508E+00  1.11979E+00  8.38329E-01  1.37601E+00
   1.62279E+00  1.80907E+00 -1.16321E+00  2.01775E+00 -2.86345E+00  3.08610E+00 -3.18653E-01  1.46119E+00  1.65559E+00 -2.77297E-01
   7.58754E-01  3.10322E+00  8.55966E-01  5.03704E-01 -3.37046E+00  2.12844E-01 -1.71385E+00  2.54331E+00 -1.40566E+00 -4.55466E+00
   4.76349E-01 -5.60188E+00  2.98503E+00 -3.11535E+00 -1.23264E+00 -3.01350E+00 -1.58193E+00 -3.57631E+00 -6.59389E-02 -2.69696E+00
  -3.69563E+00 -5.13478E+00  8.36320E-01  2.84768E-01 -1.32410E+00 -6.04193E-01  3.71702E+00  2.84152E+00  9.93928E-01  1.01219E+00
   4.00812E+00  5.23438E-01  1.92927E+00 -2.97090E-01  1.37047E+00 -3.47840E+00 -1.56890E+00 -1.49790E+00  1.36468E+00  6.66583E-01
  -1.83347E+00 -1.00371E-01  1.78571E+00 -1.19384E+00 -2.88859E+00 -2.38894E+00 -3.12477E+00  2.94040E-01  2.68662E-01 -4.16231E-01
   4.00965E-01  2.15952E-01  7.85142E-01  5.81984E-01  9.17226E-01  2.05959E+00  3.09108E-01  2.09722E+00  2.74658E+00 -1.40624E+00
   7.61061E-01 -1.85725E-01  6.22181E-01  5.66474E-01  2.86890E+00 -2.00989E+00  2.23733E+00  7.15146E-01  1.45899E+00  1.89666E+00
  -5.90522E-01 -1.42816E-01 -1.88763E+00 -3.61523E-01  2.41480E+00  3.27226E+00  3.11869E+00  2.22036E+00  1.60187E+00  4.33763E+00
   6.35632E-01 -5.49927E-01  1.87397E+00  6.81944E-01  3.58685E+00  7.13056E-01  1.62703E+00 -2.09278E+00  3.29523E-01  1.41685E+00
   8.24799E-01  1.08775E+00  2.28590E+00  2.39464E+00 -8.04000E-01 -1.49342E-01  1.32204E+00  1.92186E+00  1.44649E+00  8.06671E-01
   3.16356E+00  3.61073E+00  1.53059E+00  4.14261E+00  6.86515E+00  3.50976E+00  4.41115E+00 -4.64181E-01 -7.38498E-01  2.31194E+00
   1.62165E+00  7.24067E-01  2.10859E+00  1.39290E+00  1.22470E+00  2.81542E-01  2.51919E+00  2.72167E+00  3.18176E-01  3.78236E+00
   2.37389E+00  1.22351E+00  2.84920E+00  2.73246E+00  1.24651E+00  1.71816E+00  1.71019E+00  8.24205E-01 -3.09683E-01 -1.26844E+00
   5.75383E-01 -1.45240E+00 -1.17975E+00 -1.00140E+00  3.89809E+00 -1.53239E+00  9.85698E-01  4.29990E+00  3.80335E+00  4.74810E-01
  -3.05999E-01 -2.05451E+00 -2.38948E+00  1.67055E+00 -4.06204E+00 -2.14379E+00 -8.90255E-01 -4.40336E-01  2.38975E+00 -2.21334E-02
   9.33283E-01 -3.93579E+00  4.02847E-01 -5.81014E-01  2.95956E+00  1.73863E+00  2.97562E+00 -5.23254E-02  2.18542E+00  1.97713E+00
   1.97420E+00  2.29625E+00  5.96037E-01  2.29260E+00  4.17425E+00  3.08985E+00  4.42288E+00  2.88752E+00  4.96624E+00  5.57435E+00
   6.36243E+00  5.71738E+00  8.33674E+00  6.96733E+00  1.21112E+01  8.01900E+00  7.80700E+00  9.35196E+00  8.29954E+00  1.40167E+01
   9.06131E+00  9.07627E+00  1.15174E+01  1.08688E+01  1.36159E+01  1.02939E+01  1.16261E+01  1.35233E+01  1.40859E+01  1.40011E+01
   1.62602E+01  1.42647E+01  2.07520E+01  1.77200E+01  1.94510E+01  2.19038E+01  2.09588E+01  2.24865E+01  2.18736E+01  2.63272E+01
   2.34624E+01  2.08443E+01  2.32094E+01  1.90552E+01  2.12783E+01  2.11416E+01  1.97728E+01  2.02129E+01  1.96925E+01  1.66367E+01
   1.85881E+01  1.99567E+01  2.03001E+01  1.97649E+01  2.32376E+01  2.13776E+01  2.05015E+01  2.23980E+01  1.88567E+01  1.68822E+01
   1.60328E+01  1.91163E+01  1.77778E+01  1.14569E+01  1.03994E+01  1.52424E+01  1.49434E+01  1.22297E+01  1.03846E+01  9.95027E+00
   1.15215E+01  1.06580E+01  6.93163E+00  1.16014E+01  9.15596E+00  9.84445E+00  9.72187E+00  7.63395E+00  8.62379E+00  7.84069E+00
   9.93074E+00  1.19298E+01  1.45944E+01  1.28704E+01  9.85737E+00  9.60159E+00  1.12321E+01  6.74375E+00  8.09887E+00  7.35974E+00
   7.83167E+00  1.04203E+01  1.03190E+01  5.69027E+00  7.31572E+00  8.42132E+00  6.97651E+00  7.04843E+00  4.53411E+00  7.76417E+00
   9.21292E+00  5.63800E+00  4.80292E+00  7.50878E+00  7.75069E+00  3.73508E+00  6.39605E+00  1.47691E+00  2.56392E+00  3.76755E+00
   6.55330E+00  4.58776E+00  3.52573E+00  6.64880E+00  3.23215E+00  5.28737E-01 -1.11772E+00  7.06954E-01  1.04182E+00  2.52812E+00
  -6.89876E-01 -1.31059E+00  3.31978E+00  4.92498E-01  1.88899E+00 -2.43582E+00 -8.16059E-01  3.36084E+00 -1.16201E+00 -4.74199E-01
  -2.44233E+00 -1.56431E+00 -1.85221E+00 -4.34871E+00 -3.11446E+00 -2.84141E+00 -2.88856E+00 -8.05795E-01 -8.79872E-01 -1.67305E+00
  -2.69362E+00 -3.71236E+00 -3.51820E+00 -3.71266E+00 -2.73904E+00 -4.19666E+00  5.68911E-01 -1.86878E+00 -3.52271E+00 -1.02141E+00
  -3.31671E+00  7.98680E-02 -3.67081E+00 -3.09195E+00 -2.53048E+00 -3.00662E+00 -2.34254E+00 -1.10296E+00 -4.65244E+00 -3.79531E+00
  -5.91761E-01 -7.61219E-01 -3.86788E+00 -1.70284E+00 -2.98012E+00 -5.52331E+00 -4.93515E+00 -3.18940E+00 -1.33314E+00 -3.24112E+00
  -3.73435E-01 -2.20638E+00 -3.19913E+00 -6.94481E-01 -2.92448E+00 -2.59514E+00 -1.13137E+00 -1.03059E+00  1.57600E-01 -2.37105E+00
  -1.43283E+00 -1.15923E+00 -2.91894E+00 -6.72704E+00 -2.32342E+00 -7.13057E-01 -5.25843E+00  9.65078E-01 -2.32686E+00 -2.00269E-01
  -2.66388E+00 -1.46172E+00 -1.98424E+00 -9.93207E-01  1.88147E-01 -1.96552E+00 -2.38376E+00 -5.15218E+00
 NY points of the fit to the data follow
   2.43674E+00  2.32376E+00  2.26382E+00  2.25980E+00  2.34684E+00  2.52701E+00  2.74158E+00  2.95319E+00  3.14150E+00  3.27953E+00
   3.33616E+00  3.28322E+00  3.12330E+00  2.89881E+00  2.66915E+00  2.46768E+00  2.29351E+00  2.15617E+00  2.08802E+00  2.07684E+00
   2.08438E+00  2.08137E+00  2.05740E+00  2.02398E+00  1.97748E+00  1.91180E+00  1.85865E+00  1.85172E+00  1.89237E+00  1.96732E+00
   2.07049E+00  2.20922E+00  2.36733E+00  2.49252E+00  2.53963E+00  2.50078E+00  2.39825E+00  2.25328E+00  2.08106E+00  1.92938E+00
   1.90317E+00  2.09186E+00  2.45773E+00  2.88857E+00  3.29851E+00  3.63414E+00  3.82791E+00  3.81096E+00  3.56095E+00  3.14160E+00
   2.67501E+00  2.25849E+00  1.93945E+00  1.74038E+00  1.67692E+00  1.76100E+00  1.94721E+00  2.15697E+00  2.31949E+00  2.39343E+00
   2.36686E+00  2.25575E+00  2.09991E+00  1.94839E+00  1.83176E+00  1.77862E+00  1.79057E+00  1.85085E+00  1.94146E+00  2.04329E+00
   2.12986E+00  2.18181E+00  2.18608E+00  2.14107E+00  2.06084E+00  1.96900E+00  1.87911E+00  1.79277E+00  1.71430E+00  1.65158E+00
   1.58293E+00  1.48431E+00  1.34362E+00  1.17063E+00  9.82040E-01  7.99969E-01  6.48875E-01  5.58885E-01  5.49817E-01  6.25449E-01
   7.63549E-01  9.19247E-01  1.06342E+00  1.18335E+00  1.27841E+00  1.40714E+00  1.72021E+00  2.17387E+00  2.67692E+00  3.18877E+00
   3.65391E+00  3.97625E+00  4.07731E+00  3.90922E+00  3.50907E+00  3.00167E+00  2.51356E+00  2.06718E+00  1.64533E+00  1.29377E+00
   1.07685E+00  9.83445E-01  9.64662E-01  9.69772E-01  9.77659E-01  9.86459E-01  9.96467E-01  1.01059E+00  1.03572E+00  1.09564E+00
   1.26800E+00  1.56028E+00  1.90207E+00  2.24940E+00  2.56801E+00  2.80907E+00  2.92777E+00  2.89301E+00  2.70472E+00  2.41930E+00
   2.11450E+00  1.82377E+00  1.54049E+00  1.28101E+00  1.08678E+00  9.71269E-01  9.14720E-01  8.89690E-01  8.75782E-01  8.65751E-01
   8.55236E-01  8.40843E-01  8.20886E-01  7.95088E-01  7.63414E-01  7.26712E-01  6.86581E-01  6.45305E-01  6.05461E-01  5.68850E-01
   5.35549E-01  5.05080E-01  4.77086E-01  4.50950E-01  4.25772E-01  4.01371E-01  3.77927E-01  3.55478E-01  3.34874E-01  3.16613E-01
   3.01831E-01  2.90820E-01  2.82720E-01  2.76279E-01  2.70660E-01  2.65329E-01  2.59891E-01  2.53610E-01  2.45795E-01  2.35638E-01
   2.23491E-01  2.11103E-01  1.99048E-01  1.87111E-01  1.74974E-01  1.63096E-01  1.52378E-01  1.43719E-01  1.36323E-01  1.28884E-01
   1.21172E-01  1.14793E-01  1.11525E-01  1.12194E-01  1.17284E-01  1.26850E-01  1.39416E-01  1.53302E-01  1.65654E-01  1.72729E-01
   1.71116E-01  1.59411E-01  1.42310E-01  1.24781E-01  1.09629E-01  9.87315E-02  9.42988E-02  9.84324E-02  1.11148E-01  1.29496E-01
   1.48972E-01  1.66598E-01  1.82300E-01  1.96412E-01  2.07766E-01  2.15575E-01  2.20715E-01  2.25173E-01  2.30307E-01  2.36320E-01
   2.43567E-01  2.52986E-01  2.65523E-01  2.81694E-01  3.01521E-01  3.24929E-01  3.52242E-01  3.83963E-01  4.19818E-01  4.58146E-01
   4.97016E-01  5.34883E-01  5.70326E-01  6.01367E-01  6.25589E-01  6.43692E-01  6.60771E-01  6.81399E-01  7.08895E-01  7.46617E-01
   7.98571E-01  8.66308E-01  9.44686E-01  1.02664E+00  1.10666E+00  1.18184E+00  1.25150E+00  1.31590E+00  1.37771E+00  1.44289E+00
   1.51648E+00  1.60006E+00  1.69133E+00  1.78650E+00  1.88198E+00  1.97283E+00  2.05284E+00  2.11741E+00  2.16540E+00  2.19767E+00
   2.21509E+00  2.21925E+00  2.21660E+00  2.23035E+00  2.27434E+00  2.32806E+00  2.37675E+00  2.41099E+00  2.41797E+00  2.38307E+00
   2.29662E+00  2.15731E+00  1.98139E+00  1.79503E+00  1.61526E+00  1.44190E+00  1.27719E+00  1.13380E+00  1.01871E+00  9.26928E-01
   8.50411E-01  7.82114E-01  7.19395E-01  6.61087E-01  6.06351E-01  5.54612E-01  5.05454E-01  4.58750E-01  4.15157E-01  3.75907E-01
   3.42070E-01  3.14347E-01  2.93486E-01  2.80304E-01  2.75296E-01  2.78705E-01  2.90876E-01  3.12339E-01  3.44088E-01  3.87512E-01
   4.44194E-01  5.16001E-01  6.05222E-01  7.14367E-01  8.45923E-01  1.00226E+00  1.18554E+00  1.39754E+00  1.63948E+00  1.91188E+00
   2.21437E+00  2.54550E+00  2.90275E+00  3.28246E+00  3.67994E+00  4.08963E+00  4.50537E+00  4.92081E+00  5.32987E+00  5.72726E+00
   6.10903E+00  6.47305E+00  6.81949E+00  7.15115E+00  7.47365E+00  7.79564E+00  8.12890E+00  8.48888E+00  8.89690E+00  9.38876E+00
   1.00084E+01  1.06873E+01  1.13438E+01  1.19555E+01  1.25050E+01  1.29647E+01  1.33237E+01  1.35958E+01  1.39168E+01  1.44415E+01
   1.51963E+01  1.61288E+01  1.71772E+01  1.82978E+01  1.94283E+01  2.04508E+01  2.12461E+01  2.17720E+01  2.20835E+01  2.22687E+01
   2.23814E+01  2.23604E+01  2.21792E+01  2.18776E+01  2.14760E+01  2.09675E+01  2.03571E+01  1.97046E+01  1.91970E+01  1.89623E+01
   1.90212E+01  1.93110E+01  1.97399E+01  2.02216E+01  2.06581E+01  2.09003E+01  2.08304E+01  2.04302E+01  1.97733E+01  1.89324E+01
   1.79503E+01  1.68917E+01  1.58471E+01  1.48778E+01  1.40071E+01  1.32297E+01  1.25341E+01  1.19107E+01  1.13507E+01  1.08468E+01
   1.03940E+01  9.98960E+00  9.63303E+00  9.32507E+00  9.06703E+00  8.86016E+00  8.70495E+00  8.60085E+00  8.54589E+00  8.53665E+00
   8.56813E+00  8.63395E+00  8.72645E+00  8.83699E+00  8.95628E+00  9.07470E+00  9.18278E+00  9.27154E+00  9.33297E+00  9.36030E+00
   9.34834E+00  9.29364E+00  9.19457E+00  9.05130E+00  8.86569E+00  8.64102E+00  8.38172E+00  8.09298E+00  7.78043E+00  7.44971E+00
   7.10625E+00  6.75491E+00  6.39987E+00  6.04447E+00  5.69120E+00  5.34177E+00  4.99722E+00  4.65803E+00  4.32430E+00  3.99593E+00
   3.67276E+00  3.35471E+00  3.04186E+00  2.73449E+00  2.43313E+00  2.13850E+00  1.85150E+00  1.57313E+00  1.30442E+00  1.04638E+00
   7.99903E-01  5.65747E-01  3.44470E-01  1.36426E-01 -5.82489E-02 -2.39628E-01 -4.07979E-01 -5.63734E-01 -7.07458E-01 -8.39819E-01
  -9.61552E-01 -1.07344E+00 -1.17626E+00 -1.27082E+00 -1.35786E+00 -1.43810E+00 -1.51222E+00 -1.58083E+00 -1.64450E+00 -1.70375E+00
  -1.75903E+00 -1.81075E+00 -1.85929E+00 -1.90495E+00 -1.94804E+00 -1.98880E+00 -2.02746E+00 -2.06421E+00 -2.09923E+00 -2.13267E+00
  -2.16467E+00 -2.19535E+00 -2.22483E+00 -2.25319E+00 -2.28053E+00 -2.30692E+00 -2.33244E+00 -2.35715E+00 -2.38110E+00 -2.40435E+00
  -2.42695E+00 -2.44894E+00 -2.47036E+00 -2.49125E+00 -2.51164E+00 -2.53155E+00 -2.55103E+00 -2.57009E+00 -2.58876E+00 -2.60706E+00
  -2.62501E+00 -2.64263E+00 -2.65994E+00 -2.67695E+00 -2.69369E+00 -2.71016E+00 -2.72637E+00 -2.74235E+00 -2.75809E+00 -2.77363E+00
  -2.78895E+00 -2.80408E+00 -2.81901E+00 -2.83377E+00 -2.84836E+00 -2.86278E+00 -2.87705E+00 -2.89116E+00 -2.90513E+00 -2.91897E+00
  -2.93267E+00 -2.94624E+00 -2.95968E+00 -2.97301E+00 -2.98623E+00 -2.99933E+00 -3.01233E+00 -3.02522E+00
 NY background values follow
     1.441E+00    1.432E+00    1.422E+00    1.413E+00    1.403E+00    1.394E+00    1.384E+00    1.375E+00    1.365E+00    1.356E+00
     1.347E+00    1.337E+00    1.328E+00    1.318E+00    1.309E+00    1.299E+00    1.290E+00    1.281E+00    1.271E+00    1.262E+00
     1.252E+00    1.243E+00    1.233E+00    1.224E+00    1.214E+00    1.205E+00    1.196E+00    1.186E+00    1.177E+00    1.167E+00
     1.158E+00    1.148E+00    1.139E+00    1.129E+00    1.120E+00    1.111E+00    1.101E+00    1.092E+00    1.082E+00    1.073E+00
     1.063E+00    1.054E+00    1.044E+00    1.035E+00    1.025E+00    1.016E+00    1.007E+00    9.971E-01    9.877E-01    9.782E-01
     9.688E-01    9.593E-01    9.498E-01    9.404E-01    9.309E-01    9.215E-01    9.120E-01    9.026E-01    8.931E-01    8.837E-01
     8.742E-01    8.647E-01    8.553E-01    8.458E-01    8.364E-01    8.269E-01    8.175E-01    8.080E-01    7.985E-01    7.891E-01
     7.796E-01    7.702E-01    7.607E-01    7.512E-01    7.418E-01    7.323E-01    7.228E-01    7.134E-01    7.039E-01    6.945E-01
     6.850E-01    6.755E-01    6.661E-01    6.566E-01    6.471E-01    6.377E-01    6.282E-01    6.187E-01    6.093E-01    5.998E-01
     5.903E-01    5.809E-01    5.714E-01    5.619E-01    5.525E-01    5.430E-01    5.335E-01    5.241E-01    5.146E-01    5.051E-01
     4.957E-01    4.862E-01    4.767E-01    4.672E-01    4.578E-01    4.483E-01    4.388E-01    4.294E-01    4.199E-01    4.104E-01
     4.009E-01    3.915E-01    3.820E-01    3.725E-01    3.631E-01    3.536E-01    3.441E-01    3.346E-01    3.252E-01    3.157E-01
     3.062E-01    2.967E-01    2.873E-01    2.778E-01    2.683E-01    2.588E-01    2.493E-01    2.399E-01    2.304E-01    2.209E-01
     2.114E-01    2.020E-01    1.925E-01    1.830E-01    1.735E-01    1.640E-01    1.546E-01    1.451E-01    1.356E-01    1.261E-01
     1.166E-01    1.072E-01    9.769E-02    8.821E-02    7.872E-02    6.924E-02    5.976E-02    5.028E-02    4.080E-02    3.132E-02
     2.183E-02    1.235E-02    2.867E-03   -6.616E-03   -1.610E-02   -2.558E-02   -3.507E-02   -4.455E-02   -5.404E-02   -6.352E-02
    -7.300E-02   -8.249E-02   -9.198E-02   -1.015E-01   -1.109E-01   -1.204E-01   -1.299E-01   -1.394E-01   -1.489E-01   -1.584E-01
    -1.679E-01   -1.774E-01   -1.868E-01   -1.963E-01   -2.058E-01   -2.153E-01   -2.248E-01   -2.343E-01   -2.438E-01   -2.533E-01
    -2.627E-01   -2.722E-01   -2.817E-01   -2.912E-01   -3.007E-01   -3.102E-01   -3.197E-01   -3.292E-01   -3.387E-01   -3.482E-01
    -3.576E-01   -3.671E-01   -3.766E-01   -3.861E-01   -3.956E-01   -4.051E-01   -4.146E-01   -4.241E-01   -4.336E-01   -4.431E-01
    -4.526E-01   -4.621E-01   -4.715E-01   -4.810E-01   -4.905E-01   -5.000E-01   -5.095E-01   -5.190E-01   -5.285E-01   -5.380E-01
    -5.475E-01   -5.570E-01   -5.665E-01   -5.760E-01   -5.855E-01   -5.950E-01   -6.045E-01   -6.140E-01   -6.235E-01   -6.330E-01
    -6.425E-01   -6.519E-01   -6.614E-01   -6.709E-01   -6.804E-01   -6.899E-01   -6.994E-01   -7.089E-01   -7.184E-01   -7.279E-01
    -7.374E-01   -7.469E-01   -7.564E-01   -7.659E-01   -7.754E-01   -7.849E-01   -7.944E-01   -8.039E-01   -8.134E-01   -8.229E-01
    -8.324E-01   -8.419E-01   -8.514E-01   -8.609E-01   -8.704E-01   -8.799E-01   -8.894E-01   -8.989E-01   -9.084E-01   -9.179E-01
    -9.274E-01   -9.369E-01   -9.464E-01   -9.559E-01   -9.654E-01   -9.749E-01   -9.844E-01   -9.939E-01   -1.003E+00   -1.013E+00
    -1.022E+00   -1.032E+00   -1.041E+00   -1.051E+00   -1.060E+00   -1.070E+00   -1.079E+00   -1.089E+00   -1.098E+00   -1.108E+00
    -1.117E+00   -1.127E+00   -1.136E+00   -1.146E+00   -1.155E+00   -1.165E+00   -1.174E+00   -1.184E+00   -1.193E+00   -1.203E+00
    -1.212E+00   -1.222E+00   -1.231E+00   -1.241E+00   -1.250E+00   -1.260E+00   -1.269E+00   -1.279E+00   -1.288E+00   -1.298E+00
    -1.307E+00   -1.317E+00   -1.327E+00   -1.336E+00   -1.346E+00   -1.355E+00   -1.365E+00   -1.374E+00   -1.384E+00   -1.393E+00
    -1.403E+00   -1.412E+00   -1.422E+00   -1.431E+00   -1.441E+00   -1.450E+00   -1.460E+00   -1.469E+00   -1.479E+00   -1.488E+00
    -1.498E+00   -1.507E+00   -1.517E+00   -1.526E+00   -1.536E+00   -1.545E+00   -1.555E+00   -1.564E+00   -1.574E+00   -1.583E+00
    -1.593E+00   -1.602E+00   -1.612E+00   -1.621E+00   -1.631E+00   -1.640E+00   -1.650E+00   -1.659E+00   -1.669E+00   -1.678E+00
    -1.688E+00   -1.697E+00   -1.707E+00   -1.716E+00   -1.726E+00   -1.735E+00   -1.745E+00   -1.754E+00   -1.764E+00   -1.773E+00
    -1.783E+00   -1.792E+00   -1.802E+00   -1.811E+00   -1.821E+00   -1.830E+00   -1.840E+00   -1.849E+00   -1.859E+00   -1.868E+00
    -1.878E+00   -1.887E+00   -1.897E+00   -1.906E+00   -1.916E+00   -1.925E+00   -1.935E+00   -1.944E+00   -1.954E+00   -1.963E+00
    -1.973E+00   -1.982E+00   -1.992E+00   -2.001E+00   -2.011E+00   -2.020E+00   -2.030E+00   -2.039E+00   -2.049E+00   -2.059E+00
    -2.068E+00   -2.078E+00   -2.087E+00   -2.097E+00   -2.106E+00   -2.116E+00   -2.125E+00   -2.135E+00   -2.144E+00   -2.154E+00
    -2.163E+00   -2.173E+00   -2.182E+00   -2.192E+00   -2.201E+00   -2.211E+00   -2.220E+00   -2.230E+00   -2.239E+00   -2.249E+00
    -2.258E+00   -2.268E+00   -2.277E+00   -2.287E+00   -2.296E+00   -2.306E+00   -2.315E+00   -2.325E+00   -2.334E+00   -2.344E+00
    -2.353E+00   -2.363E+00   -2.372E+00   -2.382E+00   -2.391E+00   -2.401E+00   -2.410E+00   -2.420E+00   -2.429E+00   -2.439E+00
    -2.448E+00   -2.458E+00   -2.467E+00   -2.477E+00   -2.486E+00   -2.496E+00   -2.505E+00   -2.515E+00   -2.524E+00   -2.534E+00
    -2.543E+00   -2.553E+00   -2.562E+00   -2.572E+00   -2.581E+00   -2.591E+00   -2.600E+00   -2.610E+00   -2.619E+00   -2.629E+00
    -2.638E+00   -2.648E+00   -2.657E+00   -2.667E+00   -2.676E+00   -2.686E+00   -2.695E+00   -2.705E+00   -2.714E+00   -2.724E+00
    -2.733E+00   -2.743E+00   -2.752E+00   -2.762E+00   -2.771E+00   -2.781E+00   -2.790E+00   -2.800E+00   -2.809E+00   -2.819E+00
    -2.829E+00   -2.838E+00   -2.848E+00   -2.857E+00   -2.867E+00   -2.876E+00   -2.886E+00   -2.895E+00   -2.905E+00   -2.914E+00
    -2.924E+00   -2.933E+00   -2.943E+00   -2.952E+00   -2.962E+00   -2.971E+00   -2.981E+00   -2.990E+00   -3.000E+00   -3.009E+00
    -3.019E+00   -3.028E+00   -3.038E+00   -3.047E+00   -3.057E+00   -3.066E+00   -3.076E+00   -3.085E+00   -3.095E+00   -3.104E+00
    -3.114E+00   -3.123E+00   -3.133E+00   -3.142E+00   -3.152E+00   -3.161E+00   -3.171E+00   -3.180E+00   -3.190E+00   -3.199E+00
    -3.209E+00   -3.218E+00   -3.228E+00   -3.237E+00   -3.247E+00   -3.256E+00   -3.266E+00   -3.275E+00
 Ala      Conc. = 1.31E+02
