 LCModel (Version 6.3-1L) Copyright: S.W. Provencher.          Ref.: Magn. Reson. Med. 30:672-679 (1993).                
 Slice#1 Row#9 Col#4  PD_24_press_1_raw_act
 36 lines in following concentration table = NCONC+1
    Conc.  %SD /Cr+PCr  Metabolite                                         
    1.229 999% 1.1E-03 Ala                                                 
    0.000 999%   0.000 Asp                                                 
  680.741  36%   0.612 Cr                                                  
  430.739  59%   0.388 PCr                                                 
    3.952 999% 3.6E-03 GABA                                                
    0.000 999%   0.000 Glc                                                 
 1.73E+03  21%   1.559 Gln                                                 
 1.74E+03  23%   1.567 Glu                                                 
  558.992   5%   0.503 GPC                                                 
    0.000 999%   0.000 PCh                                                 
  333.081  23%   0.300 GSH                                                 
 1.38E+03  18%   1.243 Ins                                                 
    6.238 999% 5.6E-03 Lac                                                 
 2.05E+03  11%   1.847 NAA                                                 
  748.916  31%   0.674 NAAG                                                
  136.531  22%   0.123 Scyllo                                              
  169.397 118%   0.152 Tau                                                 
    0.000 999%   0.000 -CrCH2                                              
  558.992   5%   0.503 GPC+PCh                                             
 2.80E+03   3%   2.521 NAA+NAAG                                            
 1.11E+03   5%   1.000 Cr+PCr                                              
 3.48E+03  18%   3.127 Glu+Gln                                             
 1.40E+03  28%   1.259 Lip13a                                              
    0.000 999%   0.000 Lip13b                                              
  104.782 195% 9.4E-02 Lip09                                               
  882.749  25%   0.794 MM09                                                
  302.685  50%   0.272 Lip20                                               
 1.96E+03  16%   1.760 MM20                                                
  274.106  46%   0.247 MM12                                                
  755.692  36%   0.680 MM14                                                
  247.239  61%   0.222 MM17                                                
 1.40E+03  28%   1.259 Lip13a+Lip13b                                       
 2.43E+03  12%   2.186 MM14+Lip13a+Lip13b+MM12                             
  987.531  14%   0.888 MM09+Lip09                                          
 2.26E+03  14%   2.032 MM20+Lip20                                          
   6 lines in following misc. output table
  FWHM = 0.069 ppm    S/N =  11                                            
  Data shift =-0.008 ppm                                                   
  Ph: -47 deg     -10.5 deg/ppm                                            
  alphaB,S = 8.5E+01,   1.0E+02                                            
   14 spline knots.   Ns = 9(1)                                            
   2 inflections.     1 extrema                                            
  498 points on ppm-axis = NY
      4.000000     3.992357     3.984714     3.977070     3.969427     3.961784     3.954141     3.946497     3.938854     3.931211
      3.923568     3.915925     3.908281     3.900638     3.892995     3.885352     3.877708     3.870065     3.862422     3.854779
      3.847136     3.839492     3.831849     3.824206     3.816563     3.808919     3.801276     3.793633     3.785990     3.778347
      3.770703     3.763060     3.755417     3.747774     3.740130     3.732487     3.724844     3.717201     3.709558     3.701914
      3.694271     3.686628     3.678985     3.671341     3.663698     3.656055     3.648412     3.640769     3.633125     3.625482
      3.617839     3.610196     3.602552     3.594909     3.587266     3.579623     3.571980     3.564336     3.556693     3.549050
      3.541407     3.533763     3.526120     3.518477     3.510834     3.503191     3.495547     3.487904     3.480261     3.472618
      3.464974     3.457331     3.449688     3.442045     3.434402     3.426758     3.419115     3.411472     3.403829     3.396185
      3.388542     3.380899     3.373256     3.365613     3.357969     3.350326     3.342683     3.335040     3.327396     3.319753
      3.312110     3.304467     3.296824     3.289180     3.281537     3.273894     3.266251     3.258607     3.250964     3.243321
      3.235678     3.228034     3.220391     3.212748     3.205105     3.197462     3.189818     3.182175     3.174532     3.166889
      3.159245     3.151602     3.143959     3.136316     3.128673     3.121029     3.113386     3.105743     3.098100     3.090456
      3.082813     3.075170     3.067527     3.059884     3.052240     3.044597     3.036954     3.029311     3.021667     3.014024
      3.006381     2.998738     2.991095     2.983451     2.975808     2.968165     2.960522     2.952878     2.945235     2.937592
      2.929949     2.922306     2.914662     2.907019     2.899376     2.891733     2.884089     2.876446     2.868803     2.861160
      2.853517     2.845873     2.838230     2.830587     2.822944     2.815300     2.807657     2.800014     2.792371     2.784728
      2.777084     2.769441     2.761798     2.754155     2.746511     2.738868     2.731225     2.723582     2.715939     2.708295
      2.700652     2.693009     2.685366     2.677722     2.670079     2.662436     2.654793     2.647150     2.639506     2.631863
      2.624220     2.616577     2.608933     2.601290     2.593647     2.586004     2.578361     2.570717     2.563074     2.555431
      2.547788     2.540144     2.532501     2.524858     2.517215     2.509572     2.501928     2.494285     2.486642     2.478999
      2.471355     2.463712     2.456069     2.448426     2.440783     2.433139     2.425496     2.417853     2.410210     2.402566
      2.394923     2.387280     2.379637     2.371994     2.364350     2.356707     2.349064     2.341421     2.333777     2.326134
      2.318491     2.310848     2.303205     2.295561     2.287918     2.280275     2.272632     2.264988     2.257345     2.249702
      2.242059     2.234416     2.226772     2.219129     2.211486     2.203843     2.196199     2.188556     2.180913     2.173270
      2.165627     2.157983     2.150340     2.142697     2.135054     2.127410     2.119767     2.112124     2.104481     2.096838
      2.089194     2.081551     2.073908     2.066265     2.058621     2.050978     2.043335     2.035692     2.028049     2.020405
      2.012762     2.005119     1.997476     1.989833     1.982190     1.974546     1.966903     1.959260     1.951617     1.943974
      1.936331     1.928688     1.921045     1.913402     1.905759     1.898115     1.890472     1.882829     1.875186     1.867543
      1.859900     1.852257     1.844614     1.836971     1.829327     1.821684     1.814041     1.806398     1.798755     1.791112
      1.783469     1.775826     1.768183     1.760540     1.752896     1.745253     1.737610     1.729967     1.722324     1.714681
      1.707038     1.699395     1.691752     1.684108     1.676465     1.668822     1.661179     1.653536     1.645893     1.638250
      1.630607     1.622964     1.615321     1.607677     1.600034     1.592391     1.584748     1.577105     1.569462     1.561819
      1.554176     1.546533     1.538890     1.531246     1.523603     1.515960     1.508317     1.500674     1.493031     1.485388
      1.477745     1.470102     1.462458     1.454815     1.447172     1.439529     1.431886     1.424243     1.416600     1.408957
      1.401314     1.393671     1.386027     1.378384     1.370741     1.363098     1.355455     1.347812     1.340169     1.332526
      1.324883     1.317240     1.309596     1.301953     1.294310     1.286667     1.279024     1.271381     1.263738     1.256095
      1.248452     1.240808     1.233165     1.225522     1.217879     1.210236     1.202593     1.194950     1.187307     1.179664
      1.172021     1.164377     1.156734     1.149091     1.141448     1.133805     1.126162     1.118519     1.110876     1.103233
      1.095590     1.087946     1.080303     1.072660     1.065017     1.057374     1.049731     1.042088     1.034445     1.026802
      1.019158     1.011515     1.003872     0.996229     0.988586     0.980943     0.973300     0.965657     0.958014     0.950371
      0.942727     0.935084     0.927441     0.919798     0.912155     0.904512     0.896869     0.889226     0.881583     0.873940
      0.866296     0.858653     0.851010     0.843367     0.835724     0.828081     0.820438     0.812795     0.805152     0.797508
      0.789865     0.782222     0.774579     0.766936     0.759293     0.751650     0.744007     0.736364     0.728721     0.721077
      0.713434     0.705791     0.698148     0.690505     0.682862     0.675219     0.667576     0.659933     0.652290     0.644646
      0.637003     0.629360     0.621717     0.614074     0.606431     0.598788     0.591145     0.583502     0.575858     0.568215
      0.560572     0.552929     0.545286     0.537643     0.530000     0.522357     0.514714     0.507071     0.499427     0.491784
      0.484141     0.476498     0.468855     0.461212     0.453569     0.445925     0.438282     0.430639     0.422996     0.415353
      0.407710     0.400067     0.392424     0.384780     0.377137     0.369494     0.361851     0.354208     0.346565     0.338922
      0.331278     0.323635     0.315992     0.308349     0.300706     0.293063     0.285420     0.277777     0.270133     0.262490
      0.254847     0.247204     0.239561     0.231918     0.224275     0.216631     0.208988     0.201345
 NY phased data points follow
   4.54058E+00  9.04604E+00  4.05920E+00  4.76990E-01  4.77282E+00  9.11551E+00  1.52617E+01  1.13130E+01  1.19443E+01  1.93382E+01
   1.66601E+01  1.62479E+01  1.92288E+01  2.00761E+01  2.10665E+01  1.68318E+01  1.39846E+01  1.19677E+01  6.51536E+00  5.26234E+00
   7.40035E+00  2.61250E-02  2.54563E+00  1.92133E-01  2.40870E+00  4.04558E+00  5.49827E+00  6.16416E+00  2.84760E+00  4.88419E+00
   5.80882E+00  7.52016E+00  4.11152E+00  5.72241E+00  1.83781E+00  8.74854E+00  3.36808E+00  6.92330E+00  5.43215E+00  2.95784E+00
   2.66518E+00  8.38645E+00  4.48580E+00  7.57182E+00  8.67352E+00  1.14500E+01  5.76874E+00  6.07854E+00  5.89701E+00  8.36621E+00
   7.70114E+00  9.89868E+00  6.24498E+00  1.45814E+00  7.85829E+00  1.91793E+00 -2.29277E+00  3.44312E+00  5.27281E-01  1.81236E+00
   4.31516E+00 -2.49989E+00 -4.86560E+00  8.45560E-01 -2.84157E+00  1.50482E+00 -5.12530E+00 -8.77224E-01 -8.57450E-01  4.46913E-01
   1.37972E+00 -1.28778E+00  4.31160E+00  1.94560E+00  1.96497E+00  1.00466E+00  5.00339E-01  3.41776E+00 -2.78371E+00 -1.61321E+00
  -3.19786E+00 -5.73327E+00  2.27589E+00  2.47391E+00  2.51016E+00  3.08510E+00  5.36100E+00  5.89365E+00  3.78367E+00 -7.01812E-01
   3.69802E+00  3.43863E+00  2.86615E+00  6.41955E+00  5.68816E+00  4.42252E+00  9.89553E+00  8.64074E+00  1.28522E+01  1.26671E+01
   2.37517E+01  3.09541E+01  3.44341E+01  3.29437E+01  3.43767E+01  3.73792E+01  3.51177E+01  2.76143E+01  2.92265E+01  1.46395E+01
   1.21713E+01  5.52909E+00  3.56438E+00  3.73813E+00  3.69561E+00  2.41565E+00  1.81375E+00 -1.77976E+00  5.97595E+00  4.92126E-01
   4.10525E+00  2.23777E+00  6.02281E+00  7.02255E+00  1.17987E+01  1.73202E+01  2.10265E+01  2.28221E+01  2.48016E+01  2.26015E+01
   2.45828E+01  2.34781E+01  2.57601E+01  1.67445E+01  9.30399E+00  6.56564E+00  3.03006E-01  1.07070E+00  6.51686E-01  1.25494E+00
  -2.34987E+00 -9.68950E-01 -1.51780E+00 -9.75840E-01 -2.18675E+00  5.91948E-01 -1.40947E+00 -1.10691E+00 -8.74574E-01  1.54826E+00
  -1.59271E+00 -2.64998E+00  2.25442E+00 -3.23422E+00 -1.21856E+00  2.62420E+00  1.54596E+00 -6.87086E-01 -3.54171E+00 -3.03425E+00
  -9.41263E-01 -8.88063E+00 -3.07403E+00  8.14845E-01 -1.92395E+00 -7.66315E+00 -4.74596E+00 -8.72039E+00 -1.06698E+01 -1.08000E+01
  -9.66407E+00 -1.07442E+01 -1.19738E+01 -1.63228E+01 -9.67731E+00 -1.02867E+01 -1.35324E+01 -9.46774E+00 -7.60300E+00 -1.17335E+01
  -1.06314E+01 -9.36784E+00 -9.26093E+00 -3.29170E+00 -9.40461E+00 -8.07266E+00 -9.98895E+00 -5.72706E+00 -2.59579E+00 -5.87538E+00
  -3.29743E+00 -7.91687E+00 -4.30203E+00 -6.32439E+00 -7.47165E+00 -8.39911E+00 -6.72346E+00 -4.67677E+00 -3.25243E+00 -6.18684E+00
  -7.66339E+00 -1.16487E+00 -5.81069E+00 -9.48553E-01 -6.06341E+00  5.25045E-01 -1.02364E+00  9.13609E-01 -2.72593E+00 -4.77821E+00
  -4.82106E+00  1.52259E+00  4.01287E+00 -1.30325E+00  5.33332E+00  1.00099E+01  9.90522E+00  7.62009E+00  9.57220E+00  6.75811E-01
   5.81466E+00  3.96055E+00  5.19828E+00  1.22140E+00 -1.15874E+00 -1.66331E+00 -1.10604E+00  2.49046E+00  1.01300E+00  6.41673E+00
   7.49668E+00  9.65228E+00  8.41446E+00  4.99879E+00  3.13948E+00  4.81070E+00  9.21367E+00  7.14991E+00  8.17265E+00  8.21583E+00
   6.16688E+00  1.47928E+00  3.86364E+00  2.26170E+00 -5.09441E-01  2.08704E+00  4.93466E+00  5.19545E+00  5.71510E+00  1.14360E+01
   1.49714E+01  1.24869E+01  1.57188E+01  2.34199E+01  2.97413E+01  4.10104E+01  4.75923E+01  5.23818E+01  5.89360E+01  7.28496E+01
   7.54979E+01  7.17437E+01  6.97792E+01  5.89557E+01  5.40391E+01  4.58111E+01  3.23768E+01  2.18602E+01  1.77788E+01  1.27194E+01
   1.30393E+01  4.30022E+00  6.85631E+00  1.05509E+01  5.17203E+00  2.63712E+00  3.72023E+00  3.34656E+00  3.76814E+00 -1.34237E+00
   1.55540E+00  2.33593E+00  1.55919E+00 -2.35181E+00  5.86490E+00 -3.84761E+00  3.98490E+00  1.00631E-01 -1.84666E+00 -8.86841E-01
   2.41522E+00 -5.86359E-01  2.87302E+00  4.87994E+00  3.81585E+00 -2.62910E+00  1.25947E+00  4.85323E+00  1.96651E+00  6.42270E-01
  -2.00592E+00 -4.10041E-01  1.41208E+00  9.01520E-01  5.31683E+00  1.01539E+00 -2.29041E-01 -4.04914E+00  1.27077E+00 -1.98975E+00
   3.16006E+00  2.88255E+00  8.22793E+00  8.12915E+00  4.39021E+00  4.67782E+00  2.94561E+00 -3.24757E-02  1.83922E+00 -1.19181E+00
   2.58344E+00  1.65036E+00  1.38030E+00  4.13117E+00  1.39559E+00  2.04445E+00  7.85318E-01  3.59234E+00  5.32153E+00  3.09025E+00
   6.36795E+00 -1.51123E+00  3.86992E+00  2.69635E+00  9.24366E+00  5.72543E+00  7.35847E+00  3.55922E+00  5.23812E+00  4.79290E+00
   1.14801E+00  6.06271E+00  1.00578E+01  9.15609E+00  7.13711E+00  7.52705E+00  7.64486E+00  8.44308E+00  1.19148E+01  1.21754E+01
   7.36907E+00  5.00971E+00  1.18766E+01  7.44794E+00  1.15884E+01  9.16271E+00  4.60063E+00  6.27641E+00  8.06233E+00  6.40181E+00
   1.04901E+01  5.19741E+00  7.57425E+00  7.29103E+00  8.56391E+00  8.46801E+00  4.87673E+00  5.16052E+00  7.12611E+00  7.66061E+00
   5.06222E+00  5.04851E+00  1.11603E+01  6.65869E+00  5.87615E+00  3.64998E+00  5.12632E+00  3.38077E+00  2.75117E+00  4.20797E+00
   2.83577E-01  5.07999E-01  4.08608E+00 -3.40464E-01  3.66145E+00  4.01589E+00 -1.62505E+00  1.18787E+00  4.13559E+00 -2.70495E+00
   4.28318E+00  2.44141E+00  6.47538E+00  1.10861E+00 -1.53679E+00  5.36282E+00  3.27660E+00  1.62504E+00  8.42093E+00  7.28154E+00
   3.12250E+00  7.83936E+00  6.47911E+00  6.71117E+00  9.23713E+00  7.21853E+00  2.08348E+00  4.58625E+00  6.67855E+00  6.54948E+00
   6.47773E+00  6.68120E+00  9.53755E+00  9.04118E+00  9.95693E+00  6.16582E+00  5.75804E+00  5.59503E+00  7.02385E+00  7.07092E+00
   3.56588E+00  3.97286E+00  4.05706E+00  5.11865E+00  6.33123E+00  3.22627E+00  2.46390E+00  2.46589E+00  2.14103E+00  3.73134E+00
   5.16850E+00  5.11027E+00  5.18815E+00 -5.51120E-01  1.36980E+00  5.39565E+00  3.49686E+00  1.46233E-02 -6.01379E-01  2.59789E+00
   3.37837E+00  5.23440E+00  5.66086E-01 -2.12594E+00  4.76020E+00  3.74771E+00  4.18605E-01  4.60113E-01  1.43282E+00 -2.42547E+00
   4.17030E+00 -1.30742E+00 -2.29795E-01 -2.76167E+00  1.09159E+00  2.66500E+00  4.60550E+00  3.46698E-01  1.87640E+00 -1.95899E+00
   1.43601E+00  4.51519E-01 -4.33747E-01  2.11490E+00  1.99934E-01  1.16683E+00 -1.82716E+00  1.30694E-01  4.67740E+00  1.83378E+00
   3.75794E+00  9.10868E-01  2.32200E+00 -1.79320E+00 -2.07989E-01  5.09933E-01  4.22854E+00  6.72357E-01  4.35238E+00 -2.63026E+00
   2.36874E+00  6.50015E-01  3.30410E+00  4.81427E+00  2.19953E+00  1.12695E+00  1.93947E+00  3.02403E+00  2.84292E+00  3.83041E+00
   2.44004E+00 -1.32432E+00 -3.00481E+00  2.42637E+00  2.21099E+00 -6.06919E-01  2.01280E+00  3.84192E+00
 NY points of the fit to the data follow
   2.92600E+00  2.91525E+00  3.15784E+00  3.94251E+00  5.24246E+00  6.88475E+00  8.91134E+00  1.13331E+01  1.39148E+01  1.63589E+01
   1.83436E+01  1.95366E+01  1.97501E+01  1.91172E+01  1.78401E+01  1.60128E+01  1.37062E+01  1.10332E+01  8.28555E+00  5.87758E+00
   4.22501E+00  3.22889E+00  2.47096E+00  2.10741E+00  1.99396E+00  2.07177E+00  2.46222E+00  3.26605E+00  4.51017E+00  5.94023E+00
   7.14154E+00  7.97172E+00  8.40649E+00  8.45285E+00  8.09801E+00  7.24324E+00  5.88692E+00  4.42693E+00  3.37161E+00  2.70947E+00
   2.36514E+00  2.56681E+00  3.32796E+00  4.42862E+00  5.69478E+00  7.01873E+00  8.09233E+00  8.52079E+00  8.26897E+00  7.64983E+00
   6.87215E+00  5.97171E+00  4.78332E+00  3.35944E+00  2.07999E+00  1.22349E+00  7.54130E-01  5.95246E-01  7.52970E-01  1.08272E+00
   1.32905E+00  1.37367E+00  1.26908E+00  1.11915E+00  9.23955E-01  6.54939E-01  3.77990E-01  2.01078E-01  1.67168E-01  2.69831E-01
   5.01812E-01  7.81718E-01  1.01677E+00  1.18834E+00  1.26847E+00  1.24342E+00  1.12063E+00  9.76308E-01  9.31729E-01  9.24735E-01
   9.81648E-01  1.10496E+00  1.34237E+00  1.80980E+00  2.46350E+00  3.05824E+00  3.34324E+00  3.29494E+00  3.07580E+00  2.84333E+00
   2.59383E+00  2.19811E+00  1.66536E+00  1.49130E+00  2.60642E+00  4.59008E+00  6.75462E+00  9.23594E+00  1.25564E+01  1.70294E+01
   2.28048E+01  2.90834E+01  3.41021E+01  3.65556E+01  3.67317E+01  3.56696E+01  3.37168E+01  3.03328E+01  2.48128E+01  1.77436E+01
   1.11602E+01  6.35281E+00  2.84501E+00 -5.87766E-02 -1.49475E+00 -1.75460E+00 -1.70143E+00 -1.44004E+00 -6.68861E-01  7.83662E-01
   2.46372E+00  4.30869E+00  6.51171E+00  9.36185E+00  1.31296E+01  1.76438E+01  2.19080E+01  2.47307E+01  2.57386E+01  2.55106E+01
   2.46045E+01  2.28982E+01  1.98342E+01  1.52628E+01  1.01766E+01  5.96152E+00  2.95056E+00  5.91782E-01 -1.08008E+00 -1.66725E+00
  -1.76606E+00 -1.69314E+00 -1.54530E+00 -1.39395E+00 -1.26546E+00 -1.19388E+00 -1.24727E+00 -1.40839E+00 -1.62407E+00 -1.85580E+00
  -2.06626E+00 -2.27997E+00 -2.52936E+00 -2.74878E+00 -2.90838E+00 -2.99454E+00 -3.03270E+00 -3.12912E+00 -3.33487E+00 -3.59708E+00
  -3.80082E+00 -3.89903E+00 -3.95229E+00 -4.06404E+00 -4.30149E+00 -4.62611E+00 -4.94392E+00 -5.22927E+00 -5.51990E+00 -5.83610E+00
  -6.15355E+00 -6.46076E+00 -6.82102E+00 -7.18957E+00 -7.49829E+00 -7.62368E+00 -7.52850E+00 -7.42223E+00 -7.45943E+00 -7.52754E+00
  -7.44224E+00 -7.12394E+00 -6.65861E+00 -6.20646E+00 -5.84658E+00 -5.42322E+00 -4.78191E+00 -3.99568E+00 -3.19969E+00 -2.53774E+00
  -2.05130E+00 -1.69398E+00 -1.46978E+00 -1.38412E+00 -1.43865E+00 -1.48606E+00 -1.40657E+00 -1.08445E+00 -4.81834E-01  3.48538E-01
   1.16687E+00  1.86677E+00  2.45728E+00  2.73173E+00  2.36247E+00  1.18961E+00 -7.12499E-01 -2.80442E+00 -4.47517E+00 -5.55074E+00
  -6.04122E+00 -5.89878E+00 -4.93003E+00 -3.10467E+00 -7.18812E-01  1.72281E+00  3.48143E+00  4.21708E+00  4.19166E+00  3.56772E+00
   2.18375E+00  2.94360E-01 -1.32933E+00 -2.18787E+00 -2.27769E+00 -1.84815E+00 -1.12878E+00  8.48177E-02  1.71822E+00  3.22465E+00
   4.23008E+00  4.74234E+00  4.93699E+00  4.86570E+00  4.68209E+00  4.69813E+00  5.04619E+00  5.51967E+00  5.84371E+00  5.83891E+00
   5.54900E+00  5.15791E+00  4.66838E+00  4.08274E+00  3.58909E+00  3.29658E+00  3.29123E+00  4.14228E+00  5.94249E+00  8.15467E+00
   1.08060E+01  1.49555E+01  2.04932E+01  2.66264E+01  3.31780E+01  3.98698E+01  4.66920E+01  5.42339E+01  6.22905E+01  6.88369E+01
   7.16024E+01  7.02559E+01  6.62602E+01  6.11291E+01  5.50305E+01  4.67596E+01  3.62075E+01  2.62106E+01  1.89321E+01  1.35465E+01
   8.86033E+00  5.99112E+00  4.96186E+00  4.42778E+00  4.02858E+00  3.71143E+00  3.45138E+00  3.20197E+00  2.96860E+00  2.72400E+00
   2.46035E+00  2.20799E+00  1.99847E+00  1.83534E+00  1.69975E+00  1.58761E+00  1.50742E+00  1.45650E+00  1.40740E+00  1.35257E+00
   1.30879E+00  1.29078E+00  1.28968E+00  1.29787E+00  1.31826E+00  1.35862E+00  1.40694E+00  1.45335E+00  1.49091E+00  1.52310E+00
   1.55771E+00  1.59572E+00  1.62949E+00  1.66497E+00  1.70844E+00  1.75820E+00  1.80682E+00  1.84741E+00  1.87934E+00  1.90518E+00
   1.92276E+00  1.93303E+00  1.94133E+00  1.95034E+00  1.96328E+00  1.98309E+00  2.01201E+00  2.05198E+00  2.10482E+00  2.17201E+00
   2.25479E+00  2.35406E+00  2.47002E+00  2.60242E+00  2.75075E+00  2.91366E+00  3.08963E+00  3.27720E+00  3.47492E+00  3.68147E+00
   3.89530E+00  4.11480E+00  4.33873E+00  4.56640E+00  4.79719E+00  5.02983E+00  5.26299E+00  5.49644E+00  5.73124E+00  5.96620E+00
   6.19925E+00  6.43063E+00  6.66102E+00  6.89085E+00  7.11885E+00  7.34125E+00  7.55483E+00  7.75700E+00  7.94591E+00  8.12070E+00
   8.27849E+00  8.41535E+00  8.52873E+00  8.61792E+00  8.68159E+00  8.71456E+00  8.71013E+00  8.66526E+00  8.58165E+00  8.45899E+00
   8.29404E+00  8.08739E+00  7.84430E+00  7.57256E+00  7.27815E+00  6.96494E+00  6.63969E+00  6.30874E+00  5.97612E+00  5.64607E+00
   5.32267E+00  5.00956E+00  4.70985E+00  4.42619E+00  4.16081E+00  3.91556E+00  3.69182E+00  3.49055E+00  3.31244E+00  3.15803E+00
   3.02778E+00  2.92214E+00  2.84144E+00  2.78602E+00  2.75631E+00  2.75288E+00  2.77646E+00  2.82780E+00  2.90758E+00  3.01643E+00
   3.15487E+00  3.32324E+00  3.52150E+00  3.74904E+00  4.00455E+00  4.28592E+00  4.59023E+00  4.91364E+00  5.25127E+00  5.59724E+00
   5.94473E+00  6.28628E+00  6.61397E+00  6.91971E+00  7.19547E+00  7.43362E+00  7.62733E+00  7.77100E+00  7.86044E+00  7.89310E+00
   7.86810E+00  7.78633E+00  7.65038E+00  7.46446E+00  7.23413E+00  6.96593E+00  6.66700E+00  6.34487E+00  6.00706E+00  5.66091E+00
   5.31314E+00  4.96973E+00  4.63569E+00  4.31513E+00  4.01123E+00  3.72627E+00  3.46164E+00  3.21794E+00  2.99511E+00  2.79263E+00
   2.60965E+00  2.44503E+00  2.29743E+00  2.16537E+00  2.04738E+00  1.94205E+00  1.84809E+00  1.76425E+00  1.68937E+00  1.62236E+00
   1.56228E+00  1.50834E+00  1.45986E+00  1.41622E+00  1.37682E+00  1.34114E+00  1.30879E+00  1.27944E+00  1.25279E+00  1.22856E+00
   1.20646E+00  1.18627E+00  1.16782E+00  1.15100E+00  1.13567E+00  1.12166E+00  1.10884E+00  1.09710E+00  1.08639E+00  1.07666E+00
   1.06782E+00  1.05976E+00  1.05241E+00  1.04574E+00  1.03973E+00  1.03435E+00  1.02953E+00  1.02519E+00  1.02130E+00  1.01786E+00
   1.01487E+00  1.01230E+00  1.01007E+00  1.00815E+00  1.00652E+00  1.00522E+00  1.00423E+00  1.00351E+00  1.00300E+00  1.00268E+00
   1.00257E+00  1.00269E+00  1.00301E+00  1.00348E+00  1.00406E+00  1.00476E+00  1.00559E+00  1.00657E+00  1.00766E+00  1.00879E+00
   1.00996E+00  1.01117E+00  1.01246E+00  1.01379E+00  1.01511E+00  1.01638E+00  1.01760E+00  1.01878E+00
 NY background values follow
    -4.576E+00   -4.567E+00   -4.558E+00   -4.548E+00   -4.539E+00   -4.530E+00   -4.520E+00   -4.511E+00   -4.502E+00   -4.493E+00
    -4.483E+00   -4.474E+00   -4.465E+00   -4.455E+00   -4.446E+00   -4.437E+00   -4.427E+00   -4.418E+00   -4.409E+00   -4.399E+00
    -4.390E+00   -4.381E+00   -4.371E+00   -4.362E+00   -4.352E+00   -4.343E+00   -4.334E+00   -4.324E+00   -4.315E+00   -4.306E+00
    -4.296E+00   -4.287E+00   -4.277E+00   -4.268E+00   -4.259E+00   -4.249E+00   -4.240E+00   -4.231E+00   -4.221E+00   -4.212E+00
    -4.202E+00   -4.193E+00   -4.184E+00   -4.174E+00   -4.165E+00   -4.155E+00   -4.146E+00   -4.136E+00   -4.127E+00   -4.118E+00
    -4.108E+00   -4.099E+00   -4.089E+00   -4.080E+00   -4.071E+00   -4.061E+00   -4.052E+00   -4.042E+00   -4.033E+00   -4.023E+00
    -4.014E+00   -4.004E+00   -3.995E+00   -3.986E+00   -3.976E+00   -3.967E+00   -3.957E+00   -3.948E+00   -3.938E+00   -3.929E+00
    -3.919E+00   -3.910E+00   -3.900E+00   -3.891E+00   -3.881E+00   -3.872E+00   -3.862E+00   -3.853E+00   -3.843E+00   -3.834E+00
    -3.824E+00   -3.815E+00   -3.805E+00   -3.796E+00   -3.786E+00   -3.777E+00   -3.767E+00   -3.758E+00   -3.748E+00   -3.739E+00
    -3.729E+00   -3.720E+00   -3.710E+00   -3.701E+00   -3.691E+00   -3.682E+00   -3.672E+00   -3.663E+00   -3.653E+00   -3.644E+00
    -3.634E+00   -3.625E+00   -3.615E+00   -3.606E+00   -3.596E+00   -3.586E+00   -3.577E+00   -3.567E+00   -3.558E+00   -3.548E+00
    -3.539E+00   -3.529E+00   -3.520E+00   -3.510E+00   -3.501E+00   -3.491E+00   -3.481E+00   -3.472E+00   -3.462E+00   -3.453E+00
    -3.443E+00   -3.434E+00   -3.424E+00   -3.414E+00   -3.405E+00   -3.395E+00   -3.386E+00   -3.376E+00   -3.366E+00   -3.357E+00
    -3.347E+00   -3.338E+00   -3.328E+00   -3.319E+00   -3.309E+00   -3.299E+00   -3.290E+00   -3.280E+00   -3.271E+00   -3.261E+00
    -3.251E+00   -3.242E+00   -3.232E+00   -3.223E+00   -3.213E+00   -3.203E+00   -3.194E+00   -3.184E+00   -3.174E+00   -3.165E+00
    -3.155E+00   -3.146E+00   -3.136E+00   -3.126E+00   -3.117E+00   -3.107E+00   -3.097E+00   -3.088E+00   -3.078E+00   -3.069E+00
    -3.059E+00   -3.049E+00   -3.040E+00   -3.030E+00   -3.020E+00   -3.011E+00   -3.001E+00   -2.991E+00   -2.982E+00   -2.972E+00
    -2.963E+00   -2.953E+00   -2.943E+00   -2.934E+00   -2.924E+00   -2.914E+00   -2.905E+00   -2.895E+00   -2.885E+00   -2.876E+00
    -2.866E+00   -2.856E+00   -2.847E+00   -2.837E+00   -2.827E+00   -2.818E+00   -2.808E+00   -2.798E+00   -2.789E+00   -2.779E+00
    -2.769E+00   -2.760E+00   -2.750E+00   -2.740E+00   -2.731E+00   -2.721E+00   -2.711E+00   -2.701E+00   -2.692E+00   -2.682E+00
    -2.672E+00   -2.663E+00   -2.653E+00   -2.643E+00   -2.634E+00   -2.624E+00   -2.614E+00   -2.605E+00   -2.595E+00   -2.585E+00
    -2.576E+00   -2.566E+00   -2.556E+00   -2.546E+00   -2.537E+00   -2.527E+00   -2.517E+00   -2.508E+00   -2.498E+00   -2.488E+00
    -2.479E+00   -2.469E+00   -2.459E+00   -2.449E+00   -2.440E+00   -2.430E+00   -2.420E+00   -2.411E+00   -2.401E+00   -2.391E+00
    -2.381E+00   -2.372E+00   -2.362E+00   -2.352E+00   -2.343E+00   -2.333E+00   -2.323E+00   -2.313E+00   -2.304E+00   -2.294E+00
    -2.284E+00   -2.275E+00   -2.265E+00   -2.255E+00   -2.245E+00   -2.236E+00   -2.226E+00   -2.216E+00   -2.206E+00   -2.197E+00
    -2.187E+00   -2.177E+00   -2.168E+00   -2.158E+00   -2.148E+00   -2.138E+00   -2.129E+00   -2.119E+00   -2.109E+00   -2.099E+00
    -2.090E+00   -2.080E+00   -2.070E+00   -2.060E+00   -2.051E+00   -2.041E+00   -2.031E+00   -2.022E+00   -2.012E+00   -2.002E+00
    -1.992E+00   -1.983E+00   -1.973E+00   -1.963E+00   -1.953E+00   -1.944E+00   -1.934E+00   -1.924E+00   -1.914E+00   -1.905E+00
    -1.895E+00   -1.885E+00   -1.875E+00   -1.866E+00   -1.856E+00   -1.846E+00   -1.836E+00   -1.827E+00   -1.817E+00   -1.807E+00
    -1.797E+00   -1.788E+00   -1.778E+00   -1.768E+00   -1.759E+00   -1.749E+00   -1.739E+00   -1.729E+00   -1.720E+00   -1.710E+00
    -1.700E+00   -1.690E+00   -1.681E+00   -1.671E+00   -1.661E+00   -1.651E+00   -1.642E+00   -1.632E+00   -1.622E+00   -1.612E+00
    -1.603E+00   -1.593E+00   -1.583E+00   -1.573E+00   -1.564E+00   -1.554E+00   -1.544E+00   -1.534E+00   -1.525E+00   -1.515E+00
    -1.505E+00   -1.495E+00   -1.486E+00   -1.476E+00   -1.466E+00   -1.456E+00   -1.447E+00   -1.437E+00   -1.427E+00   -1.417E+00
    -1.408E+00   -1.398E+00   -1.388E+00   -1.378E+00   -1.369E+00   -1.359E+00   -1.349E+00   -1.339E+00   -1.330E+00   -1.320E+00
    -1.310E+00   -1.300E+00   -1.291E+00   -1.281E+00   -1.271E+00   -1.261E+00   -1.252E+00   -1.242E+00   -1.232E+00   -1.222E+00
    -1.213E+00   -1.203E+00   -1.193E+00   -1.184E+00   -1.174E+00   -1.164E+00   -1.154E+00   -1.145E+00   -1.135E+00   -1.125E+00
    -1.115E+00   -1.106E+00   -1.096E+00   -1.086E+00   -1.076E+00   -1.067E+00   -1.057E+00   -1.047E+00   -1.037E+00   -1.028E+00
    -1.018E+00   -1.008E+00   -9.985E-01   -9.888E-01   -9.791E-01   -9.693E-01   -9.596E-01   -9.499E-01   -9.401E-01   -9.304E-01
    -9.207E-01   -9.109E-01   -9.012E-01   -8.915E-01   -8.818E-01   -8.720E-01   -8.623E-01   -8.526E-01   -8.429E-01   -8.332E-01
    -8.234E-01   -8.137E-01   -8.040E-01   -7.943E-01   -7.845E-01   -7.748E-01   -7.651E-01   -7.554E-01   -7.457E-01   -7.360E-01
    -7.263E-01   -7.165E-01   -7.068E-01   -6.971E-01   -6.874E-01   -6.777E-01   -6.680E-01   -6.583E-01   -6.486E-01   -6.389E-01
    -6.292E-01   -6.195E-01   -6.097E-01   -6.000E-01   -5.903E-01   -5.806E-01   -5.709E-01   -5.612E-01   -5.515E-01   -5.418E-01
    -5.321E-01   -5.225E-01   -5.128E-01   -5.031E-01   -4.934E-01   -4.837E-01   -4.740E-01   -4.643E-01   -4.546E-01   -4.449E-01
    -4.352E-01   -4.256E-01   -4.159E-01   -4.062E-01   -3.965E-01   -3.868E-01   -3.771E-01   -3.675E-01   -3.578E-01   -3.481E-01
    -3.384E-01   -3.288E-01   -3.191E-01   -3.094E-01   -2.997E-01   -2.901E-01   -2.804E-01   -2.707E-01   -2.611E-01   -2.514E-01
    -2.418E-01   -2.321E-01   -2.224E-01   -2.128E-01   -2.031E-01   -1.935E-01   -1.838E-01   -1.741E-01   -1.645E-01   -1.548E-01
    -1.452E-01   -1.355E-01   -1.259E-01   -1.162E-01   -1.066E-01   -9.696E-02   -8.732E-02   -7.768E-02   -6.804E-02   -5.840E-02
    -4.877E-02   -3.913E-02   -2.950E-02   -1.987E-02   -1.024E-02   -6.071E-04    9.020E-03    1.865E-02    2.827E-02    3.789E-02
     4.751E-02    5.713E-02    6.675E-02    7.637E-02    8.598E-02    9.560E-02    1.052E-01    1.148E-01    1.244E-01    1.340E-01
     1.436E-01    1.532E-01    1.628E-01    1.724E-01    1.820E-01    1.916E-01    2.012E-01    2.108E-01
 Ala      Conc. = 1.23E+00
