 LCModel (Version 6.3-1L) Copyright: S.W. Provencher.          Ref.: Magn. Reson. Med. 30:672-679 (1993).                
 Slice#1 Row#1 Col#4  PD_24_press_1_raw_act
 36 lines in following concentration table = NCONC+1
    Conc.  %SD /Cr+PCr  Metabolite                                         
    7.430 891%   0.110 Ala                                                 
    6.145  78% 9.1E-02 Asp                                                 
    0.000 999%   0.000 Cr                                                  
   67.682  36%   1.000 PCr                                                 
    3.704  78% 5.5E-02 GABA                                                
    3.729  78% 5.5E-02 Glc                                                 
    0.000 999%   0.000 Gln                                                 
  508.815  34%   7.518 Glu                                                 
   16.530  57%   0.244 GPC                                                 
    0.000 999%   0.000 PCh                                                 
   18.631 207%   0.275 GSH                                                 
  397.693  29%   5.876 Ins                                                 
   28.850 258%   0.426 Lac                                                 
    5.756 510% 8.5E-02 NAA                                                 
    0.000 999%   0.000 NAAG                                                
    1.285  75% 1.9E-02 Scyllo                                              
    6.071  79% 9.0E-02 Tau                                                 
    3.314 251% 4.9E-02 -CrCH2                                              
   16.530  57%   0.244 GPC+PCh                                             
    5.756 510% 8.5E-02 NAA+NAAG                                            
   67.682  36%   1.000 Cr+PCr                                              
  508.815  34%   7.518 Glu+Gln                                             
 1.35E+03  20%  19.958 Lip13a                                              
    0.000 999%   0.000 Lip13b                                              
  381.781  32%   5.641 Lip09                                               
  152.315  75%   2.250 MM09                                                
  180.923  47%   2.673 Lip20                                               
    8.547 999%   0.126 MM20                                                
   59.402 108%   0.878 MM12                                                
  333.442  48%   4.927 MM14                                                
  394.556  27%   5.830 MM17                                                
 1.35E+03  20%  19.958 Lip13a+Lip13b                                       
 1.74E+03  12%  25.762 MM14+Lip13a+Lip13b+MM12                             
  534.097  16%   7.891 MM09+Lip09                                          
  189.470  73%   2.799 MM20+Lip20                                          
   6 lines in following misc. output table
  FWHM = 0.069 ppm    S/N =   1                                            
  Data shift = 0.008 ppm                                                   
  Ph: -54 deg      -2.7 deg/ppm                                            
  alphaB,S = 8.5E+01,   5.1E+01                                            
   14 spline knots.   Ns = 7(1)                                            
   2 inflections.     1 extrema                                            
  498 points on ppm-axis = NY
      4.000000     3.992357     3.984714     3.977070     3.969427     3.961784     3.954141     3.946497     3.938854     3.931211
      3.923568     3.915925     3.908281     3.900638     3.892995     3.885352     3.877708     3.870065     3.862422     3.854779
      3.847136     3.839492     3.831849     3.824206     3.816563     3.808919     3.801276     3.793633     3.785990     3.778347
      3.770703     3.763060     3.755417     3.747774     3.740130     3.732487     3.724844     3.717201     3.709558     3.701914
      3.694271     3.686628     3.678985     3.671341     3.663698     3.656055     3.648412     3.640769     3.633125     3.625482
      3.617839     3.610196     3.602552     3.594909     3.587266     3.579623     3.571980     3.564336     3.556693     3.549050
      3.541407     3.533763     3.526120     3.518477     3.510834     3.503191     3.495547     3.487904     3.480261     3.472618
      3.464974     3.457331     3.449688     3.442045     3.434402     3.426758     3.419115     3.411472     3.403829     3.396185
      3.388542     3.380899     3.373256     3.365613     3.357969     3.350326     3.342683     3.335040     3.327396     3.319753
      3.312110     3.304467     3.296824     3.289180     3.281537     3.273894     3.266251     3.258607     3.250964     3.243321
      3.235678     3.228034     3.220391     3.212748     3.205105     3.197462     3.189818     3.182175     3.174532     3.166889
      3.159245     3.151602     3.143959     3.136316     3.128673     3.121029     3.113386     3.105743     3.098100     3.090456
      3.082813     3.075170     3.067527     3.059884     3.052240     3.044597     3.036954     3.029311     3.021667     3.014024
      3.006381     2.998738     2.991095     2.983451     2.975808     2.968165     2.960522     2.952878     2.945235     2.937592
      2.929949     2.922306     2.914662     2.907019     2.899376     2.891733     2.884089     2.876446     2.868803     2.861160
      2.853517     2.845873     2.838230     2.830587     2.822944     2.815300     2.807657     2.800014     2.792371     2.784728
      2.777084     2.769441     2.761798     2.754155     2.746511     2.738868     2.731225     2.723582     2.715939     2.708295
      2.700652     2.693009     2.685366     2.677722     2.670079     2.662436     2.654793     2.647150     2.639506     2.631863
      2.624220     2.616577     2.608933     2.601290     2.593647     2.586004     2.578361     2.570717     2.563074     2.555431
      2.547788     2.540144     2.532501     2.524858     2.517215     2.509572     2.501928     2.494285     2.486642     2.478999
      2.471355     2.463712     2.456069     2.448426     2.440783     2.433139     2.425496     2.417853     2.410210     2.402566
      2.394923     2.387280     2.379637     2.371994     2.364350     2.356707     2.349064     2.341421     2.333777     2.326134
      2.318491     2.310848     2.303205     2.295561     2.287918     2.280275     2.272632     2.264988     2.257345     2.249702
      2.242059     2.234416     2.226772     2.219129     2.211486     2.203843     2.196199     2.188556     2.180913     2.173270
      2.165627     2.157983     2.150340     2.142697     2.135054     2.127410     2.119767     2.112124     2.104481     2.096838
      2.089194     2.081551     2.073908     2.066265     2.058621     2.050978     2.043335     2.035692     2.028049     2.020405
      2.012762     2.005119     1.997476     1.989833     1.982190     1.974546     1.966903     1.959260     1.951617     1.943974
      1.936331     1.928688     1.921045     1.913402     1.905759     1.898115     1.890472     1.882829     1.875186     1.867543
      1.859900     1.852257     1.844614     1.836971     1.829327     1.821684     1.814041     1.806398     1.798755     1.791112
      1.783469     1.775826     1.768183     1.760540     1.752896     1.745253     1.737610     1.729967     1.722324     1.714681
      1.707038     1.699395     1.691752     1.684108     1.676465     1.668822     1.661179     1.653536     1.645893     1.638250
      1.630607     1.622964     1.615321     1.607677     1.600034     1.592391     1.584748     1.577105     1.569462     1.561819
      1.554176     1.546533     1.538890     1.531246     1.523603     1.515960     1.508317     1.500674     1.493031     1.485388
      1.477745     1.470102     1.462458     1.454815     1.447172     1.439529     1.431886     1.424243     1.416600     1.408957
      1.401314     1.393671     1.386027     1.378384     1.370741     1.363098     1.355455     1.347812     1.340169     1.332526
      1.324883     1.317240     1.309596     1.301953     1.294310     1.286667     1.279024     1.271381     1.263738     1.256095
      1.248452     1.240808     1.233165     1.225522     1.217879     1.210236     1.202593     1.194950     1.187307     1.179664
      1.172021     1.164377     1.156734     1.149091     1.141448     1.133805     1.126162     1.118519     1.110876     1.103233
      1.095590     1.087946     1.080303     1.072660     1.065017     1.057374     1.049731     1.042088     1.034445     1.026802
      1.019158     1.011515     1.003872     0.996229     0.988586     0.980943     0.973300     0.965657     0.958014     0.950371
      0.942727     0.935084     0.927441     0.919798     0.912155     0.904512     0.896869     0.889226     0.881583     0.873940
      0.866296     0.858653     0.851010     0.843367     0.835724     0.828081     0.820438     0.812795     0.805152     0.797508
      0.789865     0.782222     0.774579     0.766936     0.759293     0.751650     0.744007     0.736364     0.728721     0.721077
      0.713434     0.705791     0.698148     0.690505     0.682862     0.675219     0.667576     0.659933     0.652290     0.644646
      0.637003     0.629360     0.621717     0.614074     0.606431     0.598788     0.591145     0.583502     0.575858     0.568215
      0.560572     0.552929     0.545286     0.537643     0.530000     0.522357     0.514714     0.507071     0.499427     0.491784
      0.484141     0.476498     0.468855     0.461212     0.453569     0.445925     0.438282     0.430639     0.422996     0.415353
      0.407710     0.400067     0.392424     0.384780     0.377137     0.369494     0.361851     0.354208     0.346565     0.338922
      0.331278     0.323635     0.315992     0.308349     0.300706     0.293063     0.285420     0.277777     0.270133     0.262490
      0.254847     0.247204     0.239561     0.231918     0.224275     0.216631     0.208988     0.201345
 NY phased data points follow
   4.81996E+00  2.87853E+00 -8.48453E-01  2.47956E+00  1.46583E+00  5.14574E+00  4.36117E+00  3.49861E+00  4.57822E+00  2.54767E+00
   4.57022E+00  6.33678E+00  7.12808E+00  2.69567E+00  3.55329E+00  2.98924E+00  5.00094E+00  1.21427E+00  2.51955E+00  3.91765E+00
   3.20188E+00  2.55793E+00  2.63698E+00  2.56366E+00  4.61388E-01  7.82136E+00  1.87423E+00  4.46628E+00  4.21567E+00  1.19446E+00
   3.85328E+00  1.21779E+00  1.76198E+00  2.20595E+00  3.57057E+00  6.53044E-01  3.33728E+00  7.09710E+00  9.64854E-01  1.30051E+00
   1.47788E+00  3.55585E+00  1.49939E-01  3.38667E+00  2.71601E+00  3.46533E+00  3.01368E+00  4.30754E+00  5.81421E+00  2.63337E+00
   2.89906E+00  3.45991E+00  2.57320E+00  4.18442E+00  1.62314E+00  2.46987E+00  5.20330E+00  5.07217E+00  6.75458E+00  7.09498E-01
   3.60357E+00  2.77873E+00  7.27279E+00  4.00594E-01  1.36526E+00  1.84477E+00  2.47251E+00  4.57426E+00  3.09910E+00  1.49558E+00
   3.63662E+00  3.31065E+00  1.77917E+00  2.29951E+00  2.81206E+00  1.93934E+00  5.57136E-01  5.94389E-01  2.48023E+00  8.72070E-01
   2.97269E+00  3.79572E+00  1.04359E+00  2.03188E+00  1.10008E+00  2.95457E+00  5.20849E-01  1.71022E+00  3.64448E+00 -1.67061E-01
   1.45392E+00  1.24618E+00  3.64190E+00  1.35018E+00 -3.57872E+00  3.44710E+00 -2.45017E+00  1.49110E-01 -7.00237E-01  3.36283E+00
   7.71303E-01  2.51388E+00  2.47327E+00  1.92028E+00  2.01200E+00  2.67511E+00  1.14625E+00  3.19761E+00  2.00443E+00  2.01517E+00
  -4.44551E-01 -2.15733E-01  5.27744E-01 -5.11575E-01  1.55279E+00  1.71973E+00  4.19105E+00  2.11648E+00 -9.81860E-01 -1.45401E+00
   2.47845E+00 -3.15554E-01 -2.10541E-01  1.31405E-01 -7.63905E-01  2.32898E-01  2.70806E+00  5.46320E+00  3.49455E+00  3.61863E+00
   1.47514E+00  2.19495E+00  1.69414E+00  2.79537E+00  3.70058E-01 -1.36525E-01  3.59228E+00 -7.32983E-01  1.46152E+00  2.29133E+00
   2.33287E+00  5.49785E+00  5.92016E-01  4.39285E-01  3.86205E+00 -1.19392E+00  4.80513E-01  3.50273E+00  3.36802E+00 -6.44784E-01
   1.73869E-01 -7.99236E-01  6.72277E-01  9.06715E-01  9.22355E-01  3.03040E+00  2.29547E+00 -5.34356E-01  1.56407E+00  1.40456E+00
   3.54774E-01  1.44502E+00  3.68430E+00  9.58005E-01 -1.34000E+00  3.66336E+00  2.21366E+00  3.18904E+00 -2.41936E-01 -6.53437E-01
   2.23400E+00  2.23223E+00  2.33470E-01  3.16533E+00 -1.45907E+00 -3.71874E-01  3.87716E+00 -3.27440E-01  2.27189E+00  2.46546E-01
  -1.09410E+00  2.06055E+00  3.98217E-01  1.47938E+00  1.21393E+00  2.51175E+00 -4.95480E-01  2.38191E+00  2.42282E+00  3.59353E+00
   2.18396E+00  2.38566E+00  1.85241E+00  2.05471E+00 -3.08866E+00  4.75572E+00  2.37247E+00  1.49642E+00  2.78988E+00 -5.25766E-01
   1.12012E-01 -3.24633E-01  3.85055E+00  8.08120E-02  1.14673E+00 -5.86418E-01  2.14042E+00  2.71414E+00  2.39917E+00 -2.54934E+00
   2.67308E+00  3.25823E+00  1.68294E+00  2.39295E+00  3.62892E+00  1.99834E+00  2.12399E+00  4.68115E+00  3.54835E+00  1.03853E-01
   6.67546E-01  1.80298E+00  8.85324E-01  1.22087E+00 -1.81316E+00  1.44953E+00 -4.69547E-01  4.34412E-01  6.92744E-01 -1.70765E-01
   3.14784E+00  1.56775E+00  3.67204E+00 -1.89347E-01  1.41397E+00  2.84176E+00  5.44966E+00  2.67085E+00  2.13660E+00  2.08131E+00
   1.42587E+00  1.18312E+00  2.66020E+00  1.35134E+00  1.29778E+00  4.33734E-01  4.09022E+00  1.15218E+00  1.53951E+00  2.15043E+00
   2.37526E+00 -9.97530E-01  3.91087E+00 -4.79603E-01  2.19589E-01 -5.64716E-01 -2.95279E+00  1.70718E+00  3.67485E+00  1.19310E+00
   3.65528E+00  1.38865E+00  2.54028E+00  1.00867E+00  4.17628E+00  2.15605E+00  3.13938E+00  3.63782E+00  2.72303E+00  2.95478E+00
   2.03080E+00  1.69316E+00  4.00360E+00  1.90076E+00  2.45869E+00  4.13619E+00 -5.81156E-01  5.63525E-01  9.67710E-01  7.07290E-01
   4.88076E+00  3.31296E+00  1.47398E+00  5.72216E+00  1.81313E+00  6.15057E-01  4.62874E+00  1.22977E+00  2.31729E+00  2.95802E+00
   3.49653E+00  4.81747E+00  3.23424E+00  3.75436E+00  3.20590E+00  3.34289E+00  2.55855E-01  3.77237E+00  5.07044E+00  4.57441E+00
   3.61226E+00  4.32690E+00  3.09724E+00  3.10732E+00  5.06968E+00  4.97648E+00  4.51001E+00  3.21315E+00  3.51666E+00  4.35045E+00
  -4.48726E-03  4.06363E+00  4.09227E+00  3.17771E+00  4.69752E+00  5.25562E+00  4.21595E+00  4.96330E+00  4.51234E+00  4.49695E+00
   3.61929E+00  3.50915E+00  5.96876E+00  2.20252E+00  5.50122E+00  4.54264E+00  4.24997E+00  6.12832E+00  6.04868E+00  5.20869E+00
   3.75172E+00  6.66379E+00  2.77512E+00  5.26000E+00  2.49935E+00  4.14569E+00  4.00462E+00  3.93909E+00  3.65263E+00  4.00700E+00
   3.07915E+00  4.24871E+00  5.26385E+00  3.82717E+00  2.67317E+00  5.28182E+00  4.68947E+00  6.47388E+00  3.98464E+00  4.26934E+00
   4.72722E+00  5.79916E+00  4.81280E+00  6.30599E+00  5.53052E+00  4.94941E+00  5.38437E+00  7.67752E+00  4.16426E+00  7.63218E+00
   8.00489E+00  7.76200E+00  5.92168E+00  4.78958E+00  4.70416E+00  6.59154E+00  2.59712E+00  5.38930E+00  5.29410E+00  5.65614E+00
   7.05526E+00  4.68018E+00  3.11186E+00  3.68753E+00  4.99755E+00  7.11603E+00  2.14354E+00  2.69658E+00  2.84386E+00  1.86094E+00
   3.41995E+00  3.52077E+00  4.65203E-01  3.47939E+00  4.08496E+00  1.33208E+00  6.85150E+00  4.81783E+00  5.76384E+00  4.12185E+00
   3.55333E+00  3.35157E+00  2.93515E+00  4.03206E+00  6.80979E+00  6.20965E+00  6.94710E+00  2.01331E+00  3.84903E+00  1.90087E+00
   4.53202E+00  1.62127E+00  1.88414E+00  5.19446E+00  5.07389E+00  3.03711E+00  4.20563E+00  6.22642E-01  2.21479E+00  6.46504E-01
   3.34943E+00  3.28968E+00  2.78120E+00  3.27143E+00  4.13579E+00  6.43519E+00  3.53138E+00 -9.10128E-01  1.87162E+00  5.24301E+00
   1.89960E+00  2.70073E+00  1.01414E+00  2.82902E+00  7.29631E-01  1.90523E+00  3.55144E+00  3.29327E+00  3.35886E-01  3.72817E+00
  -5.74487E-01  2.10102E+00  1.25620E+00 -3.37404E-01  3.23502E+00  8.91052E-01  2.74340E+00  2.00119E+00  4.50546E+00  3.05912E+00
   1.56614E+00  1.48047E-02  1.90315E+00  1.92865E+00  2.09234E+00  2.64298E+00  2.89531E-01 -8.58820E-01 -1.36789E+00  2.25399E+00
  -2.28492E+00 -1.65683E-01  1.75813E-02 -1.90348E-01 -2.21136E+00 -2.60312E+00  3.38669E-01 -1.51651E+00 -1.04567E+00  1.03051E+00
   1.34083E+00  1.72663E-01  2.95618E+00 -1.06329E+00 -4.83573E-02 -1.86355E+00  1.92633E+00 -2.02479E-01 -2.08620E+00  3.53166E+00
  -2.72665E+00  1.08311E+00 -1.05983E+00 -9.00387E-01  9.13534E-01  9.74868E-01 -3.28583E+00  7.23402E-01  1.99827E+00 -3.28280E-01
  -1.49880E+00 -9.98927E-02 -1.38795E-01 -2.43312E-01  1.05733E+00 -1.42870E+00  1.95311E-01 -3.11605E-02  1.33993E+00  3.10733E+00
   3.90812E+00 -6.75099E-01  1.30845E+00 -1.93709E+00 -1.65330E+00  3.51961E+00 -6.18240E-02  4.15850E-01
 NY points of the fit to the data follow
   2.97130E+00  2.70280E+00  2.54517E+00  2.46771E+00  2.49757E+00  2.63519E+00  2.81024E+00  2.97931E+00  3.12873E+00  3.24403E+00
   3.30605E+00  3.30272E+00  3.23699E+00  3.11725E+00  2.94588E+00  2.72674E+00  2.48797E+00  2.29900E+00  2.23811E+00  2.26990E+00
   2.33033E+00  2.40346E+00  2.46199E+00  2.48196E+00  2.46921E+00  2.44661E+00  2.43291E+00  2.44478E+00  2.50229E+00  2.61450E+00
   2.76546E+00  2.92292E+00  3.05582E+00  3.14741E+00  3.20532E+00  3.24201E+00  3.22685E+00  3.08546E+00  2.84376E+00  2.57234E+00
   2.32794E+00  2.22195E+00  2.36098E+00  2.72781E+00  3.20730E+00  3.66778E+00  4.05156E+00  4.29492E+00  4.33300E+00  4.20255E+00
   3.95243E+00  3.60894E+00  3.19081E+00  2.71309E+00  2.23465E+00  1.88984E+00  1.82140E+00  2.00755E+00  2.27954E+00  2.50906E+00
   2.66110E+00  2.73314E+00  2.73048E+00  2.66822E+00  2.56664E+00  2.44523E+00  2.31596E+00  2.20602E+00  2.16643E+00  2.21004E+00
   2.31552E+00  2.44835E+00  2.55867E+00  2.61798E+00  2.61532E+00  2.56078E+00  2.47858E+00  2.37976E+00  2.27195E+00  2.15783E+00
   2.05404E+00  1.96710E+00  1.86341E+00  1.72690E+00  1.56618E+00  1.39860E+00  1.23799E+00  1.09796E+00  9.95853E-01  9.45844E-01
   9.55065E-01  1.01976E+00  1.12869E+00  1.27148E+00  1.43572E+00  1.59287E+00  1.71223E+00  1.80379E+00  1.88653E+00  1.96684E+00
   2.03860E+00  2.10416E+00  2.17045E+00  2.23510E+00  2.28273E+00  2.30790E+00  2.29311E+00  2.21821E+00  2.07312E+00  1.86184E+00
   1.62337E+00  1.44291E+00  1.39028E+00  1.39407E+00  1.40334E+00  1.41393E+00  1.42257E+00  1.43109E+00  1.44198E+00  1.46419E+00
   1.52304E+00  1.65936E+00  1.88676E+00  2.17110E+00  2.46321E+00  2.73594E+00  2.97612E+00  3.16145E+00  3.26068E+00  3.25373E+00
   3.14531E+00  2.94561E+00  2.65225E+00  2.27035E+00  1.85118E+00  1.51470E+00  1.37719E+00  1.35564E+00  1.35643E+00  1.36430E+00
   1.37797E+00  1.39929E+00  1.43058E+00  1.46761E+00  1.49921E+00  1.51989E+00  1.52806E+00  1.52443E+00  1.51469E+00  1.50445E+00
   1.49683E+00  1.49319E+00  1.49058E+00  1.48815E+00  1.48570E+00  1.48325E+00  1.48024E+00  1.47662E+00  1.47275E+00  1.46816E+00
   1.46265E+00  1.45645E+00  1.44963E+00  1.44201E+00  1.43369E+00  1.42570E+00  1.41856E+00  1.41190E+00  1.40499E+00  1.39702E+00
   1.38786E+00  1.37768E+00  1.36655E+00  1.35441E+00  1.34126E+00  1.32707E+00  1.31271E+00  1.29880E+00  1.28573E+00  1.27357E+00
   1.26195E+00  1.25095E+00  1.24164E+00  1.23538E+00  1.23335E+00  1.23623E+00  1.24441E+00  1.25752E+00  1.27361E+00  1.29015E+00
   1.30466E+00  1.31551E+00  1.32202E+00  1.32558E+00  1.32723E+00  1.32797E+00  1.32884E+00  1.33296E+00  1.34657E+00  1.37690E+00
   1.42673E+00  1.48836E+00  1.54691E+00  1.59012E+00  1.60378E+00  1.57314E+00  1.49378E+00  1.38304E+00  1.27978E+00  1.23027E+00
   1.28502E+00  1.46517E+00  1.73702E+00  2.04193E+00  2.33416E+00  2.56765E+00  2.65425E+00  2.51529E+00  2.15492E+00  1.61017E+00
   9.70647E-01  3.01187E-01 -3.33642E-01 -8.09169E-01 -9.73656E-01 -7.20884E-01 -1.72223E-01  4.81803E-01  1.18007E+00  1.85765E+00
   2.39276E+00  2.64476E+00  2.60843E+00  2.45084E+00  2.30289E+00  2.16174E+00  2.03084E+00  1.91903E+00  1.82576E+00  1.75174E+00
   1.68638E+00  1.62453E+00  1.58183E+00  1.56927E+00  1.58937E+00  1.63582E+00  1.70047E+00  1.77568E+00  1.85751E+00  1.92459E+00
   1.94895E+00  1.92689E+00  1.84411E+00  1.74581E+00  1.68472E+00  1.68071E+00  1.72774E+00  1.83392E+00  1.98220E+00  2.11961E+00
   2.20543E+00  2.24136E+00  2.25920E+00  2.27764E+00  2.29630E+00  2.30421E+00  2.27729E+00  2.18280E+00  2.03895E+00  1.90455E+00
   1.80814E+00  1.74587E+00  1.71994E+00  1.73710E+00  1.77905E+00  1.81749E+00  1.86214E+00  1.91036E+00  1.95557E+00  1.99151E+00
   2.01161E+00  2.01241E+00  2.00789E+00  2.01655E+00  2.04355E+00  2.08634E+00  2.14381E+00  2.21550E+00  2.29940E+00  2.39081E+00
   2.48527E+00  2.58453E+00  2.68949E+00  2.79949E+00  2.91366E+00  3.03073E+00  3.14864E+00  3.26457E+00  3.37585E+00  3.48057E+00
   3.57639E+00  3.66089E+00  3.73238E+00  3.78963E+00  3.83185E+00  3.85879E+00  3.87077E+00  3.86870E+00  3.85402E+00  3.82860E+00
   3.79465E+00  3.75481E+00  3.71203E+00  3.66924E+00  3.62896E+00  3.59354E+00  3.56508E+00  3.54537E+00  3.53586E+00  3.53774E+00
   3.55220E+00  3.57990E+00  3.61923E+00  3.66631E+00  3.71760E+00  3.77132E+00  3.82629E+00  3.88071E+00  3.93318E+00  3.98518E+00
   4.04075E+00  4.10257E+00  4.17045E+00  4.24439E+00  4.32716E+00  4.42298E+00  4.53213E+00  4.64529E+00  4.75640E+00  4.86769E+00
   4.98253E+00  5.10267E+00  5.22254E+00  5.33140E+00  5.42628E+00  5.50834E+00  5.57356E+00  5.61682E+00  5.63588E+00  5.63973E+00
   5.64431E+00  5.65805E+00  5.67851E+00  5.70450E+00  5.74496E+00  5.81395E+00  5.91188E+00  6.00117E+00  6.04996E+00  6.05843E+00
   6.02497E+00  5.94254E+00  5.80701E+00  5.63284E+00  5.45800E+00  5.29305E+00  5.12855E+00  4.96185E+00  4.79331E+00  4.62424E+00
   4.45634E+00  4.29140E+00  4.13124E+00  3.97756E+00  3.83193E+00  3.69575E+00  3.57026E+00  3.45653E+00  3.35548E+00  3.26784E+00
   3.19421E+00  3.13502E+00  3.09060E+00  3.06110E+00  3.04656E+00  3.04682E+00  3.06159E+00  3.09034E+00  3.13235E+00  3.18664E+00
   3.25195E+00  3.32677E+00  3.40927E+00  3.49737E+00  3.58872E+00  3.68077E+00  3.77082E+00  3.85607E+00  3.93373E+00  4.00112E+00
   4.05577E+00  4.09548E+00  4.11844E+00  4.12329E+00  4.10918E+00  4.07579E+00  4.02335E+00  3.95257E+00  3.86468E+00  3.76126E+00
   3.64427E+00  3.51587E+00  3.37837E+00  3.23413E+00  3.08549E+00  2.93465E+00  2.78367E+00  2.63435E+00  2.48830E+00  2.34680E+00
   2.21091E+00  2.08141E+00  1.95885E+00  1.84355E+00  1.73565E+00  1.63512E+00  1.54182E+00  1.45550E+00  1.37582E+00  1.30243E+00
   1.23489E+00  1.17280E+00  1.11573E+00  1.06326E+00  1.01499E+00  9.70556E-01  9.29593E-01  8.91775E-01  8.56805E-01  8.24409E-01
   7.94341E-01  7.66374E-01  7.40306E-01  7.15957E-01  6.93169E-01  6.71794E-01  6.51703E-01  6.32778E-01  6.14915E-01  5.98020E-01
   5.82013E-01  5.66817E-01  5.52365E-01  5.38596E-01  5.25455E-01  5.12896E-01  5.00873E-01  4.89346E-01  4.78278E-01  4.67633E-01
   4.57384E-01  4.47502E-01  4.37965E-01  4.28746E-01  4.19823E-01  4.11177E-01  4.02793E-01  3.94655E-01  3.86747E-01  3.79053E-01
   3.71561E-01  3.64259E-01  3.57140E-01  3.50191E-01  3.43403E-01  3.36766E-01  3.30273E-01  3.23917E-01  3.17692E-01  3.11589E-01
   3.05603E-01  2.99725E-01  2.93952E-01  2.88280E-01  2.82704E-01  2.77219E-01  2.71820E-01  2.66503E-01  2.61267E-01  2.56107E-01
   2.51022E-01  2.46007E-01  2.41059E-01  2.36176E-01  2.31357E-01  2.26601E-01  2.21905E-01  2.17268E-01
 NY background values follow
     1.588E+00    1.586E+00    1.583E+00    1.580E+00    1.577E+00    1.574E+00    1.571E+00    1.568E+00    1.565E+00    1.562E+00
     1.560E+00    1.557E+00    1.554E+00    1.551E+00    1.548E+00    1.545E+00    1.542E+00    1.539E+00    1.536E+00    1.534E+00
     1.531E+00    1.528E+00    1.525E+00    1.522E+00    1.519E+00    1.516E+00    1.513E+00    1.510E+00    1.508E+00    1.505E+00
     1.502E+00    1.499E+00    1.496E+00    1.493E+00    1.490E+00    1.487E+00    1.484E+00    1.481E+00    1.478E+00    1.476E+00
     1.473E+00    1.470E+00    1.467E+00    1.464E+00    1.461E+00    1.458E+00    1.455E+00    1.452E+00    1.449E+00    1.446E+00
     1.444E+00    1.441E+00    1.438E+00    1.435E+00    1.432E+00    1.429E+00    1.426E+00    1.423E+00    1.420E+00    1.417E+00
     1.414E+00    1.411E+00    1.409E+00    1.406E+00    1.403E+00    1.400E+00    1.397E+00    1.394E+00    1.391E+00    1.388E+00
     1.385E+00    1.382E+00    1.379E+00    1.376E+00    1.373E+00    1.371E+00    1.368E+00    1.365E+00    1.362E+00    1.359E+00
     1.356E+00    1.353E+00    1.350E+00    1.347E+00    1.344E+00    1.341E+00    1.338E+00    1.335E+00    1.332E+00    1.330E+00
     1.327E+00    1.324E+00    1.321E+00    1.318E+00    1.315E+00    1.312E+00    1.309E+00    1.306E+00    1.303E+00    1.300E+00
     1.297E+00    1.294E+00    1.291E+00    1.288E+00    1.285E+00    1.282E+00    1.280E+00    1.277E+00    1.274E+00    1.271E+00
     1.268E+00    1.265E+00    1.262E+00    1.259E+00    1.256E+00    1.253E+00    1.250E+00    1.247E+00    1.244E+00    1.241E+00
     1.238E+00    1.235E+00    1.232E+00    1.229E+00    1.226E+00    1.224E+00    1.221E+00    1.218E+00    1.215E+00    1.212E+00
     1.209E+00    1.206E+00    1.203E+00    1.200E+00    1.197E+00    1.194E+00    1.191E+00    1.188E+00    1.185E+00    1.182E+00
     1.179E+00    1.176E+00    1.173E+00    1.170E+00    1.167E+00    1.164E+00    1.161E+00    1.158E+00    1.155E+00    1.152E+00
     1.150E+00    1.147E+00    1.144E+00    1.141E+00    1.138E+00    1.135E+00    1.132E+00    1.129E+00    1.126E+00    1.123E+00
     1.120E+00    1.117E+00    1.114E+00    1.111E+00    1.108E+00    1.105E+00    1.102E+00    1.099E+00    1.096E+00    1.093E+00
     1.090E+00    1.087E+00    1.084E+00    1.081E+00    1.078E+00    1.075E+00    1.072E+00    1.069E+00    1.066E+00    1.063E+00
     1.060E+00    1.057E+00    1.054E+00    1.051E+00    1.048E+00    1.045E+00    1.042E+00    1.040E+00    1.037E+00    1.034E+00
     1.031E+00    1.028E+00    1.025E+00    1.022E+00    1.019E+00    1.016E+00    1.013E+00    1.010E+00    1.007E+00    1.004E+00
     1.001E+00    9.977E-01    9.947E-01    9.917E-01    9.888E-01    9.858E-01    9.828E-01    9.798E-01    9.768E-01    9.738E-01
     9.708E-01    9.678E-01    9.648E-01    9.618E-01    9.588E-01    9.559E-01    9.529E-01    9.499E-01    9.469E-01    9.439E-01
     9.409E-01    9.379E-01    9.349E-01    9.319E-01    9.289E-01    9.259E-01    9.229E-01    9.199E-01    9.169E-01    9.139E-01
     9.109E-01    9.079E-01    9.049E-01    9.019E-01    8.989E-01    8.959E-01    8.929E-01    8.899E-01    8.869E-01    8.839E-01
     8.809E-01    8.779E-01    8.749E-01    8.719E-01    8.689E-01    8.659E-01    8.629E-01    8.599E-01    8.569E-01    8.539E-01
     8.509E-01    8.479E-01    8.448E-01    8.418E-01    8.388E-01    8.358E-01    8.328E-01    8.298E-01    8.268E-01    8.238E-01
     8.208E-01    8.178E-01    8.148E-01    8.118E-01    8.087E-01    8.057E-01    8.027E-01    7.997E-01    7.967E-01    7.937E-01
     7.907E-01    7.877E-01    7.846E-01    7.816E-01    7.786E-01    7.756E-01    7.726E-01    7.696E-01    7.666E-01    7.635E-01
     7.605E-01    7.575E-01    7.545E-01    7.515E-01    7.485E-01    7.454E-01    7.424E-01    7.394E-01    7.364E-01    7.334E-01
     7.304E-01    7.273E-01    7.243E-01    7.213E-01    7.183E-01    7.153E-01    7.122E-01    7.092E-01    7.062E-01    7.032E-01
     7.002E-01    6.971E-01    6.941E-01    6.911E-01    6.881E-01    6.850E-01    6.820E-01    6.790E-01    6.760E-01    6.729E-01
     6.699E-01    6.669E-01    6.639E-01    6.608E-01    6.578E-01    6.548E-01    6.518E-01    6.487E-01    6.457E-01    6.427E-01
     6.397E-01    6.366E-01    6.336E-01    6.306E-01    6.275E-01    6.245E-01    6.215E-01    6.185E-01    6.154E-01    6.124E-01
     6.094E-01    6.063E-01    6.033E-01    6.003E-01    5.973E-01    5.942E-01    5.912E-01    5.882E-01    5.851E-01    5.821E-01
     5.791E-01    5.760E-01    5.730E-01    5.700E-01    5.669E-01    5.639E-01    5.609E-01    5.578E-01    5.548E-01    5.518E-01
     5.487E-01    5.457E-01    5.427E-01    5.396E-01    5.366E-01    5.335E-01    5.305E-01    5.275E-01    5.244E-01    5.214E-01
     5.184E-01    5.153E-01    5.123E-01    5.093E-01    5.062E-01    5.032E-01    5.001E-01    4.971E-01    4.941E-01    4.910E-01
     4.880E-01    4.849E-01    4.819E-01    4.789E-01    4.758E-01    4.728E-01    4.697E-01    4.667E-01    4.637E-01    4.606E-01
     4.576E-01    4.545E-01    4.515E-01    4.485E-01    4.454E-01    4.424E-01    4.393E-01    4.363E-01    4.332E-01    4.302E-01
     4.272E-01    4.241E-01    4.211E-01    4.180E-01    4.150E-01    4.119E-01    4.089E-01    4.059E-01    4.028E-01    3.998E-01
     3.967E-01    3.937E-01    3.906E-01    3.876E-01    3.845E-01    3.815E-01    3.785E-01    3.754E-01    3.724E-01    3.693E-01
     3.663E-01    3.632E-01    3.602E-01    3.571E-01    3.541E-01    3.510E-01    3.480E-01    3.449E-01    3.419E-01    3.388E-01
     3.358E-01    3.328E-01    3.297E-01    3.267E-01    3.236E-01    3.206E-01    3.175E-01    3.145E-01    3.114E-01    3.084E-01
     3.053E-01    3.023E-01    2.992E-01    2.962E-01    2.931E-01    2.901E-01    2.870E-01    2.840E-01    2.809E-01    2.779E-01
     2.748E-01    2.718E-01    2.687E-01    2.657E-01    2.626E-01    2.596E-01    2.565E-01    2.535E-01    2.504E-01    2.474E-01
     2.443E-01    2.413E-01    2.382E-01    2.352E-01    2.321E-01    2.291E-01    2.260E-01    2.229E-01    2.199E-01    2.168E-01
     2.138E-01    2.107E-01    2.077E-01    2.046E-01    2.016E-01    1.985E-01    1.955E-01    1.924E-01    1.894E-01    1.863E-01
     1.833E-01    1.802E-01    1.772E-01    1.741E-01    1.710E-01    1.680E-01    1.649E-01    1.619E-01    1.588E-01    1.558E-01
     1.527E-01    1.497E-01    1.466E-01    1.436E-01    1.405E-01    1.375E-01    1.344E-01    1.313E-01    1.283E-01    1.252E-01
     1.222E-01    1.191E-01    1.161E-01    1.130E-01    1.100E-01    1.069E-01    1.039E-01    1.008E-01
 Ala      Conc. = 7.43E+00
