 LCModel (Version 6.3-1L) Copyright: S.W. Provencher.          Ref.: Magn. Reson. Med. 30:672-679 (1993).                
 Slice#3 Row#11 Col#5  PD_24_press_1_raw_act
 36 lines in following concentration table = NCONC+1
    Conc.  %SD /Cr+PCr  Metabolite                                         
  105.761  78% 7.1E-02 Ala                                                 
    0.000 999%   0.000 Asp                                                 
 1.49E+03   3%   1.000 Cr                                                  
    0.000 999%   0.000 PCr                                                 
   42.785 309% 2.9E-02 GABA                                                
    0.000 999%   0.000 Glc                                                 
  434.566  40%   0.292 Gln                                                 
 1.50E+03  15%   1.007 Glu                                                 
  490.163   3%   0.330 GPC                                                 
    0.000 999%   0.000 PCh                                                 
  487.027  11%   0.328 GSH                                                 
  636.227  30%   0.428 Ins                                                 
  187.645  49%   0.126 Lac                                                 
 1.71E+03   6%   1.150 NAA                                                 
  482.602  21%   0.325 NAAG                                                
    6.722 296% 4.5E-03 Scyllo                                              
    0.000 999%   0.000 Tau                                                 
    0.000 999%   0.000 -CrCH2                                              
  490.163   3%   0.330 GPC+PCh                                             
 2.19E+03   3%   1.475 NAA+NAAG                                            
 1.49E+03   3%   1.000 Cr+PCr                                              
 1.93E+03  16%   1.299 Glu+Gln                                             
  637.045  36%   0.429 Lip13a                                              
    0.000 999%   0.000 Lip13b                                              
    0.000 999%   0.000 Lip09                                               
  795.254  17%   0.535 MM09                                                
  117.926  85% 7.9E-02 Lip20                                               
 1.56E+03  17%   1.051 MM20                                                
  310.078  29%   0.209 MM12                                                
  459.484  46%   0.309 MM14                                                
  743.580  22%   0.500 MM17                                                
  637.045  36%   0.429 Lip13a+Lip13b                                       
 1.41E+03  20%   0.946 MM14+Lip13a+Lip13b+MM12                             
  795.254  17%   0.535 MM09+Lip09                                          
 1.68E+03  16%   1.130 MM20+Lip20                                          
   6 lines in following misc. output table
  FWHM = 0.061 ppm    S/N =  13                                            
  Data shift = 0.038 ppm                                                   
  Ph:  22 deg       7.9 deg/ppm                                            
  alphaB,S = 1.2E+00,   8.9E+01                                            
   14 spline knots.   Ns = 7(1)                                            
  (13) 2 infls.   (11) 1 extrs.                                            
  498 points on ppm-axis = NY
      4.000000     3.992357     3.984714     3.977070     3.969427     3.961784     3.954141     3.946497     3.938854     3.931211
      3.923568     3.915925     3.908281     3.900638     3.892995     3.885352     3.877708     3.870065     3.862422     3.854779
      3.847136     3.839492     3.831849     3.824206     3.816563     3.808919     3.801276     3.793633     3.785990     3.778347
      3.770703     3.763060     3.755417     3.747774     3.740130     3.732487     3.724844     3.717201     3.709558     3.701914
      3.694271     3.686628     3.678985     3.671341     3.663698     3.656055     3.648412     3.640769     3.633125     3.625482
      3.617839     3.610196     3.602552     3.594909     3.587266     3.579623     3.571980     3.564336     3.556693     3.549050
      3.541407     3.533763     3.526120     3.518477     3.510834     3.503191     3.495547     3.487904     3.480261     3.472618
      3.464974     3.457331     3.449688     3.442045     3.434402     3.426758     3.419115     3.411472     3.403829     3.396185
      3.388542     3.380899     3.373256     3.365613     3.357969     3.350326     3.342683     3.335040     3.327396     3.319753
      3.312110     3.304467     3.296824     3.289180     3.281537     3.273894     3.266251     3.258607     3.250964     3.243321
      3.235678     3.228034     3.220391     3.212748     3.205105     3.197462     3.189818     3.182175     3.174532     3.166889
      3.159245     3.151602     3.143959     3.136316     3.128673     3.121029     3.113386     3.105743     3.098100     3.090456
      3.082813     3.075170     3.067527     3.059884     3.052240     3.044597     3.036954     3.029311     3.021667     3.014024
      3.006381     2.998738     2.991095     2.983451     2.975808     2.968165     2.960522     2.952878     2.945235     2.937592
      2.929949     2.922306     2.914662     2.907019     2.899376     2.891733     2.884089     2.876446     2.868803     2.861160
      2.853517     2.845873     2.838230     2.830587     2.822944     2.815300     2.807657     2.800014     2.792371     2.784728
      2.777084     2.769441     2.761798     2.754155     2.746511     2.738868     2.731225     2.723582     2.715939     2.708295
      2.700652     2.693009     2.685366     2.677722     2.670079     2.662436     2.654793     2.647150     2.639506     2.631863
      2.624220     2.616577     2.608933     2.601290     2.593647     2.586004     2.578361     2.570717     2.563074     2.555431
      2.547788     2.540144     2.532501     2.524858     2.517215     2.509572     2.501928     2.494285     2.486642     2.478999
      2.471355     2.463712     2.456069     2.448426     2.440783     2.433139     2.425496     2.417853     2.410210     2.402566
      2.394923     2.387280     2.379637     2.371994     2.364350     2.356707     2.349064     2.341421     2.333777     2.326134
      2.318491     2.310848     2.303205     2.295561     2.287918     2.280275     2.272632     2.264988     2.257345     2.249702
      2.242059     2.234416     2.226772     2.219129     2.211486     2.203843     2.196199     2.188556     2.180913     2.173270
      2.165627     2.157983     2.150340     2.142697     2.135054     2.127410     2.119767     2.112124     2.104481     2.096838
      2.089194     2.081551     2.073908     2.066265     2.058621     2.050978     2.043335     2.035692     2.028049     2.020405
      2.012762     2.005119     1.997476     1.989833     1.982190     1.974546     1.966903     1.959260     1.951617     1.943974
      1.936331     1.928688     1.921045     1.913402     1.905759     1.898115     1.890472     1.882829     1.875186     1.867543
      1.859900     1.852257     1.844614     1.836971     1.829327     1.821684     1.814041     1.806398     1.798755     1.791112
      1.783469     1.775826     1.768183     1.760540     1.752896     1.745253     1.737610     1.729967     1.722324     1.714681
      1.707038     1.699395     1.691752     1.684108     1.676465     1.668822     1.661179     1.653536     1.645893     1.638250
      1.630607     1.622964     1.615321     1.607677     1.600034     1.592391     1.584748     1.577105     1.569462     1.561819
      1.554176     1.546533     1.538890     1.531246     1.523603     1.515960     1.508317     1.500674     1.493031     1.485388
      1.477745     1.470102     1.462458     1.454815     1.447172     1.439529     1.431886     1.424243     1.416600     1.408957
      1.401314     1.393671     1.386027     1.378384     1.370741     1.363098     1.355455     1.347812     1.340169     1.332526
      1.324883     1.317240     1.309596     1.301953     1.294310     1.286667     1.279024     1.271381     1.263738     1.256095
      1.248452     1.240808     1.233165     1.225522     1.217879     1.210236     1.202593     1.194950     1.187307     1.179664
      1.172021     1.164377     1.156734     1.149091     1.141448     1.133805     1.126162     1.118519     1.110876     1.103233
      1.095590     1.087946     1.080303     1.072660     1.065017     1.057374     1.049731     1.042088     1.034445     1.026802
      1.019158     1.011515     1.003872     0.996229     0.988586     0.980943     0.973300     0.965657     0.958014     0.950371
      0.942727     0.935084     0.927441     0.919798     0.912155     0.904512     0.896869     0.889226     0.881583     0.873940
      0.866296     0.858653     0.851010     0.843367     0.835724     0.828081     0.820438     0.812795     0.805152     0.797508
      0.789865     0.782222     0.774579     0.766936     0.759293     0.751650     0.744007     0.736364     0.728721     0.721077
      0.713434     0.705791     0.698148     0.690505     0.682862     0.675219     0.667576     0.659933     0.652290     0.644646
      0.637003     0.629360     0.621717     0.614074     0.606431     0.598788     0.591145     0.583502     0.575858     0.568215
      0.560572     0.552929     0.545286     0.537643     0.530000     0.522357     0.514714     0.507071     0.499427     0.491784
      0.484141     0.476498     0.468855     0.461212     0.453569     0.445925     0.438282     0.430639     0.422996     0.415353
      0.407710     0.400067     0.392424     0.384780     0.377137     0.369494     0.361851     0.354208     0.346565     0.338922
      0.331278     0.323635     0.315992     0.308349     0.300706     0.293063     0.285420     0.277777     0.270133     0.262490
      0.254847     0.247204     0.239561     0.231918     0.224275     0.216631     0.208988     0.201345
 NY phased data points follow
   1.99808E+01  1.84246E+01  2.19662E+01  2.25348E+01  2.28721E+01  2.43954E+01  2.63663E+01  3.71918E+01  4.20380E+01  4.81439E+01
   5.21704E+01  5.48586E+01  5.49985E+01  5.17474E+01  4.34513E+01  4.23516E+01  3.93169E+01  2.91319E+01  2.49060E+01  2.43701E+01
   2.10639E+01  2.00918E+01  2.03559E+01  2.10096E+01  2.07074E+01  2.43936E+01  2.25311E+01  2.47167E+01  2.22085E+01  2.63337E+01
   2.75807E+01  2.77610E+01  2.52067E+01  2.54393E+01  2.26123E+01  2.16059E+01  1.86623E+01  1.67574E+01  2.08921E+01  2.01429E+01
   1.94181E+01  1.70942E+01  2.04148E+01  1.94466E+01  1.77473E+01  2.52352E+01  1.99203E+01  2.25561E+01  2.20882E+01  2.17506E+01
   2.09927E+01  1.47654E+01  1.51157E+01  1.88364E+01  1.69855E+01  1.52287E+01  1.37143E+01  1.50401E+01  1.86257E+01  1.75435E+01
   1.43787E+01  1.04938E+01  9.25509E+00  1.21526E+01  1.15313E+01  7.88249E+00  1.57530E+00  5.93018E+00  7.22933E+00  6.78795E+00
   8.20628E+00  7.11550E+00  9.19265E+00  8.61768E+00  1.00944E+01  9.86962E+00  6.43765E+00  4.68639E+00  6.49376E+00  7.01853E+00
   7.84326E+00  7.36971E+00  2.15337E+00  9.81041E+00  8.74030E+00  7.07962E+00  7.56209E+00  6.05582E+00  9.64958E+00  5.89961E+00
   1.07717E+01  7.59792E+00  3.42482E+00  8.95361E+00  8.56822E+00  6.99506E+00  1.21376E+01  8.33724E+00  1.46972E+01  2.28726E+01
   3.23807E+01  4.26146E+01  4.92687E+01  5.11341E+01  4.72462E+01  4.27973E+01  3.88620E+01  3.16027E+01  2.28007E+01  2.08911E+01
   1.28684E+01  1.34505E+01  1.03719E+01  1.38438E+01  9.21623E+00  6.27212E+00  4.94579E+00  7.06342E+00  6.19465E+00  6.53204E+00
   6.31452E+00  8.64736E+00  1.26428E+01  1.91542E+01  2.93264E+01  4.14635E+01  4.84476E+01  5.20572E+01  4.85742E+01  4.44533E+01
   4.01035E+01  3.47726E+01  2.19112E+01  1.71452E+01  1.24356E+01  9.88393E+00  8.47194E+00  3.26561E+00  1.06702E+01  4.86420E+00
   7.25407E+00  5.63503E+00  4.20912E+00  4.54834E+00  8.10279E+00  2.16627E+00  7.81209E+00  6.80541E+00  4.31964E+00  2.06034E+00
   3.24445E+00  4.76207E+00  3.70221E+00  1.60769E+00  6.09535E-01  9.81791E-01  1.39841E+00  3.71777E+00  5.82124E-01  3.43571E-01
  -6.17804E-01 -1.21546E+00  3.18891E-01  1.88573E+00  2.33342E+00  1.45672E+00 -1.62764E+00 -7.50994E-01 -4.01022E+00 -8.95767E-01
  -5.29669E+00 -4.03291E+00 -7.28654E+00 -7.02871E+00 -7.58156E+00 -5.50496E+00 -5.32564E+00 -9.63093E+00 -4.47026E+00 -9.83771E+00
  -9.24641E+00 -7.74598E+00 -6.28749E+00 -7.10956E+00 -8.30289E+00 -7.31444E+00 -4.51812E+00 -3.93141E+00 -3.30774E+00  6.19935E+00
   1.11254E+00  5.47649E+00  2.98346E+00  2.40907E+00  6.45484E+00  2.91768E+00  4.35590E+00  1.73693E+00 -3.20554E+00 -2.79957E+00
   1.29853E+00  1.21261E+00  2.90411E+00 -1.69062E+00  4.07138E+00  2.37230E+00 -3.85106E-01  8.84067E-01 -4.35153E+00 -1.94491E+00
  -3.44684E+00 -8.86072E-01  1.60052E+00  4.68876E+00  6.52411E+00  8.34337E+00  5.40612E+00  5.99579E+00  5.81298E+00 -1.07217E+00
  -1.38622E+00 -3.34924E+00 -1.61332E+00 -3.43269E+00  6.49361E-01 -5.96955E-01  3.61079E+00  4.12558E+00  5.22305E+00  3.29101E+00
   3.33665E+00  8.71930E+00  7.69243E+00  5.67275E+00  8.22579E+00  8.37541E+00  4.27812E+00  3.45806E+00  6.22054E+00  4.01353E+00
   3.97931E+00 -3.37428E+00  3.00063E-01  2.76180E+00  2.87542E+00  6.35764E+00  4.19199E+00  1.87259E+00  2.38475E+00  4.22216E+00
   6.61129E+00  1.42765E+01  1.59851E+01  2.05103E+01  2.28340E+01  2.61757E+01  4.04748E+01  4.89474E+01  6.33852E+01  6.40896E+01
   6.63015E+01  6.17260E+01  5.51570E+01  4.33119E+01  3.52712E+01  2.08869E+01  1.68707E+01  1.19074E+01  6.72767E+00  4.15237E+00
   2.63788E+00  3.43550E+00  2.66333E+00  9.43437E-01  3.31274E+00  6.32646E+00  2.15307E+00  3.03084E+00  2.54298E+00  2.27539E+00
   4.46757E+00  2.43841E+00  7.78077E-01 -2.44399E+00  8.75538E-01  1.39857E+00  4.29798E-01 -5.60311E-01  8.92032E-01  3.61092E-01
   1.55662E-01  2.85308E+00 -2.58615E+00  2.69969E+00 -2.95107E+00  2.10599E+00  1.45689E+00  2.03444E+00  1.01594E+00  5.74301E-01
  -1.66686E+00  3.62137E+00  2.36500E+00  5.27198E-01  1.87012E+00  6.25609E+00  1.53669E+00  1.08343E+00  3.61146E+00  6.19186E+00
   4.39398E+00  2.91237E+00  3.51252E+00  7.18387E+00  5.01159E+00 -8.36755E-01  3.50891E+00  4.04411E+00  5.69786E+00  1.95852E+00
   3.44726E+00  4.98531E+00  3.08883E+00  1.78552E+00  4.17313E+00 -1.07615E-01  2.30884E+00  2.14385E+00  3.44079E+00  3.65236E+00
   2.31427E+00 -1.06435E-01 -2.13896E+00 -1.77428E+00 -2.92058E-01  2.61962E-01  4.52819E+00  2.01598E+00  2.73574E+00  3.37159E+00
   3.23753E+00  4.15386E-01  2.82154E+00  2.80617E-01  1.77675E+00 -6.99912E-01  4.22544E+00 -2.97339E+00  2.23680E+00 -1.28257E+00
   7.76532E-01 -5.37709E+00 -1.67291E+00  2.08120E+00  8.90448E-01  4.68226E+00  4.74982E+00  1.96347E+00  3.24521E+00  1.47366E+00
   4.32553E+00  2.10905E-01  3.17252E+00  5.15745E+00  1.18615E+00  2.99294E+00  8.98742E+00  2.37818E+00  3.11154E+00  2.00724E+00
   5.12680E+00  1.88261E+00  3.54272E+00  2.61984E+00  1.49771E+00 -2.65002E-01 -1.31013E+00  1.68923E+00  3.87221E+00 -5.70234E-01
  -1.03030E+00 -1.00641E+00 -1.69842E+00 -2.74742E-01  3.92916E+00  2.30901E+00 -8.67567E-01 -2.16415E+00  2.84163E-01 -9.93479E-01
   4.33470E-01 -3.81239E+00 -5.55466E-01 -6.48125E-01  1.38574E+00  9.09566E-01  7.10747E-01  3.21861E+00  1.35841E+00  2.02105E+00
   4.04210E+00 -5.62436E-01  6.64496E-01  9.19271E-02  3.14349E+00  6.11904E+00  6.78320E+00  3.33687E+00 -2.61023E+00  1.90287E+00
   2.88064E+00  3.06981E+00  2.99095E+00  9.02670E-01  7.90219E-02 -2.73679E-01  1.59102E+00 -1.70326E+00 -3.48891E-01 -1.10979E+00
  -4.78154E-01 -2.07966E+00 -3.38524E+00 -2.73701E+00 -1.87021E+00  4.97813E-01 -2.25065E+00  1.58365E+00 -3.66356E+00 -2.39506E+00
  -2.34972E+00 -5.90739E-01 -3.35189E-02 -3.38670E+00  1.51323E-01  1.37724E+00 -5.12419E+00 -5.96358E+00 -3.95801E+00 -1.60311E+00
  -1.39861E+00 -3.47056E+00 -1.02651E+00 -5.68529E+00 -4.49020E+00 -2.18902E+00 -5.09299E+00 -3.65457E+00 -1.53743E+00 -5.00074E+00
   7.90657E-01 -2.78890E+00 -1.82453E+00 -4.08583E+00 -2.22910E+00 -1.70740E+00 -5.01386E+00 -4.47884E+00 -3.55542E+00 -1.50348E+00
   2.01560E-01 -3.14601E+00 -1.40035E+00 -4.32494E+00 -3.98513E+00  8.10763E-01  1.25547E-01 -5.53300E+00 -5.53882E+00 -2.37050E+00
  -4.01159E+00 -4.60033E+00 -5.29290E+00 -4.02054E+00 -2.52429E+00 -2.96800E+00 -1.60391E+00 -4.04768E+00 -1.70144E+00  7.13347E-01
  -5.52515E+00 -1.81859E+00 -9.23314E-01 -1.54636E+00 -3.59647E+00 -1.58135E+00 -6.00495E+00 -1.50928E+00 -2.61664E+00 -5.29420E+00
  -3.88005E+00 -6.04107E+00 -3.19375E+00 -4.11953E+00 -7.50703E-02 -9.78358E-01 -8.92612E-01 -1.03028E+00
 NY points of the fit to the data follow
   2.04347E+01  2.02874E+01  2.04235E+01  2.08193E+01  2.16135E+01  2.32911E+01  2.64653E+01  3.18103E+01  3.87421E+01  4.55391E+01
   5.02545E+01  5.19896E+01  5.10156E+01  4.81001E+01  4.39748E+01  3.91015E+01  3.40589E+01  2.98153E+01  2.66380E+01  2.39369E+01
   2.15941E+01  2.03867E+01  1.97960E+01  1.94198E+01  1.93844E+01  2.00896E+01  2.16113E+01  2.36381E+01  2.56302E+01  2.71672E+01
   2.80293E+01  2.80574E+01  2.71857E+01  2.54124E+01  2.30850E+01  2.08763E+01  1.91378E+01  1.77326E+01  1.67185E+01  1.64272E+01
   1.65654E+01  1.69375E+01  1.76064E+01  1.85583E+01  1.95666E+01  2.02765E+01  2.05414E+01  2.02923E+01  1.95882E+01  1.86806E+01
   1.76697E+01  1.65632E+01  1.55502E+01  1.48192E+01  1.42999E+01  1.39198E+01  1.37782E+01  1.38488E+01  1.39079E+01  1.37894E+01
   1.34871E+01  1.30398E+01  1.25252E+01  1.20063E+01  1.15573E+01  1.12474E+01  1.10807E+01  1.10311E+01  1.10714E+01  1.11544E+01
   1.12075E+01  1.11917E+01  1.10891E+01  1.09171E+01  1.07011E+01  1.04551E+01  1.01993E+01  9.95912E+00  9.74949E+00  9.55942E+00
   9.37286E+00  9.19367E+00  8.97262E+00  8.65766E+00  8.23681E+00  7.76365E+00  7.32733E+00  7.00516E+00  6.83740E+00  6.83031E+00
   6.96508E+00  7.21039E+00  7.50409E+00  7.76977E+00  7.97959E+00  8.23016E+00  8.91724E+00  1.08945E+01  1.53168E+01  2.31260E+01
   3.31564E+01  4.27178E+01  4.90705E+01  5.11336E+01  4.93767E+01  4.48968E+01  3.87192E+01  3.15418E+01  2.43746E+01  1.85712E+01
   1.42623E+01  1.06189E+01  7.80016E+00  6.73680E+00  6.41090E+00  6.24833E+00  6.14158E+00  6.08613E+00  6.12151E+00  6.34960E+00
   7.13785E+00  9.31108E+00  1.39831E+01  2.21611E+01  3.27247E+01  4.29338E+01  4.99310E+01  5.25664E+01  5.13234E+01  4.72521E+01
   4.12339E+01  3.37884E+01  2.58302E+01  1.89072E+01  1.34957E+01  8.98449E+00  5.61066E+00  4.47771E+00  4.48543E+00  4.84934E+00
   5.23613E+00  5.47010E+00  5.55505E+00  5.51398E+00  5.31826E+00  5.00732E+00  4.63316E+00  4.21411E+00  3.78615E+00  3.34359E+00
   2.91369E+00  2.55527E+00  2.29206E+00  2.14785E+00  2.09823E+00  2.05569E+00  1.89453E+00  1.56422E+00  1.15024E+00  7.89660E-01
   5.98256E-01  5.69623E-01  5.85522E-01  4.98954E-01  2.61213E-01 -7.65147E-02 -4.68991E-01 -8.61136E-01 -1.18835E+00 -1.46070E+00
  -1.77719E+00 -2.20039E+00 -2.71697E+00 -3.18659E+00 -3.43048E+00 -3.46829E+00 -3.46065E+00 -3.50261E+00 -3.58795E+00 -3.64477E+00
  -3.63010E+00 -3.59753E+00 -3.61331E+00 -3.57373E+00 -3.27536E+00 -2.59073E+00 -1.53508E+00 -2.12147E-01  1.13509E+00  2.25178E+00
   2.90052E+00  2.98220E+00  2.56129E+00  1.78713E+00  9.07982E-01  2.02146E-01 -1.74014E-01 -1.19451E-01  3.94038E-01  1.27925E+00
   2.39245E+00  3.54481E+00  4.43261E+00  4.72099E+00  4.28539E+00  3.13968E+00  1.45316E+00 -4.69431E-01 -2.15869E+00 -3.15071E+00
  -3.13836E+00 -1.95385E+00  1.99602E-01  2.70776E+00  4.79908E+00  5.83963E+00  5.54454E+00  3.97168E+00  1.43849E+00 -1.58435E+00
  -4.22903E+00 -5.65680E+00 -5.67801E+00 -4.63450E+00 -3.00438E+00 -1.05349E+00  8.45062E-01  2.21081E+00  2.90859E+00  3.16150E+00
   3.37047E+00  3.65245E+00  3.94801E+00  4.31730E+00  4.78211E+00  5.12770E+00  5.11974E+00  4.66526E+00  3.82808E+00  2.86128E+00
   2.02505E+00  1.56216E+00  1.62389E+00  2.16103E+00  2.95486E+00  3.71642E+00  4.33072E+00  4.80590E+00  5.21495E+00  5.90356E+00
   7.40148E+00  1.02145E+01  1.40175E+01  1.84207E+01  2.35404E+01  3.04680E+01  4.02511E+01  5.14872E+01  6.10766E+01  6.60273E+01
   6.56220E+01  6.10696E+01  5.38606E+01  4.48697E+01  3.48246E+01  2.55084E+01  1.83062E+01  1.28383E+01  7.97236E+00  4.41528E+00
   3.16111E+00  2.70328E+00  2.45471E+00  2.29037E+00  2.14547E+00  1.95101E+00  1.72225E+00  1.46663E+00  1.19877E+00  9.49513E-01
   7.50003E-01  5.92194E-01  4.56834E-01  3.43914E-01  2.55937E-01  1.81967E-01  1.09175E-01  4.67278E-02  1.67576E-02  3.00620E-02
   7.46888E-02  1.43619E-01  2.36859E-01  3.48351E-01  4.68462E-01  5.96444E-01  7.35439E-01  8.94441E-01  1.08102E+00  1.29313E+00
   1.52479E+00  1.77427E+00  2.03484E+00  2.29642E+00  2.54761E+00  2.77999E+00  2.98871E+00  3.16823E+00  3.31057E+00  3.41421E+00
   3.47845E+00  3.50280E+00  3.48877E+00  3.43941E+00  3.35879E+00  3.25249E+00  3.12746E+00  2.99200E+00  2.85610E+00  2.73317E+00
   2.64441E+00  2.60946E+00  2.63444E+00  2.67802E+00  2.64209E+00  2.44600E+00  2.07566E+00  1.58591E+00  1.05220E+00  5.47509E-01
   1.51700E-01 -3.24417E-02  5.89463E-02  3.91252E-01  8.24644E-01  1.24276E+00  1.62608E+00  1.96014E+00  2.20541E+00  2.37767E+00
   2.53263E+00  2.75286E+00  3.07106E+00  3.36000E+00  3.43666E+00  3.21667E+00  2.68619E+00  1.94448E+00  1.13848E+00  4.13902E-01
  -4.67610E-02 -9.98358E-02  2.92780E-01  9.77674E-01  1.69932E+00  2.31168E+00  2.82867E+00  3.20182E+00  3.36002E+00  3.31602E+00
   3.15349E+00  2.96147E+00  2.74287E+00  2.46262E+00  2.20598E+00  1.99926E+00  1.81089E+00  1.62827E+00  1.44723E+00  1.26673E+00
   1.08733E+00  9.10458E-01  7.37983E-01  5.71982E-01  4.14557E-01  2.67801E-01  1.33777E-01  1.44778E-02 -8.82571E-02 -1.72783E-01
  -2.37638E-01 -2.81495E-01 -3.03136E-01 -3.01490E-01 -2.75707E-01 -2.25207E-01 -1.49678E-01 -4.90997E-02  7.61992E-02  2.25416E-01
   3.97153E-01  5.89359E-01  7.99317E-01  1.02364E+00  1.25827E+00  1.49842E+00  1.73869E+00  1.97319E+00  2.19579E+00  2.40031E+00
   2.58077E+00  2.73156E+00  2.84768E+00  2.92510E+00  2.96088E+00  2.95339E+00  2.90227E+00  2.80846E+00  2.67415E+00  2.50270E+00
   2.29846E+00  2.06653E+00  1.81244E+00  1.54195E+00  1.26078E+00  9.74416E-01  6.87984E-01  4.05996E-01  1.32254E-01 -1.30187E-01
  -3.78989E-01 -6.12477E-01 -8.29611E-01 -1.02995E+00 -1.21357E+00 -1.38094E+00 -1.53279E+00 -1.67001E+00 -1.79365E+00 -1.90484E+00
  -2.00476E+00 -2.09455E+00 -2.17528E+00 -2.24789E+00 -2.31329E+00 -2.37234E+00 -2.42580E+00 -2.47433E+00 -2.51849E+00 -2.55875E+00
  -2.59556E+00 -2.62933E+00 -2.66042E+00 -2.68911E+00 -2.71562E+00 -2.74015E+00 -2.76292E+00 -2.78413E+00 -2.80394E+00 -2.82245E+00
  -2.83975E+00 -2.85594E+00 -2.87114E+00 -2.88544E+00 -2.89892E+00 -2.91160E+00 -2.92353E+00 -2.93478E+00 -2.94543E+00 -2.95552E+00
  -2.96509E+00 -2.97414E+00 -2.98269E+00 -2.99080E+00 -2.99852E+00 -3.00589E+00 -3.01288E+00 -3.01951E+00 -3.02580E+00 -3.03180E+00
  -3.03755E+00 -3.04304E+00 -3.04825E+00 -3.05320E+00 -3.05790E+00 -3.06242E+00 -3.06675E+00 -3.07090E+00 -3.07483E+00 -3.07857E+00
  -3.08216E+00 -3.08562E+00 -3.08896E+00 -3.09214E+00 -3.09516E+00 -3.09805E+00 -3.10084E+00 -3.10355E+00 -3.10616E+00 -3.10865E+00
  -3.11102E+00 -3.11331E+00 -3.11554E+00 -3.11771E+00 -3.11980E+00 -3.12180E+00 -3.12371E+00 -3.12558E+00
 NY background values follow
     1.772E+01    1.759E+01    1.747E+01    1.734E+01    1.722E+01    1.709E+01    1.696E+01    1.684E+01    1.671E+01    1.658E+01
     1.646E+01    1.633E+01    1.621E+01    1.608E+01    1.595E+01    1.583E+01    1.570E+01    1.558E+01    1.545E+01    1.532E+01
     1.520E+01    1.507E+01    1.495E+01    1.482E+01    1.469E+01    1.457E+01    1.444E+01    1.432E+01    1.419E+01    1.407E+01
     1.394E+01    1.382E+01    1.369E+01    1.357E+01    1.345E+01    1.332E+01    1.320E+01    1.307E+01    1.295E+01    1.283E+01
     1.270E+01    1.258E+01    1.246E+01    1.233E+01    1.221E+01    1.209E+01    1.197E+01    1.185E+01    1.172E+01    1.160E+01
     1.148E+01    1.136E+01    1.124E+01    1.112E+01    1.100E+01    1.088E+01    1.076E+01    1.064E+01    1.052E+01    1.041E+01
     1.029E+01    1.017E+01    1.005E+01    9.935E+00    9.819E+00    9.702E+00    9.586E+00    9.471E+00    9.356E+00    9.241E+00
     9.127E+00    9.013E+00    8.900E+00    8.787E+00    8.675E+00    8.563E+00    8.451E+00    8.340E+00    8.229E+00    8.119E+00
     8.010E+00    7.901E+00    7.792E+00    7.684E+00    7.577E+00    7.470E+00    7.363E+00    7.257E+00    7.152E+00    7.047E+00
     6.943E+00    6.839E+00    6.736E+00    6.634E+00    6.532E+00    6.431E+00    6.330E+00    6.230E+00    6.131E+00    6.032E+00
     5.933E+00    5.836E+00    5.739E+00    5.642E+00    5.546E+00    5.451E+00    5.356E+00    5.262E+00    5.169E+00    5.076E+00
     4.984E+00    4.892E+00    4.801E+00    4.711E+00    4.621E+00    4.532E+00    4.443E+00    4.355E+00    4.268E+00    4.181E+00
     4.095E+00    4.009E+00    3.924E+00    3.840E+00    3.756E+00    3.673E+00    3.591E+00    3.509E+00    3.428E+00    3.347E+00
     3.268E+00    3.188E+00    3.110E+00    3.032E+00    2.954E+00    2.877E+00    2.801E+00    2.726E+00    2.651E+00    2.577E+00
     2.503E+00    2.430E+00    2.358E+00    2.286E+00    2.215E+00    2.145E+00    2.075E+00    2.006E+00    1.937E+00    1.870E+00
     1.802E+00    1.736E+00    1.670E+00    1.605E+00    1.540E+00    1.476E+00    1.413E+00    1.351E+00    1.289E+00    1.227E+00
     1.167E+00    1.107E+00    1.048E+00    9.890E-01    9.310E-01    8.738E-01    8.171E-01    7.612E-01    7.059E-01    6.514E-01
     5.974E-01    5.442E-01    4.916E-01    4.397E-01    3.885E-01    3.380E-01    2.881E-01    2.390E-01    1.905E-01    1.427E-01
     9.555E-02    4.912E-02    3.369E-03   -4.170E-02   -8.611E-02   -1.299E-01   -1.730E-01   -2.154E-01   -2.573E-01   -2.985E-01
    -3.391E-01   -3.791E-01   -4.185E-01   -4.573E-01   -4.955E-01   -5.332E-01   -5.704E-01   -6.069E-01   -6.430E-01   -6.785E-01
    -7.135E-01   -7.480E-01   -7.820E-01   -8.155E-01   -8.485E-01   -8.811E-01   -9.132E-01   -9.448E-01   -9.760E-01   -1.007E+00
    -1.037E+00   -1.067E+00   -1.096E+00   -1.126E+00   -1.154E+00   -1.183E+00   -1.211E+00   -1.238E+00   -1.266E+00   -1.292E+00
    -1.319E+00   -1.345E+00   -1.371E+00   -1.397E+00   -1.422E+00   -1.447E+00   -1.472E+00   -1.497E+00   -1.521E+00   -1.545E+00
    -1.569E+00   -1.592E+00   -1.615E+00   -1.638E+00   -1.661E+00   -1.683E+00   -1.706E+00   -1.728E+00   -1.749E+00   -1.771E+00
    -1.792E+00   -1.813E+00   -1.834E+00   -1.854E+00   -1.875E+00   -1.895E+00   -1.915E+00   -1.934E+00   -1.954E+00   -1.973E+00
    -1.992E+00   -2.011E+00   -2.030E+00   -2.048E+00   -2.066E+00   -2.084E+00   -2.102E+00   -2.120E+00   -2.137E+00   -2.155E+00
    -2.172E+00   -2.189E+00   -2.205E+00   -2.222E+00   -2.238E+00   -2.254E+00   -2.270E+00   -2.286E+00   -2.302E+00   -2.318E+00
    -2.333E+00   -2.348E+00   -2.363E+00   -2.378E+00   -2.393E+00   -2.408E+00   -2.422E+00   -2.436E+00   -2.451E+00   -2.465E+00
    -2.479E+00   -2.492E+00   -2.506E+00   -2.520E+00   -2.533E+00   -2.546E+00   -2.559E+00   -2.572E+00   -2.585E+00   -2.598E+00
    -2.610E+00   -2.623E+00   -2.635E+00   -2.647E+00   -2.660E+00   -2.672E+00   -2.683E+00   -2.695E+00   -2.707E+00   -2.718E+00
    -2.730E+00   -2.741E+00   -2.752E+00   -2.763E+00   -2.774E+00   -2.785E+00   -2.796E+00   -2.807E+00   -2.818E+00   -2.828E+00
    -2.838E+00   -2.849E+00   -2.859E+00   -2.869E+00   -2.879E+00   -2.889E+00   -2.899E+00   -2.909E+00   -2.919E+00   -2.928E+00
    -2.938E+00   -2.948E+00   -2.957E+00   -2.966E+00   -2.976E+00   -2.985E+00   -2.994E+00   -3.003E+00   -3.012E+00   -3.021E+00
    -3.030E+00   -3.038E+00   -3.047E+00   -3.055E+00   -3.064E+00   -3.072E+00   -3.081E+00   -3.089E+00   -3.097E+00   -3.105E+00
    -3.113E+00   -3.121E+00   -3.129E+00   -3.137E+00   -3.145E+00   -3.153E+00   -3.160E+00   -3.168E+00   -3.175E+00   -3.183E+00
    -3.190E+00   -3.197E+00   -3.205E+00   -3.212E+00   -3.219E+00   -3.226E+00   -3.233E+00   -3.240E+00   -3.247E+00   -3.253E+00
    -3.260E+00   -3.267E+00   -3.273E+00   -3.280E+00   -3.286E+00   -3.292E+00   -3.299E+00   -3.305E+00   -3.311E+00   -3.317E+00
    -3.323E+00   -3.329E+00   -3.335E+00   -3.341E+00   -3.347E+00   -3.352E+00   -3.358E+00   -3.363E+00   -3.369E+00   -3.374E+00
    -3.379E+00   -3.385E+00   -3.390E+00   -3.395E+00   -3.400E+00   -3.405E+00   -3.409E+00   -3.414E+00   -3.419E+00   -3.423E+00
    -3.428E+00   -3.432E+00   -3.437E+00   -3.441E+00   -3.445E+00   -3.449E+00   -3.453E+00   -3.457E+00   -3.460E+00   -3.464E+00
    -3.468E+00   -3.471E+00   -3.474E+00   -3.478E+00   -3.481E+00   -3.484E+00   -3.487E+00   -3.490E+00   -3.493E+00   -3.495E+00
    -3.498E+00   -3.501E+00   -3.503E+00   -3.505E+00   -3.508E+00   -3.510E+00   -3.512E+00   -3.514E+00   -3.515E+00   -3.517E+00
    -3.519E+00   -3.521E+00   -3.522E+00   -3.523E+00   -3.525E+00   -3.526E+00   -3.527E+00   -3.528E+00   -3.529E+00   -3.530E+00
    -3.531E+00   -3.532E+00   -3.533E+00   -3.533E+00   -3.534E+00   -3.534E+00   -3.535E+00   -3.535E+00   -3.535E+00   -3.536E+00
    -3.536E+00   -3.536E+00   -3.536E+00   -3.536E+00   -3.536E+00   -3.535E+00   -3.535E+00   -3.535E+00   -3.534E+00   -3.534E+00
    -3.533E+00   -3.533E+00   -3.532E+00   -3.532E+00   -3.531E+00   -3.530E+00   -3.529E+00   -3.528E+00   -3.527E+00   -3.526E+00
    -3.525E+00   -3.524E+00   -3.523E+00   -3.522E+00   -3.521E+00   -3.519E+00   -3.518E+00   -3.517E+00   -3.515E+00   -3.514E+00
    -3.513E+00   -3.511E+00   -3.510E+00   -3.508E+00   -3.507E+00   -3.505E+00   -3.503E+00   -3.502E+00   -3.500E+00   -3.498E+00
    -3.497E+00   -3.495E+00   -3.493E+00   -3.492E+00   -3.490E+00   -3.488E+00   -3.486E+00   -3.485E+00   -3.483E+00   -3.481E+00
    -3.479E+00   -3.477E+00   -3.476E+00   -3.474E+00   -3.472E+00   -3.470E+00   -3.468E+00   -3.466E+00
 Ala      Conc. = 1.06E+02
