 LCModel (Version 6.3-1L) Copyright: S.W. Provencher.          Ref.: Magn. Reson. Med. 30:672-679 (1993).                
 Slice#2 Row#8 Col#9  PD_24_press_1_raw_act
 36 lines in following concentration table = NCONC+1
    Conc.  %SD /Cr+PCr  Metabolite                                         
    0.000 999%   0.000 Ala                                                 
  199.593 119%   0.153 Asp                                                 
  150.489 162%   0.115 Cr                                                  
 1.15E+03  22%   0.885 PCr                                                 
    0.000 999%   0.000 GABA                                                
   88.438 178% 6.8E-02 Glc                                                 
  216.324 119%   0.166 Gln                                                 
 1.36E+03  21%   1.040 Glu                                                 
  779.060   3%   0.597 GPC                                                 
    0.000 999%   0.000 PCh                                                 
  384.726  21%   0.295 GSH                                                 
 1.18E+03  22%   0.905 Ins                                                 
    0.000 999%   0.000 Lac                                                 
 1.92E+03   6%   1.475 NAA                                                 
  305.653  44%   0.234 NAAG                                                
  126.742  23% 9.7E-02 Scyllo                                              
    0.000 999%   0.000 Tau                                                 
   19.722 544% 1.5E-02 -CrCH2                                              
  779.060   3%   0.597 GPC+PCh                                             
 2.23E+03   4%   1.709 NAA+NAAG                                            
 1.30E+03   5%   1.000 Cr+PCr                                              
 1.57E+03  26%   1.206 Glu+Gln                                             
 2.21E+03  19%   1.698 Lip13a                                              
    0.000 999%   0.000 Lip13b                                              
  368.188  85%   0.282 Lip09                                               
 1.82E+03  18%   1.395 MM09                                                
  324.893  74%   0.249 Lip20                                               
 3.25E+03  12%   2.491 MM20                                                
  801.023  29%   0.614 MM12                                                
    0.000 999%   0.000 MM14                                                
  863.870  23%   0.662 MM17                                                
 2.21E+03  19%   1.698 Lip13a+Lip13b                                       
 3.02E+03  11%   2.312 MM14+Lip13a+Lip13b+MM12                             
 2.19E+03   9%   1.677 MM09+Lip09                                          
 3.57E+03  10%   2.740 MM20+Lip20                                          
   6 lines in following misc. output table
  FWHM = 0.061 ppm    S/N =  10                                            
  Data shift = 0.008 ppm                                                   
  Ph: -50 deg     -11.4 deg/ppm                                            
  alphaB,S = 8.5E+01,   1.0E+02                                            
   14 spline knots.   Ns = 7(1)                                            
   2 inflections.     1 extrema                                            
  498 points on ppm-axis = NY
      4.000000     3.992357     3.984714     3.977070     3.969427     3.961784     3.954141     3.946497     3.938854     3.931211
      3.923568     3.915925     3.908281     3.900638     3.892995     3.885352     3.877708     3.870065     3.862422     3.854779
      3.847136     3.839492     3.831849     3.824206     3.816563     3.808919     3.801276     3.793633     3.785990     3.778347
      3.770703     3.763060     3.755417     3.747774     3.740130     3.732487     3.724844     3.717201     3.709558     3.701914
      3.694271     3.686628     3.678985     3.671341     3.663698     3.656055     3.648412     3.640769     3.633125     3.625482
      3.617839     3.610196     3.602552     3.594909     3.587266     3.579623     3.571980     3.564336     3.556693     3.549050
      3.541407     3.533763     3.526120     3.518477     3.510834     3.503191     3.495547     3.487904     3.480261     3.472618
      3.464974     3.457331     3.449688     3.442045     3.434402     3.426758     3.419115     3.411472     3.403829     3.396185
      3.388542     3.380899     3.373256     3.365613     3.357969     3.350326     3.342683     3.335040     3.327396     3.319753
      3.312110     3.304467     3.296824     3.289180     3.281537     3.273894     3.266251     3.258607     3.250964     3.243321
      3.235678     3.228034     3.220391     3.212748     3.205105     3.197462     3.189818     3.182175     3.174532     3.166889
      3.159245     3.151602     3.143959     3.136316     3.128673     3.121029     3.113386     3.105743     3.098100     3.090456
      3.082813     3.075170     3.067527     3.059884     3.052240     3.044597     3.036954     3.029311     3.021667     3.014024
      3.006381     2.998738     2.991095     2.983451     2.975808     2.968165     2.960522     2.952878     2.945235     2.937592
      2.929949     2.922306     2.914662     2.907019     2.899376     2.891733     2.884089     2.876446     2.868803     2.861160
      2.853517     2.845873     2.838230     2.830587     2.822944     2.815300     2.807657     2.800014     2.792371     2.784728
      2.777084     2.769441     2.761798     2.754155     2.746511     2.738868     2.731225     2.723582     2.715939     2.708295
      2.700652     2.693009     2.685366     2.677722     2.670079     2.662436     2.654793     2.647150     2.639506     2.631863
      2.624220     2.616577     2.608933     2.601290     2.593647     2.586004     2.578361     2.570717     2.563074     2.555431
      2.547788     2.540144     2.532501     2.524858     2.517215     2.509572     2.501928     2.494285     2.486642     2.478999
      2.471355     2.463712     2.456069     2.448426     2.440783     2.433139     2.425496     2.417853     2.410210     2.402566
      2.394923     2.387280     2.379637     2.371994     2.364350     2.356707     2.349064     2.341421     2.333777     2.326134
      2.318491     2.310848     2.303205     2.295561     2.287918     2.280275     2.272632     2.264988     2.257345     2.249702
      2.242059     2.234416     2.226772     2.219129     2.211486     2.203843     2.196199     2.188556     2.180913     2.173270
      2.165627     2.157983     2.150340     2.142697     2.135054     2.127410     2.119767     2.112124     2.104481     2.096838
      2.089194     2.081551     2.073908     2.066265     2.058621     2.050978     2.043335     2.035692     2.028049     2.020405
      2.012762     2.005119     1.997476     1.989833     1.982190     1.974546     1.966903     1.959260     1.951617     1.943974
      1.936331     1.928688     1.921045     1.913402     1.905759     1.898115     1.890472     1.882829     1.875186     1.867543
      1.859900     1.852257     1.844614     1.836971     1.829327     1.821684     1.814041     1.806398     1.798755     1.791112
      1.783469     1.775826     1.768183     1.760540     1.752896     1.745253     1.737610     1.729967     1.722324     1.714681
      1.707038     1.699395     1.691752     1.684108     1.676465     1.668822     1.661179     1.653536     1.645893     1.638250
      1.630607     1.622964     1.615321     1.607677     1.600034     1.592391     1.584748     1.577105     1.569462     1.561819
      1.554176     1.546533     1.538890     1.531246     1.523603     1.515960     1.508317     1.500674     1.493031     1.485388
      1.477745     1.470102     1.462458     1.454815     1.447172     1.439529     1.431886     1.424243     1.416600     1.408957
      1.401314     1.393671     1.386027     1.378384     1.370741     1.363098     1.355455     1.347812     1.340169     1.332526
      1.324883     1.317240     1.309596     1.301953     1.294310     1.286667     1.279024     1.271381     1.263738     1.256095
      1.248452     1.240808     1.233165     1.225522     1.217879     1.210236     1.202593     1.194950     1.187307     1.179664
      1.172021     1.164377     1.156734     1.149091     1.141448     1.133805     1.126162     1.118519     1.110876     1.103233
      1.095590     1.087946     1.080303     1.072660     1.065017     1.057374     1.049731     1.042088     1.034445     1.026802
      1.019158     1.011515     1.003872     0.996229     0.988586     0.980943     0.973300     0.965657     0.958014     0.950371
      0.942727     0.935084     0.927441     0.919798     0.912155     0.904512     0.896869     0.889226     0.881583     0.873940
      0.866296     0.858653     0.851010     0.843367     0.835724     0.828081     0.820438     0.812795     0.805152     0.797508
      0.789865     0.782222     0.774579     0.766936     0.759293     0.751650     0.744007     0.736364     0.728721     0.721077
      0.713434     0.705791     0.698148     0.690505     0.682862     0.675219     0.667576     0.659933     0.652290     0.644646
      0.637003     0.629360     0.621717     0.614074     0.606431     0.598788     0.591145     0.583502     0.575858     0.568215
      0.560572     0.552929     0.545286     0.537643     0.530000     0.522357     0.514714     0.507071     0.499427     0.491784
      0.484141     0.476498     0.468855     0.461212     0.453569     0.445925     0.438282     0.430639     0.422996     0.415353
      0.407710     0.400067     0.392424     0.384780     0.377137     0.369494     0.361851     0.354208     0.346565     0.338922
      0.331278     0.323635     0.315992     0.308349     0.300706     0.293063     0.285420     0.277777     0.270133     0.262490
      0.254847     0.247204     0.239561     0.231918     0.224275     0.216631     0.208988     0.201345
 NY phased data points follow
  -1.91048E+01 -2.12297E+01 -1.44680E+01 -9.26864E+00 -8.61735E+00 -1.93010E+00  2.51816E+00  9.91453E+00  1.38429E+01  1.78908E+01
   1.61732E+01  1.54060E+01  8.38103E+00  1.06473E+01  1.56019E+00 -3.40551E+00 -6.29576E+00 -8.56155E+00 -1.81047E+01 -1.18211E+01
  -1.66108E+01 -1.31403E+01 -9.25171E+00 -4.40591E+00 -1.10290E+01 -7.89756E+00 -2.96955E+00 -3.37951E+00 -6.67429E+00 -1.34917E+00
  -1.14988E+01 -6.40950E+00 -3.74179E+00 -5.77843E+00 -6.85127E+00 -9.17056E+00 -4.25451E+00 -4.04245E+00 -1.10570E+01 -8.86502E+00
  -3.43755E+00 -2.10407E+00 -6.13839E+00 -3.21409E+00 -1.56050E+00 -4.06001E-01  1.20709E+00 -1.00931E-01 -2.25855E+00 -6.74983E-01
  -4.21882E+00 -3.58634E+00 -8.30378E+00 -3.87053E+00 -1.02486E+01 -3.15516E+00 -6.00645E+00 -4.28314E+00 -6.13426E+00 -1.04425E+01
  -8.13575E+00 -1.51619E+01 -1.28386E+01 -2.10646E+01 -1.55480E+01 -1.87895E+01 -1.83019E+01 -1.45389E+01 -1.24812E+01 -1.40928E+01
  -1.32459E+01 -8.00258E+00 -1.45469E+01 -1.43144E+01 -8.56863E+00 -1.19813E+01 -3.83691E+00 -1.16993E+01 -9.66567E+00 -1.44243E+01
  -1.19639E+01 -8.67772E+00 -4.43021E+00 -9.27343E+00 -9.45893E+00 -9.95378E+00 -3.76477E+00 -8.24776E+00 -4.52830E+00 -6.01538E+00
  -9.42991E+00 -7.71776E+00 -6.77906E+00 -6.64359E+00 -2.17470E-01 -3.10240E+00  2.01856E+00  7.24411E+00  1.65356E+01  2.87964E+01
   4.35607E+01  5.77662E+01  5.41147E+01  5.31657E+01  4.14725E+01  4.02040E+01  2.86007E+01  2.02943E+01  8.49784E+00  1.64354E+00
  -2.04467E+00 -1.25915E+00 -8.30364E+00 -4.19399E+00 -8.52948E+00 -1.43009E+01 -1.02199E+01 -1.10530E+01 -8.39808E+00 -6.17171E+00
  -8.42888E+00 -1.29316E+00 -1.38887E-01  5.29188E+00  1.75692E+01  2.81084E+01  3.14900E+01  3.56881E+01  2.55704E+01  2.45368E+01
   1.99944E+01  1.11391E+01  1.28984E+01  3.09226E+00  3.73472E+00 -6.66879E+00 -8.18905E+00 -1.53629E+00 -1.03123E+01 -5.02115E+00
  -3.18304E-01 -6.07353E+00 -1.06755E+01 -9.11357E+00 -1.07282E+01 -8.71681E+00 -1.27607E+01 -8.60167E+00 -4.93572E+00 -6.97927E+00
  -1.24286E+01 -5.22029E+00 -1.23787E+01 -1.31684E+01 -7.25960E+00 -1.33557E+01 -1.18504E+01 -6.21443E+00 -9.87026E+00 -1.08988E+01
  -9.64401E+00 -1.90892E+01 -1.11882E+01 -1.15626E+01 -1.22124E+01 -1.07212E+01 -9.88006E+00 -1.37921E+01 -7.38715E+00 -6.43956E+00
  -1.31580E+01 -9.62104E+00 -1.16513E+01 -1.17817E+01 -1.59334E+01 -1.63015E+01 -1.44529E+01 -2.11760E+01 -1.39255E+01 -1.71333E+01
  -1.65396E+01 -1.72803E+01 -1.87872E+01 -1.47493E+01 -2.05976E+01 -1.68831E+01 -1.28447E+01 -1.02416E+01 -7.60082E+00  4.91111E-02
  -6.55091E+00 -2.58868E+00 -3.88109E+00 -3.75381E+00  3.66388E+00 -8.06952E+00 -3.20153E+00 -4.07829E+00 -1.45747E+00 -7.35724E+00
  -9.88514E+00 -2.39991E+00 -3.87448E+00 -3.99014E+00 -5.52358E+00 -4.22900E+00 -8.78460E+00 -6.16020E+00 -5.93739E+00 -1.12845E+01
  -1.06933E+01 -1.09361E+00 -4.21892E+00  2.52507E+00  6.08821E-01  5.75923E+00  4.36170E+00  6.81617E+00 -2.43542E+00  1.34013E+00
  -7.65285E+00 -7.11490E+00 -3.43392E+00 -9.75979E+00 -1.09162E+00 -5.64755E+00  3.04267E-02  1.54279E+00  1.82275E+00  1.55489E+00
   2.72203E+00 -4.52875E+00  4.08705E+00  3.27696E+00  5.66526E-01  1.66260E+00  1.87654E+00  8.54724E+00  1.07513E+00 -1.86501E+00
  -1.38370E+00 -1.33740E+00  3.00630E+00 -2.95859E-01  3.58383E+00  3.78465E+00  6.69028E+00  8.49348E+00  1.05521E+01  1.04098E+01
   1.20626E+01  1.15431E+01  1.71915E+01  2.58690E+01  2.42043E+01  2.74640E+01  4.01023E+01  5.51449E+01  6.85130E+01  7.60883E+01
   6.80463E+01  6.31964E+01  5.55843E+01  4.61136E+01  3.35732E+01  2.74027E+01  1.91339E+01  1.16401E+01  9.73817E+00  8.74345E-01
   3.41061E+00  4.27316E+00  1.83401E+00  2.62166E+00  3.12419E+00  1.90370E+00  2.95489E+00  6.86732E+00 -2.43810E-01 -1.76945E+00
   2.97332E-01 -3.80166E+00 -4.50685E+00  1.04220E+00  1.99487E+00 -1.36677E+00 -1.27149E+00 -5.47158E+00  3.54722E-01 -1.87402E+00
   2.85809E+00  2.88634E+00 -3.62853E+00  3.47972E-01 -1.25751E+00  9.83757E-01  2.26137E+00 -4.69333E+00 -6.30420E-01  1.86878E+00
   9.42777E-01  3.42065E+00  5.56718E+00 -6.84367E-01  3.96622E+00  6.70169E-01  2.16086E+00  2.01157E+00  5.91276E+00  2.86521E+00
  -2.01942E+00 -6.56449E+00  4.25532E+00  1.50289E+00  1.66313E+00  1.21626E+00  1.47682E+00  4.69306E+00  1.43099E+00  6.74449E+00
   4.80589E+00  3.24713E+00  6.33212E+00 -6.47716E-01  1.27374E+00  4.45570E+00 -5.23261E+00  7.32230E+00  2.15925E+00  5.88265E-01
  -4.39678E+00 -7.86082E+00 -1.80014E-01 -2.54307E-01 -1.45454E+00 -5.54811E+00 -5.32628E+00 -6.23000E+00 -1.49607E+00 -2.92311E+00
  -3.03591E+00 -9.45171E+00 -3.83804E+00  7.85827E-02  7.00929E+00  6.11623E+00  8.00487E+00  6.47027E+00  2.74704E+00  9.02674E+00
   7.57423E+00  8.15942E+00  1.28244E+01  1.38965E+01  1.36889E+01  1.05297E+01  1.31105E+01  1.34514E+01  1.42510E+01  1.06787E+01
   1.40155E+01  1.73337E+01  1.52504E+01  1.14789E+01  1.88782E+01  1.13152E+01  1.65524E+01  9.86830E+00  1.49846E+01  1.44394E+01
   1.68869E+01  1.61448E+01  1.46489E+01  1.20206E+01  1.51203E+01  1.22487E+01  1.30162E+01  1.58621E+01  1.29006E+01  7.46317E+00
   9.70629E+00  4.41998E+00  7.45108E+00  7.01112E+00  1.21727E+01  8.45944E+00  8.47978E+00  9.59232E+00  1.05037E+01  1.06376E+01
   8.78233E+00  1.44469E+01  6.81295E+00  1.04018E+01  9.22900E+00  1.76537E+01  1.24810E+01  9.42396E+00  1.19639E+01  1.09760E+01
   1.42161E+01  1.99265E+01  1.46484E+01  1.46792E+01  1.52321E+01  2.10148E+01  1.38140E+01  1.39685E+01  1.79617E+01  1.40608E+01
   1.43861E+01  1.24583E+01  1.29983E+01  1.50371E+01  2.21158E+00  1.22962E+01  1.18922E+01  7.24750E+00  9.57448E+00  1.08572E+01
   8.28290E+00  8.61119E+00  3.63296E+00  5.68478E+00  3.52889E+00  6.93948E+00  7.13406E+00  4.66150E+00  4.08149E+00  5.04336E+00
   1.00762E+01  1.32067E+00  4.01977E+00  6.68278E+00  2.08607E+00  2.53888E+00  2.21350E+00  4.55384E+00 -7.40709E-01 -2.50214E+00
   4.44311E+00  3.74086E+00  8.04984E-01  3.70222E+00  5.17978E+00  6.23838E+00  6.41915E+00  1.66890E+00  3.69329E+00  5.58673E+00
   2.16092E-01  7.09811E-01  2.68443E+00  1.75106E+00  8.86270E-01  3.27255E+00  4.78003E+00  2.38144E+00  8.19241E+00  6.17105E+00
   1.89557E+00  5.35929E+00  2.73418E+00 -1.52494E+00  5.89485E+00  8.63260E+00  2.83271E+00  5.16779E+00  2.72479E+00  2.91224E+00
   3.92512E+00 -1.17896E+00  5.35537E+00  3.54928E+00  5.36185E+00  7.54641E+00  4.19740E-01  1.54949E+00  4.38168E+00 -2.24693E-01
   3.56388E+00  7.72378E+00  4.10908E+00  7.40098E+00 -6.56318E-01  5.72083E+00  1.12531E-01  7.71549E+00  2.06122E+00  4.77750E+00
   3.14571E+00  3.75567E+00  9.52134E+00  9.75141E+00  2.73106E+00  3.31688E+00  4.75052E+00 -1.80999E-01
 NY points of the fit to the data follow
  -1.26910E+01 -1.24024E+01 -1.13403E+01 -9.07502E+00 -5.88865E+00 -1.47853E+00  4.18975E+00  1.00745E+01  1.44297E+01  1.60466E+01
   1.50838E+01  1.25879E+01  9.44634E+00  5.99756E+00  2.43388E+00 -1.03375E+00 -4.22292E+00 -7.02422E+00 -9.11641E+00 -1.01871E+01
  -1.07566E+01 -1.11472E+01 -1.12912E+01 -1.10015E+01 -1.04522E+01 -9.49745E+00 -8.00406E+00 -6.25741E+00 -4.73476E+00 -3.77885E+00
  -3.28658E+00 -3.09548E+00 -3.30296E+00 -4.02234E+00 -5.14443E+00 -6.44364E+00 -7.70829E+00 -8.90153E+00 -9.70285E+00 -9.71922E+00
  -9.16923E+00 -8.29157E+00 -7.04752E+00 -5.33423E+00 -3.44803E+00 -2.05187E+00 -1.59318E+00 -2.04273E+00 -3.08931E+00 -4.44540E+00
  -5.93973E+00 -7.35825E+00 -8.47445E+00 -9.31291E+00 -9.86832E+00 -1.00244E+01 -9.75876E+00 -9.30486E+00 -9.00237E+00 -9.03625E+00
  -9.40568E+00 -9.98880E+00 -1.06132E+01 -1.11410E+01 -1.14508E+01 -1.15264E+01 -1.14468E+01 -1.12354E+01 -1.08824E+01 -1.04703E+01
  -1.01149E+01 -9.90351E+00 -9.83709E+00 -9.86221E+00 -9.95111E+00 -1.00870E+01 -1.02366E+01 -1.03763E+01 -1.04710E+01 -1.04341E+01
  -1.01087E+01 -9.60544E+00 -8.85242E+00 -7.84062E+00 -6.89648E+00 -6.44701E+00 -6.63996E+00 -7.23425E+00 -7.87340E+00 -8.37311E+00
  -8.77270E+00 -9.07987E+00 -9.26015E+00 -9.27823E+00 -8.93204E+00 -6.99445E+00 -2.00903E+00  5.36300E+00  1.61435E+01  3.05051E+01
   4.51186E+01  5.49852E+01  5.73046E+01  5.32428E+01  4.58665E+01  3.71888E+01  2.78234E+01  1.84203E+01  9.79844E+00  2.45286E+00
  -3.55143E+00 -7.58935E+00 -9.06904E+00 -9.46628E+00 -9.57926E+00 -9.58230E+00 -9.52370E+00 -9.39587E+00 -9.14902E+00 -8.59641E+00
  -6.88393E+00 -3.40214E+00  1.42850E+00  8.39649E+00  1.73885E+01  2.61052E+01  3.15709E+01  3.24442E+01  2.97812E+01  2.54929E+01
   2.04955E+01  1.48838E+01  9.00092E+00  3.41748E+00 -1.38751E+00 -5.21159E+00 -7.48700E+00 -8.01003E+00 -7.89445E+00 -7.64946E+00
  -7.44839E+00 -7.32318E+00 -7.22432E+00 -7.17188E+00 -7.23641E+00 -7.42118E+00 -7.69719E+00 -8.03427E+00 -8.37549E+00 -8.69235E+00
  -8.95959E+00 -9.17409E+00 -9.32606E+00 -9.41799E+00 -9.50190E+00 -9.60103E+00 -9.78570E+00 -1.01126E+01 -1.04939E+01 -1.08138E+01
  -1.09184E+01 -1.07753E+01 -1.05457E+01 -1.04264E+01 -1.04756E+01 -1.06307E+01 -1.08172E+01 -1.09931E+01 -1.11589E+01 -1.13687E+01
  -1.16651E+01 -1.20145E+01 -1.24301E+01 -1.28218E+01 -1.30319E+01 -1.30040E+01 -1.28372E+01 -1.27233E+01 -1.27462E+01 -1.27956E+01
  -1.27470E+01 -1.25437E+01 -1.22551E+01 -1.19534E+01 -1.15294E+01 -1.08233E+01 -9.78782E+00 -8.52219E+00 -7.29964E+00 -6.37670E+00
  -5.88527E+00 -5.79905E+00 -5.94453E+00 -6.20896E+00 -6.53210E+00 -6.82319E+00 -6.96754E+00 -6.82438E+00 -6.39817E+00 -5.74299E+00
  -4.90876E+00 -4.03942E+00 -3.34281E+00 -3.07539E+00 -3.30257E+00 -3.96947E+00 -5.02613E+00 -6.25978E+00 -7.33790E+00 -7.95406E+00
  -7.87052E+00 -7.07753E+00 -5.49449E+00 -3.36067E+00 -1.39991E+00 -3.66149E-01 -5.85464E-01 -1.81920E+00 -3.64884E+00 -5.85924E+00
  -7.96769E+00 -9.25357E+00 -9.35236E+00 -8.38871E+00 -6.84519E+00 -5.08298E+00 -3.27694E+00 -1.75042E+00 -6.43151E-01  1.28303E-01
   8.03594E-01  1.45830E+00  2.02268E+00  2.54678E+00  3.06108E+00  3.42402E+00  3.45466E+00  3.17639E+00  2.76496E+00  2.37141E+00
   2.11303E+00  2.21214E+00  2.83324E+00  3.85495E+00  4.98294E+00  5.99655E+00  6.86305E+00  7.55650E+00  8.14879E+00  8.99148E+00
   1.01887E+01  1.19760E+01  1.47092E+01  1.94559E+01  2.60393E+01  3.35644E+01  4.34001E+01  5.54604E+01  6.63447E+01  7.17546E+01
   7.02589E+01  6.39162E+01  5.55460E+01  4.64211E+01  3.69888E+01  2.80623E+01  2.01861E+01  1.34735E+01  7.92954E+00  4.49330E+00
   3.17552E+00  2.53169E+00  2.11657E+00  1.79830E+00  1.50509E+00  1.19255E+00  8.82143E-01  5.82170E-01  2.86480E-01  8.79441E-03
  -2.29971E-01 -4.29617E-01 -6.01867E-01 -7.46306E-01 -8.57404E-01 -9.38090E-01 -9.96339E-01 -1.02840E+00 -1.02239E+00 -9.71494E-01
  -8.81455E-01 -7.59482E-01 -6.10195E-01 -4.36036E-01 -2.42531E-01 -3.45433E-02  1.85928E-01  4.19978E-01  6.67365E-01  9.23620E-01
   1.18186E+00  1.43681E+00  1.68096E+00  1.90582E+00  2.10349E+00  2.26772E+00  2.39403E+00  2.47878E+00  2.51883E+00  2.51491E+00
   2.46897E+00  2.38360E+00  2.26294E+00  2.11230E+00  1.93732E+00  1.74398E+00  1.53849E+00  1.32716E+00  1.11613E+00  9.11001E-01
   7.16642E-01  5.37120E-01  3.75777E-01  2.35247E-01  1.17557E-01  2.40609E-02 -4.44580E-02 -8.76064E-02 -1.05113E-01 -9.67010E-02
  -6.20394E-02 -7.29425E-04  8.78295E-02  2.04594E-01  3.51011E-01  5.28993E-01  7.40824E-01  9.89072E-01  1.27658E+00  1.60644E+00
   1.98186E+00  2.40590E+00  2.88119E+00  3.40961E+00  3.99212E+00  4.62854E+00  5.31720E+00  6.05466E+00  6.83539E+00  7.65172E+00
   8.49388E+00  9.35013E+00  1.02069E+01  1.10491E+01  1.18605E+01  1.26245E+01  1.33247E+01  1.39457E+01  1.44736E+01  1.48969E+01
   1.52064E+01  1.53967E+01  1.54657E+01  1.54148E+01  1.52492E+01  1.49770E+01  1.46095E+01  1.41600E+01  1.36440E+01  1.30779E+01
   1.24785E+01  1.18627E+01  1.12464E+01  1.06449E+01  1.00720E+01  9.53968E+00  9.05842E+00  8.63684E+00  8.28192E+00  7.99916E+00
   7.79258E+00  7.66489E+00  7.61755E+00  7.65097E+00  7.76458E+00  7.95682E+00  8.22508E+00  8.56558E+00  8.97328E+00  9.44188E+00
   9.96372E+00  1.05297E+01  1.11291E+01  1.17499E+01  1.23788E+01  1.30014E+01  1.36030E+01  1.41684E+01  1.46828E+01  1.51321E+01
   1.55038E+01  1.57871E+01  1.59739E+01  1.60584E+01  1.60382E+01  1.59135E+01  1.56879E+01  1.53675E+01  1.49610E+01  1.44792E+01
   1.39341E+01  1.33389E+01  1.27068E+01  1.20513E+01  1.13850E+01  1.07195E+01  1.00651E+01  9.43034E+00  8.82251E+00  8.24709E+00
   7.70798E+00  7.20761E+00  6.74714E+00  6.32664E+00  5.94536E+00  5.60181E+00  5.29398E+00  5.01949E+00  4.77580E+00  4.56032E+00
   4.37050E+00  4.20383E+00  4.05791E+00  3.93051E+00  3.81960E+00  3.72337E+00  3.64021E+00  3.56863E+00  3.50730E+00  3.45505E+00
   3.41089E+00  3.37396E+00  3.34351E+00  3.31881E+00  3.29925E+00  3.28429E+00  3.27351E+00  3.26651E+00  3.26294E+00  3.26245E+00
   3.26475E+00  3.26958E+00  3.27678E+00  3.28615E+00  3.29750E+00  3.31064E+00  3.32542E+00  3.34173E+00  3.35950E+00  3.37859E+00
   3.39891E+00  3.42033E+00  3.44280E+00  3.46625E+00  3.49065E+00  3.51592E+00  3.54197E+00  3.56875E+00  3.59623E+00  3.62439E+00
   3.65320E+00  3.68259E+00  3.71252E+00  3.74296E+00  3.77389E+00  3.80532E+00  3.83721E+00  3.86950E+00  3.90218E+00  3.93521E+00
   3.96862E+00  4.00240E+00  4.03651E+00  4.07091E+00  4.10559E+00  4.14055E+00  4.17582E+00  4.21136E+00  4.24715E+00  4.28316E+00
   4.31939E+00  4.35587E+00  4.39259E+00  4.42954E+00  4.46669E+00  4.50404E+00  4.54159E+00  4.57938E+00
 NY background values follow
    -1.727E+01   -1.723E+01   -1.719E+01   -1.714E+01   -1.710E+01   -1.706E+01   -1.701E+01   -1.697E+01   -1.693E+01   -1.688E+01
    -1.684E+01   -1.680E+01   -1.675E+01   -1.671E+01   -1.667E+01   -1.662E+01   -1.658E+01   -1.654E+01   -1.649E+01   -1.645E+01
    -1.641E+01   -1.636E+01   -1.632E+01   -1.628E+01   -1.623E+01   -1.619E+01   -1.615E+01   -1.610E+01   -1.606E+01   -1.602E+01
    -1.597E+01   -1.593E+01   -1.589E+01   -1.584E+01   -1.580E+01   -1.576E+01   -1.572E+01   -1.567E+01   -1.563E+01   -1.559E+01
    -1.554E+01   -1.550E+01   -1.546E+01   -1.541E+01   -1.537E+01   -1.533E+01   -1.528E+01   -1.524E+01   -1.520E+01   -1.515E+01
    -1.511E+01   -1.507E+01   -1.502E+01   -1.498E+01   -1.494E+01   -1.489E+01   -1.485E+01   -1.481E+01   -1.476E+01   -1.472E+01
    -1.468E+01   -1.463E+01   -1.459E+01   -1.455E+01   -1.450E+01   -1.446E+01   -1.442E+01   -1.438E+01   -1.433E+01   -1.429E+01
    -1.425E+01   -1.420E+01   -1.416E+01   -1.412E+01   -1.407E+01   -1.403E+01   -1.399E+01   -1.394E+01   -1.390E+01   -1.386E+01
    -1.381E+01   -1.377E+01   -1.373E+01   -1.368E+01   -1.364E+01   -1.360E+01   -1.355E+01   -1.351E+01   -1.347E+01   -1.342E+01
    -1.338E+01   -1.334E+01   -1.329E+01   -1.325E+01   -1.321E+01   -1.316E+01   -1.312E+01   -1.308E+01   -1.304E+01   -1.299E+01
    -1.295E+01   -1.291E+01   -1.286E+01   -1.282E+01   -1.278E+01   -1.273E+01   -1.269E+01   -1.265E+01   -1.260E+01   -1.256E+01
    -1.252E+01   -1.247E+01   -1.243E+01   -1.239E+01   -1.234E+01   -1.230E+01   -1.226E+01   -1.221E+01   -1.217E+01   -1.213E+01
    -1.208E+01   -1.204E+01   -1.200E+01   -1.195E+01   -1.191E+01   -1.187E+01   -1.182E+01   -1.178E+01   -1.174E+01   -1.170E+01
    -1.165E+01   -1.161E+01   -1.157E+01   -1.152E+01   -1.148E+01   -1.144E+01   -1.139E+01   -1.135E+01   -1.131E+01   -1.126E+01
    -1.122E+01   -1.118E+01   -1.113E+01   -1.109E+01   -1.105E+01   -1.100E+01   -1.096E+01   -1.092E+01   -1.087E+01   -1.083E+01
    -1.079E+01   -1.074E+01   -1.070E+01   -1.066E+01   -1.061E+01   -1.057E+01   -1.053E+01   -1.048E+01   -1.044E+01   -1.040E+01
    -1.036E+01   -1.031E+01   -1.027E+01   -1.023E+01   -1.018E+01   -1.014E+01   -1.010E+01   -1.005E+01   -1.001E+01   -9.966E+00
    -9.923E+00   -9.880E+00   -9.836E+00   -9.793E+00   -9.750E+00   -9.707E+00   -9.664E+00   -9.620E+00   -9.577E+00   -9.534E+00
    -9.491E+00   -9.447E+00   -9.404E+00   -9.361E+00   -9.318E+00   -9.275E+00   -9.231E+00   -9.188E+00   -9.145E+00   -9.102E+00
    -9.058E+00   -9.015E+00   -8.972E+00   -8.929E+00   -8.886E+00   -8.842E+00   -8.799E+00   -8.756E+00   -8.713E+00   -8.669E+00
    -8.626E+00   -8.583E+00   -8.540E+00   -8.496E+00   -8.453E+00   -8.410E+00   -8.367E+00   -8.324E+00   -8.280E+00   -8.237E+00
    -8.194E+00   -8.151E+00   -8.107E+00   -8.064E+00   -8.021E+00   -7.978E+00   -7.935E+00   -7.891E+00   -7.848E+00   -7.805E+00
    -7.762E+00   -7.718E+00   -7.675E+00   -7.632E+00   -7.589E+00   -7.546E+00   -7.502E+00   -7.459E+00   -7.416E+00   -7.373E+00
    -7.330E+00   -7.286E+00   -7.243E+00   -7.200E+00   -7.157E+00   -7.113E+00   -7.070E+00   -7.027E+00   -6.984E+00   -6.941E+00
    -6.897E+00   -6.854E+00   -6.811E+00   -6.768E+00   -6.724E+00   -6.681E+00   -6.638E+00   -6.595E+00   -6.552E+00   -6.508E+00
    -6.465E+00   -6.422E+00   -6.379E+00   -6.335E+00   -6.292E+00   -6.249E+00   -6.206E+00   -6.163E+00   -6.119E+00   -6.076E+00
    -6.033E+00   -5.990E+00   -5.946E+00   -5.903E+00   -5.860E+00   -5.817E+00   -5.774E+00   -5.730E+00   -5.687E+00   -5.644E+00
    -5.601E+00   -5.558E+00   -5.514E+00   -5.471E+00   -5.428E+00   -5.385E+00   -5.341E+00   -5.298E+00   -5.255E+00   -5.212E+00
    -5.169E+00   -5.125E+00   -5.082E+00   -5.039E+00   -4.996E+00   -4.952E+00   -4.909E+00   -4.866E+00   -4.823E+00   -4.780E+00
    -4.736E+00   -4.693E+00   -4.650E+00   -4.607E+00   -4.564E+00   -4.520E+00   -4.477E+00   -4.434E+00   -4.391E+00   -4.347E+00
    -4.304E+00   -4.261E+00   -4.218E+00   -4.175E+00   -4.131E+00   -4.088E+00   -4.045E+00   -4.002E+00   -3.958E+00   -3.915E+00
    -3.872E+00   -3.829E+00   -3.786E+00   -3.742E+00   -3.699E+00   -3.656E+00   -3.613E+00   -3.570E+00   -3.526E+00   -3.483E+00
    -3.440E+00   -3.397E+00   -3.353E+00   -3.310E+00   -3.267E+00   -3.224E+00   -3.181E+00   -3.137E+00   -3.094E+00   -3.051E+00
    -3.008E+00   -2.964E+00   -2.921E+00   -2.878E+00   -2.835E+00   -2.792E+00   -2.748E+00   -2.705E+00   -2.662E+00   -2.619E+00
    -2.576E+00   -2.532E+00   -2.489E+00   -2.446E+00   -2.403E+00   -2.359E+00   -2.316E+00   -2.273E+00   -2.230E+00   -2.187E+00
    -2.143E+00   -2.100E+00   -2.057E+00   -2.014E+00   -1.970E+00   -1.927E+00   -1.884E+00   -1.841E+00   -1.798E+00   -1.754E+00
    -1.711E+00   -1.668E+00   -1.625E+00   -1.582E+00   -1.538E+00   -1.495E+00   -1.452E+00   -1.409E+00   -1.365E+00   -1.322E+00
    -1.279E+00   -1.236E+00   -1.193E+00   -1.149E+00   -1.106E+00   -1.063E+00   -1.020E+00   -9.765E-01   -9.333E-01   -8.901E-01
    -8.468E-01   -8.036E-01   -7.604E-01   -7.172E-01   -6.740E-01   -6.308E-01   -5.875E-01   -5.443E-01   -5.011E-01   -4.579E-01
    -4.147E-01   -3.715E-01   -3.283E-01   -2.850E-01   -2.418E-01   -1.986E-01   -1.554E-01   -1.122E-01   -6.895E-02   -2.574E-02
     1.748E-02    6.070E-02    1.039E-01    1.471E-01    1.903E-01    2.336E-01    2.768E-01    3.200E-01    3.632E-01    4.064E-01
     4.496E-01    4.929E-01    5.361E-01    5.793E-01    6.225E-01    6.657E-01    7.089E-01    7.522E-01    7.954E-01    8.386E-01
     8.818E-01    9.250E-01    9.682E-01    1.011E+00    1.055E+00    1.098E+00    1.141E+00    1.184E+00    1.228E+00    1.271E+00
     1.314E+00    1.357E+00    1.400E+00    1.444E+00    1.487E+00    1.530E+00    1.573E+00    1.616E+00    1.660E+00    1.703E+00
     1.746E+00    1.789E+00    1.833E+00    1.876E+00    1.919E+00    1.962E+00    2.005E+00    2.049E+00    2.092E+00    2.135E+00
     2.178E+00    2.222E+00    2.265E+00    2.308E+00    2.351E+00    2.394E+00    2.438E+00    2.481E+00    2.524E+00    2.567E+00
     2.610E+00    2.654E+00    2.697E+00    2.740E+00    2.783E+00    2.827E+00    2.870E+00    2.913E+00    2.956E+00    2.999E+00
     3.043E+00    3.086E+00    3.129E+00    3.172E+00    3.215E+00    3.259E+00    3.302E+00    3.345E+00    3.388E+00    3.432E+00
     3.475E+00    3.518E+00    3.561E+00    3.604E+00    3.648E+00    3.691E+00    3.734E+00    3.777E+00    3.820E+00    3.864E+00
     3.907E+00    3.950E+00    3.993E+00    4.037E+00    4.080E+00    4.123E+00    4.166E+00    4.209E+00
 Asp      Conc. = 2.00E+02
