 LCModel (Version 6.3-1L) Copyright: S.W. Provencher.          Ref.: Magn. Reson. Med. 30:672-679 (1993).                
 Slice#2 Row#12 Col#6  PD_24_press_1_raw_act
 36 lines in following concentration table = NCONC+1
    Conc.  %SD /Cr+PCr  Metabolite                                         
  111.585 117% 7.3E-02 Ala                                                 
    0.000 999%   0.000 Asp                                                 
    0.000 999%   0.000 Cr                                                  
 1.53E+03   4%   1.000 PCr                                                 
   22.759 736% 1.5E-02 GABA                                                
  295.012  54%   0.193 Glc                                                 
  920.301  31%   0.602 Gln                                                 
 1.42E+03  24%   0.932 Glu                                                 
  592.227   4%   0.387 GPC                                                 
    0.000 999%   0.000 PCh                                                 
  441.676  18%   0.289 GSH                                                 
 2.18E+03  13%   1.427 Ins                                                 
  113.240 132% 7.4E-02 Lac                                                 
 2.28E+03   6%   1.489 NAA                                                 
   61.012 258% 4.0E-02 NAAG                                                
  252.927  12%   0.165 Scyllo                                              
  486.850  44%   0.318 Tau                                                 
  314.724  34%   0.206 -CrCH2                                              
  592.227   4%   0.387 GPC+PCh                                             
 2.34E+03   3%   1.529 NAA+NAAG                                            
 1.53E+03   4%   1.000 Cr+PCr                                              
 2.34E+03  23%   1.534 Glu+Gln                                             
 1.02E+03  56%   0.667 Lip13a                                              
  116.447 264% 7.6E-02 Lip13b                                              
   94.528 209% 6.2E-02 Lip09                                               
 1.14E+03  19%   0.744 MM09                                                
  234.355  57%   0.153 Lip20                                               
 2.26E+03  15%   1.477 MM20                                                
  331.371  40%   0.217 MM12                                                
  881.596  34%   0.577 MM14                                                
  613.534  31%   0.401 MM17                                                
 1.14E+03  34%   0.743 Lip13a+Lip13b                                       
 2.35E+03  17%   1.537 MM14+Lip13a+Lip13b+MM12                             
 1.23E+03  15%   0.805 MM09+Lip09                                          
 2.49E+03  14%   1.631 MM20+Lip20                                          
   6 lines in following misc. output table
  FWHM = 0.076 ppm    S/N =  12                                            
  Data shift = 0.015 ppm                                                   
  Ph: -61 deg     -16.0 deg/ppm                                            
  alphaB,S = 8.1E-01,   1.8E+02                                            
   14 spline knots.   Ns = 9(1)                                            
  (10) 2 infls.   ( 3) 1 extrs.                                            
  498 points on ppm-axis = NY
      4.000000     3.992357     3.984714     3.977070     3.969427     3.961784     3.954141     3.946497     3.938854     3.931211
      3.923568     3.915925     3.908281     3.900638     3.892995     3.885352     3.877708     3.870065     3.862422     3.854779
      3.847136     3.839492     3.831849     3.824206     3.816563     3.808919     3.801276     3.793633     3.785990     3.778347
      3.770703     3.763060     3.755417     3.747774     3.740130     3.732487     3.724844     3.717201     3.709558     3.701914
      3.694271     3.686628     3.678985     3.671341     3.663698     3.656055     3.648412     3.640769     3.633125     3.625482
      3.617839     3.610196     3.602552     3.594909     3.587266     3.579623     3.571980     3.564336     3.556693     3.549050
      3.541407     3.533763     3.526120     3.518477     3.510834     3.503191     3.495547     3.487904     3.480261     3.472618
      3.464974     3.457331     3.449688     3.442045     3.434402     3.426758     3.419115     3.411472     3.403829     3.396185
      3.388542     3.380899     3.373256     3.365613     3.357969     3.350326     3.342683     3.335040     3.327396     3.319753
      3.312110     3.304467     3.296824     3.289180     3.281537     3.273894     3.266251     3.258607     3.250964     3.243321
      3.235678     3.228034     3.220391     3.212748     3.205105     3.197462     3.189818     3.182175     3.174532     3.166889
      3.159245     3.151602     3.143959     3.136316     3.128673     3.121029     3.113386     3.105743     3.098100     3.090456
      3.082813     3.075170     3.067527     3.059884     3.052240     3.044597     3.036954     3.029311     3.021667     3.014024
      3.006381     2.998738     2.991095     2.983451     2.975808     2.968165     2.960522     2.952878     2.945235     2.937592
      2.929949     2.922306     2.914662     2.907019     2.899376     2.891733     2.884089     2.876446     2.868803     2.861160
      2.853517     2.845873     2.838230     2.830587     2.822944     2.815300     2.807657     2.800014     2.792371     2.784728
      2.777084     2.769441     2.761798     2.754155     2.746511     2.738868     2.731225     2.723582     2.715939     2.708295
      2.700652     2.693009     2.685366     2.677722     2.670079     2.662436     2.654793     2.647150     2.639506     2.631863
      2.624220     2.616577     2.608933     2.601290     2.593647     2.586004     2.578361     2.570717     2.563074     2.555431
      2.547788     2.540144     2.532501     2.524858     2.517215     2.509572     2.501928     2.494285     2.486642     2.478999
      2.471355     2.463712     2.456069     2.448426     2.440783     2.433139     2.425496     2.417853     2.410210     2.402566
      2.394923     2.387280     2.379637     2.371994     2.364350     2.356707     2.349064     2.341421     2.333777     2.326134
      2.318491     2.310848     2.303205     2.295561     2.287918     2.280275     2.272632     2.264988     2.257345     2.249702
      2.242059     2.234416     2.226772     2.219129     2.211486     2.203843     2.196199     2.188556     2.180913     2.173270
      2.165627     2.157983     2.150340     2.142697     2.135054     2.127410     2.119767     2.112124     2.104481     2.096838
      2.089194     2.081551     2.073908     2.066265     2.058621     2.050978     2.043335     2.035692     2.028049     2.020405
      2.012762     2.005119     1.997476     1.989833     1.982190     1.974546     1.966903     1.959260     1.951617     1.943974
      1.936331     1.928688     1.921045     1.913402     1.905759     1.898115     1.890472     1.882829     1.875186     1.867543
      1.859900     1.852257     1.844614     1.836971     1.829327     1.821684     1.814041     1.806398     1.798755     1.791112
      1.783469     1.775826     1.768183     1.760540     1.752896     1.745253     1.737610     1.729967     1.722324     1.714681
      1.707038     1.699395     1.691752     1.684108     1.676465     1.668822     1.661179     1.653536     1.645893     1.638250
      1.630607     1.622964     1.615321     1.607677     1.600034     1.592391     1.584748     1.577105     1.569462     1.561819
      1.554176     1.546533     1.538890     1.531246     1.523603     1.515960     1.508317     1.500674     1.493031     1.485388
      1.477745     1.470102     1.462458     1.454815     1.447172     1.439529     1.431886     1.424243     1.416600     1.408957
      1.401314     1.393671     1.386027     1.378384     1.370741     1.363098     1.355455     1.347812     1.340169     1.332526
      1.324883     1.317240     1.309596     1.301953     1.294310     1.286667     1.279024     1.271381     1.263738     1.256095
      1.248452     1.240808     1.233165     1.225522     1.217879     1.210236     1.202593     1.194950     1.187307     1.179664
      1.172021     1.164377     1.156734     1.149091     1.141448     1.133805     1.126162     1.118519     1.110876     1.103233
      1.095590     1.087946     1.080303     1.072660     1.065017     1.057374     1.049731     1.042088     1.034445     1.026802
      1.019158     1.011515     1.003872     0.996229     0.988586     0.980943     0.973300     0.965657     0.958014     0.950371
      0.942727     0.935084     0.927441     0.919798     0.912155     0.904512     0.896869     0.889226     0.881583     0.873940
      0.866296     0.858653     0.851010     0.843367     0.835724     0.828081     0.820438     0.812795     0.805152     0.797508
      0.789865     0.782222     0.774579     0.766936     0.759293     0.751650     0.744007     0.736364     0.728721     0.721077
      0.713434     0.705791     0.698148     0.690505     0.682862     0.675219     0.667576     0.659933     0.652290     0.644646
      0.637003     0.629360     0.621717     0.614074     0.606431     0.598788     0.591145     0.583502     0.575858     0.568215
      0.560572     0.552929     0.545286     0.537643     0.530000     0.522357     0.514714     0.507071     0.499427     0.491784
      0.484141     0.476498     0.468855     0.461212     0.453569     0.445925     0.438282     0.430639     0.422996     0.415353
      0.407710     0.400067     0.392424     0.384780     0.377137     0.369494     0.361851     0.354208     0.346565     0.338922
      0.331278     0.323635     0.315992     0.308349     0.300706     0.293063     0.285420     0.277777     0.270133     0.262490
      0.254847     0.247204     0.239561     0.231918     0.224275     0.216631     0.208988     0.201345
 NY phased data points follow
  -7.58832E+01 -7.37058E+01 -7.02415E+01 -6.30914E+01 -6.21800E+01 -5.89096E+01 -5.01756E+01 -4.33261E+01 -4.59665E+01 -4.40923E+01
  -3.90703E+01 -4.24759E+01 -4.78433E+01 -4.88796E+01 -5.28503E+01 -5.28674E+01 -5.98347E+01 -5.85500E+01 -6.18715E+01 -6.43904E+01
  -6.32367E+01 -6.22646E+01 -5.72599E+01 -5.45884E+01 -5.66753E+01 -5.54126E+01 -5.18137E+01 -4.76467E+01 -5.15246E+01 -4.82924E+01
  -4.81112E+01 -5.02029E+01 -4.94408E+01 -4.99838E+01 -4.69853E+01 -4.77146E+01 -5.11733E+01 -4.91420E+01 -4.96477E+01 -4.50973E+01
  -4.76843E+01 -4.67671E+01 -4.01295E+01 -4.53849E+01 -4.34476E+01 -4.05926E+01 -4.04975E+01 -3.95340E+01 -3.79857E+01 -3.64768E+01
  -4.02681E+01 -4.38916E+01 -4.01728E+01 -4.08818E+01 -4.45326E+01 -4.25003E+01 -4.13406E+01 -4.42576E+01 -4.34413E+01 -4.36295E+01
  -4.39499E+01 -4.19417E+01 -4.22990E+01 -4.46782E+01 -4.85446E+01 -4.13591E+01 -4.55284E+01 -4.55760E+01 -4.54568E+01 -4.50307E+01
  -3.75424E+01 -3.78254E+01 -3.93126E+01 -3.75837E+01 -3.78688E+01 -3.84535E+01 -3.69613E+01 -3.63103E+01 -3.88070E+01 -3.63806E+01
  -3.19684E+01 -3.40131E+01 -3.51232E+01 -3.37166E+01 -3.22945E+01 -3.44262E+01 -3.43533E+01 -2.86351E+01 -2.76406E+01 -3.21023E+01
  -3.02789E+01 -2.67633E+01 -3.02596E+01 -2.94192E+01 -3.00662E+01 -2.65998E+01 -2.31228E+01 -1.75427E+01 -1.38390E+01 -5.92752E+00
  -2.83653E+00  2.98387E+00  1.26518E+00  6.22671E+00  6.19543E+00  3.22529E+00 -3.55512E+00 -9.24100E+00 -1.75027E+01 -2.12716E+01
  -2.56390E+01 -2.88785E+01 -2.87850E+01 -2.65173E+01 -3.09346E+01 -2.40863E+01 -2.59036E+01 -2.70567E+01 -2.84417E+01 -2.68748E+01
  -2.46979E+01 -1.84787E+01 -1.39109E+01 -6.71307E+00  3.47628E+00  7.92092E+00  7.41801E+00  1.03611E+01  1.14650E+01  7.90863E+00
   3.36840E+00 -2.82653E+00 -1.00968E+01 -1.56363E+01 -1.79237E+01 -2.20580E+01 -2.95626E+01 -2.87424E+01 -2.76465E+01 -2.56164E+01
  -2.56869E+01 -2.47668E+01 -2.79384E+01 -2.68638E+01 -2.55046E+01 -2.57286E+01 -2.77062E+01 -2.37159E+01 -3.09167E+01 -2.36936E+01
  -2.22082E+01 -2.61562E+01 -2.61811E+01 -2.57655E+01 -2.57901E+01 -2.16111E+01 -2.53933E+01 -2.04232E+01 -2.34465E+01 -2.27843E+01
  -2.41383E+01 -2.41177E+01 -2.39312E+01 -2.71856E+01 -2.18052E+01 -2.26048E+01 -2.61283E+01 -2.19421E+01 -2.63001E+01 -2.88863E+01
  -2.82160E+01 -2.65043E+01 -2.60600E+01 -3.01042E+01 -2.76859E+01 -2.60388E+01 -2.81872E+01 -2.57009E+01 -3.02578E+01 -2.82120E+01
  -2.65357E+01 -2.47762E+01 -2.94053E+01 -2.56586E+01 -2.56042E+01 -2.57157E+01 -2.44883E+01 -2.85018E+01 -2.44711E+01 -1.75884E+01
  -1.88432E+01 -1.95948E+01 -1.25875E+01 -1.63160E+01 -1.89016E+01 -2.05669E+01 -1.60780E+01 -2.04848E+01 -2.25450E+01 -1.31889E+01
  -1.85816E+01 -1.12308E+01 -1.46952E+01 -1.50036E+01 -1.53530E+01 -1.33146E+01 -1.60595E+01 -1.68165E+01 -1.68690E+01 -1.52241E+01
  -1.75481E+01 -1.82661E+01 -1.39231E+01 -1.29681E+01 -1.07932E+01 -9.67468E+00 -7.23490E+00 -1.09185E+01 -1.15560E+01 -1.07114E+01
  -1.07093E+01 -1.60243E+01 -1.34770E+01 -1.22846E+01 -1.34587E+01 -1.37690E+01 -1.20670E+01 -9.66144E+00 -6.66663E+00 -9.31850E+00
  -2.46452E+00 -4.15974E+00 -6.02293E+00 -7.80082E+00 -6.67610E+00 -6.39454E+00 -8.48153E+00 -9.98233E+00 -8.13093E+00 -7.32375E+00
  -7.61021E+00 -4.05635E+00 -7.56998E+00 -6.45052E+00 -6.49119E+00 -4.72003E+00 -6.92870E+00 -7.33930E-01 -6.95199E-01 -3.06251E+00
  -2.19491E+00  9.19792E-01  4.10585E+00  1.22344E+01  2.08089E+01  2.49299E+01  3.56205E+01  4.70667E+01  4.96061E+01  4.81124E+01
   5.42641E+01  5.10812E+01  5.24295E+01  4.64193E+01  3.61084E+01  2.43802E+01  1.62189E+01  8.28141E+00  3.97611E+00  3.44574E+00
  -1.18163E-01 -7.54230E+00 -3.57679E+00 -6.74057E+00 -5.13607E+00 -3.33652E+00 -4.47440E-01 -5.86330E+00 -3.60489E+00 -5.02869E+00
  -4.38986E+00 -9.37485E+00 -9.23804E+00 -7.61633E+00 -7.84197E+00 -8.70493E+00 -8.41324E+00 -7.12819E+00 -5.73117E+00 -5.39292E+00
  -9.20672E+00 -1.05268E+01 -4.42548E+00 -9.47525E+00 -7.14106E+00 -1.02308E+01 -9.04447E+00 -6.41594E+00 -5.65634E+00 -7.76127E+00
  -4.77651E+00 -1.19492E+01 -4.44426E+00 -6.52808E+00 -3.29907E+00 -3.45120E+00 -4.09446E+00 -4.91523E+00 -2.15277E+00 -1.46464E+00
  -6.08839E+00  2.59778E+00 -3.47860E+00 -1.17491E+00 -8.53810E-01 -1.68000E+00 -2.95685E+00 -2.50707E+00  7.19940E-01 -3.59838E+00
  -6.30944E-01 -3.75501E+00 -4.11979E+00 -3.25133E+00 -5.24849E-01 -4.05799E+00 -4.90628E-01 -5.80906E-01 -3.53902E+00 -5.50007E+00
  -1.93966E+00 -3.08920E+00 -3.54103E+00 -1.91988E+00 -6.25686E-02 -2.59280E+00 -4.56785E+00  7.20864E-01  4.09135E-02  6.11227E-01
   1.42858E+00 -2.87195E+00  5.29411E-01  1.55027E+00  1.58060E+00  9.98677E-01  1.27719E+00  5.05299E+00  1.54158E+00  1.94715E+00
   4.17388E+00  3.39260E+00  2.24857E+00 -1.03217E+00 -2.98300E+00  2.23876E+00  3.07931E+00  5.46690E+00  5.08254E+00  2.42509E+00
   2.96552E+00  5.01266E-01 -2.35228E+00  2.12399E+00 -2.88429E+00  8.89495E-01  2.40725E+00 -1.94079E+00 -3.32265E+00 -7.98849E-01
  -5.67926E+00 -3.76144E-01 -1.26428E+00  1.87449E+00  1.07065E+00 -7.87991E+00 -3.61754E+00  1.01691E-01 -2.58976E+00 -6.69039E+00
  -4.87268E+00 -5.85198E+00 -5.71357E+00 -4.95173E+00 -5.49404E+00 -3.77163E+00 -5.95404E+00 -5.54998E+00 -4.67513E+00 -2.92993E+00
  -8.58506E-01 -5.89000E+00 -2.75557E+00 -3.32971E+00 -2.73607E+00 -2.75545E+00 -1.22166E+00  2.78062E-01 -2.04403E+00  1.51622E+00
   5.35378E+00  3.41937E+00  3.28086E+00  1.46684E+00  5.56651E+00  4.16414E+00  6.11765E+00  5.03615E+00  8.37609E+00  3.94587E+00
   7.08125E+00  4.43271E+00  2.08932E+00  4.92819E+00  6.08215E+00  5.84552E+00 -6.59653E-01 -9.86295E-01 -2.96785E+00  4.04992E-02
   1.26453E+00  2.62171E+00  1.53350E+00 -2.84046E+00 -1.25372E+00 -1.58939E+00  6.92564E-01 -6.07441E+00 -1.92692E+00 -2.98819E+00
  -3.46432E+00  4.34843E-01 -2.25602E+00  1.89388E-01 -5.48186E-01 -3.12361E+00 -4.18395E+00 -7.81570E+00 -9.59141E-01 -4.85419E+00
   1.95919E-01 -6.21828E+00 -4.15351E+00 -1.82356E+00 -3.25613E+00 -2.97727E+00 -1.22135E+00 -3.30703E+00 -2.08503E+00 -4.09127E+00
  -2.61894E+00 -1.43584E+00 -4.34875E+00 -3.27758E+00 -4.68757E-01 -8.26474E+00 -4.98233E+00 -3.70818E+00 -3.18501E+00 -4.53733E+00
  -1.68049E+00 -3.64099E+00  2.61586E-01 -6.93074E+00 -1.23080E+00 -2.58741E+00 -2.28042E-01 -3.48073E+00 -1.02032E+00 -1.37334E-02
  -1.61792E-01  1.18684E+00 -1.42064E+00 -3.43236E+00 -2.31166E+00 -2.71108E+00 -2.11110E+00 -4.47791E+00 -4.11302E-01 -4.56761E+00
  -6.97244E-01 -4.29967E+00 -1.42272E+00 -9.68503E-01 -6.96508E-01 -3.10327E+00  7.54377E-01  2.17890E-01 -2.71983E+00 -2.68809E+00
   1.46785E+00  7.38379E-02 -4.10756E+00  5.95244E-01 -4.09261E+00 -3.26257E+00 -2.51231E+00 -1.64472E+00
 NY points of the fit to the data follow
  -6.79096E+01 -6.68781E+01 -6.48434E+01 -6.20825E+01 -5.87878E+01 -5.50272E+01 -5.12827E+01 -4.83026E+01 -4.61891E+01 -4.45810E+01
  -4.35872E+01 -4.37579E+01 -4.53770E+01 -4.81342E+01 -5.13146E+01 -5.42075E+01 -5.64229E+01 -5.79621E+01 -5.90025E+01 -5.96672E+01
  -5.98359E+01 -5.94706E+01 -5.87902E+01 -5.78946E+01 -5.67623E+01 -5.53066E+01 -5.36023E+01 -5.19190E+01 -5.03664E+01 -4.89064E+01
  -4.76515E+01 -4.68346E+01 -4.65897E+01 -4.68959E+01 -4.76527E+01 -4.87114E+01 -4.98459E+01 -5.07472E+01 -5.11039E+01 -5.07735E+01
  -4.97805E+01 -4.81997E+01 -4.61606E+01 -4.39465E+01 -4.20434E+01 -4.07340E+01 -3.99178E+01 -3.95005E+01 -3.96473E+01 -4.05395E+01
  -4.20242E+01 -4.36629E+01 -4.49986E+01 -4.57769E+01 -4.59659E+01 -4.57005E+01 -4.51792E+01 -4.45481E+01 -4.39039E+01 -4.33473E+01
  -4.29348E+01 -4.26980E+01 -4.26315E+01 -4.26816E+01 -4.27519E+01 -4.27168E+01 -4.24459E+01 -4.18686E+01 -4.10628E+01 -4.01824E+01
  -3.93434E+01 -3.85900E+01 -3.79621E+01 -3.75483E+01 -3.73769E+01 -3.73682E+01 -3.74303E+01 -3.75217E+01 -3.74863E+01 -3.71965E+01
  -3.66839E+01 -3.59947E+01 -3.50639E+01 -3.38500E+01 -3.25864E+01 -3.16193E+01 -3.09676E+01 -3.04507E+01 -3.01472E+01 -3.03128E+01
  -3.10280E+01 -3.20857E+01 -3.30724E+01 -3.32589E+01 -3.17818E+01 -2.86053E+01 -2.42182E+01 -1.89490E+01 -1.28233E+01 -6.48709E+00
  -1.24553E+00  2.36504E+00  4.80986E+00  6.14766E+00  5.55153E+00  2.34164E+00 -3.17127E+00 -9.79756E+00 -1.61782E+01 -2.14500E+01
  -2.54398E+01 -2.83587E+01 -3.03733E+01 -3.14863E+01 -3.18577E+01 -3.19199E+01 -3.18185E+01 -3.13908E+01 -2.98551E+01 -2.67637E+01
  -2.24252E+01 -1.72792E+01 -1.14184E+01 -5.04532E+00  7.88946E-01  5.05525E+00  7.94048E+00  9.93729E+00  1.05189E+01  8.68311E+00
   4.18318E+00 -2.11673E+00 -8.74059E+00 -1.44805E+01 -1.89060E+01 -2.21678E+01 -2.45006E+01 -2.59302E+01 -2.64038E+01 -2.62987E+01
  -2.59793E+01 -2.55813E+01 -2.52160E+01 -2.49613E+01 -2.48411E+01 -2.48461E+01 -2.49400E+01 -2.50638E+01 -2.51737E+01 -2.52487E+01
  -2.52781E+01 -2.52668E+01 -2.52441E+01 -2.52443E+01 -2.52717E+01 -2.53025E+01 -2.53088E+01 -2.52933E+01 -2.52548E+01 -2.51810E+01
  -2.50915E+01 -2.50312E+01 -2.50234E+01 -2.50337E+01 -2.49988E+01 -2.49196E+01 -2.48877E+01 -2.50040E+01 -2.52834E+01 -2.56295E+01
  -2.59395E+01 -2.61768E+01 -2.63679E+01 -2.65007E+01 -2.65342E+01 -2.64874E+01 -2.64210E+01 -2.63482E+01 -2.62208E+01 -2.59966E+01
  -2.56993E+01 -2.53756E+01 -2.50063E+01 -2.45054E+01 -2.37961E+01 -2.28990E+01 -2.19362E+01 -2.10257E+01 -2.01962E+01 -1.94414E+01
  -1.87920E+01 -1.83115E+01 -1.80568E+01 -1.80092E+01 -1.80489E+01 -1.80081E+01 -1.77614E+01 -1.72559E+01 -1.65081E+01 -1.55844E+01
  -1.46088E+01 -1.38102E+01 -1.33742E+01 -1.33617E+01 -1.37857E+01 -1.46119E+01 -1.57077E+01 -1.67644E+01 -1.74786E+01 -1.77855E+01
  -1.76705E+01 -1.70314E+01 -1.58575E+01 -1.44352E+01 -1.31773E+01 -1.22849E+01 -1.17671E+01 -1.16945E+01 -1.21645E+01 -1.30663E+01
  -1.40551E+01 -1.48145E+01 -1.52015E+01 -1.51677E+01 -1.46482E+01 -1.36153E+01 -1.22224E+01 -1.07708E+01 -9.51114E+00 -8.54955E+00
  -7.88406E+00 -7.48042E+00 -7.24164E+00 -7.02470E+00 -6.79921E+00 -6.60190E+00 -6.43462E+00 -6.27408E+00 -6.14741E+00 -6.09439E+00
  -6.06586E+00 -5.99543E+00 -5.91812E+00 -5.86615E+00 -5.74160E+00 -5.41373E+00 -4.84526E+00 -4.06383E+00 -3.11234E+00 -2.04317E+00
  -7.58988E-01  1.54858E+00  5.79860E+00  1.17936E+01  1.88661E+01  2.67213E+01  3.52038E+01  4.31364E+01  4.88531E+01  5.21467E+01
   5.39202E+01  5.40547E+01  5.13071E+01  4.49990E+01  3.59249E+01  2.58995E+01  1.67101E+01  9.30309E+00  3.71266E+00 -3.88983E-01
  -3.19051E+00 -4.70981E+00 -5.33093E+00 -5.66163E+00 -5.88075E+00 -6.03615E+00 -6.16991E+00 -6.31659E+00 -6.48066E+00 -6.65525E+00
  -6.83118E+00 -6.99862E+00 -7.14771E+00 -7.27099E+00 -7.36277E+00 -7.42159E+00 -7.45221E+00 -7.46118E+00 -7.45232E+00 -7.42629E+00
  -7.38249E+00 -7.32006E+00 -7.23775E+00 -7.13296E+00 -7.00428E+00 -6.85128E+00 -6.67367E+00 -6.47129E+00 -6.24486E+00 -5.99577E+00
  -5.72613E+00 -5.43890E+00 -5.13830E+00 -4.82930E+00 -4.51778E+00 -4.21027E+00 -3.91347E+00 -3.63364E+00 -3.37649E+00 -3.14673E+00
  -2.94793E+00 -2.78211E+00 -2.64979E+00 -2.54976E+00 -2.47888E+00 -2.43181E+00 -2.40056E+00 -2.37223E+00 -2.32702E+00 -2.26347E+00
  -2.20362E+00 -2.16348E+00 -2.14650E+00 -2.16129E+00 -2.23452E+00 -2.37826E+00 -2.55056E+00 -2.69534E+00 -2.80706E+00 -2.89657E+00
  -2.93817E+00 -2.87160E+00 -2.66318E+00 -2.34141E+00 -1.95050E+00 -1.50694E+00 -1.02353E+00 -5.34111E-01 -7.56461E-02  3.13494E-01
   6.08255E-01  8.23224E-01  9.87121E-01  1.11109E+00  1.17305E+00  1.16077E+00  1.13063E+00  1.14356E+00  1.18983E+00  1.24195E+00
   1.31465E+00  1.45620E+00  1.68220E+00  1.95405E+00  2.22804E+00  2.47975E+00  2.67702E+00  2.77096E+00  2.71871E+00  2.50180E+00
   2.14195E+00  1.69365E+00  1.20584E+00  7.08532E-01  2.17720E-01 -2.53261E-01 -6.88766E-01 -1.08614E+00 -1.45228E+00 -1.79020E+00
  -2.10119E+00 -2.38584E+00 -2.64446E+00 -2.87708E+00 -3.08368E+00 -3.26421E+00 -3.41863E+00 -3.54683E+00 -3.64872E+00 -3.72410E+00
  -3.77275E+00 -3.79427E+00 -3.78811E+00 -3.75339E+00 -3.68902E+00 -3.59361E+00 -3.46557E+00 -3.30308E+00 -3.10423E+00 -2.86704E+00
  -2.58975E+00 -2.27093E+00 -1.90986E+00 -1.50660E+00 -1.06241E+00 -5.79886E-01 -6.33114E-02  4.81241E-01  1.04576E+00  1.62046E+00
   2.19382E+00  2.75300E+00  3.28411E+00  3.77292E+00  4.20539E+00  4.56852E+00  4.85090E+00  5.04347E+00  5.13993E+00  5.13721E+00
   5.03563E+00  4.83899E+00  4.55425E+00  4.19118E+00  3.76171E+00  3.27941E+00  2.75865E+00  2.21401E+00  1.65946E+00  1.10790E+00
   5.70632E-01  5.71251E-02 -4.25180E-01 -8.70841E-01 -1.27642E+00 -1.64024E+00 -1.96217E+00 -2.24327E+00 -2.48558E+00 -2.69178E+00
  -2.86500E+00 -3.00857E+00 -3.12586E+00 -3.22008E+00 -3.29427E+00 -3.35118E+00 -3.39334E+00 -3.42292E+00 -3.44186E+00 -3.45175E+00
  -3.45398E+00 -3.44971E+00 -3.43995E+00 -3.42553E+00 -3.40714E+00 -3.38533E+00 -3.36058E+00 -3.33330E+00 -3.30387E+00 -3.27255E+00
  -3.23960E+00 -3.20520E+00 -3.16955E+00 -3.13279E+00 -3.09509E+00 -3.05652E+00 -3.01719E+00 -2.97714E+00 -2.93648E+00 -2.89526E+00
  -2.85357E+00 -2.81142E+00 -2.76886E+00 -2.72591E+00 -2.68263E+00 -2.63904E+00 -2.59519E+00 -2.55108E+00 -2.50671E+00 -2.46212E+00
  -2.41733E+00 -2.37236E+00 -2.32723E+00 -2.28192E+00 -2.23644E+00 -2.19080E+00 -2.14505E+00 -2.09916E+00 -2.05315E+00 -2.00698E+00
  -1.96070E+00 -1.91429E+00 -1.86778E+00 -1.82115E+00 -1.77439E+00 -1.72748E+00 -1.68045E+00 -1.63328E+00 -1.58599E+00 -1.53854E+00
  -1.49092E+00 -1.44311E+00 -1.39512E+00 -1.34693E+00 -1.29853E+00 -1.24987E+00 -1.20091E+00 -1.15162E+00
 NY background values follow
    -7.374E+01   -7.334E+01   -7.295E+01   -7.255E+01   -7.216E+01   -7.176E+01   -7.137E+01   -7.097E+01   -7.058E+01   -7.018E+01
    -6.979E+01   -6.940E+01   -6.900E+01   -6.861E+01   -6.822E+01   -6.782E+01   -6.743E+01   -6.704E+01   -6.665E+01   -6.626E+01
    -6.587E+01   -6.548E+01   -6.509E+01   -6.470E+01   -6.431E+01   -6.392E+01   -6.353E+01   -6.315E+01   -6.276E+01   -6.238E+01
    -6.199E+01   -6.161E+01   -6.123E+01   -6.085E+01   -6.047E+01   -6.009E+01   -5.971E+01   -5.933E+01   -5.896E+01   -5.858E+01
    -5.821E+01   -5.784E+01   -5.747E+01   -5.710E+01   -5.673E+01   -5.636E+01   -5.600E+01   -5.563E+01   -5.527E+01   -5.491E+01
    -5.455E+01   -5.419E+01   -5.383E+01   -5.347E+01   -5.312E+01   -5.277E+01   -5.241E+01   -5.206E+01   -5.172E+01   -5.137E+01
    -5.102E+01   -5.068E+01   -5.034E+01   -5.000E+01   -4.966E+01   -4.932E+01   -4.898E+01   -4.865E+01   -4.832E+01   -4.799E+01
    -4.766E+01   -4.733E+01   -4.701E+01   -4.668E+01   -4.636E+01   -4.604E+01   -4.572E+01   -4.541E+01   -4.509E+01   -4.478E+01
    -4.447E+01   -4.416E+01   -4.385E+01   -4.354E+01   -4.324E+01   -4.294E+01   -4.264E+01   -4.234E+01   -4.205E+01   -4.175E+01
    -4.146E+01   -4.117E+01   -4.088E+01   -4.060E+01   -4.031E+01   -4.003E+01   -3.975E+01   -3.947E+01   -3.920E+01   -3.892E+01
    -3.865E+01   -3.838E+01   -3.811E+01   -3.784E+01   -3.758E+01   -3.732E+01   -3.705E+01   -3.679E+01   -3.654E+01   -3.628E+01
    -3.603E+01   -3.577E+01   -3.552E+01   -3.528E+01   -3.503E+01   -3.478E+01   -3.454E+01   -3.430E+01   -3.406E+01   -3.382E+01
    -3.358E+01   -3.335E+01   -3.311E+01   -3.288E+01   -3.265E+01   -3.242E+01   -3.219E+01   -3.197E+01   -3.174E+01   -3.152E+01
    -3.130E+01   -3.108E+01   -3.086E+01   -3.065E+01   -3.043E+01   -3.022E+01   -3.001E+01   -2.980E+01   -2.959E+01   -2.938E+01
    -2.917E+01   -2.897E+01   -2.876E+01   -2.856E+01   -2.836E+01   -2.816E+01   -2.796E+01   -2.776E+01   -2.757E+01   -2.737E+01
    -2.718E+01   -2.699E+01   -2.680E+01   -2.661E+01   -2.642E+01   -2.623E+01   -2.604E+01   -2.586E+01   -2.567E+01   -2.549E+01
    -2.530E+01   -2.512E+01   -2.494E+01   -2.476E+01   -2.458E+01   -2.440E+01   -2.423E+01   -2.405E+01   -2.388E+01   -2.370E+01
    -2.353E+01   -2.335E+01   -2.318E+01   -2.301E+01   -2.284E+01   -2.267E+01   -2.250E+01   -2.233E+01   -2.216E+01   -2.199E+01
    -2.183E+01   -2.166E+01   -2.150E+01   -2.133E+01   -2.117E+01   -2.100E+01   -2.084E+01   -2.068E+01   -2.051E+01   -2.035E+01
    -2.019E+01   -2.003E+01   -1.987E+01   -1.972E+01   -1.956E+01   -1.940E+01   -1.925E+01   -1.909E+01   -1.894E+01   -1.878E+01
    -1.863E+01   -1.848E+01   -1.833E+01   -1.818E+01   -1.803E+01   -1.789E+01   -1.774E+01   -1.759E+01   -1.745E+01   -1.731E+01
    -1.716E+01   -1.702E+01   -1.688E+01   -1.674E+01   -1.661E+01   -1.647E+01   -1.634E+01   -1.620E+01   -1.607E+01   -1.594E+01
    -1.581E+01   -1.568E+01   -1.555E+01   -1.542E+01   -1.530E+01   -1.517E+01   -1.505E+01   -1.493E+01   -1.481E+01   -1.469E+01
    -1.458E+01   -1.446E+01   -1.435E+01   -1.423E+01   -1.412E+01   -1.401E+01   -1.390E+01   -1.379E+01   -1.369E+01   -1.358E+01
    -1.348E+01   -1.338E+01   -1.328E+01   -1.318E+01   -1.308E+01   -1.298E+01   -1.288E+01   -1.279E+01   -1.269E+01   -1.260E+01
    -1.251E+01   -1.242E+01   -1.233E+01   -1.224E+01   -1.215E+01   -1.207E+01   -1.198E+01   -1.190E+01   -1.182E+01   -1.173E+01
    -1.165E+01   -1.157E+01   -1.150E+01   -1.142E+01   -1.134E+01   -1.127E+01   -1.119E+01   -1.112E+01   -1.105E+01   -1.098E+01
    -1.091E+01   -1.084E+01   -1.077E+01   -1.070E+01   -1.063E+01   -1.057E+01   -1.050E+01   -1.044E+01   -1.038E+01   -1.032E+01
    -1.026E+01   -1.020E+01   -1.014E+01   -1.008E+01   -1.002E+01   -9.963E+00   -9.907E+00   -9.852E+00   -9.798E+00   -9.744E+00
    -9.691E+00   -9.639E+00   -9.587E+00   -9.537E+00   -9.487E+00   -9.437E+00   -9.388E+00   -9.340E+00   -9.293E+00   -9.246E+00
    -9.200E+00   -9.154E+00   -9.109E+00   -9.065E+00   -9.021E+00   -8.978E+00   -8.935E+00   -8.893E+00   -8.851E+00   -8.810E+00
    -8.769E+00   -8.729E+00   -8.689E+00   -8.650E+00   -8.611E+00   -8.572E+00   -8.534E+00   -8.497E+00   -8.460E+00   -8.423E+00
    -8.386E+00   -8.350E+00   -8.315E+00   -8.279E+00   -8.244E+00   -8.209E+00   -8.175E+00   -8.141E+00   -8.107E+00   -8.073E+00
    -8.039E+00   -8.006E+00   -7.973E+00   -7.941E+00   -7.908E+00   -7.876E+00   -7.843E+00   -7.811E+00   -7.780E+00   -7.748E+00
    -7.716E+00   -7.685E+00   -7.653E+00   -7.622E+00   -7.591E+00   -7.559E+00   -7.528E+00   -7.497E+00   -7.466E+00   -7.435E+00
    -7.404E+00   -7.373E+00   -7.342E+00   -7.311E+00   -7.280E+00   -7.248E+00   -7.217E+00   -7.186E+00   -7.154E+00   -7.123E+00
    -7.091E+00   -7.059E+00   -7.027E+00   -6.995E+00   -6.963E+00   -6.931E+00   -6.898E+00   -6.865E+00   -6.832E+00   -6.799E+00
    -6.766E+00   -6.732E+00   -6.699E+00   -6.665E+00   -6.631E+00   -6.596E+00   -6.562E+00   -6.527E+00   -6.492E+00   -6.457E+00
    -6.421E+00   -6.385E+00   -6.349E+00   -6.313E+00   -6.276E+00   -6.240E+00   -6.202E+00   -6.165E+00   -6.127E+00   -6.089E+00
    -6.051E+00   -6.013E+00   -5.974E+00   -5.935E+00   -5.895E+00   -5.855E+00   -5.815E+00   -5.775E+00   -5.734E+00   -5.693E+00
    -5.651E+00   -5.609E+00   -5.567E+00   -5.524E+00   -5.481E+00   -5.438E+00   -5.394E+00   -5.350E+00   -5.305E+00   -5.260E+00
    -5.215E+00   -5.169E+00   -5.123E+00   -5.077E+00   -5.030E+00   -4.983E+00   -4.936E+00   -4.889E+00   -4.841E+00   -4.793E+00
    -4.744E+00   -4.696E+00   -4.647E+00   -4.598E+00   -4.548E+00   -4.499E+00   -4.449E+00   -4.399E+00   -4.349E+00   -4.299E+00
    -4.249E+00   -4.199E+00   -4.148E+00   -4.097E+00   -4.047E+00   -3.996E+00   -3.945E+00   -3.894E+00   -3.843E+00   -3.792E+00
    -3.741E+00   -3.689E+00   -3.638E+00   -3.587E+00   -3.536E+00   -3.485E+00   -3.434E+00   -3.383E+00   -3.332E+00   -3.281E+00
    -3.230E+00   -3.180E+00   -3.129E+00   -3.079E+00   -3.028E+00   -2.978E+00   -2.928E+00   -2.878E+00   -2.828E+00   -2.778E+00
    -2.728E+00   -2.679E+00   -2.629E+00   -2.580E+00   -2.530E+00   -2.481E+00   -2.432E+00   -2.383E+00   -2.334E+00   -2.285E+00
    -2.236E+00   -2.187E+00   -2.138E+00   -2.090E+00   -2.041E+00   -1.993E+00   -1.944E+00   -1.896E+00   -1.848E+00   -1.800E+00
    -1.751E+00   -1.703E+00   -1.655E+00   -1.607E+00   -1.559E+00   -1.512E+00   -1.464E+00   -1.416E+00   -1.368E+00   -1.321E+00
    -1.273E+00   -1.225E+00   -1.178E+00   -1.130E+00   -1.083E+00   -1.035E+00   -9.879E-01   -9.405E-01
 Ala      Conc. = 1.12E+02
