 LCModel (Version 6.3-1L) Copyright: S.W. Provencher.          Ref.: Magn. Reson. Med. 30:672-679 (1993).                
 Slice#3 Row#4 Col#8  PD_24_press_1_raw_act
 36 lines in following concentration table = NCONC+1
    Conc.  %SD /Cr+PCr  Metabolite                                         
   82.679 122% 6.0E-02 Ala                                                 
    0.000 999%   0.000 Asp                                                 
  841.173  23%   0.614 Cr                                                  
  527.862  38%   0.386 PCr                                                 
   30.291 397% 2.2E-02 GABA                                                
    0.000 999%   0.000 Glc                                                 
  387.642  54%   0.283 Gln                                                 
 1.14E+03  22%   0.830 Glu                                                 
  459.225   4%   0.335 GPC                                                 
    0.000 999%   0.000 PCh                                                 
  511.831  13%   0.374 GSH                                                 
  115.486 201% 8.4E-02 Ins                                                 
  261.695  42%   0.191 Lac                                                 
 1.36E+03   5%   0.994 NAA                                                 
    0.000 999%   0.000 NAAG                                                
    1.183 999% 8.6E-04 Scyllo                                              
    0.000 999%   0.000 Tau                                                 
    0.000 999%   0.000 -CrCH2                                              
  459.225   4%   0.335 GPC+PCh                                             
 1.36E+03   5%   0.994 NAA+NAAG                                            
 1.37E+03   4%   1.000 Cr+PCr                                              
 1.52E+03  23%   1.113 Glu+Gln                                             
 1.17E+03  37%   0.854 Lip13a                                              
    0.000 999%   0.000 Lip13b                                              
    0.000 999%   0.000 Lip09                                               
 1.30E+03  16%   0.949 MM09                                                
  226.664  88%   0.166 Lip20                                               
 2.69E+03  13%   1.964 MM20                                                
  869.901  20%   0.635 MM12                                                
    0.000 999%   0.000 MM14                                                
  512.291  41%   0.374 MM17                                                
 1.17E+03  37%   0.854 Lip13a+Lip13b                                       
 2.04E+03  20%   1.490 MM14+Lip13a+Lip13b+MM12                             
 1.30E+03  16%   0.949 MM09+Lip09                                          
 2.92E+03  12%   2.130 MM20+Lip20                                          
   6 lines in following misc. output table
  FWHM = 0.054 ppm    S/N =   9                                            
  Data shift = 0.000 ppm                                                   
  Ph:   6 deg      -2.7 deg/ppm                                            
  alphaB,S = 2.2E+00,   1.0E+02                                            
   14 spline knots.   Ns = 7(1)                                            
  (11) 4 infls.   ( 7) 1 extrs.                                            
  498 points on ppm-axis = NY
      4.000000     3.992357     3.984714     3.977070     3.969427     3.961784     3.954141     3.946497     3.938854     3.931211
      3.923568     3.915925     3.908281     3.900638     3.892995     3.885352     3.877708     3.870065     3.862422     3.854779
      3.847136     3.839492     3.831849     3.824206     3.816563     3.808919     3.801276     3.793633     3.785990     3.778347
      3.770703     3.763060     3.755417     3.747774     3.740130     3.732487     3.724844     3.717201     3.709558     3.701914
      3.694271     3.686628     3.678985     3.671341     3.663698     3.656055     3.648412     3.640769     3.633125     3.625482
      3.617839     3.610196     3.602552     3.594909     3.587266     3.579623     3.571980     3.564336     3.556693     3.549050
      3.541407     3.533763     3.526120     3.518477     3.510834     3.503191     3.495547     3.487904     3.480261     3.472618
      3.464974     3.457331     3.449688     3.442045     3.434402     3.426758     3.419115     3.411472     3.403829     3.396185
      3.388542     3.380899     3.373256     3.365613     3.357969     3.350326     3.342683     3.335040     3.327396     3.319753
      3.312110     3.304467     3.296824     3.289180     3.281537     3.273894     3.266251     3.258607     3.250964     3.243321
      3.235678     3.228034     3.220391     3.212748     3.205105     3.197462     3.189818     3.182175     3.174532     3.166889
      3.159245     3.151602     3.143959     3.136316     3.128673     3.121029     3.113386     3.105743     3.098100     3.090456
      3.082813     3.075170     3.067527     3.059884     3.052240     3.044597     3.036954     3.029311     3.021667     3.014024
      3.006381     2.998738     2.991095     2.983451     2.975808     2.968165     2.960522     2.952878     2.945235     2.937592
      2.929949     2.922306     2.914662     2.907019     2.899376     2.891733     2.884089     2.876446     2.868803     2.861160
      2.853517     2.845873     2.838230     2.830587     2.822944     2.815300     2.807657     2.800014     2.792371     2.784728
      2.777084     2.769441     2.761798     2.754155     2.746511     2.738868     2.731225     2.723582     2.715939     2.708295
      2.700652     2.693009     2.685366     2.677722     2.670079     2.662436     2.654793     2.647150     2.639506     2.631863
      2.624220     2.616577     2.608933     2.601290     2.593647     2.586004     2.578361     2.570717     2.563074     2.555431
      2.547788     2.540144     2.532501     2.524858     2.517215     2.509572     2.501928     2.494285     2.486642     2.478999
      2.471355     2.463712     2.456069     2.448426     2.440783     2.433139     2.425496     2.417853     2.410210     2.402566
      2.394923     2.387280     2.379637     2.371994     2.364350     2.356707     2.349064     2.341421     2.333777     2.326134
      2.318491     2.310848     2.303205     2.295561     2.287918     2.280275     2.272632     2.264988     2.257345     2.249702
      2.242059     2.234416     2.226772     2.219129     2.211486     2.203843     2.196199     2.188556     2.180913     2.173270
      2.165627     2.157983     2.150340     2.142697     2.135054     2.127410     2.119767     2.112124     2.104481     2.096838
      2.089194     2.081551     2.073908     2.066265     2.058621     2.050978     2.043335     2.035692     2.028049     2.020405
      2.012762     2.005119     1.997476     1.989833     1.982190     1.974546     1.966903     1.959260     1.951617     1.943974
      1.936331     1.928688     1.921045     1.913402     1.905759     1.898115     1.890472     1.882829     1.875186     1.867543
      1.859900     1.852257     1.844614     1.836971     1.829327     1.821684     1.814041     1.806398     1.798755     1.791112
      1.783469     1.775826     1.768183     1.760540     1.752896     1.745253     1.737610     1.729967     1.722324     1.714681
      1.707038     1.699395     1.691752     1.684108     1.676465     1.668822     1.661179     1.653536     1.645893     1.638250
      1.630607     1.622964     1.615321     1.607677     1.600034     1.592391     1.584748     1.577105     1.569462     1.561819
      1.554176     1.546533     1.538890     1.531246     1.523603     1.515960     1.508317     1.500674     1.493031     1.485388
      1.477745     1.470102     1.462458     1.454815     1.447172     1.439529     1.431886     1.424243     1.416600     1.408957
      1.401314     1.393671     1.386027     1.378384     1.370741     1.363098     1.355455     1.347812     1.340169     1.332526
      1.324883     1.317240     1.309596     1.301953     1.294310     1.286667     1.279024     1.271381     1.263738     1.256095
      1.248452     1.240808     1.233165     1.225522     1.217879     1.210236     1.202593     1.194950     1.187307     1.179664
      1.172021     1.164377     1.156734     1.149091     1.141448     1.133805     1.126162     1.118519     1.110876     1.103233
      1.095590     1.087946     1.080303     1.072660     1.065017     1.057374     1.049731     1.042088     1.034445     1.026802
      1.019158     1.011515     1.003872     0.996229     0.988586     0.980943     0.973300     0.965657     0.958014     0.950371
      0.942727     0.935084     0.927441     0.919798     0.912155     0.904512     0.896869     0.889226     0.881583     0.873940
      0.866296     0.858653     0.851010     0.843367     0.835724     0.828081     0.820438     0.812795     0.805152     0.797508
      0.789865     0.782222     0.774579     0.766936     0.759293     0.751650     0.744007     0.736364     0.728721     0.721077
      0.713434     0.705791     0.698148     0.690505     0.682862     0.675219     0.667576     0.659933     0.652290     0.644646
      0.637003     0.629360     0.621717     0.614074     0.606431     0.598788     0.591145     0.583502     0.575858     0.568215
      0.560572     0.552929     0.545286     0.537643     0.530000     0.522357     0.514714     0.507071     0.499427     0.491784
      0.484141     0.476498     0.468855     0.461212     0.453569     0.445925     0.438282     0.430639     0.422996     0.415353
      0.407710     0.400067     0.392424     0.384780     0.377137     0.369494     0.361851     0.354208     0.346565     0.338922
      0.331278     0.323635     0.315992     0.308349     0.300706     0.293063     0.285420     0.277777     0.270133     0.262490
      0.254847     0.247204     0.239561     0.231918     0.224275     0.216631     0.208988     0.201345
 NY phased data points follow
   1.57924E+01  1.57898E+01  1.22025E+01  1.71733E+01  2.19371E+01  2.54216E+01  2.88935E+01  3.76733E+01  3.56500E+01  4.07987E+01
   4.68114E+01  4.52443E+01  4.34657E+01  3.92239E+01  3.30491E+01  3.02927E+01  2.57193E+01  2.46817E+01  2.01600E+01  1.55095E+01
   1.66209E+01  1.18092E+01  1.78265E+01  1.31612E+01  2.17140E+01  1.62555E+01  1.13664E+01  2.05044E+01  2.06861E+01  2.39841E+01
   2.20794E+01  2.14826E+01  1.98474E+01  1.99337E+01  1.20225E+01  1.12205E+01  1.34181E+01  1.04269E+01  1.50101E+01  1.16376E+01
   9.62143E+00  1.23776E+01  9.33629E+00  1.22104E+01  1.09263E+01  1.49698E+01  1.10288E+01  1.46681E+01  1.08521E+01  1.45792E+01
   8.88800E+00  9.01587E+00  6.94061E+00  7.41390E+00  1.03324E+01  8.15184E+00  6.17273E+00  4.75775E+00  3.73934E+00  3.75978E+00
   3.46922E+00  1.46054E-01  7.59390E-01 -1.41159E+00 -1.08691E+00 -6.72363E+00 -7.81951E+00 -1.10061E+01 -8.72108E+00 -6.12064E+00
  -2.77597E+00 -6.20163E+00  3.84798E+00 -2.94622E+00 -2.18001E+00 -5.00982E+00 -5.99200E-01 -3.38879E+00 -3.18561E+00 -5.14424E+00
  -3.64761E+00 -3.47637E+00 -4.37571E+00 -3.31886E+00 -6.55528E+00 -1.76285E+00 -5.00793E+00 -4.63324E+00 -3.66773E+00 -3.59535E+00
  -2.80414E+00 -2.62107E+00 -4.68708E+00  1.40871E+00 -6.39874E+00 -7.31310E+00 -6.21372E+00 -3.62761E+00  1.51502E+00  7.67657E+00
   2.07679E+01  2.66559E+01  3.74666E+01  3.57211E+01  3.34235E+01  2.76631E+01  1.84408E+01  2.19263E+01  1.46555E+01  4.50653E+00
   6.44114E+00  3.12679E+00 -1.34352E+00  2.08231E+00  1.66016E+00  8.37152E-01 -3.70158E+00 -2.80185E+00 -4.18645E+00 -3.09811E+00
  -2.83721E+00 -1.27375E+00  4.25909E+00  1.14791E+01  1.85911E+01  2.66489E+01  3.86756E+01  3.79102E+01  3.09221E+01  2.57479E+01
   2.60688E+01  1.64694E+01  9.90278E+00  8.87320E+00  3.86765E+00 -3.20721E+00 -3.19946E+00 -4.80118E+00 -5.58382E+00 -4.44270E+00
  -7.72292E+00 -7.37716E+00 -7.45218E+00 -6.75055E+00 -8.01713E+00 -7.10562E+00 -8.84488E+00 -2.56034E+00 -8.06419E+00 -6.96318E+00
  -9.34986E+00 -6.97691E+00 -9.34894E+00 -1.01250E+01 -1.09768E+01 -7.24406E+00 -8.77108E+00 -5.38760E+00 -8.88631E+00 -1.35309E+01
  -1.46804E+01 -9.90667E+00 -9.20701E+00 -9.02343E+00 -7.98423E+00 -7.80280E+00 -1.00656E+01 -1.32983E+01 -1.79291E+01 -1.60034E+01
  -1.38207E+01 -1.74827E+01 -1.82306E+01 -1.69868E+01 -1.82805E+01 -1.98767E+01 -1.25504E+01 -1.37199E+01 -1.75256E+01 -2.19862E+01
  -1.73583E+01 -1.68565E+01 -1.79488E+01 -1.75447E+01 -1.49813E+01 -2.08629E+01 -1.72767E+01 -1.47603E+01 -1.28293E+01 -1.26005E+01
  -1.14043E+01 -1.19019E+01 -8.12013E+00 -7.27047E+00 -5.77716E+00 -5.30678E+00 -8.11112E+00 -9.30689E+00 -6.22565E+00 -1.42288E+01
  -1.16997E+01 -8.26410E+00 -8.12045E+00 -8.68901E+00 -9.48875E+00 -8.28289E+00 -1.19357E+01 -1.59529E+01 -1.57904E+01 -1.49955E+01
  -1.27379E+01 -1.36284E+01 -7.85379E+00 -1.06596E+01 -6.81764E+00 -5.32021E+00 -6.68387E+00 -9.53844E+00 -1.17715E+01 -1.38468E+01
  -1.49154E+01 -1.41919E+01 -1.25317E+01 -1.26283E+01 -7.95884E+00 -8.59813E+00 -6.23899E+00 -5.00181E+00 -6.72948E+00 -7.48513E+00
  -8.34152E+00 -4.89422E+00 -8.59839E+00 -8.28873E+00 -1.52029E+00 -6.23131E+00 -7.42991E+00 -8.16975E+00 -3.96382E+00 -1.06748E+01
  -1.08593E+01 -5.50222E+00 -1.33862E+01 -7.19332E+00 -6.57871E+00 -4.56428E+00 -5.67253E+00 -5.45133E+00 -2.27647E-01  3.62516E+00
   3.38375E+00 -2.25063E+00  1.23570E+00 -1.28779E+00  1.80176E+00  6.25043E+00  9.65615E+00  2.58242E+01  3.91828E+01  3.98695E+01
   3.63343E+01  3.37470E+01  2.59055E+01  1.81034E+01  1.70919E+01  6.35058E+00  5.20067E+00  4.36693E+00 -3.01626E+00 -3.05823E+00
  -7.09228E+00 -9.08528E+00 -7.19429E+00 -7.83686E+00 -1.20173E+01 -9.04876E+00 -8.31428E+00 -1.18278E+01 -1.07686E+01 -1.29758E+01
  -1.21073E+01 -1.28528E+01 -1.44078E+01 -1.48938E+01 -1.06771E+01 -1.39156E+01 -1.12771E+01 -1.35436E+01 -1.27082E+01 -1.20960E+01
  -9.58921E+00 -1.18275E+01 -1.22947E+01 -1.12251E+01 -1.12120E+01 -1.17108E+01 -8.85566E+00 -1.32394E+01 -1.03537E+01 -9.62285E+00
  -1.06213E+01 -9.98034E+00 -6.39039E+00 -1.01622E+01 -1.19522E+01 -8.89951E+00 -1.37142E+01 -7.21862E+00 -8.97882E+00 -7.06485E+00
  -7.08371E+00 -7.98620E+00 -9.46307E+00 -1.03438E+01 -1.03267E+01 -7.88237E+00 -1.19455E+01 -7.31258E+00 -8.70229E+00 -1.00806E+01
  -1.46167E+01 -1.12423E+01 -9.02982E+00 -6.15504E+00 -6.37846E+00 -1.17141E+01 -1.01510E+01 -9.83858E+00 -1.33350E+01 -1.19238E+01
  -1.12697E+01 -1.00059E+01 -9.21606E+00 -1.00396E+01 -1.43007E+01 -1.39173E+01 -1.30036E+01 -8.92307E+00 -1.04145E+01 -8.28131E+00
  -7.94819E+00 -8.31139E+00 -6.63972E+00  1.37938E+00 -2.79702E+00 -9.58321E+00 -3.78605E+00 -4.74965E+00 -1.17154E+01 -4.78256E+00
  -7.31042E+00 -9.09274E+00 -9.13032E+00 -4.18489E+00 -6.51090E+00  1.50513E-01 -2.93028E+00 -6.95176E+00  4.99523E-02 -4.30486E+00
  -2.92719E+00 -1.11349E+00 -2.90576E-01  9.13315E-01  3.37272E+00  3.37656E-01  1.56987E+00 -3.43894E-01  1.33361E+00  2.62711E+00
   1.60686E+00 -3.62338E+00 -9.74042E-02  1.71095E+00  5.72918E+00 -2.43304E-01 -6.77605E-01  6.89326E-02  2.17550E+00 -4.11625E+00
  -2.27524E+00 -4.74236E+00 -4.80733E+00  1.62382E+00 -4.53539E+00 -3.39126E+00 -1.44847E+00 -3.10336E+00 -6.28299E+00 -5.81322E+00
  -3.69767E+00 -5.17733E+00 -4.98493E-01 -3.76671E+00 -4.40350E+00 -7.46528E-01 -9.63669E-01  6.56720E-01 -2.12551E-01 -2.07459E+00
  -2.00649E+00 -4.65165E+00 -2.71148E+00  5.00293E-01  4.11963E+00 -9.69575E-01  3.14219E+00 -5.92310E-01 -1.19214E+00  1.29097E+00
  -1.89819E+00 -3.01281E+00 -3.95535E+00 -4.94933E+00 -4.70304E+00 -4.66223E+00 -5.67254E+00 -3.46982E+00 -6.26949E+00 -8.18483E+00
  -9.84260E+00 -4.69879E+00 -6.07237E+00 -5.08913E+00 -3.04564E+00 -6.56618E+00 -4.64356E+00 -1.21935E+00 -5.36072E+00 -4.40240E+00
  -3.77062E+00 -3.14051E+00 -5.41882E+00 -5.60796E+00 -1.03270E+01 -2.32088E+00 -4.09558E+00 -5.91808E+00 -5.46124E+00 -3.34266E+00
  -4.61664E+00 -5.24275E+00 -8.59455E+00 -4.89237E+00 -7.26746E+00 -3.72811E+00 -8.16043E+00 -9.09848E+00 -5.12489E+00 -7.71776E+00
  -6.52902E+00 -9.11650E+00 -8.24019E+00 -7.95404E+00 -5.54617E+00 -3.58946E+00 -9.41603E+00 -6.86700E+00 -5.79696E+00 -7.73925E+00
  -1.14337E+01 -8.64693E+00 -8.07191E+00 -8.61934E+00 -9.17896E+00 -8.78961E+00 -1.19427E+01 -6.22265E+00 -9.68382E+00 -8.76440E+00
  -1.07432E+01 -7.08118E+00 -9.66916E+00 -1.03928E+01 -8.91262E+00 -1.03930E+01 -1.32313E+01 -7.77957E+00 -1.39631E+01 -9.29203E+00
  -9.51895E+00 -1.00656E+01 -9.86942E+00 -7.17145E+00 -9.87856E+00 -1.15722E+01 -9.39052E+00 -1.15014E+01 -9.17321E+00 -1.12993E+01
  -1.05457E+01 -1.09606E+01 -1.16599E+01 -7.73079E+00 -9.98681E+00 -1.21903E+01 -1.27576E+01 -9.58292E+00
 NY points of the fit to the data follow
   1.63134E+01  1.63248E+01  1.67234E+01  1.77523E+01  1.96789E+01  2.29543E+01  2.75445E+01  3.28579E+01  3.79742E+01  4.18071E+01
   4.34376E+01  4.25996E+01  3.99010E+01  3.63380E+01  3.27651E+01  2.95108E+01  2.63943E+01  2.34179E+01  2.08886E+01  1.86864E+01
   1.67174E+01  1.54411E+01  1.44731E+01  1.37340E+01  1.34139E+01  1.38525E+01  1.54262E+01  1.80387E+01  2.08340E+01  2.27114E+01
   2.31005E+01  2.21202E+01  2.02263E+01  1.78671E+01  1.55023E+01  1.36248E+01  1.23934E+01  1.14702E+01  1.06306E+01  1.01383E+01
   9.92576E+00  9.81160E+00  9.76931E+00  9.79183E+00  9.79507E+00  9.69439E+00  9.44310E+00  8.99948E+00  8.48806E+00  8.10147E+00
   7.75130E+00  7.27052E+00  6.72459E+00  6.24456E+00  5.75628E+00  5.21762E+00  4.74975E+00  4.36506E+00  3.96172E+00  3.51124E+00
   3.07036E+00  2.64536E+00  2.24200E+00  1.86074E+00  1.51324E+00  1.21627E+00  9.56676E-01  7.16331E-01  4.89897E-01  2.76164E-01
   6.69435E-02 -1.46118E-01 -3.69334E-01 -5.99693E-01 -8.31839E-01 -1.06321E+00 -1.29202E+00 -1.51662E+00 -1.73593E+00 -1.95208E+00
  -2.16750E+00 -2.38017E+00 -2.59629E+00 -2.82436E+00 -3.06859E+00 -3.32270E+00 -3.56895E+00 -3.78732E+00 -3.96718E+00 -4.11010E+00
  -4.22389E+00 -4.31688E+00 -4.39539E+00 -4.45951E+00 -4.48935E+00 -4.39936E+00 -3.76340E+00 -1.58994E+00  2.72633E+00  9.60893E+00
   1.88705E+01  2.85684E+01  3.54483E+01  3.72296E+01  3.43258E+01  2.89526E+01  2.31827E+01  1.78100E+01  1.28649E+01  8.62669E+00
   4.84770E+00  7.75899E-01 -2.86596E+00 -4.46490E+00 -4.98295E+00 -5.24643E+00 -5.42270E+00 -5.54298E+00 -5.56858E+00 -5.33531E+00
  -4.19063E+00 -1.21257E+00  4.08232E+00  1.19872E+01  2.18131E+01  3.10785E+01  3.66563E+01  3.71351E+01  3.36629E+01  2.85015E+01
   2.32376E+01  1.80964E+01  1.29533E+01  8.04498E+00  3.14692E+00 -1.80907E+00 -5.26983E+00 -6.29438E+00 -6.25224E+00 -5.91551E+00
  -5.65362E+00 -5.65452E+00 -5.82911E+00 -6.01721E+00 -6.23268E+00 -6.49380E+00 -6.80673E+00 -7.20452E+00 -7.67344E+00 -8.16718E+00
  -8.64129E+00 -9.00915E+00 -9.28530E+00 -9.48662E+00 -9.65154E+00 -9.83209E+00 -1.00832E+01 -1.04275E+01 -1.07989E+01 -1.10937E+01
  -1.12207E+01 -1.11727E+01 -1.10674E+01 -1.10761E+01 -1.12849E+01 -1.16255E+01 -1.19911E+01 -1.23161E+01 -1.25750E+01 -1.28169E+01
  -1.31346E+01 -1.35333E+01 -1.39940E+01 -1.44240E+01 -1.46750E+01 -1.47365E+01 -1.47043E+01 -1.47074E+01 -1.48187E+01 -1.49936E+01
  -1.51590E+01 -1.53081E+01 -1.54691E+01 -1.55878E+01 -1.55175E+01 -1.51270E+01 -1.43536E+01 -1.32569E+01 -1.20760E+01 -1.11064E+01
  -1.06095E+01 -1.06554E+01 -1.11093E+01 -1.17709E+01 -1.24678E+01 -1.30359E+01 -1.33157E+01 -1.31409E+01 -1.25189E+01 -1.16271E+01
  -1.06571E+01 -9.75987E+00 -9.14116E+00 -9.06513E+00 -9.57984E+00 -1.05465E+01 -1.17830E+01 -1.30689E+01 -1.39577E+01 -1.40722E+01
  -1.33678E+01 -1.19977E+01 -1.02500E+01 -8.57482E+00 -7.54810E+00 -7.61118E+00 -8.72806E+00 -1.04266E+01 -1.23490E+01 -1.41879E+01
  -1.53347E+01 -1.53749E+01 -1.45059E+01 -1.32190E+01 -1.18679E+01 -1.05638E+01 -9.57100E+00 -9.00548E+00 -8.80770E+00 -8.71447E+00
  -8.47879E+00 -8.11002E+00 -7.63023E+00 -6.97363E+00 -6.20860E+00 -5.57582E+00 -5.33640E+00 -5.60981E+00 -6.21882E+00 -6.84831E+00
  -7.29363E+00 -7.40767E+00 -7.05013E+00 -6.27327E+00 -5.37342E+00 -4.66716E+00 -4.16577E+00 -3.75686E+00 -3.42940E+00 -3.12677E+00
  -2.72224E+00 -2.26804E+00 -1.78923E+00 -5.73460E-01  2.34663E+00  7.53423E+00  1.54209E+01  2.52644E+01  3.42523E+01  3.90317E+01
   3.83449E+01  3.36740E+01  2.74945E+01  2.14059E+01  1.57287E+01  1.05976E+01  6.20777E+00  1.84626E+00 -2.81930E+00 -6.08007E+00
  -7.28009E+00 -7.84410E+00 -8.20716E+00 -8.47383E+00 -8.74359E+00 -9.03967E+00 -9.34481E+00 -9.65766E+00 -9.96638E+00 -1.02512E+01
  -1.05095E+01 -1.07491E+01 -1.09589E+01 -1.11273E+01 -1.12597E+01 -1.13625E+01 -1.14370E+01 -1.14824E+01 -1.14988E+01 -1.14925E+01
  -1.14665E+01 -1.14174E+01 -1.13444E+01 -1.12495E+01 -1.11342E+01 -1.09986E+01 -1.08447E+01 -1.06776E+01 -1.05006E+01 -1.03170E+01
  -1.01323E+01 -9.95217E+00 -9.78190E+00 -9.62680E+00 -9.49137E+00 -9.37924E+00 -9.29313E+00 -9.23487E+00 -9.20516E+00 -9.20371E+00
  -9.22939E+00 -9.27976E+00 -9.35084E+00 -9.43823E+00 -9.53698E+00 -9.64166E+00 -9.74649E+00 -9.84490E+00 -9.92903E+00 -9.98736E+00
  -1.00010E+01 -9.96512E+00 -9.89626E+00 -9.82187E+00 -9.79968E+00 -9.90188E+00 -1.01546E+01 -1.05043E+01 -1.08450E+01 -1.10821E+01
  -1.11764E+01 -1.11044E+01 -1.08378E+01 -1.04024E+01 -9.90755E+00 -9.44424E+00 -9.01210E+00 -8.60700E+00 -8.22419E+00 -7.81586E+00
  -7.31464E+00 -6.68110E+00 -5.97516E+00 -5.31349E+00 -4.85463E+00 -4.79404E+00 -5.26240E+00 -6.12010E+00 -7.00366E+00 -7.59253E+00
  -7.74052E+00 -7.37398E+00 -6.45817E+00 -5.15127E+00 -3.84067E+00 -2.79124E+00 -1.94038E+00 -1.23722E+00 -7.34783E-01 -3.93567E-01
  -1.62597E-01  9.89384E-03  7.06130E-02 -5.11094E-02 -2.11401E-01 -3.09592E-01 -4.01710E-01 -5.15817E-01 -6.61269E-01 -8.40197E-01
  -1.05089E+00 -1.28919E+00 -1.54927E+00 -1.82415E+00 -2.10609E+00 -2.38703E+00 -2.65894E+00 -2.91412E+00 -3.14548E+00 -3.34664E+00
  -3.51217E+00 -3.63766E+00 -3.71986E+00 -3.75661E+00 -3.74689E+00 -3.69076E+00 -3.58935E+00 -3.44488E+00 -3.26058E+00 -3.04065E+00
  -2.79019E+00 -2.51512E+00 -2.22213E+00 -1.91858E+00 -1.61234E+00 -1.31157E+00 -1.02452E+00 -7.59274E-01 -5.23543E-01 -3.24393E-01
  -1.67973E-01 -5.92492E-02 -1.83566E-03  2.11478E-03 -4.80345E-02 -1.51397E-01 -3.05603E-01 -5.06938E-01 -7.50543E-01 -1.03069E+00
  -1.34103E+00 -1.67491E+00 -2.02554E+00 -2.38633E+00 -2.75105E+00 -3.11410E+00 -3.47058E+00 -3.81637E+00 -4.14813E+00 -4.46331E+00
  -4.76015E+00 -5.03761E+00 -5.29526E+00 -5.53317E+00 -5.75179E+00 -5.95193E+00 -6.13460E+00 -6.30104E+00 -6.45252E+00 -6.59033E+00
  -6.71574E+00 -6.83000E+00 -6.93430E+00 -7.02976E+00 -7.11742E+00 -7.19816E+00 -7.27281E+00 -7.34212E+00 -7.40677E+00 -7.46738E+00
  -7.52446E+00 -7.57846E+00 -7.62979E+00 -7.67882E+00 -7.72590E+00 -7.77132E+00 -7.81532E+00 -7.85812E+00 -7.89991E+00 -7.94090E+00
  -7.98126E+00 -8.02113E+00 -8.06063E+00 -8.09984E+00 -8.13885E+00 -8.17775E+00 -8.21660E+00 -8.25543E+00 -8.29427E+00 -8.33315E+00
  -8.37210E+00 -8.41118E+00 -8.45038E+00 -8.48972E+00 -8.52919E+00 -8.56881E+00 -8.60859E+00 -8.64855E+00 -8.68869E+00 -8.72897E+00
  -8.76938E+00 -8.80994E+00 -8.85064E+00 -8.89149E+00 -8.93246E+00 -8.97351E+00 -9.01465E+00 -9.05586E+00 -9.09715E+00 -9.13850E+00
  -9.17987E+00 -9.22123E+00 -9.26257E+00 -9.30390E+00 -9.34519E+00 -9.38641E+00 -9.42752E+00 -9.46850E+00 -9.50934E+00 -9.55004E+00
  -9.59056E+00 -9.63086E+00 -9.67090E+00 -9.71067E+00 -9.75015E+00 -9.78933E+00 -9.82816E+00 -9.86659E+00
 NY background values follow
     1.602E+01    1.577E+01    1.553E+01    1.528E+01    1.504E+01    1.479E+01    1.454E+01    1.430E+01    1.405E+01    1.381E+01
     1.356E+01    1.331E+01    1.307E+01    1.282E+01    1.257E+01    1.233E+01    1.208E+01    1.183E+01    1.159E+01    1.134E+01
     1.110E+01    1.085E+01    1.061E+01    1.036E+01    1.012E+01    9.871E+00    9.627E+00    9.384E+00    9.141E+00    8.898E+00
     8.656E+00    8.414E+00    8.173E+00    7.932E+00    7.692E+00    7.452E+00    7.214E+00    6.975E+00    6.738E+00    6.501E+00
     6.265E+00    6.030E+00    5.795E+00    5.562E+00    5.329E+00    5.097E+00    4.866E+00    4.636E+00    4.407E+00    4.178E+00
     3.951E+00    3.725E+00    3.500E+00    3.276E+00    3.053E+00    2.831E+00    2.611E+00    2.391E+00    2.173E+00    1.956E+00
     1.740E+00    1.526E+00    1.312E+00    1.100E+00    8.899E-01    6.807E-01    4.730E-01    2.667E-01    6.180E-02   -1.416E-01
    -3.435E-01   -5.439E-01   -7.427E-01   -9.399E-01   -1.136E+00   -1.330E+00   -1.522E+00   -1.713E+00   -1.902E+00   -2.089E+00
    -2.274E+00   -2.458E+00   -2.640E+00   -2.820E+00   -2.998E+00   -3.175E+00   -3.349E+00   -3.521E+00   -3.692E+00   -3.861E+00
    -4.027E+00   -4.192E+00   -4.354E+00   -4.515E+00   -4.673E+00   -4.830E+00   -4.985E+00   -5.137E+00   -5.288E+00   -5.437E+00
    -5.584E+00   -5.729E+00   -5.873E+00   -6.014E+00   -6.154E+00   -6.292E+00   -6.428E+00   -6.563E+00   -6.696E+00   -6.827E+00
    -6.956E+00   -7.084E+00   -7.211E+00   -7.335E+00   -7.458E+00   -7.580E+00   -7.700E+00   -7.818E+00   -7.935E+00   -8.051E+00
    -8.165E+00   -8.277E+00   -8.389E+00   -8.498E+00   -8.607E+00   -8.714E+00   -8.819E+00   -8.924E+00   -9.027E+00   -9.129E+00
    -9.229E+00   -9.328E+00   -9.426E+00   -9.523E+00   -9.619E+00   -9.714E+00   -9.807E+00   -9.899E+00   -9.990E+00   -1.008E+01
    -1.017E+01   -1.026E+01   -1.034E+01   -1.043E+01   -1.051E+01   -1.060E+01   -1.068E+01   -1.076E+01   -1.084E+01   -1.092E+01
    -1.100E+01   -1.107E+01   -1.115E+01   -1.122E+01   -1.130E+01   -1.137E+01   -1.144E+01   -1.151E+01   -1.158E+01   -1.165E+01
    -1.171E+01   -1.178E+01   -1.184E+01   -1.191E+01   -1.197E+01   -1.203E+01   -1.209E+01   -1.215E+01   -1.221E+01   -1.227E+01
    -1.232E+01   -1.238E+01   -1.243E+01   -1.248E+01   -1.254E+01   -1.259E+01   -1.264E+01   -1.268E+01   -1.273E+01   -1.278E+01
    -1.282E+01   -1.287E+01   -1.291E+01   -1.295E+01   -1.299E+01   -1.303E+01   -1.307E+01   -1.311E+01   -1.315E+01   -1.318E+01
    -1.322E+01   -1.325E+01   -1.329E+01   -1.332E+01   -1.335E+01   -1.338E+01   -1.342E+01   -1.345E+01   -1.347E+01   -1.350E+01
    -1.353E+01   -1.356E+01   -1.359E+01   -1.361E+01   -1.364E+01   -1.366E+01   -1.369E+01   -1.371E+01   -1.373E+01   -1.376E+01
    -1.378E+01   -1.380E+01   -1.382E+01   -1.384E+01   -1.387E+01   -1.389E+01   -1.391E+01   -1.393E+01   -1.395E+01   -1.397E+01
    -1.399E+01   -1.401E+01   -1.403E+01   -1.404E+01   -1.406E+01   -1.408E+01   -1.410E+01   -1.412E+01   -1.414E+01   -1.416E+01
    -1.417E+01   -1.419E+01   -1.421E+01   -1.423E+01   -1.425E+01   -1.426E+01   -1.428E+01   -1.430E+01   -1.432E+01   -1.433E+01
    -1.435E+01   -1.436E+01   -1.438E+01   -1.439E+01   -1.441E+01   -1.442E+01   -1.444E+01   -1.445E+01   -1.446E+01   -1.447E+01
    -1.449E+01   -1.450E+01   -1.451E+01   -1.452E+01   -1.453E+01   -1.454E+01   -1.454E+01   -1.455E+01   -1.456E+01   -1.456E+01
    -1.457E+01   -1.457E+01   -1.458E+01   -1.458E+01   -1.458E+01   -1.458E+01   -1.458E+01   -1.458E+01   -1.458E+01   -1.458E+01
    -1.458E+01   -1.457E+01   -1.457E+01   -1.456E+01   -1.455E+01   -1.454E+01   -1.453E+01   -1.452E+01   -1.451E+01   -1.450E+01
    -1.449E+01   -1.447E+01   -1.446E+01   -1.444E+01   -1.443E+01   -1.441E+01   -1.439E+01   -1.437E+01   -1.435E+01   -1.433E+01
    -1.431E+01   -1.428E+01   -1.426E+01   -1.424E+01   -1.421E+01   -1.418E+01   -1.416E+01   -1.413E+01   -1.410E+01   -1.407E+01
    -1.404E+01   -1.401E+01   -1.397E+01   -1.394E+01   -1.391E+01   -1.387E+01   -1.384E+01   -1.380E+01   -1.376E+01   -1.372E+01
    -1.369E+01   -1.365E+01   -1.361E+01   -1.356E+01   -1.352E+01   -1.348E+01   -1.344E+01   -1.339E+01   -1.335E+01   -1.330E+01
    -1.326E+01   -1.321E+01   -1.316E+01   -1.311E+01   -1.307E+01   -1.302E+01   -1.297E+01   -1.292E+01   -1.287E+01   -1.281E+01
    -1.276E+01   -1.271E+01   -1.266E+01   -1.260E+01   -1.255E+01   -1.250E+01   -1.244E+01   -1.239E+01   -1.234E+01   -1.228E+01
    -1.223E+01   -1.217E+01   -1.212E+01   -1.206E+01   -1.200E+01   -1.195E+01   -1.189E+01   -1.184E+01   -1.178E+01   -1.173E+01
    -1.167E+01   -1.161E+01   -1.156E+01   -1.150E+01   -1.145E+01   -1.139E+01   -1.133E+01   -1.128E+01   -1.122E+01   -1.117E+01
    -1.111E+01   -1.106E+01   -1.101E+01   -1.095E+01   -1.090E+01   -1.085E+01   -1.079E+01   -1.074E+01   -1.069E+01   -1.064E+01
    -1.058E+01   -1.053E+01   -1.048E+01   -1.043E+01   -1.038E+01   -1.033E+01   -1.028E+01   -1.024E+01   -1.019E+01   -1.014E+01
    -1.009E+01   -1.005E+01   -1.000E+01   -9.956E+00   -9.911E+00   -9.867E+00   -9.823E+00   -9.780E+00   -9.738E+00   -9.696E+00
    -9.655E+00   -9.614E+00   -9.574E+00   -9.535E+00   -9.497E+00   -9.459E+00   -9.422E+00   -9.386E+00   -9.350E+00   -9.315E+00
    -9.281E+00   -9.248E+00   -9.216E+00   -9.184E+00   -9.153E+00   -9.123E+00   -9.094E+00   -9.066E+00   -9.038E+00   -9.012E+00
    -8.986E+00   -8.961E+00   -8.938E+00   -8.915E+00   -8.893E+00   -8.871E+00   -8.851E+00   -8.832E+00   -8.813E+00   -8.796E+00
    -8.779E+00   -8.764E+00   -8.749E+00   -8.735E+00   -8.722E+00   -8.710E+00   -8.699E+00   -8.689E+00   -8.680E+00   -8.672E+00
    -8.665E+00   -8.659E+00   -8.654E+00   -8.650E+00   -8.647E+00   -8.645E+00   -8.643E+00   -8.643E+00   -8.644E+00   -8.646E+00
    -8.649E+00   -8.653E+00   -8.657E+00   -8.663E+00   -8.670E+00   -8.678E+00   -8.687E+00   -8.697E+00   -8.709E+00   -8.721E+00
    -8.734E+00   -8.748E+00   -8.764E+00   -8.780E+00   -8.798E+00   -8.816E+00   -8.836E+00   -8.856E+00   -8.877E+00   -8.899E+00
    -8.923E+00   -8.946E+00   -8.971E+00   -8.997E+00   -9.023E+00   -9.050E+00   -9.077E+00   -9.106E+00   -9.135E+00   -9.164E+00
    -9.194E+00   -9.225E+00   -9.256E+00   -9.287E+00   -9.320E+00   -9.352E+00   -9.385E+00   -9.418E+00   -9.452E+00   -9.486E+00
    -9.520E+00   -9.554E+00   -9.589E+00   -9.623E+00   -9.658E+00   -9.693E+00   -9.729E+00   -9.764E+00   -9.799E+00   -9.834E+00
    -9.870E+00   -9.905E+00   -9.940E+00   -9.975E+00   -1.001E+01   -1.004E+01   -1.008E+01   -1.011E+01
 Ala      Conc. = 8.27E+01
