 LCModel (Version 6.3-1L) Copyright: S.W. Provencher.          Ref.: Magn. Reson. Med. 30:672-679 (1993).                
 Slice#2 Row#8 Col#10  PD_24_press_1_raw_act
 36 lines in following concentration table = NCONC+1
    Conc.  %SD /Cr+PCr  Metabolite                                         
    1.258 999% 8.1E-04 Ala                                                 
   15.527 999% 9.9E-03 Asp                                                 
    0.000 999%   0.000 Cr                                                  
 1.56E+03   4%   1.000 PCr                                                 
    0.000 999%   0.000 GABA                                                
    7.937 999% 5.1E-03 Glc                                                 
  662.140  40%   0.424 Gln                                                 
 1.63E+03  18%   1.041 Glu                                                 
  860.454   3%   0.551 GPC                                                 
    0.000 999%   0.000 PCh                                                 
  458.195  18%   0.293 GSH                                                 
 1.39E+03  20%   0.892 Ins                                                 
    0.000 999%   0.000 Lac                                                 
 2.77E+03   5%   1.775 NAA                                                 
   78.872 206% 5.1E-02 NAAG                                                
  210.587  16%   0.135 Scyllo                                              
    0.000 999%   0.000 Tau                                                 
  490.632  23%   0.314 -CrCH2                                              
  860.454   3%   0.551 GPC+PCh                                             
 2.85E+03   4%   1.825 NAA+NAAG                                            
 1.56E+03   4%   1.000 Cr+PCr                                              
 2.29E+03  18%   1.465 Glu+Gln                                             
 2.92E+03  21%   1.868 Lip13a                                              
    0.000 999%   0.000 Lip13b                                              
    0.000 999%   0.000 Lip09                                               
 2.19E+03  11%   1.400 MM09                                                
  543.201  53%   0.348 Lip20                                               
 4.60E+03  10%   2.946 MM20                                                
  883.213  23%   0.566 MM12                                                
 1.87E+03  23%   1.194 MM14                                                
 2.86E+03  12%   1.831 MM17                                                
 2.92E+03  21%   1.868 Lip13a+Lip13b                                       
 5.67E+03   9%   3.628 MM14+Lip13a+Lip13b+MM12                             
 2.19E+03  11%   1.400 MM09+Lip09                                          
 5.14E+03   9%   3.294 MM20+Lip20                                          
   6 lines in following misc. output table
  FWHM = 0.054 ppm    S/N =  13                                            
  Data shift = 0.000 ppm                                                   
  Ph: -53 deg     -15.7 deg/ppm                                            
  alphaB,S = 7.3E+00,   9.3E+01                                            
   14 spline knots.   Ns = 7(1)                                            
  (11) 4 infls.   ( 3) 1 extrs.                                            
  498 points on ppm-axis = NY
      4.000000     3.992357     3.984714     3.977070     3.969427     3.961784     3.954141     3.946497     3.938854     3.931211
      3.923568     3.915925     3.908281     3.900638     3.892995     3.885352     3.877708     3.870065     3.862422     3.854779
      3.847136     3.839492     3.831849     3.824206     3.816563     3.808919     3.801276     3.793633     3.785990     3.778347
      3.770703     3.763060     3.755417     3.747774     3.740130     3.732487     3.724844     3.717201     3.709558     3.701914
      3.694271     3.686628     3.678985     3.671341     3.663698     3.656055     3.648412     3.640769     3.633125     3.625482
      3.617839     3.610196     3.602552     3.594909     3.587266     3.579623     3.571980     3.564336     3.556693     3.549050
      3.541407     3.533763     3.526120     3.518477     3.510834     3.503191     3.495547     3.487904     3.480261     3.472618
      3.464974     3.457331     3.449688     3.442045     3.434402     3.426758     3.419115     3.411472     3.403829     3.396185
      3.388542     3.380899     3.373256     3.365613     3.357969     3.350326     3.342683     3.335040     3.327396     3.319753
      3.312110     3.304467     3.296824     3.289180     3.281537     3.273894     3.266251     3.258607     3.250964     3.243321
      3.235678     3.228034     3.220391     3.212748     3.205105     3.197462     3.189818     3.182175     3.174532     3.166889
      3.159245     3.151602     3.143959     3.136316     3.128673     3.121029     3.113386     3.105743     3.098100     3.090456
      3.082813     3.075170     3.067527     3.059884     3.052240     3.044597     3.036954     3.029311     3.021667     3.014024
      3.006381     2.998738     2.991095     2.983451     2.975808     2.968165     2.960522     2.952878     2.945235     2.937592
      2.929949     2.922306     2.914662     2.907019     2.899376     2.891733     2.884089     2.876446     2.868803     2.861160
      2.853517     2.845873     2.838230     2.830587     2.822944     2.815300     2.807657     2.800014     2.792371     2.784728
      2.777084     2.769441     2.761798     2.754155     2.746511     2.738868     2.731225     2.723582     2.715939     2.708295
      2.700652     2.693009     2.685366     2.677722     2.670079     2.662436     2.654793     2.647150     2.639506     2.631863
      2.624220     2.616577     2.608933     2.601290     2.593647     2.586004     2.578361     2.570717     2.563074     2.555431
      2.547788     2.540144     2.532501     2.524858     2.517215     2.509572     2.501928     2.494285     2.486642     2.478999
      2.471355     2.463712     2.456069     2.448426     2.440783     2.433139     2.425496     2.417853     2.410210     2.402566
      2.394923     2.387280     2.379637     2.371994     2.364350     2.356707     2.349064     2.341421     2.333777     2.326134
      2.318491     2.310848     2.303205     2.295561     2.287918     2.280275     2.272632     2.264988     2.257345     2.249702
      2.242059     2.234416     2.226772     2.219129     2.211486     2.203843     2.196199     2.188556     2.180913     2.173270
      2.165627     2.157983     2.150340     2.142697     2.135054     2.127410     2.119767     2.112124     2.104481     2.096838
      2.089194     2.081551     2.073908     2.066265     2.058621     2.050978     2.043335     2.035692     2.028049     2.020405
      2.012762     2.005119     1.997476     1.989833     1.982190     1.974546     1.966903     1.959260     1.951617     1.943974
      1.936331     1.928688     1.921045     1.913402     1.905759     1.898115     1.890472     1.882829     1.875186     1.867543
      1.859900     1.852257     1.844614     1.836971     1.829327     1.821684     1.814041     1.806398     1.798755     1.791112
      1.783469     1.775826     1.768183     1.760540     1.752896     1.745253     1.737610     1.729967     1.722324     1.714681
      1.707038     1.699395     1.691752     1.684108     1.676465     1.668822     1.661179     1.653536     1.645893     1.638250
      1.630607     1.622964     1.615321     1.607677     1.600034     1.592391     1.584748     1.577105     1.569462     1.561819
      1.554176     1.546533     1.538890     1.531246     1.523603     1.515960     1.508317     1.500674     1.493031     1.485388
      1.477745     1.470102     1.462458     1.454815     1.447172     1.439529     1.431886     1.424243     1.416600     1.408957
      1.401314     1.393671     1.386027     1.378384     1.370741     1.363098     1.355455     1.347812     1.340169     1.332526
      1.324883     1.317240     1.309596     1.301953     1.294310     1.286667     1.279024     1.271381     1.263738     1.256095
      1.248452     1.240808     1.233165     1.225522     1.217879     1.210236     1.202593     1.194950     1.187307     1.179664
      1.172021     1.164377     1.156734     1.149091     1.141448     1.133805     1.126162     1.118519     1.110876     1.103233
      1.095590     1.087946     1.080303     1.072660     1.065017     1.057374     1.049731     1.042088     1.034445     1.026802
      1.019158     1.011515     1.003872     0.996229     0.988586     0.980943     0.973300     0.965657     0.958014     0.950371
      0.942727     0.935084     0.927441     0.919798     0.912155     0.904512     0.896869     0.889226     0.881583     0.873940
      0.866296     0.858653     0.851010     0.843367     0.835724     0.828081     0.820438     0.812795     0.805152     0.797508
      0.789865     0.782222     0.774579     0.766936     0.759293     0.751650     0.744007     0.736364     0.728721     0.721077
      0.713434     0.705791     0.698148     0.690505     0.682862     0.675219     0.667576     0.659933     0.652290     0.644646
      0.637003     0.629360     0.621717     0.614074     0.606431     0.598788     0.591145     0.583502     0.575858     0.568215
      0.560572     0.552929     0.545286     0.537643     0.530000     0.522357     0.514714     0.507071     0.499427     0.491784
      0.484141     0.476498     0.468855     0.461212     0.453569     0.445925     0.438282     0.430639     0.422996     0.415353
      0.407710     0.400067     0.392424     0.384780     0.377137     0.369494     0.361851     0.354208     0.346565     0.338922
      0.331278     0.323635     0.315992     0.308349     0.300706     0.293063     0.285420     0.277777     0.270133     0.262490
      0.254847     0.247204     0.239561     0.231918     0.224275     0.216631     0.208988     0.201345
 NY phased data points follow
  -4.34581E+00 -6.60429E+00 -5.09182E+00 -6.46730E+00  3.20496E+00 -1.76668E-01  1.11873E+01  7.45018E+00  1.99780E+01  1.65015E+01
   2.61853E+01  1.99270E+01  2.02883E+01  1.72416E+01  1.66162E+01  5.90962E+00  5.74471E+00 -1.82213E+00 -3.34346E+00 -3.85049E+00
  -2.06086E+00 -1.19194E+01 -2.26551E+00 -3.29280E-01  3.58763E+00 -5.47438E+00  7.30819E+00  3.20416E+00  5.93992E+00  1.88593E+00
   9.21120E+00  6.03038E-03  2.64215E+00  2.77250E+00  4.86165E+00  2.33321E+00  5.77912E+00  4.15067E+00  5.50894E+00 -5.70883E-01
   4.07869E+00  4.51430E+00  8.55768E+00  1.37970E+00  1.11966E+01  8.33677E+00  1.14960E+01  4.94377E+00  1.25334E+01  6.33460E+00
   1.01027E+01  6.50367E+00  3.51921E+00  9.40350E-01  7.72679E+00 -6.66239E+00  2.40074E+00 -5.43781E-01  3.44568E+00  8.01228E-01
  -6.80854E+00 -5.38242E+00 -7.76199E+00 -1.05721E+01 -9.78231E+00 -5.80059E+00 -1.18275E+01 -9.57935E+00 -5.31253E+00 -8.07344E+00
  -5.16937E+00 -7.71980E+00 -1.91777E+00 -6.64968E+00  5.04832E-01 -6.66395E+00 -3.18888E+00 -6.91304E-01 -9.18660E-01 -5.37349E+00
  -2.76628E+00 -7.83161E-01  5.30663E+00  6.10495E-01  6.71611E+00  3.22194E+00  3.05578E+00  2.80862E+00  1.62454E+00  3.70259E+00
   5.28975E+00  7.31989E+00  4.65549E+00  6.61682E+00  1.15489E+01  5.24585E+00  8.57132E+00  1.40951E+01  2.04427E+01  3.36435E+01
   4.53684E+01  5.76970E+01  7.11131E+01  6.83678E+01  6.78511E+01  5.46366E+01  4.54521E+01  3.34370E+01  2.27391E+01  1.02181E+01
   9.78527E+00  2.75029E+00  1.90184E+00 -2.45605E+00  3.98337E+00 -4.74786E+00 -3.82819E+00 -5.08241E-01 -1.92178E+00 -4.13021E+00
  -2.37625E+00  3.37490E-01  6.53061E+00  8.81192E+00  2.23342E+01  3.35420E+01  4.54238E+01  4.82317E+01  5.28326E+01  4.23479E+01
   3.72046E+01  2.89043E+01  1.77740E+01  1.56762E+01  1.00795E+01  7.35624E+00  4.37101E+00 -3.03576E+00 -9.27238E-01  2.27790E+00
  -4.83143E-01  1.84019E+00  4.88830E-01  1.34305E-01  1.43309E+00 -6.14764E+00 -1.30253E+00 -5.56630E+00 -1.39790E+00 -3.50376E+00
   8.30106E-01 -4.44995E+00 -6.08174E-01 -2.84038E+00 -2.67964E+00  4.93142E-01 -2.86874E+00  1.70420E+00 -2.19790E+00 -3.70725E+00
  -4.10691E+00 -6.05336E+00 -7.21846E+00 -1.45243E+00 -4.28020E+00 -6.21185E+00 -1.03078E+01 -8.22811E+00 -7.68870E+00 -1.01035E+01
  -3.37797E+00 -8.16338E+00 -1.17101E+01 -1.28350E+01 -1.13936E+01 -1.58450E+01 -1.15113E+01 -1.30339E+01 -1.44508E+01 -1.07745E+01
  -1.03121E+01 -1.25874E+01 -1.01277E+01 -8.50608E+00 -1.11633E+01 -1.34583E+01 -1.10884E+01 -7.47204E+00 -1.23751E+01 -7.26541E+00
  -5.52988E-01 -3.97544E+00  4.79972E+00 -4.91262E-02 -4.07449E-01  2.71876E+00 -5.69605E+00 -4.29785E+00 -1.78706E+00 -4.89418E+00
  -7.03395E-01 -3.55242E+00  6.75521E+00  2.11398E+00  2.82678E+00  4.55178E+00  6.06872E+00  1.73283E+00 -5.64248E-02 -1.18410E+00
  -9.40358E-01  2.56457E+00  4.38640E+00  7.52184E+00  1.12805E+01  1.45733E+01  1.35655E+01  1.47159E+01  9.84167E+00  6.42619E+00
   1.17149E+01  2.03337E+00  6.81878E-03  1.67609E+00  1.08420E+00  4.47692E+00  3.68865E+00  7.72586E+00  9.65210E+00  9.55856E+00
   1.00737E+01  1.02734E+01  9.57282E+00  6.30910E+00  9.61145E+00  8.38596E+00  1.11951E+01  1.20651E+01  1.10326E+01  3.29048E+00
   8.36916E+00  5.95555E+00  7.09654E+00  9.68314E+00  6.31753E+00  9.96808E+00  1.27082E+01  1.57903E+01  1.33730E+01  1.45141E+01
   2.03498E+01  1.92767E+01  2.31979E+01  2.42766E+01  3.28291E+01  3.88541E+01  4.59664E+01  6.51948E+01  8.04448E+01  9.63341E+01
   1.06030E+02  9.84694E+01  9.01676E+01  7.76264E+01  6.67107E+01  4.34748E+01  3.73829E+01  2.97503E+01  2.20903E+01  1.86592E+01
   1.37033E+01  1.56646E+01  1.18303E+01  9.81592E+00  1.52634E+01  1.10940E+01  9.34657E+00  1.18230E+01  1.48064E+01  1.08563E+01
   1.32429E+01  7.79151E+00  1.15228E+01  5.37183E+00  1.45547E+01  6.25013E+00  1.27841E+01  8.05157E+00  9.59206E+00  1.33648E+01
   9.53180E+00  9.61573E+00  1.42485E+01  1.30345E+01  1.38703E+01  8.70823E+00  9.48112E+00  1.28561E+01  1.23643E+01  1.34290E+01
   1.66431E+01  1.78738E+01  1.80092E+01  2.26600E+01  2.23960E+01  1.92337E+01  1.71974E+01  2.30180E+01  2.07796E+01  2.23367E+01
   2.02528E+01  1.73135E+01  1.07345E+01  1.45046E+01  1.19030E+01  1.46738E+01  1.52751E+01  1.62977E+01  1.71752E+01  1.22522E+01
   1.54313E+01  1.72738E+01  1.57066E+01  1.64010E+01  1.48585E+01  1.28308E+01  1.59213E+01  8.82491E+00  1.35173E+01  1.26612E+01
   1.50367E+01  1.32396E+01  9.19083E+00  1.68053E+01  1.19186E+01  1.61262E+01  1.38189E+01  1.36919E+01  1.10872E+01  1.05694E+01
   8.90714E+00  1.22089E+01  9.81445E+00  1.06673E+01  1.23505E+01  1.70668E+01  1.42503E+01  1.55769E+01  1.77256E+01  1.86823E+01
   1.92874E+01  1.54590E+01  1.40015E+01  1.79870E+01  1.67431E+01  1.91833E+01  1.57475E+01  1.54818E+01  1.35724E+01  1.30235E+01
   1.28268E+01  1.78776E+01  1.59507E+01  1.63287E+01  1.79195E+01  2.02562E+01  1.78916E+01  2.29455E+01  1.70741E+01  1.90307E+01
   1.94622E+01  2.08522E+01  1.69305E+01  1.42957E+01  1.33736E+01  1.54225E+01  1.74232E+01  1.74105E+01  1.59542E+01  1.04711E+01
   1.15256E+01  4.75944E+00  8.15964E+00  9.76832E+00  1.25740E+01  1.66641E+01  9.73107E+00  1.35634E+01  9.92612E+00  1.10824E+01
   1.16943E+01  1.15331E+01  1.42317E+01  1.49596E+01  9.62793E+00  1.31596E+01  1.47381E+01  1.37430E+01  1.20531E+01  1.14655E+01
   1.25907E+01  1.40121E+01  1.66927E+01  1.33458E+01  1.91012E+01  1.77523E+01  1.92536E+01  1.68643E+01  1.52093E+01  1.77084E+01
   1.42661E+01  1.80453E+01  1.58751E+01  1.46243E+01  1.60782E+01  1.01941E+01  1.38576E+01  1.13643E+01  1.06339E+01  1.38673E+01
   6.66180E+00  1.32146E+01  1.42357E+01  6.88636E+00  7.30658E+00  3.43465E+00  6.43979E+00  5.20183E+00  5.52896E+00  3.59369E+00
   4.52275E+00  8.01728E+00  3.84977E+00  1.96648E+00  5.49955E+00  4.35089E-01  1.46918E+00  2.43522E+00  4.79489E+00  4.01956E+00
   5.56152E-01  5.63424E+00  3.87485E+00  3.44330E+00  2.46629E+00  6.66251E+00  2.52235E+00  5.93774E+00  4.00834E+00  5.74365E+00
   7.35839E+00 -3.77855E-01  2.02595E+00  2.30724E+00  2.52301E+00  3.63279E+00  2.79891E+00  3.81724E+00  3.61888E+00  7.92160E+00
   6.68782E+00  2.52070E+00  5.86481E+00  4.87100E+00  1.22674E+00  2.92210E+00  5.14585E+00  4.13240E+00  5.81422E+00  8.48679E+00
   2.87056E+00  6.39613E+00  4.49536E+00  4.13578E+00  3.22405E+00  6.72226E+00  3.99587E+00 -2.35168E-01  2.39324E+00  3.96893E+00
   3.64778E+00  5.16275E+00  4.38328E+00  2.99545E+00  7.88976E+00  1.26127E+00  8.61394E-01 -7.06783E-01 -1.61897E-01  1.69577E-01
   4.13699E+00  2.91158E+00  3.16291E+00  5.24248E+00  3.88286E+00  4.95341E+00  4.24752E+00  4.94416E+00
 NY points of the fit to the data follow
  -3.52375E+00 -3.79807E+00 -3.49887E+00 -1.80596E+00  4.82280E-01  3.09072E+00  6.86779E+00  1.18989E+01  1.72430E+01  2.13140E+01
   2.28142E+01  2.16569E+01  1.89569E+01  1.55254E+01  1.16583E+01  8.22276E+00  5.77536E+00  3.41770E+00  7.58182E-01 -6.10123E-01
  -1.24756E+00 -1.75907E+00 -2.10377E+00 -2.04609E+00 -1.77908E+00 -1.15107E+00  1.34152E-01  2.00169E+00  4.10366E+00  5.90696E+00
   7.06477E+00  7.54815E+00  7.38806E+00  6.55059E+00  5.15630E+00  3.54416E+00  2.01898E+00  4.57816E-01 -9.09829E-01 -1.32248E+00
  -8.73060E-01  1.33145E-01  1.41505E+00  3.05147E+00  5.05650E+00  6.97355E+00  8.21568E+00  8.42303E+00  7.62433E+00  6.08403E+00
   4.07637E+00  1.97885E+00  3.39829E-01 -7.62033E-01 -1.55253E+00 -2.00953E+00 -1.96667E+00 -1.51042E+00 -9.98195E-01 -7.12061E-01
  -8.03817E-01 -1.26338E+00 -1.97436E+00 -2.77599E+00 -3.41722E+00 -3.71101E+00 -3.72681E+00 -3.56514E+00 -3.22636E+00 -2.78251E+00
  -2.34078E+00 -2.01903E+00 -1.90412E+00 -1.96801E+00 -2.14508E+00 -2.38628E+00 -2.62771E+00 -2.81056E+00 -2.88559E+00 -2.81548E+00
  -2.30898E+00 -1.49397E+00 -5.26009E-01  8.63219E-01  2.65403E+00  4.39729E+00  5.50443E+00  5.60713E+00  4.80540E+00  3.59263E+00
   2.31081E+00  1.08968E+00  2.01568E-01 -1.82907E-01 -1.54029E-01  1.13852E+00  5.68421E+00  1.22082E+01  2.05269E+01  3.23426E+01
   4.69585E+01  6.09580E+01  7.00294E+01  7.15038E+01  6.59640E+01  5.62424E+01  4.45338E+01  3.23741E+01  2.19395E+01  1.40058E+01
   7.06310E+00  1.06718E+00 -1.57129E+00 -2.25435E+00 -2.45053E+00 -2.47525E+00 -2.41630E+00 -2.28352E+00 -2.04464E+00 -1.55595E+00
   3.14065E-02  3.78113E+00  8.45560E+00  1.43225E+01  2.26689E+01  3.27844E+01  4.22191E+01  4.80093E+01  4.85137E+01  4.45265E+01
   3.80922E+01  3.03909E+01  2.22655E+01  1.52205E+01  9.68061E+00  4.55058E+00  2.64353E-01 -1.16861E+00 -1.20829E+00 -8.16475E-01
  -3.64310E-01 -6.21978E-02  9.83446E-02  1.27446E-01 -6.97680E-03 -2.49312E-01 -5.51441E-01 -8.97916E-01 -1.23971E+00 -1.57501E+00
  -1.85382E+00 -2.05912E+00 -2.21005E+00 -2.32335E+00 -2.46824E+00 -2.63158E+00 -2.80915E+00 -3.06806E+00 -3.40073E+00 -3.80780E+00
  -4.16556E+00 -4.25938E+00 -4.07886E+00 -3.84066E+00 -3.76408E+00 -3.91941E+00 -4.29626E+00 -4.81487E+00 -5.35886E+00 -5.89288E+00
  -6.45031E+00 -6.94857E+00 -7.47475E+00 -8.06161E+00 -8.51363E+00 -8.69867E+00 -8.58107E+00 -8.30902E+00 -8.11039E+00 -8.05631E+00
  -8.08652E+00 -8.05952E+00 -7.91858E+00 -7.70111E+00 -7.33685E+00 -6.73713E+00 -5.84054E+00 -4.54635E+00 -2.97466E+00 -1.44085E+00
  -3.28698E-01  1.87571E-01  2.08806E-01 -1.14499E-01 -5.73258E-01 -9.72310E-01 -1.24949E+00 -1.17733E+00 -6.31690E-01  2.90660E-01
   1.48539E+00  2.75329E+00  3.80520E+00  4.29354E+00  4.08840E+00  3.15615E+00  1.52109E+00 -5.27542E-01 -2.42656E+00 -3.70300E+00
  -3.96011E+00 -3.32151E+00 -1.82445E+00  6.23830E-01  3.54398E+00  6.01679E+00  7.23843E+00  7.02000E+00  5.62854E+00  3.26416E+00
   4.44246E-01 -1.99604E+00 -3.36780E+00 -3.31614E+00 -2.07062E+00 -1.17602E-01  2.33507E+00  4.68624E+00  6.44533E+00  7.48216E+00
   8.17057E+00  8.78819E+00  9.20693E+00  9.52054E+00  1.00257E+01  1.07184E+01  1.13510E+01  1.17268E+01  1.18048E+01  1.16392E+01
   1.12256E+01  1.06911E+01  1.04588E+01  1.08439E+01  1.16900E+01  1.26853E+01  1.38032E+01  1.49516E+01  1.59196E+01  1.67230E+01
   1.74940E+01  1.84436E+01  2.00488E+01  2.41678E+01  3.13489E+01  3.96997E+01  5.04461E+01  6.50595E+01  8.15778E+01  9.55039E+01
   1.02244E+02  1.00104E+02  9.11361E+01  7.85475E+01  6.41880E+01  5.01634E+01  3.88656E+01  2.98962E+01  2.12538E+01  1.47983E+01
   1.22653E+01  1.10869E+01  1.03309E+01  9.81629E+00  9.48113E+00  9.19630E+00  8.91180E+00  8.64106E+00  8.36848E+00  8.10246E+00
   7.88148E+00  7.72772E+00  7.63496E+00  7.61520E+00  7.68712E+00  7.84951E+00  8.09018E+00  8.40101E+00  8.78498E+00  9.24822E+00
   9.78196E+00  1.03763E+01  1.10278E+01  1.17283E+01  1.24637E+01  1.32185E+01  1.39769E+01  1.47243E+01  1.54437E+01  1.61180E+01
   1.67310E+01  1.72687E+01  1.77177E+01  1.80675E+01  1.83098E+01  1.84406E+01  1.84607E+01  1.83754E+01  1.81925E+01  1.79239E+01
   1.75844E+01  1.71896E+01  1.67559E+01  1.63011E+01  1.58415E+01  1.53922E+01  1.49660E+01  1.45737E+01  1.42234E+01  1.39210E+01
   1.36696E+01  1.34692E+01  1.33175E+01  1.32112E+01  1.31449E+01  1.31119E+01  1.31049E+01  1.31172E+01  1.31438E+01  1.31807E+01
   1.32234E+01  1.32691E+01  1.33161E+01  1.33635E+01  1.34101E+01  1.34558E+01  1.35021E+01  1.35514E+01  1.36066E+01  1.36717E+01
   1.37509E+01  1.38490E+01  1.39694E+01  1.41145E+01  1.42864E+01  1.44864E+01  1.47138E+01  1.49672E+01  1.52434E+01  1.55384E+01
   1.58467E+01  1.61622E+01  1.64778E+01  1.67859E+01  1.70783E+01  1.73469E+01  1.75836E+01  1.77807E+01  1.79314E+01  1.80300E+01
   1.80713E+01  1.80521E+01  1.79701E+01  1.78251E+01  1.76181E+01  1.73520E+01  1.70308E+01  1.66600E+01  1.62463E+01  1.57974E+01
   1.53220E+01  1.48289E+01  1.43273E+01  1.38264E+01  1.33353E+01  1.28629E+01  1.24173E+01  1.20060E+01  1.16356E+01  1.13122E+01
   1.10409E+01  1.08263E+01  1.06718E+01  1.05800E+01  1.05528E+01  1.05914E+01  1.06959E+01  1.08658E+01  1.10992E+01  1.13933E+01
   1.17440E+01  1.21461E+01  1.25928E+01  1.30761E+01  1.35865E+01  1.41130E+01  1.46438E+01  1.51662E+01  1.56669E+01  1.61324E+01
   1.65496E+01  1.69060E+01  1.71907E+01  1.73946E+01  1.75103E+01  1.75333E+01  1.74615E+01  1.72955E+01  1.70387E+01  1.66970E+01
   1.62782E+01  1.57921E+01  1.52494E+01  1.46621E+01  1.40422E+01  1.34016E+01  1.27516E+01  1.21026E+01  1.14637E+01  1.08427E+01
   1.02462E+01  9.67900E+00  9.14460E+00  8.64524E+00  8.18202E+00  7.75515E+00  7.36397E+00  7.00719E+00  6.68302E+00  6.38941E+00
   6.12420E+00  5.88513E+00  5.66992E+00  5.47630E+00  5.30213E+00  5.14546E+00  5.00453E+00  4.87771E+00  4.76349E+00  4.66049E+00
   4.56750E+00  4.48352E+00  4.40764E+00  4.33905E+00  4.27698E+00  4.22075E+00  4.16978E+00  4.12363E+00  4.08187E+00  4.04411E+00
   4.00993E+00  3.97901E+00  3.95110E+00  3.92599E+00  3.90348E+00  3.88333E+00  3.86531E+00  3.84927E+00  3.83510E+00  3.82269E+00
   3.81191E+00  3.80262E+00  3.79467E+00  3.78801E+00  3.78259E+00  3.77834E+00  3.77518E+00  3.77298E+00  3.77169E+00  3.77129E+00
   3.77175E+00  3.77302E+00  3.77504E+00  3.77772E+00  3.78105E+00  3.78502E+00  3.78962E+00  3.79481E+00  3.80051E+00  3.80668E+00
   3.81333E+00  3.82046E+00  3.82806E+00  3.83608E+00  3.84446E+00  3.85319E+00  3.86229E+00  3.87177E+00  3.88160E+00  3.89172E+00
   3.90212E+00  3.91278E+00  3.92374E+00  3.93499E+00  3.94651E+00  3.95825E+00  3.97019E+00  3.98236E+00
 NY background values follow
    -8.986E+00   -8.960E+00   -8.934E+00   -8.908E+00   -8.882E+00   -8.855E+00   -8.829E+00   -8.803E+00   -8.777E+00   -8.751E+00
    -8.725E+00   -8.699E+00   -8.672E+00   -8.646E+00   -8.620E+00   -8.594E+00   -8.568E+00   -8.542E+00   -8.515E+00   -8.489E+00
    -8.463E+00   -8.437E+00   -8.411E+00   -8.385E+00   -8.358E+00   -8.332E+00   -8.306E+00   -8.280E+00   -8.254E+00   -8.228E+00
    -8.202E+00   -8.175E+00   -8.149E+00   -8.123E+00   -8.097E+00   -8.071E+00   -8.045E+00   -8.019E+00   -7.992E+00   -7.966E+00
    -7.940E+00   -7.914E+00   -7.888E+00   -7.862E+00   -7.836E+00   -7.810E+00   -7.783E+00   -7.757E+00   -7.731E+00   -7.705E+00
    -7.679E+00   -7.653E+00   -7.627E+00   -7.601E+00   -7.575E+00   -7.548E+00   -7.522E+00   -7.496E+00   -7.470E+00   -7.444E+00
    -7.418E+00   -7.392E+00   -7.366E+00   -7.340E+00   -7.314E+00   -7.288E+00   -7.261E+00   -7.235E+00   -7.209E+00   -7.183E+00
    -7.157E+00   -7.131E+00   -7.105E+00   -7.079E+00   -7.053E+00   -7.027E+00   -7.001E+00   -6.975E+00   -6.949E+00   -6.923E+00
    -6.897E+00   -6.871E+00   -6.845E+00   -6.819E+00   -6.793E+00   -6.767E+00   -6.741E+00   -6.715E+00   -6.689E+00   -6.663E+00
    -6.637E+00   -6.611E+00   -6.585E+00   -6.559E+00   -6.533E+00   -6.507E+00   -6.481E+00   -6.455E+00   -6.429E+00   -6.403E+00
    -6.377E+00   -6.351E+00   -6.325E+00   -6.299E+00   -6.273E+00   -6.247E+00   -6.221E+00   -6.195E+00   -6.169E+00   -6.143E+00
    -6.117E+00   -6.091E+00   -6.065E+00   -6.039E+00   -6.013E+00   -5.988E+00   -5.962E+00   -5.936E+00   -5.910E+00   -5.884E+00
    -5.858E+00   -5.832E+00   -5.806E+00   -5.780E+00   -5.754E+00   -5.728E+00   -5.703E+00   -5.677E+00   -5.651E+00   -5.625E+00
    -5.599E+00   -5.573E+00   -5.547E+00   -5.521E+00   -5.495E+00   -5.470E+00   -5.444E+00   -5.418E+00   -5.392E+00   -5.366E+00
    -5.340E+00   -5.314E+00   -5.289E+00   -5.263E+00   -5.237E+00   -5.211E+00   -5.185E+00   -5.159E+00   -5.133E+00   -5.108E+00
    -5.082E+00   -5.056E+00   -5.030E+00   -5.004E+00   -4.978E+00   -4.953E+00   -4.927E+00   -4.901E+00   -4.875E+00   -4.849E+00
    -4.824E+00   -4.798E+00   -4.772E+00   -4.746E+00   -4.720E+00   -4.695E+00   -4.669E+00   -4.643E+00   -4.617E+00   -4.591E+00
    -4.566E+00   -4.540E+00   -4.514E+00   -4.488E+00   -4.462E+00   -4.437E+00   -4.411E+00   -4.385E+00   -4.359E+00   -4.334E+00
    -4.308E+00   -4.282E+00   -4.256E+00   -4.231E+00   -4.205E+00   -4.179E+00   -4.153E+00   -4.128E+00   -4.102E+00   -4.076E+00
    -4.050E+00   -4.025E+00   -3.999E+00   -3.973E+00   -3.948E+00   -3.922E+00   -3.896E+00   -3.871E+00   -3.845E+00   -3.819E+00
    -3.794E+00   -3.768E+00   -3.742E+00   -3.717E+00   -3.691E+00   -3.666E+00   -3.640E+00   -3.614E+00   -3.589E+00   -3.563E+00
    -3.538E+00   -3.512E+00   -3.487E+00   -3.461E+00   -3.436E+00   -3.410E+00   -3.385E+00   -3.359E+00   -3.334E+00   -3.309E+00
    -3.283E+00   -3.258E+00   -3.232E+00   -3.207E+00   -3.182E+00   -3.156E+00   -3.131E+00   -3.106E+00   -3.081E+00   -3.055E+00
    -3.030E+00   -3.005E+00   -2.980E+00   -2.955E+00   -2.930E+00   -2.905E+00   -2.879E+00   -2.854E+00   -2.829E+00   -2.804E+00
    -2.779E+00   -2.754E+00   -2.729E+00   -2.704E+00   -2.679E+00   -2.654E+00   -2.630E+00   -2.605E+00   -2.580E+00   -2.555E+00
    -2.530E+00   -2.505E+00   -2.481E+00   -2.456E+00   -2.431E+00   -2.406E+00   -2.382E+00   -2.357E+00   -2.332E+00   -2.308E+00
    -2.283E+00   -2.259E+00   -2.234E+00   -2.209E+00   -2.185E+00   -2.160E+00   -2.136E+00   -2.111E+00   -2.087E+00   -2.063E+00
    -2.038E+00   -2.014E+00   -1.989E+00   -1.965E+00   -1.941E+00   -1.916E+00   -1.892E+00   -1.868E+00   -1.844E+00   -1.819E+00
    -1.795E+00   -1.771E+00   -1.747E+00   -1.723E+00   -1.699E+00   -1.675E+00   -1.651E+00   -1.626E+00   -1.602E+00   -1.578E+00
    -1.554E+00   -1.531E+00   -1.507E+00   -1.483E+00   -1.459E+00   -1.435E+00   -1.411E+00   -1.387E+00   -1.363E+00   -1.340E+00
    -1.316E+00   -1.292E+00   -1.268E+00   -1.245E+00   -1.221E+00   -1.197E+00   -1.173E+00   -1.150E+00   -1.126E+00   -1.103E+00
    -1.079E+00   -1.055E+00   -1.032E+00   -1.008E+00   -9.849E-01   -9.614E-01   -9.379E-01   -9.145E-01   -8.910E-01   -8.676E-01
    -8.442E-01   -8.209E-01   -7.975E-01   -7.742E-01   -7.508E-01   -7.275E-01   -7.043E-01   -6.810E-01   -6.577E-01   -6.345E-01
    -6.113E-01   -5.881E-01   -5.649E-01   -5.418E-01   -5.186E-01   -4.955E-01   -4.724E-01   -4.493E-01   -4.262E-01   -4.031E-01
    -3.801E-01   -3.571E-01   -3.341E-01   -3.111E-01   -2.881E-01   -2.651E-01   -2.422E-01   -2.192E-01   -1.963E-01   -1.734E-01
    -1.505E-01   -1.276E-01   -1.048E-01   -8.191E-02   -5.907E-02   -3.625E-02   -1.344E-02    9.348E-03    3.213E-02    5.489E-02
     7.765E-02    1.004E-01    1.231E-01    1.458E-01    1.685E-01    1.912E-01    2.139E-01    2.365E-01    2.592E-01    2.818E-01
     3.045E-01    3.271E-01    3.497E-01    3.723E-01    3.949E-01    4.174E-01    4.400E-01    4.625E-01    4.851E-01    5.076E-01
     5.301E-01    5.526E-01    5.751E-01    5.976E-01    6.201E-01    6.426E-01    6.650E-01    6.875E-01    7.099E-01    7.324E-01
     7.548E-01    7.772E-01    7.996E-01    8.220E-01    8.444E-01    8.668E-01    8.892E-01    9.116E-01    9.339E-01    9.563E-01
     9.786E-01    1.001E+00    1.023E+00    1.046E+00    1.068E+00    1.090E+00    1.113E+00    1.135E+00    1.157E+00    1.180E+00
     1.202E+00    1.224E+00    1.246E+00    1.269E+00    1.291E+00    1.313E+00    1.336E+00    1.358E+00    1.380E+00    1.402E+00
     1.425E+00    1.447E+00    1.469E+00    1.491E+00    1.514E+00    1.536E+00    1.558E+00    1.580E+00    1.602E+00    1.625E+00
     1.647E+00    1.669E+00    1.691E+00    1.714E+00    1.736E+00    1.758E+00    1.780E+00    1.802E+00    1.825E+00    1.847E+00
     1.869E+00    1.891E+00    1.913E+00    1.935E+00    1.958E+00    1.980E+00    2.002E+00    2.024E+00    2.046E+00    2.069E+00
     2.091E+00    2.113E+00    2.135E+00    2.157E+00    2.179E+00    2.202E+00    2.224E+00    2.246E+00    2.268E+00    2.290E+00
     2.312E+00    2.335E+00    2.357E+00    2.379E+00    2.401E+00    2.423E+00    2.445E+00    2.467E+00    2.490E+00    2.512E+00
     2.534E+00    2.556E+00    2.578E+00    2.600E+00    2.623E+00    2.645E+00    2.667E+00    2.689E+00    2.711E+00    2.733E+00
     2.755E+00    2.778E+00    2.800E+00    2.822E+00    2.844E+00    2.866E+00    2.888E+00    2.910E+00    2.933E+00    2.955E+00
     2.977E+00    2.999E+00    3.021E+00    3.043E+00    3.065E+00    3.087E+00    3.110E+00    3.132E+00
 Ala      Conc. = 1.26E+00
