 LCModel (Version 6.3-1L) Copyright: S.W. Provencher.          Ref.: Magn. Reson. Med. 30:672-679 (1993).                
 Slice#3 Row#10 Col#11  PD_24_press_1_raw_act
 36 lines in following concentration table = NCONC+1
    Conc.  %SD /Cr+PCr  Metabolite                                         
    0.000 999%   0.000 Ala                                                 
    0.000 999%   0.000 Asp                                                 
    0.000 999%   0.000 Cr                                                  
  944.104   5%   1.000 PCr                                                 
    0.000 999%   0.000 GABA                                                
   64.115 162% 6.8E-02 Glc                                                 
  479.624  37%   0.508 Gln                                                 
  910.153  22%   0.964 Glu                                                 
  294.142   6%   0.312 GPC                                                 
    0.000 999%   0.000 PCh                                                 
  178.854  32%   0.189 GSH                                                 
  389.319  53%   0.412 Ins                                                 
    0.000 999%   0.000 Lac                                                 
 1.50E+03   7%   1.591 NAA                                                 
   51.130 205% 5.4E-02 NAAG                                                
   57.994  37% 6.1E-02 Scyllo                                              
    0.000 999%   0.000 Tau                                                 
  445.727  18%   0.472 -CrCH2                                              
  294.142   6%   0.312 GPC+PCh                                             
 1.55E+03   4%   1.645 NAA+NAAG                                            
  944.104   5%   1.000 Cr+PCr                                              
 1.39E+03  21%   1.472 Glu+Gln                                             
    0.000 999%   0.000 Lip13a                                              
    0.000 999%   0.000 Lip13b                                              
    0.000 999%   0.000 Lip09                                               
 1.45E+03  13%   1.531 MM09                                                
 8.25E-03 999% 8.7E-06 Lip20                                               
 4.28E+03  10%   4.534 MM20                                                
    0.000 999%   0.000 MM12                                                
    0.000 999%   0.000 MM14                                                
 1.24E+03  20%   1.317 MM17                                                
    0.000 999%   0.000 Lip13a+Lip13b                                       
    0.000 999%   0.000 MM14+Lip13a+Lip13b+MM12                             
 1.45E+03  13%   1.531 MM09+Lip09                                          
 4.28E+03  10%   4.534 MM20+Lip20                                          
   6 lines in following misc. output table
  FWHM = 0.054 ppm    S/N =  11                                            
  Data shift = 0.023 ppm                                                   
  Ph:  -3 deg      -6.8 deg/ppm                                            
  alphaB,S = 2.8E-01,   4.5E+01                                            
   14 spline knots.   Ns = 7(1)                                            
  (12) 4 infls.   (12) 1 extrs.                                            
  498 points on ppm-axis = NY
      4.000000     3.992357     3.984714     3.977070     3.969427     3.961784     3.954141     3.946497     3.938854     3.931211
      3.923568     3.915925     3.908281     3.900638     3.892995     3.885352     3.877708     3.870065     3.862422     3.854779
      3.847136     3.839492     3.831849     3.824206     3.816563     3.808919     3.801276     3.793633     3.785990     3.778347
      3.770703     3.763060     3.755417     3.747774     3.740130     3.732487     3.724844     3.717201     3.709558     3.701914
      3.694271     3.686628     3.678985     3.671341     3.663698     3.656055     3.648412     3.640769     3.633125     3.625482
      3.617839     3.610196     3.602552     3.594909     3.587266     3.579623     3.571980     3.564336     3.556693     3.549050
      3.541407     3.533763     3.526120     3.518477     3.510834     3.503191     3.495547     3.487904     3.480261     3.472618
      3.464974     3.457331     3.449688     3.442045     3.434402     3.426758     3.419115     3.411472     3.403829     3.396185
      3.388542     3.380899     3.373256     3.365613     3.357969     3.350326     3.342683     3.335040     3.327396     3.319753
      3.312110     3.304467     3.296824     3.289180     3.281537     3.273894     3.266251     3.258607     3.250964     3.243321
      3.235678     3.228034     3.220391     3.212748     3.205105     3.197462     3.189818     3.182175     3.174532     3.166889
      3.159245     3.151602     3.143959     3.136316     3.128673     3.121029     3.113386     3.105743     3.098100     3.090456
      3.082813     3.075170     3.067527     3.059884     3.052240     3.044597     3.036954     3.029311     3.021667     3.014024
      3.006381     2.998738     2.991095     2.983451     2.975808     2.968165     2.960522     2.952878     2.945235     2.937592
      2.929949     2.922306     2.914662     2.907019     2.899376     2.891733     2.884089     2.876446     2.868803     2.861160
      2.853517     2.845873     2.838230     2.830587     2.822944     2.815300     2.807657     2.800014     2.792371     2.784728
      2.777084     2.769441     2.761798     2.754155     2.746511     2.738868     2.731225     2.723582     2.715939     2.708295
      2.700652     2.693009     2.685366     2.677722     2.670079     2.662436     2.654793     2.647150     2.639506     2.631863
      2.624220     2.616577     2.608933     2.601290     2.593647     2.586004     2.578361     2.570717     2.563074     2.555431
      2.547788     2.540144     2.532501     2.524858     2.517215     2.509572     2.501928     2.494285     2.486642     2.478999
      2.471355     2.463712     2.456069     2.448426     2.440783     2.433139     2.425496     2.417853     2.410210     2.402566
      2.394923     2.387280     2.379637     2.371994     2.364350     2.356707     2.349064     2.341421     2.333777     2.326134
      2.318491     2.310848     2.303205     2.295561     2.287918     2.280275     2.272632     2.264988     2.257345     2.249702
      2.242059     2.234416     2.226772     2.219129     2.211486     2.203843     2.196199     2.188556     2.180913     2.173270
      2.165627     2.157983     2.150340     2.142697     2.135054     2.127410     2.119767     2.112124     2.104481     2.096838
      2.089194     2.081551     2.073908     2.066265     2.058621     2.050978     2.043335     2.035692     2.028049     2.020405
      2.012762     2.005119     1.997476     1.989833     1.982190     1.974546     1.966903     1.959260     1.951617     1.943974
      1.936331     1.928688     1.921045     1.913402     1.905759     1.898115     1.890472     1.882829     1.875186     1.867543
      1.859900     1.852257     1.844614     1.836971     1.829327     1.821684     1.814041     1.806398     1.798755     1.791112
      1.783469     1.775826     1.768183     1.760540     1.752896     1.745253     1.737610     1.729967     1.722324     1.714681
      1.707038     1.699395     1.691752     1.684108     1.676465     1.668822     1.661179     1.653536     1.645893     1.638250
      1.630607     1.622964     1.615321     1.607677     1.600034     1.592391     1.584748     1.577105     1.569462     1.561819
      1.554176     1.546533     1.538890     1.531246     1.523603     1.515960     1.508317     1.500674     1.493031     1.485388
      1.477745     1.470102     1.462458     1.454815     1.447172     1.439529     1.431886     1.424243     1.416600     1.408957
      1.401314     1.393671     1.386027     1.378384     1.370741     1.363098     1.355455     1.347812     1.340169     1.332526
      1.324883     1.317240     1.309596     1.301953     1.294310     1.286667     1.279024     1.271381     1.263738     1.256095
      1.248452     1.240808     1.233165     1.225522     1.217879     1.210236     1.202593     1.194950     1.187307     1.179664
      1.172021     1.164377     1.156734     1.149091     1.141448     1.133805     1.126162     1.118519     1.110876     1.103233
      1.095590     1.087946     1.080303     1.072660     1.065017     1.057374     1.049731     1.042088     1.034445     1.026802
      1.019158     1.011515     1.003872     0.996229     0.988586     0.980943     0.973300     0.965657     0.958014     0.950371
      0.942727     0.935084     0.927441     0.919798     0.912155     0.904512     0.896869     0.889226     0.881583     0.873940
      0.866296     0.858653     0.851010     0.843367     0.835724     0.828081     0.820438     0.812795     0.805152     0.797508
      0.789865     0.782222     0.774579     0.766936     0.759293     0.751650     0.744007     0.736364     0.728721     0.721077
      0.713434     0.705791     0.698148     0.690505     0.682862     0.675219     0.667576     0.659933     0.652290     0.644646
      0.637003     0.629360     0.621717     0.614074     0.606431     0.598788     0.591145     0.583502     0.575858     0.568215
      0.560572     0.552929     0.545286     0.537643     0.530000     0.522357     0.514714     0.507071     0.499427     0.491784
      0.484141     0.476498     0.468855     0.461212     0.453569     0.445925     0.438282     0.430639     0.422996     0.415353
      0.407710     0.400067     0.392424     0.384780     0.377137     0.369494     0.361851     0.354208     0.346565     0.338922
      0.331278     0.323635     0.315992     0.308349     0.300706     0.293063     0.285420     0.277777     0.270133     0.262490
      0.254847     0.247204     0.239561     0.231918     0.224275     0.216631     0.208988     0.201345
 NY phased data points follow
   6.90333E+00  9.85570E+00  9.33012E+00  9.25829E+00  6.22335E+00  1.15030E+01  1.29675E+01  1.87874E+01  1.40477E+01  2.05875E+01
   1.97160E+01  1.88318E+01  1.93573E+01  2.18944E+01  1.68835E+01  1.66983E+01  1.35477E+01  1.47887E+01  8.53399E+00  1.32423E+01
   1.01825E+01  1.28782E+01  1.00164E+01  1.09227E+01  9.73295E+00  1.73228E+01  1.12461E+01  1.14378E+01  1.11510E+01  1.28714E+01
   1.13274E+01  1.40857E+01  1.41521E+01  1.23531E+01  1.14622E+01  1.25815E+01  1.05278E+01  1.04059E+01  1.59956E+01  8.73745E+00
   1.16240E+01  1.05297E+01  1.00774E+01  9.26468E+00  9.99854E+00  1.56426E+01  1.29791E+01  1.35849E+01  1.43049E+01  1.47776E+01
   1.18434E+01  1.30359E+01  1.57810E+01  1.07766E+01  9.90264E+00  1.41759E+01  1.19140E+01  1.58474E+01  1.26243E+01  1.10671E+01
   9.11338E+00  1.04946E+01  7.21190E+00  7.73987E+00  7.24876E+00  9.70953E+00  4.81774E+00  3.23029E+00  2.70348E+00  5.54619E+00
   7.62476E+00  7.42536E+00  5.31859E+00  8.96451E+00  6.50391E+00  6.65812E+00  4.93018E+00  1.02095E+01  5.77737E+00  9.72175E+00
   1.03424E+01  7.39997E+00  6.66584E+00  9.80459E+00  9.47764E+00  7.67531E+00  8.11755E+00  1.15782E+01  9.59637E+00  1.10165E+01
   9.93083E+00  1.12870E+01  8.63629E+00  9.14049E+00  9.50841E+00  7.63372E+00  7.52842E+00  5.00123E+00  7.74485E+00  1.31577E+01
   1.86747E+01  2.53140E+01  3.17030E+01  3.28457E+01  3.86332E+01  3.20351E+01  2.69531E+01  2.63929E+01  2.35257E+01  1.96043E+01
   1.49105E+01  1.50754E+01  1.53563E+01  1.31502E+01  1.00697E+01  1.16393E+01  1.02722E+01  9.96331E+00  6.49462E+00  8.03774E+00
   3.65325E+00  7.33820E+00  1.05162E+01  1.55458E+01  2.25552E+01  3.23620E+01  3.70094E+01  4.08171E+01  4.10607E+01  3.81770E+01
   3.59772E+01  3.12100E+01  2.77067E+01  2.52758E+01  1.96704E+01  1.68909E+01  2.03004E+01  1.58654E+01  1.32824E+01  1.29617E+01
   1.40712E+01  1.31696E+01  9.50648E+00  1.12578E+01  9.10994E+00  1.01421E+01  1.08380E+01  8.94930E+00  9.17877E+00  8.93185E+00
   1.15543E+01  8.59638E+00  8.95859E+00  9.12863E+00  8.62825E+00  1.13697E+01  8.19113E+00  1.04137E+01  8.95023E+00  1.02220E+01
   9.51286E+00  1.15247E+01  8.52153E+00  1.10194E+01  1.09949E+01  1.18239E+01  9.94111E+00  8.03833E+00  5.11164E+00  1.00455E+01
   6.34010E+00  4.14887E+00  4.49557E+00  5.96348E+00  5.78156E+00  2.95622E+00  2.90901E+00  3.32718E+00  5.25698E+00  4.64668E+00
   4.45659E+00  6.83844E+00  6.38493E+00  7.19132E+00  4.68177E+00  4.28622E+00  8.00614E+00  7.12978E+00  7.57582E+00  9.06092E+00
   1.10636E+01  1.47299E+01  1.45591E+01  1.43202E+01  1.20851E+01  1.60711E+01  1.03052E+01  1.26350E+01  8.30774E+00  1.24170E+01
   1.30659E+01  1.13102E+01  1.59440E+01  1.33427E+01  1.56167E+01  1.58153E+01  1.65287E+01  1.58557E+01  1.39921E+01  9.49116E+00
   1.53223E+01  1.50451E+01  1.80650E+01  2.08327E+01  2.39524E+01  2.42283E+01  2.29950E+01  2.36709E+01  2.26175E+01  2.30859E+01
   1.76766E+01  1.63194E+01  1.60534E+01  1.90036E+01  1.51712E+01  1.79775E+01  2.16885E+01  2.06284E+01  2.14615E+01  2.20985E+01
   2.09362E+01  2.20231E+01  2.29861E+01  1.99954E+01  2.06724E+01  2.10002E+01  2.07261E+01  1.85613E+01  2.09929E+01  2.08148E+01
   1.93123E+01  2.10952E+01  1.61007E+01  2.03003E+01  1.95950E+01  1.77800E+01  2.06903E+01  2.05222E+01  2.17869E+01  2.33268E+01
   2.15481E+01  2.05457E+01  2.24255E+01  2.25473E+01  2.53963E+01  2.71031E+01  3.53621E+01  4.40445E+01  5.65301E+01  6.60237E+01
   6.68052E+01  6.94470E+01  6.12756E+01  5.85573E+01  4.97671E+01  4.18594E+01  3.70975E+01  3.09855E+01  2.90901E+01  2.40350E+01
   2.11643E+01  1.88339E+01  1.61077E+01  1.82717E+01  1.66555E+01  1.35837E+01  1.01214E+01  1.17031E+01  1.37022E+01  1.05332E+01
   1.16946E+01  1.37053E+01  9.72462E+00  8.05435E+00  8.72812E+00  9.48019E+00  9.41262E+00  7.82127E+00  6.01138E+00  1.36337E+01
   7.16614E+00  8.79081E+00  4.70119E+00  7.28461E+00  7.88560E+00  6.94471E+00  7.15528E+00  2.56083E+00  6.77025E+00  9.01894E+00
   7.22248E+00  1.01239E+01  8.30062E+00  8.76443E+00  6.36841E+00  6.25275E+00  1.10343E+01  9.13966E+00  9.82935E+00  8.92925E+00
   8.16516E+00  1.03775E+01  8.51920E+00  7.60349E+00  7.62643E+00  6.40218E+00  5.84131E+00  7.08515E+00  5.22069E+00  7.96787E+00
   6.71722E+00  5.58434E+00  5.68984E+00  4.79233E+00  2.38036E+00  1.11236E+00  1.96046E-01  1.14363E-01  1.81617E+00  2.50182E+00
   9.73542E-01 -3.18954E+00  2.70803E-01 -8.32294E-01  2.40999E+00 -1.49672E-01  4.93855E-01 -2.72702E+00 -2.95972E+00 -6.05809E-01
  -4.61115E+00 -5.91250E+00 -4.22105E+00 -7.05252E+00 -9.42316E+00 -5.30309E+00 -7.19115E+00 -9.51580E+00 -8.70008E+00 -1.33716E+01
  -1.00426E+01 -8.73972E+00 -9.32606E+00 -1.11203E+01 -6.18427E+00 -7.35411E+00 -7.52228E+00 -5.09920E+00 -8.09159E+00 -7.69586E+00
  -8.06273E+00 -3.78781E+00 -6.34357E+00 -5.09470E+00 -6.33661E+00 -7.16176E+00 -4.99877E+00 -5.76871E+00 -5.61468E+00 -4.69634E+00
  -6.34594E-01 -5.74769E+00 -5.16971E+00 -2.48081E+00 -1.85630E+00 -1.48550E+00 -8.26625E-02  8.15040E-01  5.81586E-01  2.11570E+00
   1.98875E+00 -8.48413E-01  2.69269E+00  1.04292E+00 -1.08781E+00  9.66747E-01  9.80338E-01  3.50464E+00  1.52201E+00 -6.78255E-01
   9.71795E-01  1.88850E+00 -6.59817E-02  3.25660E+00  3.38043E+00  5.47433E+00  4.35946E+00  2.23626E+00  1.79243E+00  7.52187E-01
   6.31546E-01  1.80855E+00  2.49401E+00  4.70956E+00  1.26865E+00  5.93610E+00  5.24637E+00  5.03695E+00  5.07488E+00  7.54906E+00
   5.54300E+00  6.86472E+00  6.30366E+00  3.72268E+00  4.51762E+00  2.73271E+00  4.25444E+00  3.60401E+00  4.14691E+00  5.01321E-01
   4.05548E+00  1.27043E+00  2.30771E-02  2.17997E+00 -1.08720E+00  6.09138E-01 -3.49595E-01  1.35861E+00  2.18541E+00  5.54577E-01
  -6.70621E-02  2.74323E+00 -3.17476E+00  7.69585E-01  2.98607E-01  1.74384E+00 -3.91612E-01  2.85029E+00 -1.57114E+00  7.17362E-01
   1.84084E+00  3.28300E+00 -7.58807E-02  1.89634E+00  2.32638E+00  1.78025E+00  2.09750E+00  3.84659E+00 -2.28849E+00  8.45803E-01
   1.58471E+00 -2.43339E+00  1.37492E+00  8.77374E-01  1.90185E+00 -1.38592E+00 -1.19925E+00  1.49958E+00  2.32867E+00  3.69974E+00
   1.52096E+00  7.62526E-01  5.78300E-01 -5.84804E-01  1.00320E+00 -2.91824E-01  9.80224E-01 -9.91393E-02 -2.86188E+00  2.20479E-02
   2.65057E+00 -8.87620E-01 -3.09695E-01  8.99285E-01  1.09218E+00  4.24133E-01  3.10290E-01  6.83309E-01  1.02504E+00 -6.78301E-01
   3.54655E+00 -8.61285E-01  3.13723E+00  1.37057E+00  1.32520E+00  2.59804E-01  1.96778E+00  2.52756E+00  2.08088E+00 -1.96069E-01
   7.05585E-01 -9.31500E-01 -1.51009E-01 -1.03305E+00  1.35044E+00  4.39309E-02  1.05207E+00 -2.97161E+00
 NY points of the fit to the data follow
   9.27245E+00  9.04985E+00  8.89882E+00  8.46246E+00  8.72104E+00  1.01773E+01  1.25541E+01  1.55056E+01  1.82414E+01  2.00946E+01
   2.08737E+01  2.05762E+01  1.96275E+01  1.84342E+01  1.71018E+01  1.59430E+01  1.50475E+01  1.40809E+01  1.24294E+01  1.16682E+01
   1.14299E+01  1.13084E+01  1.11382E+01  1.06953E+01  1.02382E+01  9.92285E+00  9.94652E+00  1.05216E+01  1.15503E+01  1.28436E+01
   1.40841E+01  1.49007E+01  1.51384E+01  1.46663E+01  1.37273E+01  1.26922E+01  1.18437E+01  1.11141E+01  1.04751E+01  1.02100E+01
   1.00416E+01  9.97336E+00  1.01984E+01  1.07036E+01  1.14434E+01  1.21799E+01  1.27585E+01  1.30241E+01  1.28649E+01  1.24812E+01
   1.20226E+01  1.14660E+01  1.09004E+01  1.04815E+01  1.01189E+01  9.72549E+00  9.49190E+00  9.50574E+00  9.60938E+00  9.64845E+00
   9.58795E+00  9.40997E+00  9.15687E+00  8.86275E+00  8.58541E+00  8.37962E+00  8.27895E+00  8.23876E+00  8.23849E+00  8.29154E+00
   8.37021E+00  8.46468E+00  8.54037E+00  8.57789E+00  8.57989E+00  8.53888E+00  8.46790E+00  8.37595E+00  8.27153E+00  8.10342E+00
   7.92615E+00  8.05618E+00  8.51320E+00  9.14611E+00  9.77402E+00  1.01825E+01  1.02735E+01  1.00633E+01  9.64919E+00  9.18669E+00
   8.76958E+00  8.44460E+00  8.23210E+00  8.05344E+00  7.72676E+00  7.24023E+00  6.49620E+00  6.06386E+00  8.02958E+00  1.26493E+01
   1.91065E+01  2.60224E+01  3.15179E+01  3.44996E+01  3.47690E+01  3.27940E+01  2.97019E+01  2.62025E+01  2.28016E+01  2.00113E+01
   1.75879E+01  1.44291E+01  1.13079E+01  1.02234E+01  9.90394E+00  9.76966E+00  9.70383E+00  9.67023E+00  9.64875E+00  9.56509E+00
   8.99118E+00  8.77141E+00  1.12252E+01  1.65237E+01  2.37224E+01  3.12877E+01  3.71903E+01  4.03398E+01  4.06487E+01  3.86175E+01
   3.53765E+01  3.16132E+01  2.77873E+01  2.44379E+01  2.13508E+01  1.74194E+01  1.37371E+01  1.24496E+01  1.21049E+01  1.20433E+01
   1.20504E+01  1.20016E+01  1.19095E+01  1.18409E+01  1.17601E+01  1.16511E+01  1.15270E+01  1.13654E+01  1.11804E+01  1.09731E+01
   1.07595E+01  1.05950E+01  1.04717E+01  1.04010E+01  1.04141E+01  1.04337E+01  1.03395E+01  1.00980E+01  9.73921E+00  9.42334E+00
   9.30180E+00  9.36288E+00  9.54668E+00  9.73415E+00  9.79542E+00  9.71523E+00  9.51822E+00  9.25700E+00  9.03190E+00  8.92842E+00
   8.81199E+00  8.49985E+00  8.06130E+00  7.60687E+00  7.37728E+00  7.41014E+00  7.51256E+00  7.62001E+00  7.72459E+00  7.80820E+00
   7.91108E+00  7.98049E+00  7.94182E+00  7.90506E+00  8.00759E+00  8.30296E+00  8.76447E+00  9.48192E+00  1.03677E+01  1.12971E+01
   1.20230E+01  1.24333E+01  1.25800E+01  1.25297E+01  1.23759E+01  1.22480E+01  1.21496E+01  1.21109E+01  1.23420E+01  1.29160E+01
   1.37922E+01  1.48379E+01  1.58248E+01  1.65298E+01  1.66010E+01  1.58933E+01  1.47317E+01  1.32902E+01  1.18481E+01  1.07246E+01
   1.03317E+01  1.09781E+01  1.24076E+01  1.42604E+01  1.61510E+01  1.76398E+01  1.83566E+01  1.80638E+01  1.69878E+01  1.53055E+01
   1.35852E+01  1.25236E+01  1.22620E+01  1.26429E+01  1.34370E+01  1.46329E+01  1.60090E+01  1.71472E+01  1.79640E+01  1.85523E+01
   1.90340E+01  1.94024E+01  1.95571E+01  1.96293E+01  1.99086E+01  2.03827E+01  2.09990E+01  2.15177E+01  2.17586E+01  2.17839E+01
   2.16735E+01  2.14545E+01  2.13190E+01  2.14344E+01  2.17893E+01  2.21028E+01  2.23386E+01  2.25607E+01  2.27390E+01  2.28755E+01
   2.31816E+01  2.38249E+01  2.43625E+01  2.40418E+01  2.38358E+01  2.72921E+01  3.48644E+01  4.51975E+01  5.61273E+01  6.46123E+01
   6.87402E+01  6.82003E+01  6.37988E+01  5.73875E+01  5.02297E+01  4.33238E+01  3.75598E+01  3.24828E+01  2.63011E+01  2.00852E+01
   1.73512E+01  1.61166E+01  1.52581E+01  1.45851E+01  1.40383E+01  1.34831E+01  1.29286E+01  1.23786E+01  1.18344E+01  1.13082E+01
   1.08185E+01  1.03482E+01  9.88925E+00  9.45894E+00  9.06820E+00  8.71129E+00  8.38093E+00  8.07812E+00  7.81145E+00  7.58610E+00
   7.39259E+00  7.23294E+00  7.11242E+00  7.03275E+00  6.99272E+00  6.99266E+00  7.03366E+00  7.11503E+00  7.23473E+00  7.38982E+00
   7.57468E+00  7.78228E+00  8.00453E+00  8.23096E+00  8.45043E+00  8.65080E+00  8.82101E+00  8.94988E+00  9.02628E+00  9.04099E+00
   8.98760E+00  8.86059E+00  8.65810E+00  8.38078E+00  8.03181E+00  7.61648E+00  7.14269E+00  6.61952E+00  6.05778E+00  5.46839E+00
   4.86293E+00  4.25200E+00  3.64594E+00  3.05325E+00  2.48160E+00  1.93658E+00  1.42275E+00  9.42598E-01  4.97750E-01  8.80964E-02
  -2.86882E-01 -6.28999E-01 -9.40052E-01 -1.22275E+00 -1.47942E+00 -1.71297E+00 -1.92563E+00 -2.12003E+00 -2.29803E+00 -2.46183E+00
  -2.61283E+00 -2.75273E+00 -2.88245E+00 -3.00322E+00 -3.11560E+00 -3.22051E+00 -3.31822E+00 -3.40939E+00 -3.49406E+00 -3.57271E+00
  -3.64526E+00 -3.71210E+00 -3.77303E+00 -3.82834E+00 -3.87775E+00 -3.92148E+00 -3.95922E+00 -3.99116E+00 -4.01691E+00 -4.03659E+00
  -4.04977E+00 -4.05652E+00 -4.05636E+00 -4.04940E+00 -4.03520E+00 -4.01381E+00 -3.98473E+00 -3.94794E+00 -3.90287E+00 -3.84938E+00
  -3.78674E+00 -3.71466E+00 -3.63229E+00 -3.53920E+00 -3.43436E+00 -3.31716E+00 -3.18636E+00 -3.04118E+00 -2.88023E+00 -2.70259E+00
  -2.50680E+00 -2.29187E+00 -2.05636E+00 -1.79945E+00 -1.52000E+00 -1.21762E+00 -8.91756E-01 -5.42816E-01 -1.71241E-01  2.21360E-01
   6.33136E-01  1.06093E+00  1.50125E+00  1.94926E+00  2.39979E+00  2.84642E+00  3.28264E+00  3.70101E+00  4.09441E+00  4.45529E+00
   4.77692E+00  5.05269E+00  5.27742E+00  5.44658E+00  5.55747E+00  5.60841E+00  5.59975E+00  5.53290E+00  5.41124E+00  5.23907E+00
   5.02224E+00  4.76699E+00  4.48062E+00  4.17022E+00  3.84340E+00  3.50704E+00  3.16803E+00  2.83210E+00  2.50470E+00  2.18995E+00
   1.89159E+00  1.61200E+00  1.35323E+00  1.11610E+00  9.01252E-01  7.08312E-01  5.36958E-01  3.86047E-01  2.54661E-01  1.41248E-01
   4.46404E-02 -3.68233E-02 -1.04316E-01 -1.59438E-01 -2.03259E-01 -2.37227E-01 -2.62225E-01 -2.79494E-01 -2.89712E-01 -2.93941E-01
  -2.92696E-01 -2.86873E-01 -2.76827E-01 -2.63305E-01 -2.46537E-01 -2.27176E-01 -2.05367E-01 -1.81675E-01 -1.56157E-01 -1.29299E-01
  -1.01112E-01 -7.20463E-02 -4.20687E-02 -1.15675E-02  1.95784E-02  5.10469E-02  8.29779E-02  1.15060E-01  1.47451E-01  1.79875E-01
   2.12517E-01  2.45110E-01  2.77839E-01  3.10441E-01  3.43116E-01  3.75619E-01  4.08165E-01  4.40511E-01  4.72863E-01  5.04982E-01
   5.37091E-01  5.68973E-01  6.00849E-01  6.32493E-01  6.64124E-01  6.95519E-01  7.26913E-01  7.58095E-01  7.89295E-01  8.20290E-01
   8.51308E-01  8.82142E-01  9.13031E-01  9.43770E-01  9.74592E-01  1.00528E+00  1.03607E+00  1.06677E+00  1.09761E+00  1.12840E+00
   1.15937E+00  1.19031E+00  1.22147E+00  1.25264E+00  1.28409E+00  1.31561E+00  1.34745E+00  1.37940E+00
 NY background values follow
     8.862E+00    8.846E+00    8.830E+00    8.814E+00    8.797E+00    8.781E+00    8.765E+00    8.749E+00    8.732E+00    8.716E+00
     8.699E+00    8.683E+00    8.666E+00    8.649E+00    8.633E+00    8.616E+00    8.599E+00    8.582E+00    8.565E+00    8.549E+00
     8.531E+00    8.514E+00    8.497E+00    8.480E+00    8.463E+00    8.445E+00    8.428E+00    8.410E+00    8.393E+00    8.375E+00
     8.357E+00    8.339E+00    8.321E+00    8.303E+00    8.285E+00    8.267E+00    8.249E+00    8.230E+00    8.212E+00    8.193E+00
     8.175E+00    8.156E+00    8.137E+00    8.118E+00    8.099E+00    8.080E+00    8.061E+00    8.042E+00    8.022E+00    8.003E+00
     7.983E+00    7.964E+00    7.944E+00    7.925E+00    7.905E+00    7.886E+00    7.866E+00    7.847E+00    7.828E+00    7.809E+00
     7.790E+00    7.771E+00    7.752E+00    7.734E+00    7.716E+00    7.698E+00    7.680E+00    7.662E+00    7.645E+00    7.628E+00
     7.611E+00    7.595E+00    7.579E+00    7.563E+00    7.548E+00    7.533E+00    7.519E+00    7.505E+00    7.491E+00    7.478E+00
     7.465E+00    7.453E+00    7.442E+00    7.430E+00    7.420E+00    7.410E+00    7.401E+00    7.392E+00    7.384E+00    7.376E+00
     7.369E+00    7.363E+00    7.357E+00    7.353E+00    7.348E+00    7.345E+00    7.342E+00    7.340E+00    7.339E+00    7.338E+00
     7.339E+00    7.340E+00    7.341E+00    7.344E+00    7.347E+00    7.351E+00    7.356E+00    7.362E+00    7.368E+00    7.375E+00
     7.383E+00    7.392E+00    7.402E+00    7.413E+00    7.424E+00    7.436E+00    7.449E+00    7.464E+00    7.478E+00    7.494E+00
     7.511E+00    7.529E+00    7.547E+00    7.567E+00    7.587E+00    7.608E+00    7.631E+00    7.654E+00    7.678E+00    7.703E+00
     7.729E+00    7.757E+00    7.785E+00    7.814E+00    7.844E+00    7.875E+00    7.907E+00    7.941E+00    7.975E+00    8.010E+00
     8.046E+00    8.083E+00    8.121E+00    8.160E+00    8.200E+00    8.241E+00    8.282E+00    8.324E+00    8.367E+00    8.411E+00
     8.456E+00    8.501E+00    8.547E+00    8.594E+00    8.641E+00    8.690E+00    8.738E+00    8.788E+00    8.837E+00    8.888E+00
     8.939E+00    8.991E+00    9.043E+00    9.095E+00    9.148E+00    9.202E+00    9.256E+00    9.310E+00    9.365E+00    9.420E+00
     9.475E+00    9.531E+00    9.587E+00    9.643E+00    9.700E+00    9.757E+00    9.814E+00    9.871E+00    9.928E+00    9.986E+00
     1.004E+01    1.010E+01    1.016E+01    1.022E+01    1.028E+01    1.033E+01    1.039E+01    1.045E+01    1.050E+01    1.056E+01
     1.061E+01    1.067E+01    1.072E+01    1.078E+01    1.083E+01    1.088E+01    1.093E+01    1.097E+01    1.102E+01    1.107E+01
     1.111E+01    1.115E+01    1.119E+01    1.123E+01    1.126E+01    1.130E+01    1.133E+01    1.136E+01    1.138E+01    1.141E+01
     1.143E+01    1.145E+01    1.147E+01    1.148E+01    1.149E+01    1.150E+01    1.150E+01    1.150E+01    1.150E+01    1.150E+01
     1.149E+01    1.147E+01    1.146E+01    1.144E+01    1.141E+01    1.139E+01    1.135E+01    1.132E+01    1.128E+01    1.123E+01
     1.118E+01    1.113E+01    1.108E+01    1.102E+01    1.095E+01    1.089E+01    1.081E+01    1.074E+01    1.066E+01    1.058E+01
     1.050E+01    1.041E+01    1.032E+01    1.022E+01    1.013E+01    1.003E+01    9.923E+00    9.817E+00    9.707E+00    9.596E+00
     9.481E+00    9.364E+00    9.244E+00    9.122E+00    8.997E+00    8.870E+00    8.740E+00    8.608E+00    8.474E+00    8.338E+00
     8.200E+00    8.060E+00    7.917E+00    7.773E+00    7.627E+00    7.479E+00    7.330E+00    7.179E+00    7.026E+00    6.872E+00
     6.716E+00    6.559E+00    6.401E+00    6.241E+00    6.080E+00    5.918E+00    5.755E+00    5.591E+00    5.426E+00    5.260E+00
     5.093E+00    4.926E+00    4.758E+00    4.589E+00    4.420E+00    4.250E+00    4.080E+00    3.910E+00    3.739E+00    3.569E+00
     3.398E+00    3.227E+00    3.056E+00    2.885E+00    2.714E+00    2.543E+00    2.373E+00    2.203E+00    2.034E+00    1.865E+00
     1.696E+00    1.528E+00    1.361E+00    1.194E+00    1.029E+00    8.640E-01    7.002E-01    5.373E-01    3.756E-01    2.150E-01
     5.562E-02   -1.025E-01   -2.592E-01   -4.146E-01   -5.684E-01   -7.207E-01   -8.714E-01   -1.020E+00   -1.168E+00   -1.313E+00
    -1.457E+00   -1.599E+00   -1.738E+00   -1.876E+00   -2.012E+00   -2.146E+00   -2.277E+00   -2.407E+00   -2.534E+00   -2.659E+00
    -2.782E+00   -2.902E+00   -3.020E+00   -3.135E+00   -3.248E+00   -3.359E+00   -3.466E+00   -3.571E+00   -3.674E+00   -3.773E+00
    -3.870E+00   -3.964E+00   -4.056E+00   -4.144E+00   -4.229E+00   -4.311E+00   -4.390E+00   -4.466E+00   -4.539E+00   -4.609E+00
    -4.675E+00   -4.738E+00   -4.797E+00   -4.854E+00   -4.906E+00   -4.955E+00   -5.001E+00   -5.043E+00   -5.081E+00   -5.116E+00
    -5.147E+00   -5.174E+00   -5.197E+00   -5.217E+00   -5.233E+00   -5.245E+00   -5.253E+00   -5.258E+00   -5.259E+00   -5.258E+00
    -5.252E+00   -5.244E+00   -5.233E+00   -5.218E+00   -5.201E+00   -5.180E+00   -5.157E+00   -5.132E+00   -5.103E+00   -5.072E+00
    -5.039E+00   -5.003E+00   -4.965E+00   -4.924E+00   -4.882E+00   -4.837E+00   -4.791E+00   -4.742E+00   -4.692E+00   -4.639E+00
    -4.586E+00   -4.530E+00   -4.473E+00   -4.415E+00   -4.355E+00   -4.294E+00   -4.232E+00   -4.169E+00   -4.104E+00   -4.039E+00
    -3.973E+00   -3.906E+00   -3.838E+00   -3.770E+00   -3.701E+00   -3.631E+00   -3.561E+00   -3.491E+00   -3.421E+00   -3.350E+00
    -3.279E+00   -3.208E+00   -3.137E+00   -3.066E+00   -2.994E+00   -2.923E+00   -2.851E+00   -2.779E+00   -2.708E+00   -2.636E+00
    -2.565E+00   -2.493E+00   -2.422E+00   -2.351E+00   -2.280E+00   -2.209E+00   -2.139E+00   -2.068E+00   -1.998E+00   -1.929E+00
    -1.859E+00   -1.790E+00   -1.722E+00   -1.654E+00   -1.586E+00   -1.519E+00   -1.452E+00   -1.385E+00   -1.320E+00   -1.255E+00
    -1.190E+00   -1.126E+00   -1.063E+00   -1.000E+00   -9.385E-01   -8.774E-01   -8.170E-01   -7.575E-01   -6.988E-01   -6.409E-01
    -5.839E-01   -5.278E-01   -4.726E-01   -4.184E-01   -3.651E-01   -3.127E-01   -2.612E-01   -2.106E-01   -1.607E-01   -1.117E-01
    -6.353E-02   -1.609E-02    3.060E-02    7.657E-02    1.218E-01    1.664E-01    2.104E-01    2.536E-01    2.963E-01    3.384E-01
     3.800E-01    4.209E-01    4.614E-01    5.014E-01    5.408E-01    5.799E-01    6.184E-01    6.566E-01    6.944E-01    7.318E-01
     7.689E-01    8.057E-01    8.422E-01    8.783E-01    9.143E-01    9.500E-01    9.855E-01    1.021E+00    1.056E+00    1.091E+00
     1.126E+00    1.161E+00    1.195E+00    1.230E+00    1.265E+00    1.299E+00    1.334E+00    1.368E+00
 PCr      Conc. = 9.44E+02
