 LCModel (Version 6.3-1L) Copyright: S.W. Provencher.          Ref.: Magn. Reson. Med. 30:672-679 (1993).                
 Slice#3 Row#11 Col#10  PD_24_press_1_raw_act
 36 lines in following concentration table = NCONC+1
    Conc.  %SD /Cr+PCr  Metabolite                                         
  267.531  37%   0.191 Ala                                                 
    0.000 999%   0.000 Asp                                                 
  808.307  23%   0.578 Cr                                                  
  590.953  31%   0.422 PCr                                                 
    0.000 999%   0.000 GABA                                                
   38.887 332% 2.8E-02 Glc                                                 
  672.767  31%   0.481 Gln                                                 
 1.39E+03  17%   0.996 Glu                                                 
  462.279   4%   0.330 GPC                                                 
    0.000 999%   0.000 PCh                                                 
  472.495  14%   0.338 GSH                                                 
  765.818  29%   0.547 Ins                                                 
    0.000 999%   0.000 Lac                                                 
 1.76E+03   6%   1.260 NAA                                                 
  303.238  37%   0.217 NAAG                                                
   24.742  92% 1.8E-02 Scyllo                                              
    0.000 999%   0.000 Tau                                                 
    0.000 999%   0.000 -CrCH2                                              
  462.279   4%   0.330 GPC+PCh                                             
 2.07E+03   4%   1.476 NAA+NAAG                                            
 1.40E+03   4%   1.000 Cr+PCr                                              
 2.07E+03  16%   1.476 Glu+Gln                                             
    0.000 999%   0.000 Lip13a                                              
 1.66E+03  24%   1.186 Lip13b                                              
   78.640 319% 5.6E-02 Lip09                                               
 1.27E+03  22%   0.908 MM09                                                
  253.291  72%   0.181 Lip20                                               
 2.57E+03  14%   1.837 MM20                                                
  475.632  37%   0.340 MM12                                                
 1.32E+03  24%   0.945 MM14                                                
  997.079  23%   0.713 MM17                                                
 1.66E+03  24%   1.186 Lip13a+Lip13b                                       
 3.46E+03  10%   2.471 MM14+Lip13a+Lip13b+MM12                             
 1.35E+03  13%   0.964 MM09+Lip09                                          
 2.82E+03  12%   2.018 MM20+Lip20                                          
   6 lines in following misc. output table
  FWHM = 0.054 ppm    S/N =  11                                            
  Data shift = 0.023 ppm                                                   
  Ph:  14 deg       6.5 deg/ppm                                            
  alphaB,S = 1.2E+00,   1.0E+02                                            
   14 spline knots.   Ns = 7(1)                                            
  (11) 4 infls.   (10) 1 extrs.                                            
  498 points on ppm-axis = NY
      4.000000     3.992357     3.984714     3.977070     3.969427     3.961784     3.954141     3.946497     3.938854     3.931211
      3.923568     3.915925     3.908281     3.900638     3.892995     3.885352     3.877708     3.870065     3.862422     3.854779
      3.847136     3.839492     3.831849     3.824206     3.816563     3.808919     3.801276     3.793633     3.785990     3.778347
      3.770703     3.763060     3.755417     3.747774     3.740130     3.732487     3.724844     3.717201     3.709558     3.701914
      3.694271     3.686628     3.678985     3.671341     3.663698     3.656055     3.648412     3.640769     3.633125     3.625482
      3.617839     3.610196     3.602552     3.594909     3.587266     3.579623     3.571980     3.564336     3.556693     3.549050
      3.541407     3.533763     3.526120     3.518477     3.510834     3.503191     3.495547     3.487904     3.480261     3.472618
      3.464974     3.457331     3.449688     3.442045     3.434402     3.426758     3.419115     3.411472     3.403829     3.396185
      3.388542     3.380899     3.373256     3.365613     3.357969     3.350326     3.342683     3.335040     3.327396     3.319753
      3.312110     3.304467     3.296824     3.289180     3.281537     3.273894     3.266251     3.258607     3.250964     3.243321
      3.235678     3.228034     3.220391     3.212748     3.205105     3.197462     3.189818     3.182175     3.174532     3.166889
      3.159245     3.151602     3.143959     3.136316     3.128673     3.121029     3.113386     3.105743     3.098100     3.090456
      3.082813     3.075170     3.067527     3.059884     3.052240     3.044597     3.036954     3.029311     3.021667     3.014024
      3.006381     2.998738     2.991095     2.983451     2.975808     2.968165     2.960522     2.952878     2.945235     2.937592
      2.929949     2.922306     2.914662     2.907019     2.899376     2.891733     2.884089     2.876446     2.868803     2.861160
      2.853517     2.845873     2.838230     2.830587     2.822944     2.815300     2.807657     2.800014     2.792371     2.784728
      2.777084     2.769441     2.761798     2.754155     2.746511     2.738868     2.731225     2.723582     2.715939     2.708295
      2.700652     2.693009     2.685366     2.677722     2.670079     2.662436     2.654793     2.647150     2.639506     2.631863
      2.624220     2.616577     2.608933     2.601290     2.593647     2.586004     2.578361     2.570717     2.563074     2.555431
      2.547788     2.540144     2.532501     2.524858     2.517215     2.509572     2.501928     2.494285     2.486642     2.478999
      2.471355     2.463712     2.456069     2.448426     2.440783     2.433139     2.425496     2.417853     2.410210     2.402566
      2.394923     2.387280     2.379637     2.371994     2.364350     2.356707     2.349064     2.341421     2.333777     2.326134
      2.318491     2.310848     2.303205     2.295561     2.287918     2.280275     2.272632     2.264988     2.257345     2.249702
      2.242059     2.234416     2.226772     2.219129     2.211486     2.203843     2.196199     2.188556     2.180913     2.173270
      2.165627     2.157983     2.150340     2.142697     2.135054     2.127410     2.119767     2.112124     2.104481     2.096838
      2.089194     2.081551     2.073908     2.066265     2.058621     2.050978     2.043335     2.035692     2.028049     2.020405
      2.012762     2.005119     1.997476     1.989833     1.982190     1.974546     1.966903     1.959260     1.951617     1.943974
      1.936331     1.928688     1.921045     1.913402     1.905759     1.898115     1.890472     1.882829     1.875186     1.867543
      1.859900     1.852257     1.844614     1.836971     1.829327     1.821684     1.814041     1.806398     1.798755     1.791112
      1.783469     1.775826     1.768183     1.760540     1.752896     1.745253     1.737610     1.729967     1.722324     1.714681
      1.707038     1.699395     1.691752     1.684108     1.676465     1.668822     1.661179     1.653536     1.645893     1.638250
      1.630607     1.622964     1.615321     1.607677     1.600034     1.592391     1.584748     1.577105     1.569462     1.561819
      1.554176     1.546533     1.538890     1.531246     1.523603     1.515960     1.508317     1.500674     1.493031     1.485388
      1.477745     1.470102     1.462458     1.454815     1.447172     1.439529     1.431886     1.424243     1.416600     1.408957
      1.401314     1.393671     1.386027     1.378384     1.370741     1.363098     1.355455     1.347812     1.340169     1.332526
      1.324883     1.317240     1.309596     1.301953     1.294310     1.286667     1.279024     1.271381     1.263738     1.256095
      1.248452     1.240808     1.233165     1.225522     1.217879     1.210236     1.202593     1.194950     1.187307     1.179664
      1.172021     1.164377     1.156734     1.149091     1.141448     1.133805     1.126162     1.118519     1.110876     1.103233
      1.095590     1.087946     1.080303     1.072660     1.065017     1.057374     1.049731     1.042088     1.034445     1.026802
      1.019158     1.011515     1.003872     0.996229     0.988586     0.980943     0.973300     0.965657     0.958014     0.950371
      0.942727     0.935084     0.927441     0.919798     0.912155     0.904512     0.896869     0.889226     0.881583     0.873940
      0.866296     0.858653     0.851010     0.843367     0.835724     0.828081     0.820438     0.812795     0.805152     0.797508
      0.789865     0.782222     0.774579     0.766936     0.759293     0.751650     0.744007     0.736364     0.728721     0.721077
      0.713434     0.705791     0.698148     0.690505     0.682862     0.675219     0.667576     0.659933     0.652290     0.644646
      0.637003     0.629360     0.621717     0.614074     0.606431     0.598788     0.591145     0.583502     0.575858     0.568215
      0.560572     0.552929     0.545286     0.537643     0.530000     0.522357     0.514714     0.507071     0.499427     0.491784
      0.484141     0.476498     0.468855     0.461212     0.453569     0.445925     0.438282     0.430639     0.422996     0.415353
      0.407710     0.400067     0.392424     0.384780     0.377137     0.369494     0.361851     0.354208     0.346565     0.338922
      0.331278     0.323635     0.315992     0.308349     0.300706     0.293063     0.285420     0.277777     0.270133     0.262490
      0.254847     0.247204     0.239561     0.231918     0.224275     0.216631     0.208988     0.201345
 NY phased data points follow
   2.79643E+01  1.93721E+01  2.98058E+01  2.14515E+01  2.75387E+01  3.10257E+01  3.31318E+01  4.09190E+01  4.01672E+01  5.24326E+01
   4.84452E+01  5.32739E+01  4.92676E+01  4.81046E+01  4.71051E+01  3.68339E+01  4.02219E+01  2.89937E+01  3.61254E+01  2.35110E+01
   3.15371E+01  2.46858E+01  2.55709E+01  2.80732E+01  2.62682E+01  2.74288E+01  2.55540E+01  2.87267E+01  2.39233E+01  2.93913E+01
   2.62161E+01  3.12934E+01  2.65221E+01  2.65001E+01  2.45200E+01  2.40613E+01  2.82201E+01  1.68105E+01  3.01361E+01  1.80320E+01
   2.68141E+01  1.74024E+01  2.71516E+01  1.82975E+01  2.08844E+01  2.42157E+01  2.20969E+01  2.66494E+01  2.36061E+01  2.60208E+01
   2.04644E+01  2.07716E+01  2.30580E+01  1.83421E+01  2.03630E+01  1.60925E+01  2.45097E+01  1.61070E+01  2.51749E+01  1.57934E+01
   2.05905E+01  1.02598E+01  1.52824E+01  1.22337E+01  8.40138E+00  1.45014E+01  6.29746E+00  1.12375E+01  5.38458E+00  8.68513E+00
   1.05104E+01  8.18567E+00  1.13244E+01  1.01940E+01  1.18632E+01  6.12140E+00  1.38302E+01  1.03817E+01  1.65640E+01  9.99304E+00
   1.45403E+01  1.19937E+01  1.02165E+01  1.26069E+01  8.80822E+00  1.25936E+01  8.08509E+00  1.30384E+01  7.76310E+00  1.14719E+01
   1.08032E+01  8.84587E+00  1.23914E+01  9.96644E+00  1.61575E+01  4.94914E+00  1.17034E+01  6.98174E+00  1.42369E+01  2.06713E+01
   2.89963E+01  3.82970E+01  4.73257E+01  5.29863E+01  4.73826E+01  4.42130E+01  3.76172E+01  3.61905E+01  2.62369E+01  2.34927E+01
   2.03675E+01  1.61757E+01  1.65283E+01  9.48274E+00  1.19854E+01  8.64560E+00  1.24237E+01  7.16556E+00  9.77748E+00  6.68501E+00
   5.98883E+00  6.48962E+00  9.22626E+00  1.39186E+01  2.69413E+01  3.97074E+01  4.42917E+01  5.13845E+01  5.03890E+01  4.78585E+01
   4.17205E+01  3.46844E+01  3.35308E+01  2.24141E+01  2.44882E+01  1.23915E+01  1.36262E+01  1.06081E+01  1.03696E+01  6.47735E+00
   9.58633E+00  7.95913E+00  4.30865E+00  6.36151E+00  2.95935E+00  6.00027E+00  4.59617E+00  5.39603E+00  8.75574E+00  4.81409E+00
   5.24157E+00  3.62982E+00  5.42861E+00 -1.44799E-01  8.47847E+00  2.15360E+00  4.31120E+00  5.31276E+00 -6.29483E-01  3.91306E+00
   2.12111E+00  7.88946E-01 -8.84015E-01  6.11844E-01  6.45729E-01  3.57696E+00  3.40808E+00 -1.94051E-01  9.49945E-01 -3.66886E+00
  -1.13666E+00 -5.79392E+00 -7.03966E-01 -7.87660E+00 -3.38502E+00 -6.36774E+00 -5.56371E+00 -4.07603E+00 -5.49481E+00 -4.95667E+00
  -7.09108E+00 -4.45370E+00 -7.27210E+00 -6.13026E+00 -6.93637E+00 -8.60293E+00 -4.13796E+00 -4.31984E+00 -2.46524E+00 -2.88500E-02
   3.54127E+00  5.52365E+00  4.35398E+00  2.89400E+00  3.30715E+00  3.10626E+00  3.90213E+00  4.02738E+00 -2.70929E+00  4.53619E-01
  -3.10345E+00 -6.86526E-01  4.48331E+00  3.12804E+00  6.00889E+00  2.79307E-01  5.35979E+00 -1.02225E+00  1.45841E+00 -4.25539E+00
   1.82641E+00 -2.54819E-01 -3.86433E-01  4.62357E+00  7.57700E+00  1.16117E+01  1.05240E+01  1.12309E+01  8.35595E+00  9.97671E+00
   2.71093E+00  2.98624E+00 -5.77002E-01  1.14380E+00  2.49639E+00  2.32819E+00  6.37447E+00  5.52193E+00  1.05921E+01  8.60466E+00
   1.17266E+01  7.39381E+00  1.27986E+01  3.53695E+00  6.40268E+00  8.12629E+00  5.36463E+00  8.74481E+00  6.46570E+00  7.18507E+00
   2.16875E+00  1.90381E+00  2.25470E-01  7.10336E+00  6.67253E+00  6.23480E+00  1.08646E+01  7.01704E+00  1.19258E+01  8.98205E+00
   1.16988E+01  1.09329E+01  1.63595E+01  1.73595E+01  1.83285E+01  2.49969E+01  3.45110E+01  4.36247E+01  5.88727E+01  6.78337E+01
   6.64073E+01  6.88493E+01  5.86468E+01  5.04427E+01  4.28515E+01  2.98298E+01  2.43026E+01  2.09708E+01  1.41733E+01  1.17525E+01
   9.66012E+00  7.78345E+00  5.62889E+00  2.77361E+00  3.40650E+00  5.76172E+00  1.75432E+00  2.68734E+00  2.11422E+00  2.77851E+00
   4.70700E+00  2.11545E+00  2.19421E+00 -2.21369E+00  3.31276E+00 -3.24481E-01  3.93753E+00 -1.55689E+00  1.48237E+00  4.97834E-01
   2.77537E+00  5.16823E-01  1.13468E+00  9.54523E-01  2.52395E+00  2.95759E+00  1.48701E+00  6.36520E-01  5.56885E+00  4.42732E+00
   5.39693E+00  4.33654E+00  9.70127E+00  4.29671E+00  9.57187E+00  4.48109E+00  5.62060E+00  4.61491E+00  9.36395E+00  3.21140E+00
   5.42039E+00  7.02411E+00  2.97613E+00  7.60736E+00  5.69708E+00  6.12681E+00  6.81652E+00  6.89635E+00  7.81891E+00  6.95697E+00
   7.38558E+00  5.63478E+00  9.84504E+00  6.52849E+00  9.85772E+00  7.57287E+00  6.82348E+00  4.36939E+00  7.04259E+00  5.61785E+00
   1.80840E+00  3.70570E+00  4.66518E+00  5.05991E+00  5.56202E+00  5.03612E+00  5.29028E+00  7.24823E+00  8.18106E+00  6.16868E+00
   9.09243E+00  4.93285E+00  8.10755E+00  5.70821E+00  7.69782E+00  4.62067E+00  9.97960E+00  6.84340E+00  7.26294E+00  6.74232E+00
   7.74596E+00  9.83411E+00  1.29365E+01  1.49918E+01  1.24172E+01  1.27615E+01  1.52896E+01  8.36225E+00  1.27564E+01  9.01562E+00
   1.71112E+01  1.04784E+01  1.29111E+01  1.14143E+01  1.20824E+01  1.07814E+01  1.07188E+01  6.79891E+00  9.36127E+00  8.19814E+00
   6.70161E+00  6.87079E+00  5.85896E+00  6.31090E+00  4.38580E+00  4.27000E+00  4.85063E+00  4.16354E+00  1.92261E+00  2.27723E+00
   1.22601E+00  8.42600E-01  4.24381E+00  3.82323E+00  5.98893E+00  2.10187E+00  1.99556E+00  2.43732E+00  3.36932E+00  2.24369E+00
   1.93768E+00  7.04582E+00  2.69744E+00  6.40204E+00  3.21671E+00  3.37881E+00  6.62702E+00  5.07941E+00  3.52077E+00  3.80584E+00
   7.29994E+00  5.28485E+00  6.85081E+00  8.36054E+00  8.78481E+00  7.68713E+00  9.48303E+00  8.68930E+00  7.68085E+00  1.24711E+01
   6.82215E+00  9.84453E+00  7.43435E+00  6.07930E+00  7.84748E+00  5.13294E+00  7.63560E+00  2.34971E+00  2.01803E+00  1.06227E+00
   6.42797E+00  2.36299E+00  3.45505E+00  4.26438E+00  2.73940E+00  1.07877E+00  4.05411E-01  4.51083E+00  2.40585E+00 -1.06249E+00
   1.75337E+00  2.22736E+00  2.64799E-01  5.51356E-02  1.38273E+00  1.97640E+00  8.47163E-01  1.59386E+00  1.23507E+00  2.69538E+00
   1.84351E+00  6.46379E-01 -4.29829E-01  1.01809E+00 -1.21462E+00 -6.12120E-01 -1.03621E+00  7.53783E-01 -2.95859E+00  2.02479E+00
  -5.72510E-01  4.86949E-01 -8.15760E-01 -3.42441E-01  4.01083E-01 -3.33342E+00  2.62234E+00 -2.27454E+00  2.15812E+00  4.90241E-01
   1.99577E+00 -1.47070E+00 -8.33205E-01  1.55436E+00 -3.34557E+00  1.57124E+00  1.34638E+00 -1.76684E+00 -2.14311E+00  3.22181E+00
  -1.26515E+00 -3.02188E+00  3.22275E+00 -1.35733E+00  3.38258E+00 -2.62989E+00  2.72889E+00  5.89527E-01  1.72978E+00 -3.31086E+00
  -1.07201E+00  1.26126E+00 -2.43541E+00  1.86894E+00 -1.34895E+00  1.52221E+00 -5.38955E-01  2.40249E+00  2.43879E+00 -7.90754E-01
   1.18511E+00 -1.32863E+00 -7.61711E-01 -2.80137E+00  1.25157E+00 -3.66551E+00  7.41636E-01  4.78563E-01
 NY points of the fit to the data follow
   2.41852E+01  2.38784E+01  2.38937E+01  2.43201E+01  2.55906E+01  2.80175E+01  3.17297E+01  3.66166E+01  4.19543E+01  4.66923E+01
   4.98146E+01  5.07195E+01  4.94597E+01  4.66321E+01  4.30043E+01  3.92536E+01  3.56181E+01  3.21226E+01  2.91733E+01  2.69206E+01
   2.47758E+01  2.33978E+01  2.28125E+01  2.23536E+01  2.22139E+01  2.26856E+01  2.38540E+01  2.55359E+01  2.73251E+01  2.88470E+01
   2.98294E+01  3.00998E+01  2.95418E+01  2.82161E+01  2.64671E+01  2.46513E+01  2.28959E+01  2.11178E+01  1.97826E+01  1.93146E+01
   1.91185E+01  1.91154E+01  1.95401E+01  2.04673E+01  2.17231E+01  2.28751E+01  2.36026E+01  2.36756E+01  2.30754E+01  2.20844E+01
   2.09525E+01  1.97659E+01  1.87234E+01  1.79445E+01  1.72504E+01  1.65987E+01  1.62899E+01  1.63957E+01  1.65992E+01  1.66287E+01
   1.64372E+01  1.60277E+01  1.54786E+01  1.48902E+01  1.43813E+01  1.40418E+01  1.38597E+01  1.37666E+01  1.37557E+01  1.38225E+01
   1.39096E+01  1.39762E+01  1.39646E+01  1.38669E+01  1.36941E+01  1.34636E+01  1.32100E+01  1.29598E+01  1.27224E+01  1.24802E+01
   1.22668E+01  1.21655E+01  1.21284E+01  1.20403E+01  1.18012E+01  1.13860E+01  1.08602E+01  1.03394E+01  9.93970E+00  9.72544E+00
   9.70074E+00  9.83037E+00  1.00290E+01  1.01849E+01  1.02605E+01  1.03511E+01  1.04917E+01  1.12190E+01  1.42701E+01  2.06965E+01
   2.98616E+01  3.96033E+01  4.71461E+01  5.06269E+01  4.98149E+01  4.58181E+01  4.01849E+01  3.42463E+01  2.88151E+01  2.42617E+01
   1.99430E+01  1.49492E+01  1.06440E+01  9.10248E+00  8.72995E+00  8.58801E+00  8.51413E+00  8.48276E+00  8.51134E+00  8.64248E+00
   8.91932E+00  9.77357E+00  1.27059E+01  1.89155E+01  2.80461E+01  3.81813E+01  4.66153E+01  5.13142E+01  5.17749E+01  4.87849E+01
   4.36626E+01  3.76321E+01  3.15047E+01  2.58334E+01  2.04238E+01  1.46373E+01  9.55527E+00  7.37699E+00  7.14125E+00  7.37021E+00
   7.55726E+00  7.57016E+00  7.53042E+00  7.47691E+00  7.33726E+00  7.12509E+00  6.83200E+00  6.43657E+00  5.98630E+00  5.48534E+00
   5.02669E+00  4.65435E+00  4.36268E+00  4.17527E+00  4.09286E+00  4.02652E+00  3.85210E+00  3.51381E+00  3.05464E+00  2.62393E+00
   2.37323E+00  2.33921E+00  2.42877E+00  2.46113E+00  2.30144E+00  1.95194E+00  1.47973E+00  1.00577E+00  6.70896E-01  4.71060E-01
   2.04871E-01 -2.56982E-01 -8.81361E-01 -1.49551E+00 -1.84414E+00 -1.93489E+00 -1.92187E+00 -1.90990E+00 -1.95619E+00 -2.06562E+00
  -2.18136E+00 -2.28657E+00 -2.38797E+00 -2.39233E+00 -2.18901E+00 -1.73107E+00 -9.43875E-01  2.35179E-01  1.59693E+00  2.81798E+00
   3.54099E+00  3.63262E+00  3.19919E+00  2.45864E+00  1.66517E+00  1.04360E+00  6.73613E-01  6.76577E-01  1.16757E+00  2.08622E+00
   3.31085E+00  4.65189E+00  5.77739E+00  6.37337E+00  6.20732E+00  5.15936E+00  3.36659E+00  1.16424E+00 -9.04755E-01 -2.36760E+00
  -2.85579E+00 -2.10701E+00 -2.22318E-01  2.34588E+00  4.90591E+00  6.78827E+00  7.54444E+00  7.01093E+00  5.31121E+00  2.69073E+00
   3.67060E-03 -1.84382E+00 -2.57426E+00 -2.29847E+00 -1.29675E+00  2.29609E-01  2.00087E+00  3.39631E+00  4.28232E+00  4.87194E+00
   5.44308E+00  6.01349E+00  6.38929E+00  6.66052E+00  7.06556E+00  7.52279E+00  7.85873E+00  7.92400E+00  7.64778E+00  7.11823E+00
   6.45719E+00  5.87523E+00  5.66213E+00  5.94385E+00  6.54640E+00  7.16892E+00  7.76512E+00  8.28016E+00  8.62712E+00  8.97933E+00
   9.87592E+00  1.16816E+01  1.40990E+01  1.66499E+01  1.99079E+01  2.57129E+01  3.48750E+01  4.64619E+01  5.78600E+01  6.58900E+01
   6.85802E+01  6.59728E+01  5.95040E+01  5.09309E+01  4.19930E+01  3.42890E+01  2.80087E+01  2.17082E+01  1.43984E+01  8.72999E+00
   6.59993E+00  5.68932E+00  5.11531E+00  4.71602E+00  4.42359E+00  4.11396E+00  3.78355E+00  3.45368E+00  3.13379E+00  2.84327E+00
   2.60028E+00  2.38766E+00  2.18435E+00  2.00768E+00  1.87668E+00  1.77895E+00  1.69768E+00  1.64087E+00  1.62924E+00  1.67256E+00
   1.75748E+00  1.87795E+00  2.03815E+00  2.23451E+00  2.45548E+00  2.69830E+00  2.96295E+00  3.25124E+00  3.56213E+00  3.88861E+00
   4.22155E+00  4.55786E+00  4.88909E+00  5.20441E+00  5.49366E+00  5.74956E+00  5.96831E+00  6.14570E+00  6.27541E+00  6.35834E+00
   6.39821E+00  6.39902E+00  6.36726E+00  6.31144E+00  6.24062E+00  6.16481E+00  6.09496E+00  6.04305E+00  6.02271E+00  6.05094E+00
   6.15963E+00  6.44094E+00  6.92936E+00  7.48272E+00  7.86236E+00  7.84566E+00  7.34624E+00  6.45039E+00  5.31584E+00  4.15153E+00
   3.25480E+00  2.86754E+00  3.08713E+00  3.79395E+00  4.68698E+00  5.56955E+00  6.45415E+00  7.17272E+00  7.56529E+00  7.72602E+00
   7.77377E+00  7.80938E+00  7.80016E+00  7.62237E+00  7.41832E+00  7.42489E+00  7.59842E+00  7.90008E+00  8.31416E+00  8.82802E+00
   9.42545E+00  1.00840E+01  1.07741E+01  1.14599E+01  1.21012E+01  1.26567E+01  1.30876E+01  1.33615E+01  1.34562E+01  1.33615E+01
   1.30806E+01  1.26293E+01  1.20333E+01  1.13258E+01  1.05431E+01  9.72120E+00  8.89264E+00  8.08462E+00  7.31773E+00  6.60594E+00
   5.95717E+00  5.37442E+00  4.85713E+00  4.40237E+00  4.00605E+00  3.66366E+00  3.37089E+00  3.12399E+00  2.91996E+00  2.75657E+00
   2.63230E+00  2.54628E+00  2.49811E+00  2.48783E+00  2.51575E+00  2.58231E+00  2.68801E+00  2.83316E+00  3.01782E+00  3.24162E+00
   3.50360E+00  3.80206E+00  4.13438E+00  4.49689E+00  4.88482E+00  5.29227E+00  5.71217E+00  6.13645E+00  6.55614E+00  6.96162E+00
   7.34299E+00  7.69038E+00  7.99438E+00  8.24641E+00  8.43913E+00  8.56678E+00  8.62545E+00  8.61329E+00  8.53055E+00  8.37956E+00
   8.16459E+00  7.89158E+00  7.56789E+00  7.20190E+00  6.80257E+00  6.37908E+00  5.94046E+00  5.49523E+00  5.05118E+00  4.61512E+00
   4.19278E+00  3.78873E+00  3.40642E+00  3.04824E+00  2.71559E+00  2.40901E+00  2.12834E+00  1.87285E+00  1.64140E+00  1.43254E+00
   1.24466E+00  1.07604E+00  9.24931E-01  7.89632E-01  6.68530E-01  5.60125E-01  4.63033E-01  3.75993E-01  2.97870E-01  2.27659E-01
   1.64478E-01  1.07553E-01  5.61936E-02  9.79459E-03 -3.21757E-02 -7.01768E-02 -1.04609E-01 -1.35823E-01 -1.64135E-01 -1.89825E-01
  -2.13137E-01 -2.34281E-01 -2.53438E-01 -2.70775E-01 -2.86444E-01 -3.00586E-01 -3.13319E-01 -3.24750E-01 -3.34973E-01 -3.44080E-01
  -3.52156E-01 -3.59275E-01 -3.65498E-01 -3.70879E-01 -3.75474E-01 -3.79341E-01 -3.82533E-01 -3.85089E-01 -3.87048E-01 -3.88440E-01
  -3.89303E-01 -3.89670E-01 -3.89573E-01 -3.89035E-01 -3.88077E-01 -3.86722E-01 -3.84996E-01 -3.82927E-01 -3.80533E-01 -3.77831E-01
  -3.74834E-01 -3.71561E-01 -3.68032E-01 -3.64266E-01 -3.60276E-01 -3.56069E-01 -3.51658E-01 -3.47060E-01 -3.42292E-01 -3.37368E-01
  -3.32296E-01 -3.27085E-01 -3.21747E-01 -3.16298E-01 -3.10756E-01 -3.05130E-01 -2.99427E-01 -2.93659E-01
 NY background values follow
     2.030E+01    2.017E+01    2.004E+01    1.991E+01    1.978E+01    1.965E+01    1.952E+01    1.939E+01    1.926E+01    1.913E+01
     1.900E+01    1.887E+01    1.874E+01    1.861E+01    1.848E+01    1.835E+01    1.822E+01    1.809E+01    1.796E+01    1.783E+01
     1.770E+01    1.757E+01    1.744E+01    1.731E+01    1.718E+01    1.705E+01    1.692E+01    1.679E+01    1.666E+01    1.653E+01
     1.640E+01    1.627E+01    1.615E+01    1.602E+01    1.589E+01    1.576E+01    1.563E+01    1.550E+01    1.537E+01    1.524E+01
     1.512E+01    1.499E+01    1.486E+01    1.473E+01    1.461E+01    1.448E+01    1.435E+01    1.422E+01    1.410E+01    1.397E+01
     1.384E+01    1.372E+01    1.359E+01    1.347E+01    1.334E+01    1.321E+01    1.309E+01    1.296E+01    1.284E+01    1.271E+01
     1.259E+01    1.247E+01    1.234E+01    1.222E+01    1.210E+01    1.197E+01    1.185E+01    1.173E+01    1.161E+01    1.149E+01
     1.136E+01    1.124E+01    1.112E+01    1.100E+01    1.088E+01    1.076E+01    1.065E+01    1.053E+01    1.041E+01    1.029E+01
     1.017E+01    1.006E+01    9.940E+00    9.824E+00    9.708E+00    9.593E+00    9.478E+00    9.363E+00    9.249E+00    9.136E+00
     9.023E+00    8.911E+00    8.799E+00    8.687E+00    8.576E+00    8.466E+00    8.356E+00    8.246E+00    8.137E+00    8.029E+00
     7.921E+00    7.813E+00    7.706E+00    7.600E+00    7.494E+00    7.389E+00    7.284E+00    7.180E+00    7.076E+00    6.973E+00
     6.870E+00    6.768E+00    6.667E+00    6.566E+00    6.465E+00    6.365E+00    6.266E+00    6.167E+00    6.069E+00    5.972E+00
     5.875E+00    5.778E+00    5.682E+00    5.587E+00    5.492E+00    5.398E+00    5.305E+00    5.212E+00    5.119E+00    5.028E+00
     4.937E+00    4.846E+00    4.756E+00    4.667E+00    4.578E+00    4.490E+00    4.403E+00    4.316E+00    4.230E+00    4.145E+00
     4.060E+00    3.975E+00    3.892E+00    3.809E+00    3.726E+00    3.645E+00    3.564E+00    3.483E+00    3.403E+00    3.324E+00
     3.246E+00    3.168E+00    3.091E+00    3.014E+00    2.938E+00    2.863E+00    2.788E+00    2.714E+00    2.641E+00    2.568E+00
     2.496E+00    2.425E+00    2.354E+00    2.284E+00    2.215E+00    2.146E+00    2.078E+00    2.011E+00    1.944E+00    1.878E+00
     1.813E+00    1.748E+00    1.684E+00    1.621E+00    1.558E+00    1.496E+00    1.435E+00    1.374E+00    1.314E+00    1.255E+00
     1.196E+00    1.138E+00    1.081E+00    1.025E+00    9.687E-01    9.134E-01    8.589E-01    8.050E-01    7.517E-01    6.991E-01
     6.471E-01    5.957E-01    5.450E-01    4.948E-01    4.453E-01    3.963E-01    3.479E-01    3.001E-01    2.529E-01    2.062E-01
     1.601E-01    1.146E-01    6.958E-02    2.511E-02   -1.883E-02   -6.225E-02   -1.052E-01   -1.476E-01   -1.894E-01   -2.309E-01
    -2.718E-01   -3.122E-01   -3.522E-01   -3.916E-01   -4.307E-01   -4.693E-01   -5.074E-01   -5.451E-01   -5.824E-01   -6.192E-01
    -6.556E-01   -6.917E-01   -7.273E-01   -7.625E-01   -7.973E-01   -8.318E-01   -8.658E-01   -8.995E-01   -9.329E-01   -9.658E-01
    -9.984E-01   -1.031E+00   -1.063E+00   -1.094E+00   -1.125E+00   -1.156E+00   -1.186E+00   -1.216E+00   -1.246E+00   -1.275E+00
    -1.304E+00   -1.333E+00   -1.361E+00   -1.389E+00   -1.417E+00   -1.444E+00   -1.471E+00   -1.497E+00   -1.523E+00   -1.549E+00
    -1.575E+00   -1.600E+00   -1.625E+00   -1.649E+00   -1.673E+00   -1.697E+00   -1.720E+00   -1.743E+00   -1.766E+00   -1.788E+00
    -1.810E+00   -1.831E+00   -1.853E+00   -1.874E+00   -1.894E+00   -1.915E+00   -1.934E+00   -1.954E+00   -1.973E+00   -1.992E+00
    -2.011E+00   -2.029E+00   -2.047E+00   -2.064E+00   -2.082E+00   -2.098E+00   -2.115E+00   -2.131E+00   -2.147E+00   -2.163E+00
    -2.178E+00   -2.193E+00   -2.208E+00   -2.222E+00   -2.236E+00   -2.250E+00   -2.263E+00   -2.276E+00   -2.289E+00   -2.302E+00
    -2.314E+00   -2.326E+00   -2.338E+00   -2.349E+00   -2.360E+00   -2.371E+00   -2.381E+00   -2.391E+00   -2.401E+00   -2.411E+00
    -2.420E+00   -2.429E+00   -2.438E+00   -2.447E+00   -2.455E+00   -2.463E+00   -2.471E+00   -2.478E+00   -2.486E+00   -2.493E+00
    -2.499E+00   -2.506E+00   -2.512E+00   -2.518E+00   -2.524E+00   -2.529E+00   -2.535E+00   -2.540E+00   -2.544E+00   -2.549E+00
    -2.553E+00   -2.557E+00   -2.561E+00   -2.565E+00   -2.568E+00   -2.571E+00   -2.574E+00   -2.577E+00   -2.579E+00   -2.582E+00
    -2.584E+00   -2.586E+00   -2.587E+00   -2.589E+00   -2.590E+00   -2.591E+00   -2.592E+00   -2.592E+00   -2.593E+00   -2.593E+00
    -2.593E+00   -2.593E+00   -2.592E+00   -2.592E+00   -2.591E+00   -2.590E+00   -2.589E+00   -2.587E+00   -2.586E+00   -2.584E+00
    -2.582E+00   -2.580E+00   -2.578E+00   -2.575E+00   -2.573E+00   -2.570E+00   -2.567E+00   -2.564E+00   -2.560E+00   -2.557E+00
    -2.553E+00   -2.549E+00   -2.545E+00   -2.541E+00   -2.537E+00   -2.533E+00   -2.528E+00   -2.523E+00   -2.518E+00   -2.513E+00
    -2.508E+00   -2.503E+00   -2.497E+00   -2.491E+00   -2.486E+00   -2.480E+00   -2.474E+00   -2.467E+00   -2.461E+00   -2.454E+00
    -2.448E+00   -2.441E+00   -2.434E+00   -2.427E+00   -2.419E+00   -2.412E+00   -2.405E+00   -2.397E+00   -2.389E+00   -2.381E+00
    -2.373E+00   -2.365E+00   -2.357E+00   -2.348E+00   -2.340E+00   -2.331E+00   -2.322E+00   -2.313E+00   -2.304E+00   -2.295E+00
    -2.285E+00   -2.276E+00   -2.266E+00   -2.257E+00   -2.247E+00   -2.237E+00   -2.227E+00   -2.217E+00   -2.207E+00   -2.196E+00
    -2.186E+00   -2.175E+00   -2.164E+00   -2.154E+00   -2.143E+00   -2.132E+00   -2.121E+00   -2.109E+00   -2.098E+00   -2.087E+00
    -2.075E+00   -2.064E+00   -2.052E+00   -2.040E+00   -2.028E+00   -2.016E+00   -2.004E+00   -1.992E+00   -1.980E+00   -1.968E+00
    -1.956E+00   -1.943E+00   -1.931E+00   -1.919E+00   -1.906E+00   -1.893E+00   -1.881E+00   -1.868E+00   -1.855E+00   -1.842E+00
    -1.830E+00   -1.817E+00   -1.804E+00   -1.791E+00   -1.778E+00   -1.764E+00   -1.751E+00   -1.738E+00   -1.725E+00   -1.712E+00
    -1.698E+00   -1.685E+00   -1.672E+00   -1.658E+00   -1.645E+00   -1.631E+00   -1.618E+00   -1.605E+00   -1.591E+00   -1.578E+00
    -1.564E+00   -1.550E+00   -1.537E+00   -1.523E+00   -1.510E+00   -1.496E+00   -1.482E+00   -1.469E+00   -1.455E+00   -1.441E+00
    -1.428E+00   -1.414E+00   -1.400E+00   -1.386E+00   -1.373E+00   -1.359E+00   -1.345E+00   -1.331E+00   -1.318E+00   -1.304E+00
    -1.290E+00   -1.276E+00   -1.263E+00   -1.249E+00   -1.235E+00   -1.221E+00   -1.207E+00   -1.194E+00   -1.180E+00   -1.166E+00
    -1.152E+00   -1.138E+00   -1.125E+00   -1.111E+00   -1.097E+00   -1.083E+00   -1.070E+00   -1.056E+00
 Ala      Conc. = 2.68E+02
