 LCModel (Version 6.3-1L) Copyright: S.W. Provencher.          Ref.: Magn. Reson. Med. 30:672-679 (1993).                
 Slice#1 Row#7 Col#14  PD_24_press_1_raw_act
 36 lines in following concentration table = NCONC+1
    Conc.  %SD /Cr+PCr  Metabolite                                         
 2.04E+03  38% 132.384 Ala                                                 
    0.875 999% 5.7E-02 Asp                                                 
    0.000 999%   0.000 Cr                                                  
   15.380 254%   1.000 PCr                                                 
 8.06E-02 999% 5.2E-03 GABA                                                
 3.41E-02 999% 2.2E-03 Glc                                                 
    0.000 999%   0.000 Gln                                                 
 1.11E+03  45%  72.244 Glu                                                 
    0.000 999%   0.000 GPC                                                 
    0.000 999%   0.000 PCh                                                 
    0.000 999%   0.000 GSH                                                 
    0.000 999%   0.000 Ins                                                 
    0.000 999%   0.000 Lac                                                 
    0.000 999%   0.000 NAA                                                 
    0.000 999%   0.000 NAAG                                                
    0.000 999%   0.000 Scyllo                                              
    0.000 999%   0.000 Tau                                                 
    5.702 318%   0.371 -CrCH2                                              
    0.000 999%   0.000 GPC+PCh                                             
    0.000 999%   0.000 NAA+NAAG                                            
   15.380 254%   1.000 Cr+PCr                                              
 1.11E+03  45%  72.244 Glu+Gln                                             
 2.13E+04  13% 1.4E+03 Lip13a                                              
    0.000 999%   0.000 Lip13b                                              
 7.72E+03  11% 502.085 Lip09                                               
 4.07E+03  21% 264.560 MM09                                                
  265.620  87%  17.270 Lip20                                               
    0.000 999%   0.000 MM20                                                
 3.58E+03  26% 233.025 MM12                                                
 5.65E+03  23% 367.463 MM14                                                
  797.317  47%  51.841 MM17                                                
 2.13E+04  13% 1.4E+03 Lip13a+Lip13b                                       
 3.05E+04   8% 2.0E+03 MM14+Lip13a+Lip13b+MM12                             
 1.18E+04   8% 766.645 MM09+Lip09                                          
  265.620  87%  17.270 MM20+Lip20                                          
   6 lines in following misc. output table
  FWHM = 0.168 ppm    S/N =  21                                            
  Data shift = 0.245 ppm                                                   
  Ph:  29 deg       2.1 deg/ppm                                            
  alphaB,S = 8.5E+01,   4.0E+02                                            
    6 spline knots.   Ns = 9(2)                                            
   2 inflections.     1 extrema                                            
  498 points on ppm-axis = NY
      4.000000     3.992357     3.984714     3.977070     3.969427     3.961784     3.954141     3.946497     3.938854     3.931211
      3.923568     3.915925     3.908281     3.900638     3.892995     3.885352     3.877708     3.870065     3.862422     3.854779
      3.847136     3.839492     3.831849     3.824206     3.816563     3.808919     3.801276     3.793633     3.785990     3.778347
      3.770703     3.763060     3.755417     3.747774     3.740130     3.732487     3.724844     3.717201     3.709558     3.701914
      3.694271     3.686628     3.678985     3.671341     3.663698     3.656055     3.648412     3.640769     3.633125     3.625482
      3.617839     3.610196     3.602552     3.594909     3.587266     3.579623     3.571980     3.564336     3.556693     3.549050
      3.541407     3.533763     3.526120     3.518477     3.510834     3.503191     3.495547     3.487904     3.480261     3.472618
      3.464974     3.457331     3.449688     3.442045     3.434402     3.426758     3.419115     3.411472     3.403829     3.396185
      3.388542     3.380899     3.373256     3.365613     3.357969     3.350326     3.342683     3.335040     3.327396     3.319753
      3.312110     3.304467     3.296824     3.289180     3.281537     3.273894     3.266251     3.258607     3.250964     3.243321
      3.235678     3.228034     3.220391     3.212748     3.205105     3.197462     3.189818     3.182175     3.174532     3.166889
      3.159245     3.151602     3.143959     3.136316     3.128673     3.121029     3.113386     3.105743     3.098100     3.090456
      3.082813     3.075170     3.067527     3.059884     3.052240     3.044597     3.036954     3.029311     3.021667     3.014024
      3.006381     2.998738     2.991095     2.983451     2.975808     2.968165     2.960522     2.952878     2.945235     2.937592
      2.929949     2.922306     2.914662     2.907019     2.899376     2.891733     2.884089     2.876446     2.868803     2.861160
      2.853517     2.845873     2.838230     2.830587     2.822944     2.815300     2.807657     2.800014     2.792371     2.784728
      2.777084     2.769441     2.761798     2.754155     2.746511     2.738868     2.731225     2.723582     2.715939     2.708295
      2.700652     2.693009     2.685366     2.677722     2.670079     2.662436     2.654793     2.647150     2.639506     2.631863
      2.624220     2.616577     2.608933     2.601290     2.593647     2.586004     2.578361     2.570717     2.563074     2.555431
      2.547788     2.540144     2.532501     2.524858     2.517215     2.509572     2.501928     2.494285     2.486642     2.478999
      2.471355     2.463712     2.456069     2.448426     2.440783     2.433139     2.425496     2.417853     2.410210     2.402566
      2.394923     2.387280     2.379637     2.371994     2.364350     2.356707     2.349064     2.341421     2.333777     2.326134
      2.318491     2.310848     2.303205     2.295561     2.287918     2.280275     2.272632     2.264988     2.257345     2.249702
      2.242059     2.234416     2.226772     2.219129     2.211486     2.203843     2.196199     2.188556     2.180913     2.173270
      2.165627     2.157983     2.150340     2.142697     2.135054     2.127410     2.119767     2.112124     2.104481     2.096838
      2.089194     2.081551     2.073908     2.066265     2.058621     2.050978     2.043335     2.035692     2.028049     2.020405
      2.012762     2.005119     1.997476     1.989833     1.982190     1.974546     1.966903     1.959260     1.951617     1.943974
      1.936331     1.928688     1.921045     1.913402     1.905759     1.898115     1.890472     1.882829     1.875186     1.867543
      1.859900     1.852257     1.844614     1.836971     1.829327     1.821684     1.814041     1.806398     1.798755     1.791112
      1.783469     1.775826     1.768183     1.760540     1.752896     1.745253     1.737610     1.729967     1.722324     1.714681
      1.707038     1.699395     1.691752     1.684108     1.676465     1.668822     1.661179     1.653536     1.645893     1.638250
      1.630607     1.622964     1.615321     1.607677     1.600034     1.592391     1.584748     1.577105     1.569462     1.561819
      1.554176     1.546533     1.538890     1.531246     1.523603     1.515960     1.508317     1.500674     1.493031     1.485388
      1.477745     1.470102     1.462458     1.454815     1.447172     1.439529     1.431886     1.424243     1.416600     1.408957
      1.401314     1.393671     1.386027     1.378384     1.370741     1.363098     1.355455     1.347812     1.340169     1.332526
      1.324883     1.317240     1.309596     1.301953     1.294310     1.286667     1.279024     1.271381     1.263738     1.256095
      1.248452     1.240808     1.233165     1.225522     1.217879     1.210236     1.202593     1.194950     1.187307     1.179664
      1.172021     1.164377     1.156734     1.149091     1.141448     1.133805     1.126162     1.118519     1.110876     1.103233
      1.095590     1.087946     1.080303     1.072660     1.065017     1.057374     1.049731     1.042088     1.034445     1.026802
      1.019158     1.011515     1.003872     0.996229     0.988586     0.980943     0.973300     0.965657     0.958014     0.950371
      0.942727     0.935084     0.927441     0.919798     0.912155     0.904512     0.896869     0.889226     0.881583     0.873940
      0.866296     0.858653     0.851010     0.843367     0.835724     0.828081     0.820438     0.812795     0.805152     0.797508
      0.789865     0.782222     0.774579     0.766936     0.759293     0.751650     0.744007     0.736364     0.728721     0.721077
      0.713434     0.705791     0.698148     0.690505     0.682862     0.675219     0.667576     0.659933     0.652290     0.644646
      0.637003     0.629360     0.621717     0.614074     0.606431     0.598788     0.591145     0.583502     0.575858     0.568215
      0.560572     0.552929     0.545286     0.537643     0.530000     0.522357     0.514714     0.507071     0.499427     0.491784
      0.484141     0.476498     0.468855     0.461212     0.453569     0.445925     0.438282     0.430639     0.422996     0.415353
      0.407710     0.400067     0.392424     0.384780     0.377137     0.369494     0.361851     0.354208     0.346565     0.338922
      0.331278     0.323635     0.315992     0.308349     0.300706     0.293063     0.285420     0.277777     0.270133     0.262490
      0.254847     0.247204     0.239561     0.231918     0.224275     0.216631     0.208988     0.201345
 NY phased data points follow
   3.51987E+00  2.05922E+00  3.07416E+00  3.19573E+00  2.07094E+00  9.15415E-01  2.25040E+00  2.15637E+00  3.24756E+00  3.19491E+00
   3.74806E+00  2.32302E+00  4.79396E+00  2.74281E+00  1.91335E+00  1.65152E+00  1.58922E+00  1.06407E+00  2.77267E+00  1.43076E+00
   3.43107E-01  1.28091E+00  1.45023E+00  2.35118E+00  3.57896E+00  7.06924E-01  1.51564E+00  1.70857E+00  1.80506E+00  1.51203E+00
   3.35328E+00  2.53191E+00  4.59083E+00  4.11844E+00  1.15231E+00  3.96332E+00  1.90861E+00  3.19061E+00  3.35135E+00  3.97298E+00
   2.27802E+00  3.56373E-01  4.27591E+00  2.66328E+00  3.49495E+00  4.27990E+00  2.15584E+00  2.81109E+00  2.04139E+00  3.64532E+00
  -3.88111E-02  2.23871E+00  3.55432E+00  2.49309E+00 -5.65784E-01  2.60942E+00  2.48023E+00 -8.22927E-02  3.68302E+00  3.20295E+00
   4.22603E+00  3.31641E+00  1.64749E+00  2.82287E+00  1.71777E+00  1.69314E+00  1.41472E+00  2.47909E+00 -1.39849E-01  1.39992E+00
  -4.88533E-01 -2.61616E+00 -1.62215E+00  2.48665E+00  3.61753E+00  4.03986E+00  8.05027E-01  3.42987E+00  2.65628E+00  4.23654E-01
   3.35952E+00  9.68248E-01  3.67337E+00  2.81655E+00  2.13406E+00  3.39153E+00  3.09654E+00  2.56523E+00  2.80422E+00  3.43797E+00
   1.93748E+00  1.16200E+00  3.24612E+00  5.78703E-01  1.85762E-01 -2.33579E+00 -1.00826E+00 -1.44100E+00  2.37234E+00  8.62454E-01
   2.20844E+00  2.03197E+00  2.97483E+00  1.16106E+00  5.13155E+00  2.75347E+00  2.82381E+00  2.39082E+00  1.75488E+00  3.49276E+00
   2.24823E+00  2.77487E+00  2.51809E+00  2.44014E+00  1.99475E-01  2.41659E+00  2.39620E+00  4.07083E+00  1.32134E+00  4.16284E+00
   7.65040E-01  2.29049E+00  1.69744E+00  2.80026E+00  2.40484E+00  9.22430E-02 -4.77927E-01  1.81387E+00  2.35597E+00  5.71092E+00
   1.55602E+00  5.30460E+00  2.09769E+00  3.79489E+00  2.00853E+00 -7.04505E-01  1.26796E+00  5.93362E+00  2.89495E+00  3.37435E+00
   1.79611E+00  2.73434E+00  4.04944E+00  3.46496E+00  4.55702E+00  3.27037E+00  3.36874E+00  8.36098E-01  2.49911E+00  2.13315E+00
   2.57770E+00  2.88244E+00  3.51723E+00  3.75386E+00  1.48842E+00  1.57262E+00  3.73167E+00  8.13112E-01  3.22053E+00 -5.12468E-01
   5.14053E+00  5.74926E+00 -2.85288E-01  3.41711E+00  2.37910E+00  1.23780E+00  2.45944E+00  1.61913E+00  2.61897E+00  2.94551E+00
   4.03776E-01  2.20577E+00  3.66082E+00  3.55562E+00  2.58331E+00  4.50408E+00  2.80610E+00  2.44049E+00  5.54309E+00  5.08417E+00
   1.07327E+00  4.62694E+00  1.36401E+00  2.70321E+00  3.20825E+00  1.61714E+00  1.37590E+00  3.74205E+00  4.40561E+00  5.90094E+00
   4.83172E+00  3.07092E+00  1.09455E+00  2.48528E+00  5.30014E+00  2.95062E+00  2.23978E+00  3.71436E+00  3.23707E+00  2.04408E+00
   6.11737E+00  4.17848E+00  3.67208E+00  3.85346E+00  3.54471E+00  3.95580E+00  1.68601E+00  4.44922E+00  3.81667E+00  3.64089E+00
   3.66420E+00  2.61235E+00  3.69619E+00  4.62157E+00  4.24822E+00  1.85795E+00  8.53229E-01  4.67517E+00  5.26186E+00  5.99208E+00
   5.51614E+00  3.04327E+00  3.50649E+00  4.02990E+00  3.64083E+00  4.42137E+00  1.21990E+00  4.58547E-01 -2.78197E-01 -3.24356E+00
  -9.87752E-01  5.14491E+00  4.21608E+00  5.41623E+00  3.73744E+00  4.17092E+00  3.98502E+00  3.11615E+00  4.67227E+00  2.79722E+00
   5.46324E+00  2.42213E+00  5.01829E+00  3.47795E+00  3.54397E+00  3.25086E+00  4.02440E+00  3.08386E+00  5.15593E+00  4.75324E+00
   3.97541E+00  4.06220E+00  1.60687E+00  5.65357E+00  7.99861E+00  5.18231E+00  5.74355E+00  3.43242E+00  4.90608E+00  5.05203E+00
   5.56558E+00  3.51142E+00  6.00765E+00  5.44808E+00  6.18886E+00  6.89079E+00  8.18767E+00  6.85300E+00  8.04544E+00  9.22047E+00
   8.88315E+00  6.56253E+00  8.66678E+00  7.89697E+00  6.41530E+00  8.14022E+00  8.57464E+00  9.53520E+00  7.29909E+00  9.53474E+00
   8.92688E+00  9.28519E+00  8.96485E+00  9.72585E+00  1.07497E+01  1.13923E+01  7.41722E+00  9.14529E+00  9.90730E+00  1.26998E+01
   1.35501E+01  9.75358E+00  1.38537E+01  1.31373E+01  1.46463E+01  1.49966E+01  1.33156E+01  1.31908E+01  1.63293E+01  1.57096E+01
   1.79108E+01  1.57065E+01  1.75086E+01  1.95550E+01  1.77042E+01  2.03913E+01  2.18422E+01  2.30243E+01  2.35632E+01  2.43873E+01
   2.84147E+01  2.81968E+01  2.81278E+01  3.03041E+01  3.07980E+01  3.37912E+01  3.22434E+01  3.50100E+01  3.50057E+01  3.58811E+01
   3.86655E+01  4.19249E+01  4.11126E+01  4.32182E+01  4.53293E+01  4.76025E+01  4.94609E+01  4.84860E+01  4.94226E+01  5.12329E+01
   5.25038E+01  5.31666E+01  5.32642E+01  5.68879E+01  5.93871E+01  5.89612E+01  5.91367E+01  6.23696E+01  6.16503E+01  6.21830E+01
   6.14883E+01  6.27882E+01  6.58223E+01  6.70452E+01  6.80661E+01  6.58180E+01  6.84470E+01  6.95923E+01  6.72736E+01  6.83860E+01
   6.83683E+01  7.17362E+01  7.09231E+01  7.14342E+01  7.20874E+01  7.00060E+01  7.20147E+01  7.34741E+01  7.32553E+01  7.56685E+01
   7.32621E+01  7.38579E+01  7.40279E+01  7.72585E+01  7.55301E+01  7.34447E+01  7.66166E+01  7.33824E+01  7.61415E+01  7.39440E+01
   7.35142E+01  7.18154E+01  7.42971E+01  7.32428E+01  7.10486E+01  7.23503E+01  7.08205E+01  6.92180E+01  7.09204E+01  7.07285E+01
   6.90845E+01  6.98657E+01  6.62551E+01  6.56931E+01  6.71675E+01  6.44736E+01  6.58111E+01  6.33098E+01  6.22739E+01  6.34015E+01
   5.97669E+01  6.15779E+01  6.10967E+01  5.75943E+01  5.76414E+01  6.00590E+01  5.60552E+01  5.80980E+01  5.67002E+01  5.41535E+01
   5.21322E+01  5.26787E+01  4.94530E+01  4.99589E+01  4.87013E+01  4.69191E+01  4.77638E+01  4.73632E+01  4.61098E+01  4.74142E+01
   4.38483E+01  4.45336E+01  4.02172E+01  4.00051E+01  3.93197E+01  3.91504E+01  3.85426E+01  3.59599E+01  3.73805E+01  3.74432E+01
   3.57031E+01  3.23563E+01  3.51633E+01  3.22294E+01  3.20624E+01  2.92635E+01  2.77501E+01  2.92401E+01  2.86327E+01  2.81068E+01
   2.68040E+01  2.43672E+01  2.60327E+01  2.26656E+01  2.10944E+01  2.37945E+01  2.19029E+01  2.00372E+01  1.82755E+01  2.07909E+01
   1.72954E+01  2.04040E+01  1.65382E+01  1.75787E+01  1.70596E+01  1.50663E+01  1.59178E+01  1.37872E+01  1.24750E+01  1.34696E+01
   1.41932E+01  1.40120E+01  1.33804E+01  1.13665E+01  1.15674E+01  1.10418E+01  9.87655E+00  9.01740E+00  9.11219E+00  8.34584E+00
   6.37726E+00  6.89083E+00  6.35536E+00  7.20196E+00  8.20229E+00  8.40825E+00  4.23840E+00  4.35403E+00  7.18531E+00  6.36441E+00
   3.75201E+00  6.45993E+00  2.55362E+00  5.70611E+00  3.42535E+00  5.14468E+00  4.18379E+00  3.72090E+00  3.97952E+00  1.23675E+00
   3.68106E+00  2.31708E+00  3.35282E+00  5.88920E-01  3.92242E+00 -1.19685E-01  3.12775E-01  1.51431E+00  3.24504E+00  4.36666E+00
  -2.34591E+00  1.03538E+00  1.53671E+00  2.27271E+00  3.98138E-02  1.61568E+00  1.31042E+00 -1.87644E+00
 NY points of the fit to the data follow
   2.48782E+00  2.49166E+00  2.43302E+00  2.46748E+00  2.40547E+00  2.49830E+00  2.47784E+00  2.68052E+00  2.63216E+00  2.89230E+00
   2.72831E+00  2.99506E+00  2.68005E+00  2.92895E+00  2.47323E+00  2.82419E+00  2.34525E+00  2.83679E+00  2.35419E+00  2.95143E+00
   2.42849E+00  3.06467E+00  2.47413E+00  3.08977E+00  2.45143E+00  3.02601E+00  2.40144E+00  2.94548E+00  2.39197E+00  2.89499E+00
   2.43190E+00  2.86835E+00  2.48924E+00  2.81343E+00  2.51697E+00  2.72644E+00  2.54014E+00  2.65305E+00  2.58379E+00  2.62190E+00
   2.64207E+00  2.61902E+00  2.70148E+00  2.60923E+00  2.72662E+00  2.59298E+00  2.73011E+00  2.59389E+00  2.68607E+00  2.52270E+00
   2.56770E+00  2.39580E+00  2.40990E+00  2.26793E+00  2.27941E+00  2.23480E+00  2.28420E+00  2.27413E+00  2.30307E+00  2.29708E+00
   2.29787E+00  2.28519E+00  2.26852E+00  2.25171E+00  2.23800E+00  2.22405E+00  2.21351E+00  2.20174E+00  2.19361E+00  2.18342E+00
   2.17707E+00  2.16801E+00  2.16294E+00  2.15469E+00  2.15047E+00  2.14292E+00  2.13925E+00  2.13256E+00  2.12938E+00  2.12357E+00
   2.12078E+00  2.11584E+00  2.11336E+00  2.10926E+00  2.10702E+00  2.10369E+00  2.10163E+00  2.09898E+00  2.09707E+00  2.09496E+00
   2.09320E+00  2.09149E+00  2.08992E+00  2.08858E+00  2.08718E+00  2.08610E+00  2.08494E+00  2.08416E+00  2.08332E+00  2.08281E+00
   2.08224E+00  2.08200E+00  2.08174E+00  2.08182E+00  2.08192E+00  2.08242E+00  2.08310E+00  2.08469E+00  2.08926E+00  2.09859E+00
   2.10462E+00  2.12181E+00  2.12628E+00  2.15011E+00  2.15115E+00  2.18047E+00  2.17715E+00  2.21094E+00  2.20331E+00  2.24127E+00
   2.22968E+00  2.27171E+00  2.25583E+00  2.30056E+00  2.28020E+00  2.32570E+00  2.30089E+00  2.34450E+00  2.31677E+00  2.35716E+00
   2.32832E+00  2.36456E+00  2.33643E+00  2.36787E+00  2.34176E+00  2.36730E+00  2.34494E+00  2.36454E+00  2.34794E+00  2.36288E+00
   2.35347E+00  2.36576E+00  2.36354E+00  2.37448E+00  2.37831E+00  2.38840E+00  2.39753E+00  2.40839E+00  2.42201E+00  2.43588E+00
   2.44891E+00  2.46136E+00  2.47254E+00  2.48286E+00  2.49158E+00  2.49932E+00  2.50521E+00  2.51021E+00  2.51315E+00  2.51532E+00
   2.51536E+00  2.51479E+00  2.51211E+00  2.50899E+00  2.50409E+00  2.49895E+00  2.49247E+00  2.48596E+00  2.47851E+00  2.47114E+00
   2.46353E+00  2.45610E+00  2.44914E+00  2.44230E+00  2.43661E+00  2.43102E+00  2.42729E+00  2.42363E+00  2.42234E+00  2.42141E+00
   2.42350E+00  2.42663E+00  2.43264E+00  2.44053E+00  2.45131E+00  2.46540E+00  2.48324E+00  2.50738E+00  2.53763E+00  2.56684E+00
   2.59776E+00  2.63654E+00  2.63616E+00  2.68390E+00  2.64141E+00  2.70794E+00  2.64469E+00  2.76435E+00  2.75365E+00  2.94150E+00
   2.94649E+00  3.17855E+00  3.14395E+00  3.37757E+00  3.22309E+00  3.40254E+00  3.14549E+00  3.31928E+00  3.00897E+00  3.21869E+00
   2.90062E+00  3.15833E+00  2.84217E+00  3.12781E+00  2.79524E+00  3.08233E+00  2.72266E+00  3.00033E+00  2.64640E+00  2.92910E+00
   2.61219E+00  2.91159E+00  2.64497E+00  2.94714E+00  2.72102E+00  2.98940E+00  2.81916E+00  3.05783E+00  2.97350E+00  3.18421E+00
   3.20344E+00  3.39938E+00  3.49368E+00  3.64156E+00  3.78625E+00  3.87688E+00  4.07647E+00  4.11359E+00  4.36994E+00  4.35026E+00
   4.58563E+00  4.50129E+00  4.71108E+00  4.57437E+00  4.75480E+00  4.59000E+00  4.79370E+00  4.67183E+00  4.88700E+00  4.81774E+00
   5.03058E+00  5.01564E+00  5.20303E+00  5.23110E+00  5.37113E+00  5.44082E+00  5.53931E+00  5.64982E+00  5.71755E+00  5.86940E+00
   5.90873E+00  6.09122E+00  6.10210E+00  6.29239E+00  6.28438E+00  6.47492E+00  6.46580E+00  6.66766E+00  6.66981E+00  6.87454E+00
   6.89052E+00  7.09463E+00  7.11791E+00  7.31436E+00  7.35822E+00  7.56141E+00  7.64538E+00  7.85726E+00  7.98416E+00  8.20596E+00
   8.37459E+00  8.61128E+00  8.83521E+00  9.10121E+00  9.38098E+00  9.67929E+00  1.00124E+01  1.03493E+01  1.07260E+01  1.11104E+01
   1.15336E+01  1.19657E+01  1.24339E+01  1.29135E+01  1.34247E+01  1.39518E+01  1.45081E+01  1.50807E+01  1.56780E+01  1.62934E+01
   1.69323E+01  1.75938E+01  1.82827E+01  1.90032E+01  1.97650E+01  2.05782E+01  2.14625E+01  2.24494E+01  2.36162E+01  2.50059E+01
   2.61742E+01  2.77462E+01  2.87461E+01  3.03536E+01  3.11114E+01  3.26395E+01  3.30922E+01  3.48673E+01  3.53692E+01  3.74675E+01
   3.81330E+01  4.04674E+01  4.12335E+01  4.36251E+01  4.44130E+01  4.66860E+01  4.74223E+01  4.94607E+01  5.01955E+01  5.20213E+01
   5.28335E+01  5.44236E+01  5.53472E+01  5.66642E+01  5.76891E+01  5.86374E+01  5.97474E+01  6.03714E+01  6.16002E+01  6.20097E+01
   6.33647E+01  6.36714E+01  6.50980E+01  6.52999E+01  6.66784E+01  6.67766E+01  6.80523E+01  6.81561E+01  6.92838E+01  6.94963E+01
   7.02819E+01  7.04244E+01  7.10126E+01  7.11616E+01  7.16051E+01  7.18335E+01  7.22170E+01  7.27024E+01  7.32182E+01  7.37278E+01
   7.42058E+01  7.46322E+01  7.49898E+01  7.52647E+01  7.54451E+01  7.55228E+01  7.54921E+01  7.53514E+01  7.51023E+01  7.47503E+01
   7.43038E+01  7.37747E+01  7.31771E+01  7.25271E+01  7.18413E+01  7.11372E+01  7.04303E+01  6.97352E+01  6.90634E+01  6.84236E+01
   6.78201E+01  6.72541E+01  6.67224E+01  6.62187E+01  6.57333E+01  6.52546E+01  6.47692E+01  6.42638E+01  6.37247E+01  6.31406E+01
   6.25014E+01  6.18006E+01  6.10338E+01  6.02011E+01  5.93047E+01  5.83506E+01  5.73467E+01  5.63034E+01  5.52318E+01  5.41442E+01
   5.30520E+01  5.19665E+01  5.08973E+01  4.98527E+01  4.88384E+01  4.78588E+01  4.69154E+01  4.60084E+01  4.51357E+01  4.42941E+01
   4.34789E+01  4.26848E+01  4.19057E+01  4.11360E+01  4.03695E+01  3.96010E+01  3.88254E+01  3.80390E+01  3.72382E+01  3.64211E+01
   3.55862E+01  3.47331E+01  3.38622E+01  3.29749E+01  3.20726E+01  3.11583E+01  3.02342E+01  2.93040E+01  2.83705E+01  2.74376E+01
   2.65082E+01  2.55861E+01  2.46740E+01  2.37750E+01  2.28917E+01  2.20266E+01  2.11813E+01  2.03581E+01  1.95578E+01  1.87820E+01
   1.80312E+01  1.73060E+01  1.66066E+01  1.59333E+01  1.52857E+01  1.46638E+01  1.40668E+01  1.34945E+01  1.29459E+01  1.24206E+01
   1.19176E+01  1.14363E+01  1.09756E+01  1.05350E+01  1.01132E+01  9.70982E+00  9.32359E+00  8.95406E+00  8.60011E+00  8.26130E+00
   7.93654E+00  7.62547E+00  7.32707E+00  7.04101E+00  6.76636E+00  6.50285E+00  6.24959E+00  6.00638E+00  5.77239E+00  5.54746E+00
   5.33084E+00  5.12240E+00  4.92144E+00  4.72789E+00  4.54108E+00  4.36098E+00  4.18696E+00  4.01904E+00  3.85662E+00  3.69974E+00
   3.54783E+00  3.40098E+00  3.25864E+00  3.12091E+00  2.98728E+00  2.85787E+00  2.73218E+00  2.61037E+00  2.49196E+00  2.37711E+00
   2.26536E+00  2.15690E+00  2.05127E+00  1.94869E+00  1.84871E+00  1.75155E+00  1.65681E+00  1.56470E+00
 NY background values follow
     1.919E+00    1.914E+00    1.909E+00    1.903E+00    1.898E+00    1.893E+00    1.888E+00    1.883E+00    1.878E+00    1.873E+00
     1.868E+00    1.864E+00    1.859E+00    1.854E+00    1.849E+00    1.844E+00    1.839E+00    1.834E+00    1.829E+00    1.824E+00
     1.819E+00    1.814E+00    1.809E+00    1.804E+00    1.799E+00    1.794E+00    1.789E+00    1.784E+00    1.779E+00    1.774E+00
     1.769E+00    1.764E+00    1.759E+00    1.755E+00    1.750E+00    1.745E+00    1.740E+00    1.735E+00    1.730E+00    1.725E+00
     1.720E+00    1.715E+00    1.710E+00    1.705E+00    1.700E+00    1.695E+00    1.690E+00    1.685E+00    1.680E+00    1.675E+00
     1.670E+00    1.665E+00    1.660E+00    1.655E+00    1.650E+00    1.645E+00    1.640E+00    1.635E+00    1.630E+00    1.625E+00
     1.620E+00    1.615E+00    1.610E+00    1.605E+00    1.600E+00    1.595E+00    1.590E+00    1.584E+00    1.579E+00    1.574E+00
     1.569E+00    1.564E+00    1.559E+00    1.554E+00    1.549E+00    1.543E+00    1.538E+00    1.533E+00    1.528E+00    1.523E+00
     1.517E+00    1.512E+00    1.507E+00    1.502E+00    1.496E+00    1.491E+00    1.486E+00    1.481E+00    1.475E+00    1.470E+00
     1.465E+00    1.459E+00    1.454E+00    1.448E+00    1.443E+00    1.438E+00    1.432E+00    1.427E+00    1.421E+00    1.416E+00
     1.410E+00    1.405E+00    1.399E+00    1.394E+00    1.388E+00    1.383E+00    1.377E+00    1.372E+00    1.366E+00    1.360E+00
     1.355E+00    1.349E+00    1.343E+00    1.338E+00    1.332E+00    1.326E+00    1.320E+00    1.315E+00    1.309E+00    1.303E+00
     1.297E+00    1.291E+00    1.285E+00    1.280E+00    1.274E+00    1.268E+00    1.262E+00    1.256E+00    1.250E+00    1.244E+00
     1.238E+00    1.232E+00    1.226E+00    1.219E+00    1.213E+00    1.207E+00    1.201E+00    1.195E+00    1.189E+00    1.182E+00
     1.176E+00    1.170E+00    1.163E+00    1.157E+00    1.151E+00    1.144E+00    1.138E+00    1.132E+00    1.125E+00    1.119E+00
     1.112E+00    1.105E+00    1.099E+00    1.092E+00    1.086E+00    1.079E+00    1.072E+00    1.066E+00    1.059E+00    1.052E+00
     1.045E+00    1.038E+00    1.032E+00    1.025E+00    1.018E+00    1.011E+00    1.004E+00    9.969E-01    9.899E-01    9.829E-01
     9.758E-01    9.686E-01    9.615E-01    9.543E-01    9.471E-01    9.399E-01    9.326E-01    9.253E-01    9.180E-01    9.106E-01
     9.033E-01    8.959E-01    8.884E-01    8.809E-01    8.734E-01    8.659E-01    8.584E-01    8.508E-01    8.432E-01    8.355E-01
     8.279E-01    8.202E-01    8.124E-01    8.047E-01    7.969E-01    7.891E-01    7.813E-01    7.734E-01    7.655E-01    7.576E-01
     7.496E-01    7.416E-01    7.336E-01    7.256E-01    7.175E-01    7.094E-01    7.013E-01    6.932E-01    6.850E-01    6.768E-01
     6.686E-01    6.603E-01    6.520E-01    6.437E-01    6.354E-01    6.270E-01    6.186E-01    6.102E-01    6.018E-01    5.933E-01
     5.848E-01    5.763E-01    5.677E-01    5.592E-01    5.506E-01    5.419E-01    5.333E-01    5.246E-01    5.159E-01    5.071E-01
     4.984E-01    4.896E-01    4.808E-01    4.719E-01    4.630E-01    4.542E-01    4.452E-01    4.363E-01    4.273E-01    4.183E-01
     4.093E-01    4.002E-01    3.912E-01    3.821E-01    3.729E-01    3.638E-01    3.546E-01    3.454E-01    3.362E-01    3.269E-01
     3.176E-01    3.083E-01    2.990E-01    2.896E-01    2.803E-01    2.709E-01    2.614E-01    2.520E-01    2.425E-01    2.330E-01
     2.235E-01    2.139E-01    2.043E-01    1.947E-01    1.851E-01    1.755E-01    1.658E-01    1.561E-01    1.464E-01    1.366E-01
     1.268E-01    1.170E-01    1.072E-01    9.737E-02    8.751E-02    7.761E-02    6.770E-02    5.776E-02    4.779E-02    3.781E-02
     2.779E-02    1.776E-02    7.702E-03   -2.380E-03   -1.248E-02   -2.261E-02   -3.276E-02   -4.294E-02   -5.314E-02   -6.336E-02
    -7.360E-02   -8.387E-02   -9.416E-02   -1.045E-01   -1.148E-01   -1.252E-01   -1.355E-01   -1.460E-01   -1.564E-01   -1.668E-01
    -1.773E-01   -1.878E-01   -1.983E-01   -2.089E-01   -2.194E-01   -2.300E-01   -2.406E-01   -2.512E-01   -2.619E-01   -2.726E-01
    -2.832E-01   -2.940E-01   -3.047E-01   -3.155E-01   -3.262E-01   -3.370E-01   -3.479E-01   -3.587E-01   -3.696E-01   -3.805E-01
    -3.914E-01   -4.023E-01   -4.133E-01   -4.242E-01   -4.352E-01   -4.463E-01   -4.573E-01   -4.684E-01   -4.794E-01   -4.905E-01
    -5.017E-01   -5.128E-01   -5.240E-01   -5.351E-01   -5.464E-01   -5.576E-01   -5.688E-01   -5.801E-01   -5.914E-01   -6.027E-01
    -6.140E-01   -6.254E-01   -6.367E-01   -6.481E-01   -6.595E-01   -6.709E-01   -6.824E-01   -6.938E-01   -7.053E-01   -7.168E-01
    -7.283E-01   -7.399E-01   -7.514E-01   -7.630E-01   -7.746E-01   -7.862E-01   -7.978E-01   -8.095E-01   -8.212E-01   -8.328E-01
    -8.445E-01   -8.563E-01   -8.680E-01   -8.797E-01   -8.915E-01   -9.033E-01   -9.151E-01   -9.269E-01   -9.388E-01   -9.506E-01
    -9.625E-01   -9.744E-01   -9.863E-01   -9.982E-01   -1.010E+00   -1.022E+00   -1.034E+00   -1.046E+00   -1.058E+00   -1.070E+00
    -1.082E+00   -1.094E+00   -1.106E+00   -1.118E+00   -1.130E+00   -1.142E+00   -1.155E+00   -1.167E+00   -1.179E+00   -1.191E+00
    -1.203E+00   -1.215E+00   -1.228E+00   -1.240E+00   -1.252E+00   -1.264E+00   -1.277E+00   -1.289E+00   -1.301E+00   -1.313E+00
    -1.326E+00   -1.338E+00   -1.350E+00   -1.363E+00   -1.375E+00   -1.388E+00   -1.400E+00   -1.412E+00   -1.425E+00   -1.437E+00
    -1.450E+00   -1.462E+00   -1.475E+00   -1.487E+00   -1.500E+00   -1.512E+00   -1.525E+00   -1.537E+00   -1.550E+00   -1.562E+00
    -1.575E+00   -1.587E+00   -1.600E+00   -1.612E+00   -1.625E+00   -1.638E+00   -1.650E+00   -1.663E+00   -1.676E+00   -1.688E+00
    -1.701E+00   -1.714E+00   -1.726E+00   -1.739E+00   -1.752E+00   -1.764E+00   -1.777E+00   -1.790E+00   -1.802E+00   -1.815E+00
    -1.828E+00   -1.841E+00   -1.853E+00   -1.866E+00   -1.879E+00   -1.892E+00   -1.905E+00   -1.917E+00   -1.930E+00   -1.943E+00
    -1.956E+00   -1.969E+00   -1.982E+00   -1.994E+00   -2.007E+00   -2.020E+00   -2.033E+00   -2.046E+00   -2.059E+00   -2.072E+00
    -2.085E+00   -2.098E+00   -2.110E+00   -2.123E+00   -2.136E+00   -2.149E+00   -2.162E+00   -2.175E+00   -2.188E+00   -2.201E+00
    -2.214E+00   -2.227E+00   -2.240E+00   -2.253E+00   -2.266E+00   -2.279E+00   -2.292E+00   -2.305E+00   -2.318E+00   -2.331E+00
    -2.344E+00   -2.357E+00   -2.370E+00   -2.383E+00   -2.396E+00   -2.409E+00   -2.422E+00   -2.435E+00   -2.448E+00   -2.461E+00
    -2.474E+00   -2.487E+00   -2.500E+00   -2.513E+00   -2.526E+00   -2.540E+00   -2.553E+00   -2.566E+00
 Ala      Conc. = 2.04E+03
