 LCModel (Version 6.3-1L) Copyright: S.W. Provencher.          Ref.: Magn. Reson. Med. 30:672-679 (1993).                
 Slice#3 Row#4 Col#9  PD_24_press_1_raw_act
 36 lines in following concentration table = NCONC+1
    Conc.  %SD /Cr+PCr  Metabolite                                         
   33.683 318% 1.8E-02 Ala                                                 
    0.000 999%   0.000 Asp                                                 
  913.423  23%   0.486 Cr                                                  
  966.362  22%   0.514 PCr                                                 
    0.000 999%   0.000 GABA                                                
    0.000 999%   0.000 Glc                                                 
  528.697  42%   0.281 Gln                                                 
 1.39E+03  18%   0.740 Glu                                                 
  645.930   4%   0.344 GPC                                                 
    0.000 999%   0.000 PCh                                                 
  551.355  13%   0.293 GSH                                                 
  622.459  42%   0.331 Ins                                                 
    0.000 999%   0.000 Lac                                                 
 2.01E+03   5%   1.067 NAA                                                 
   17.078 693% 9.1E-03 NAAG                                                
   78.652  35% 4.2E-02 Scyllo                                              
    0.000 999%   0.000 Tau                                                 
    0.000 999%   0.000 -CrCH2                                              
  645.930   4%   0.344 GPC+PCh                                             
 2.02E+03   4%   1.076 NAA+NAAG                                            
 1.88E+03   3%   1.000 Cr+PCr                                              
 1.92E+03  19%   1.021 Glu+Gln                                             
 2.14E+03  23%   1.138 Lip13a                                              
    0.000 999%   0.000 Lip13b                                              
    0.000 999%   0.000 Lip09                                               
 1.42E+03  16%   0.756 MM09                                                
  386.393  51%   0.206 Lip20                                               
 3.02E+03  12%   1.608 MM20                                                
  439.226  28%   0.234 MM12                                                
 1.75E+03  20%   0.934 MM14                                                
 1.07E+03  22%   0.570 MM17                                                
 2.14E+03  23%   1.138 Lip13a+Lip13b                                       
 4.33E+03  13%   2.306 MM14+Lip13a+Lip13b+MM12                             
 1.42E+03  16%   0.756 MM09+Lip09                                          
 3.41E+03  11%   1.813 MM20+Lip20                                          
   6 lines in following misc. output table
  FWHM = 0.054 ppm    S/N =  11                                            
  Data shift = 0.000 ppm                                                   
  Ph:   1 deg      -5.7 deg/ppm                                            
  alphaB,S = 1.1E+00,   1.0E+02                                            
   14 spline knots.   Ns = 7(1)                                            
  (14) 4 infls.   (11) 1 extrs.                                            
  498 points on ppm-axis = NY
      4.000000     3.992357     3.984714     3.977070     3.969427     3.961784     3.954141     3.946497     3.938854     3.931211
      3.923568     3.915925     3.908281     3.900638     3.892995     3.885352     3.877708     3.870065     3.862422     3.854779
      3.847136     3.839492     3.831849     3.824206     3.816563     3.808919     3.801276     3.793633     3.785990     3.778347
      3.770703     3.763060     3.755417     3.747774     3.740130     3.732487     3.724844     3.717201     3.709558     3.701914
      3.694271     3.686628     3.678985     3.671341     3.663698     3.656055     3.648412     3.640769     3.633125     3.625482
      3.617839     3.610196     3.602552     3.594909     3.587266     3.579623     3.571980     3.564336     3.556693     3.549050
      3.541407     3.533763     3.526120     3.518477     3.510834     3.503191     3.495547     3.487904     3.480261     3.472618
      3.464974     3.457331     3.449688     3.442045     3.434402     3.426758     3.419115     3.411472     3.403829     3.396185
      3.388542     3.380899     3.373256     3.365613     3.357969     3.350326     3.342683     3.335040     3.327396     3.319753
      3.312110     3.304467     3.296824     3.289180     3.281537     3.273894     3.266251     3.258607     3.250964     3.243321
      3.235678     3.228034     3.220391     3.212748     3.205105     3.197462     3.189818     3.182175     3.174532     3.166889
      3.159245     3.151602     3.143959     3.136316     3.128673     3.121029     3.113386     3.105743     3.098100     3.090456
      3.082813     3.075170     3.067527     3.059884     3.052240     3.044597     3.036954     3.029311     3.021667     3.014024
      3.006381     2.998738     2.991095     2.983451     2.975808     2.968165     2.960522     2.952878     2.945235     2.937592
      2.929949     2.922306     2.914662     2.907019     2.899376     2.891733     2.884089     2.876446     2.868803     2.861160
      2.853517     2.845873     2.838230     2.830587     2.822944     2.815300     2.807657     2.800014     2.792371     2.784728
      2.777084     2.769441     2.761798     2.754155     2.746511     2.738868     2.731225     2.723582     2.715939     2.708295
      2.700652     2.693009     2.685366     2.677722     2.670079     2.662436     2.654793     2.647150     2.639506     2.631863
      2.624220     2.616577     2.608933     2.601290     2.593647     2.586004     2.578361     2.570717     2.563074     2.555431
      2.547788     2.540144     2.532501     2.524858     2.517215     2.509572     2.501928     2.494285     2.486642     2.478999
      2.471355     2.463712     2.456069     2.448426     2.440783     2.433139     2.425496     2.417853     2.410210     2.402566
      2.394923     2.387280     2.379637     2.371994     2.364350     2.356707     2.349064     2.341421     2.333777     2.326134
      2.318491     2.310848     2.303205     2.295561     2.287918     2.280275     2.272632     2.264988     2.257345     2.249702
      2.242059     2.234416     2.226772     2.219129     2.211486     2.203843     2.196199     2.188556     2.180913     2.173270
      2.165627     2.157983     2.150340     2.142697     2.135054     2.127410     2.119767     2.112124     2.104481     2.096838
      2.089194     2.081551     2.073908     2.066265     2.058621     2.050978     2.043335     2.035692     2.028049     2.020405
      2.012762     2.005119     1.997476     1.989833     1.982190     1.974546     1.966903     1.959260     1.951617     1.943974
      1.936331     1.928688     1.921045     1.913402     1.905759     1.898115     1.890472     1.882829     1.875186     1.867543
      1.859900     1.852257     1.844614     1.836971     1.829327     1.821684     1.814041     1.806398     1.798755     1.791112
      1.783469     1.775826     1.768183     1.760540     1.752896     1.745253     1.737610     1.729967     1.722324     1.714681
      1.707038     1.699395     1.691752     1.684108     1.676465     1.668822     1.661179     1.653536     1.645893     1.638250
      1.630607     1.622964     1.615321     1.607677     1.600034     1.592391     1.584748     1.577105     1.569462     1.561819
      1.554176     1.546533     1.538890     1.531246     1.523603     1.515960     1.508317     1.500674     1.493031     1.485388
      1.477745     1.470102     1.462458     1.454815     1.447172     1.439529     1.431886     1.424243     1.416600     1.408957
      1.401314     1.393671     1.386027     1.378384     1.370741     1.363098     1.355455     1.347812     1.340169     1.332526
      1.324883     1.317240     1.309596     1.301953     1.294310     1.286667     1.279024     1.271381     1.263738     1.256095
      1.248452     1.240808     1.233165     1.225522     1.217879     1.210236     1.202593     1.194950     1.187307     1.179664
      1.172021     1.164377     1.156734     1.149091     1.141448     1.133805     1.126162     1.118519     1.110876     1.103233
      1.095590     1.087946     1.080303     1.072660     1.065017     1.057374     1.049731     1.042088     1.034445     1.026802
      1.019158     1.011515     1.003872     0.996229     0.988586     0.980943     0.973300     0.965657     0.958014     0.950371
      0.942727     0.935084     0.927441     0.919798     0.912155     0.904512     0.896869     0.889226     0.881583     0.873940
      0.866296     0.858653     0.851010     0.843367     0.835724     0.828081     0.820438     0.812795     0.805152     0.797508
      0.789865     0.782222     0.774579     0.766936     0.759293     0.751650     0.744007     0.736364     0.728721     0.721077
      0.713434     0.705791     0.698148     0.690505     0.682862     0.675219     0.667576     0.659933     0.652290     0.644646
      0.637003     0.629360     0.621717     0.614074     0.606431     0.598788     0.591145     0.583502     0.575858     0.568215
      0.560572     0.552929     0.545286     0.537643     0.530000     0.522357     0.514714     0.507071     0.499427     0.491784
      0.484141     0.476498     0.468855     0.461212     0.453569     0.445925     0.438282     0.430639     0.422996     0.415353
      0.407710     0.400067     0.392424     0.384780     0.377137     0.369494     0.361851     0.354208     0.346565     0.338922
      0.331278     0.323635     0.315992     0.308349     0.300706     0.293063     0.285420     0.277777     0.270133     0.262490
      0.254847     0.247204     0.239561     0.231918     0.224275     0.216631     0.208988     0.201345
 NY phased data points follow
   3.37806E+01  3.56118E+01  3.28892E+01  3.72583E+01  3.88684E+01  4.26802E+01  4.99195E+01  5.46612E+01  5.70541E+01  6.71417E+01
   6.82034E+01  7.04756E+01  6.87081E+01  6.41075E+01  6.09187E+01  5.39529E+01  4.73335E+01  4.28913E+01  3.92173E+01  3.83630E+01
   2.98906E+01  3.45982E+01  3.10906E+01  3.12062E+01  3.40585E+01  2.96618E+01  3.12923E+01  3.29688E+01  3.28837E+01  3.97510E+01
   4.03086E+01  3.70785E+01  3.78433E+01  3.41517E+01  2.68653E+01  2.91782E+01  2.72177E+01  2.89537E+01  2.96649E+01  2.70097E+01
   2.33215E+01  2.59574E+01  2.41467E+01  2.90280E+01  3.08637E+01  3.04111E+01  3.11616E+01  3.02714E+01  2.98969E+01  3.09233E+01
   2.61152E+01  2.41716E+01  1.95099E+01  2.10449E+01  2.19327E+01  2.07679E+01  2.29344E+01  2.15815E+01  1.96180E+01  1.79948E+01
   1.88748E+01  1.42408E+01  9.88800E+00  1.10529E+01  8.44819E+00  8.04789E+00  3.81442E+00  2.27137E+00  3.46178E+00  8.05799E+00
   7.21463E+00  9.09824E+00  8.86834E+00  1.07073E+01  7.73920E+00  6.93127E+00  8.89168E+00  1.06962E+01  6.53636E+00  6.81655E+00
   8.26788E+00  4.97587E+00  8.00576E+00  4.29515E+00  1.04097E+01  1.15960E+01  8.26268E+00  1.16548E+01  8.99660E+00  8.60018E+00
   1.11452E+01  8.60429E+00  1.15295E+01  1.21139E+01  7.18412E+00  6.87000E+00  9.04296E+00  6.39325E+00  1.05488E+01  2.02190E+01
   3.21905E+01  4.79845E+01  5.62977E+01  6.12489E+01  5.75014E+01  5.44365E+01  4.62241E+01  4.53097E+01  3.31672E+01  2.42409E+01
   2.42455E+01  1.16811E+01  1.33322E+01  1.14626E+01  9.79250E+00  8.43114E+00  6.65161E+00  7.12916E+00  5.33248E+00  7.42203E+00
   7.34883E+00  9.83435E+00  1.30330E+01  2.35647E+01  3.17460E+01  4.58361E+01  5.75338E+01  6.43058E+01  5.47164E+01  5.32341E+01
   5.35660E+01  3.82803E+01  3.09188E+01  2.55238E+01  1.61417E+01  1.60364E+01  9.19380E+00  6.69652E+00  7.72010E+00  3.39175E-01
   5.34674E+00  5.97512E+00  1.75139E+00  4.25563E+00  4.45812E+00  5.22036E+00  5.12979E+00  1.46362E-01  2.27407E+00  1.84375E+00
   4.10142E+00 -1.88058E+00 -1.18550E+00  1.45588E+00 -4.63737E+00 -2.54843E+00  7.13767E-01  2.73550E+00  4.74641E-02 -4.17628E+00
  -6.51239E+00 -7.62234E-01 -5.29365E+00 -1.67704E+00 -2.50383E+00 -4.59321E+00 -2.84576E+00 -5.45723E+00 -9.24546E+00 -3.89691E+00
  -8.85413E+00 -8.30601E+00 -1.26161E+01 -6.72301E+00 -1.11109E+01 -1.13880E+01 -8.61033E+00 -9.34311E+00 -1.19002E+01 -9.31093E+00
  -1.02345E+01 -1.04993E+01 -1.02995E+01 -1.11639E+01 -1.14709E+01 -7.08943E+00 -9.10077E+00 -5.57908E+00 -6.71794E+00 -5.05708E+00
  -3.07751E-01  1.74367E+00  5.79275E+00  1.83187E+00  3.29649E+00  5.43382E+00  3.53328E+00  4.11441E+00  9.52182E-01 -1.88649E+00
  -4.28339E+00 -1.96523E-01  3.67727E-01  2.47369E+00  3.77701E+00  1.84615E+00 -2.40531E-01 -2.20428E+00 -7.74078E+00 -2.64411E+00
  -7.50060E+00 -2.25727E+00 -5.30869E-01 -1.79801E+00  4.37059E+00  9.21146E+00  1.07793E+01  1.13813E+01  3.27263E+00 -2.29629E+00
   6.84374E-01 -2.33638E+00 -2.73980E+00 -1.38528E-01  5.93714E+00  1.27859E+00  3.94610E+00  6.42821E+00  7.61019E+00  4.58279E+00
   9.18327E+00  9.41111E+00  5.73203E+00  6.86540E+00  6.35752E+00  9.30616E+00  5.94470E+00  7.71913E+00  8.89745E+00  4.23665E+00
   6.82167E+00  5.57243E+00  4.10738E+00  6.83484E+00  8.38854E+00  1.10401E+01  1.38470E+01  1.23912E+01  1.53243E+01  2.14057E+01
   1.89683E+01  2.01734E+01  1.94261E+01  1.85958E+01  1.89712E+01  1.98047E+01  3.22856E+01  5.13523E+01  6.41450E+01  7.62417E+01
   7.16579E+01  7.11582E+01  6.30550E+01  5.23116E+01  3.97573E+01  3.10938E+01  3.46076E+01  1.99128E+01  1.70952E+01  1.18589E+01
   7.54127E+00  1.12594E+01  6.12787E+00  6.91286E+00  4.50027E+00  2.72438E+00  3.81138E+00  5.04401E+00  5.74668E+00  9.48695E-01
   2.29034E+00  2.71781E+00  8.70920E-01  3.37945E+00  3.39999E-01  2.78713E-02  1.31892E+00  1.56800E+00  3.47899E+00  5.63261E+00
   5.37795E+00  2.03106E+00  4.24384E+00  3.21009E+00 -6.03971E-01  8.33867E+00  3.92914E+00  2.75314E+00  9.91775E+00  6.57125E+00
   2.43708E+00  6.41411E+00  7.48508E+00  3.79253E+00  7.44064E+00  5.30613E+00  6.72226E+00  6.09592E+00  9.19454E+00  1.13653E+01
   7.20250E+00  9.47664E+00  9.34305E+00  6.65921E+00  9.58968E+00  9.75202E+00  7.10119E+00  7.01172E+00  7.53826E+00  6.40829E+00
   7.12954E+00  6.39818E+00  8.18062E+00  1.28340E+01  9.04456E+00  6.23894E+00  6.94718E+00  6.39960E+00  7.54977E+00  9.51393E+00
   1.08820E+01  7.21139E+00  8.83258E+00  9.32208E+00  9.50569E+00  7.44374E+00  6.75292E+00  8.08597E+00  9.16855E+00  9.71299E+00
   1.11552E+01  6.90587E+00  1.04930E+01  1.50090E+01  1.07089E+01  9.11526E+00  1.17406E+01  1.32285E+01  1.30311E+01  1.34147E+01
   1.27689E+01  1.16403E+01  1.76889E+01  1.20522E+01  7.46197E+00  1.27432E+01  4.01346E+00  7.43512E+00  1.84358E+00  2.11453E+00
   1.39025E+00  2.64018E+00  5.41278E+00  8.54847E+00  6.74604E+00  7.13820E+00  7.19109E+00  4.00949E+00  4.55756E+00  6.46402E+00
   3.07551E+00  4.35817E+00  1.33137E+00  6.21528E+00  4.26601E+00 -2.32042E-01 -1.50841E+00  1.63666E+00 -2.84738E+00 -1.54352E+00
  -4.72361E+00 -2.34619E+00 -3.48821E+00 -3.59492E+00 -6.43085E+00 -4.81558E+00 -6.98934E+00 -3.07940E+00 -6.84696E+00 -4.12004E+00
  -8.63639E+00 -3.55061E+00 -2.69203E+00 -3.48353E+00  1.07756E-01 -2.97344E+00  2.32851E+00 -2.88044E+00 -1.38311E+00  9.45950E-01
   2.38526E+00  2.05114E+00 -1.93903E-01  3.75177E+00  2.02522E-02  1.26995E+00  2.17862E+00  2.48611E+00  3.86193E+00  3.37784E+00
  -1.20820E+00 -1.84841E+00 -1.56169E+00 -1.59741E+00  1.31185E+00 -5.19793E+00  3.77554E-01  8.59380E-01 -3.18168E+00 -5.94397E+00
  -3.87739E+00 -5.39884E+00 -4.74242E+00 -2.87181E+00 -4.78255E+00 -6.34516E+00 -1.34323E+00 -2.10608E+00 -5.76546E+00 -6.03702E+00
  -7.56489E+00 -5.36488E+00 -5.01566E+00 -8.17868E+00 -3.21133E+00 -8.11000E+00 -6.02188E+00 -8.89859E+00 -6.94754E+00 -3.64205E+00
  -1.00689E+01 -7.11229E+00 -8.47429E+00 -1.01992E+01 -5.74733E+00 -8.29336E+00 -5.89447E+00 -3.38147E+00 -5.90058E+00 -3.67869E+00
  -5.93675E+00 -7.33041E+00 -7.56850E+00 -6.86365E+00 -6.05917E+00 -6.80688E+00 -2.33226E+00 -7.57026E+00 -9.37241E+00 -9.43734E+00
  -1.12248E+01 -7.02097E+00 -5.62598E+00 -9.80470E+00 -5.41030E+00 -1.12004E+01 -5.07419E+00 -8.18293E+00 -7.59881E+00 -7.90010E+00
  -5.29764E+00 -6.98100E+00 -1.05837E+01 -1.25954E+01 -7.42103E+00 -9.35579E+00 -6.68207E+00 -8.11639E+00 -7.55746E+00 -1.22505E+01
  -7.83799E+00 -9.76249E+00 -1.07598E+01 -6.57696E+00 -8.71929E+00 -1.05337E+01 -9.34235E+00 -7.93463E+00 -9.47308E+00 -6.28623E+00
  -9.40386E+00 -1.05245E+01 -9.01853E+00 -3.04449E+00 -8.03615E+00 -1.17548E+01 -6.72203E+00 -1.01776E+01
 NY points of the fit to the data follow
   3.41726E+01  3.38100E+01  3.39824E+01  3.48565E+01  3.70045E+01  4.11693E+01  4.70050E+01  5.36160E+01  6.00661E+01  6.52983E+01
   6.83916E+01  6.87919E+01  6.66023E+01  6.27842E+01  5.84461E+01  5.39006E+01  4.90427E+01  4.43211E+01  4.06336E+01  3.76605E+01
   3.47427E+01  3.26218E+01  3.12770E+01  3.01916E+01  2.92869E+01  2.90617E+01  3.01201E+01  3.24182E+01  3.51877E+01  3.74664E+01
   3.87075E+01  3.88023E+01  3.77703E+01  3.57119E+01  3.31343E+01  3.07670E+01  2.89021E+01  2.71649E+01  2.55224E+01  2.46138E+01
   2.43371E+01  2.43257E+01  2.46017E+01  2.52565E+01  2.61444E+01  2.68239E+01  2.69861E+01  2.65212E+01  2.56143E+01  2.46264E+01
   2.35608E+01  2.23692E+01  2.13072E+01  2.04773E+01  1.96326E+01  1.87810E+01  1.82702E+01  1.80899E+01  1.78866E+01  1.74660E+01
   1.68933E+01  1.62077E+01  1.54634E+01  1.47239E+01  1.40867E+01  1.36135E+01  1.32551E+01  1.29694E+01  1.27661E+01  1.26191E+01
   1.24753E+01  1.22882E+01  1.20324E+01  1.17216E+01  1.13673E+01  1.09797E+01  1.05941E+01  1.02312E+01  9.89410E+00  9.58127E+00
   9.36187E+00  9.31512E+00  9.55510E+00  1.00703E+01  1.06167E+01  1.08917E+01  1.07432E+01  1.02477E+01  9.59524E+00  8.91824E+00
   8.27853E+00  7.75846E+00  7.38757E+00  7.02864E+00  6.57110E+00  6.21263E+00  6.58403E+00  8.31985E+00  1.22731E+01  2.03607E+01
   3.27337E+01  4.63541E+01  5.69119E+01  6.16333E+01  6.06494E+01  5.58509E+01  4.87895E+01  4.06276E+01  3.29397E+01  2.66632E+01
   2.07506E+01  1.41259E+01  8.35785E+00  5.87821E+00  5.05684E+00  4.65740E+00  4.41290E+00  4.26617E+00  4.24378E+00  4.50006E+00
   5.52820E+00  8.03466E+00  1.32027E+01  2.24729E+01  3.52393E+01  4.82131E+01  5.75151E+01  6.11254E+01  5.96258E+01  5.48089E+01
   4.80265E+01  4.02782E+01  3.27543E+01  2.58694E+01  1.87994E+01  1.14203E+01  5.86644E+00  3.57139E+00  3.14277E+00  3.32150E+00
   3.55561E+00  3.59602E+00  3.50046E+00  3.39459E+00  3.21961E+00  2.94741E+00  2.60095E+00  2.15940E+00  1.63180E+00  1.07503E+00
   5.37462E-01  1.18970E-01 -2.01688E-01 -4.34624E-01 -6.05724E-01 -7.63220E-01 -1.00826E+00 -1.41318E+00 -1.90972E+00 -2.35722E+00
  -2.58316E+00 -2.53383E+00 -2.36563E+00 -2.29278E+00 -2.42447E+00 -2.73560E+00 -3.15469E+00 -3.59870E+00 -3.98058E+00 -4.28449E+00
  -4.63555E+00 -5.12582E+00 -5.77612E+00 -6.41435E+00 -6.76499E+00 -6.80504E+00 -6.70882E+00 -6.65563E+00 -6.70444E+00 -6.77189E+00
  -6.81192E+00 -6.87264E+00 -6.99973E+00 -7.10576E+00 -7.00521E+00 -6.58310E+00 -5.77154E+00 -4.50853E+00 -2.98789E+00 -1.56219E+00
  -6.01227E-01 -2.51108E-01 -3.87961E-01 -8.50128E-01 -1.47942E+00 -2.08534E+00 -2.48979E+00 -2.47615E+00 -1.97350E+00 -1.07813E+00
   1.09556E-01  1.41710E+00  2.50339E+00  2.97201E+00  2.73500E+00  1.82076E+00  3.90820E-01 -1.29446E+00 -2.74983E+00 -3.53750E+00
  -3.45291E+00 -2.40033E+00 -4.22454E-01  2.05932E+00  4.22747E+00  5.39555E+00  5.38628E+00  4.34352E+00  2.38679E+00 -2.15638E-01
  -2.44206E+00 -3.48744E+00 -3.36442E+00 -2.43796E+00 -1.02721E+00  8.32327E-01  2.73733E+00  4.10662E+00  4.84991E+00  5.30708E+00
   5.80748E+00  6.25951E+00  6.59114E+00  7.10257E+00  7.97421E+00  8.90454E+00  9.51348E+00  9.61951E+00  9.29688E+00  8.75484E+00
   8.14483E+00  7.73464E+00  7.90563E+00  8.69630E+00  9.75278E+00  1.07446E+01  1.16755E+01  1.25203E+01  1.31601E+01  1.36895E+01
   1.43315E+01  1.51259E+01  1.59959E+01  1.74550E+01  2.02513E+01  2.57924E+01  3.60422E+01  5.00761E+01  6.37259E+01  7.24667E+01
   7.43459E+01  7.05417E+01  6.33224E+01  5.41505E+01  4.44269E+01  3.59774E+01  2.91146E+01  2.20688E+01  1.42923E+01  8.72656E+00
   6.82465E+00  6.05077E+00  5.58164E+00  5.27601E+00  5.02933E+00  4.75479E+00  4.46848E+00  4.16281E+00  3.85058E+00  3.56201E+00
   3.30671E+00  3.06466E+00  2.84266E+00  2.66708E+00  2.54213E+00  2.45620E+00  2.40281E+00  2.38670E+00  2.41397E+00  2.48066E+00
   2.57851E+00  2.71281E+00  2.88669E+00  3.09912E+00  3.34771E+00  3.63075E+00  3.94579E+00  4.28755E+00  4.64997E+00  5.02783E+00
   5.41347E+00  5.79753E+00  6.17053E+00  6.52299E+00  6.84581E+00  7.13098E+00  7.37194E+00  7.56382E+00  7.70373E+00  7.79121E+00
   7.82775E+00  7.81709E+00  7.76584E+00  7.68239E+00  7.57606E+00  7.45713E+00  7.33629E+00  7.22438E+00  7.13204E+00  7.06988E+00
   7.04872E+00  7.07462E+00  7.15323E+00  7.27599E+00  7.40905E+00  7.51859E+00  7.59511E+00  7.65518E+00  7.72659E+00  7.82514E+00
   7.96263E+00  8.16721E+00  8.45188E+00  8.78582E+00  9.11841E+00  9.42303E+00  9.70292E+00  9.94192E+00  1.01222E+01  1.02525E+01
   1.03523E+01  1.04354E+01  1.04939E+01  1.05162E+01  1.05218E+01  1.05329E+01  1.05402E+01  1.05363E+01  1.05162E+01  1.04754E+01
   1.04094E+01  1.03137E+01  1.01839E+01  1.00157E+01  9.80584E+00  9.55163E+00  9.25152E+00  8.90516E+00  8.51348E+00  8.07859E+00
   7.60385E+00  7.09367E+00  6.55338E+00  5.98901E+00  5.40705E+00  4.81419E+00  4.21715E+00  3.62247E+00  3.03636E+00  2.46453E+00
   1.91209E+00  1.38347E+00  8.82459E-01  4.12184E-01 -2.48504E-02 -4.26727E-01 -7.92056E-01 -1.11988E+00 -1.40956E+00 -1.66073E+00
  -1.87322E+00 -2.04696E+00 -2.18200E+00 -2.27840E+00 -2.33622E+00 -2.35553E+00 -2.33646E+00 -2.27925E+00 -2.18430E+00 -2.05228E+00
  -1.88420E+00 -1.68160E+00 -1.44662E+00 -1.18219E+00 -8.92065E-01 -5.80924E-01 -2.54404E-01  8.09077E-02  4.17539E-01  7.47280E-01
   1.06140E+00  1.35091E+00  1.60689E+00  1.82077E+00  1.98476E+00  2.09216E+00  2.13771E+00  2.11783E+00  2.03080E+00  1.87678E+00
   1.65789E+00  1.37812E+00  1.04310E+00  6.59846E-01  2.36419E-01 -2.18468E-01 -6.95798E-01 -1.18662E+00 -1.68238E+00 -2.17520E+00
  -2.65811E+00 -3.12517E+00 -3.57160E+00 -3.99371E+00 -4.38894E+00 -4.75573E+00 -5.09344E+00 -5.40222E+00 -5.68280E+00 -5.93640E+00
  -6.16458E+00 -6.36914E+00 -6.55202E+00 -6.71519E+00 -6.86056E+00 -6.98998E+00 -7.10520E+00 -7.20783E+00 -7.29936E+00 -7.38111E+00
  -7.45425E+00 -7.51985E+00 -7.57883E+00 -7.63203E+00 -7.68016E+00 -7.72388E+00 -7.76373E+00 -7.80019E+00 -7.83371E+00 -7.86468E+00
  -7.89344E+00 -7.92028E+00 -7.94546E+00 -7.96922E+00 -7.99172E+00 -8.01311E+00 -8.03352E+00 -8.05305E+00 -8.07179E+00 -8.08983E+00
  -8.10725E+00 -8.12412E+00 -8.14049E+00 -8.15639E+00 -8.17189E+00 -8.18701E+00 -8.20180E+00 -8.21629E+00 -8.23050E+00 -8.24444E+00
  -8.25813E+00 -8.27159E+00 -8.28485E+00 -8.29790E+00 -8.31074E+00 -8.32339E+00 -8.33586E+00 -8.34814E+00 -8.36025E+00 -8.37218E+00
  -8.38393E+00 -8.39548E+00 -8.40685E+00 -8.41803E+00 -8.42901E+00 -8.43978E+00 -8.45032E+00 -8.46064E+00 -8.47071E+00 -8.48054E+00
  -8.49010E+00 -8.49937E+00 -8.50833E+00 -8.51696E+00 -8.52524E+00 -8.53316E+00 -8.54066E+00 -8.54771E+00
 NY background values follow
     3.321E+01    3.287E+01    3.253E+01    3.218E+01    3.184E+01    3.149E+01    3.115E+01    3.080E+01    3.046E+01    3.011E+01
     2.977E+01    2.942E+01    2.908E+01    2.873E+01    2.839E+01    2.805E+01    2.770E+01    2.736E+01    2.701E+01    2.667E+01
     2.633E+01    2.598E+01    2.564E+01    2.530E+01    2.496E+01    2.462E+01    2.428E+01    2.394E+01    2.360E+01    2.327E+01
     2.293E+01    2.260E+01    2.226E+01    2.193E+01    2.160E+01    2.127E+01    2.094E+01    2.061E+01    2.028E+01    1.995E+01
     1.963E+01    1.931E+01    1.899E+01    1.866E+01    1.835E+01    1.803E+01    1.771E+01    1.740E+01    1.709E+01    1.678E+01
     1.647E+01    1.616E+01    1.586E+01    1.556E+01    1.525E+01    1.496E+01    1.466E+01    1.436E+01    1.407E+01    1.378E+01
     1.349E+01    1.320E+01    1.292E+01    1.264E+01    1.236E+01    1.208E+01    1.180E+01    1.153E+01    1.126E+01    1.099E+01
     1.072E+01    1.046E+01    1.020E+01    9.940E+00    9.684E+00    9.431E+00    9.180E+00    8.931E+00    8.686E+00    8.443E+00
     8.203E+00    7.966E+00    7.731E+00    7.499E+00    7.270E+00    7.045E+00    6.822E+00    6.601E+00    6.384E+00    6.170E+00
     5.959E+00    5.752E+00    5.547E+00    5.345E+00    5.146E+00    4.951E+00    4.758E+00    4.568E+00    4.381E+00    4.197E+00
     4.016E+00    3.837E+00    3.661E+00    3.488E+00    3.317E+00    3.149E+00    2.984E+00    2.821E+00    2.661E+00    2.503E+00
     2.348E+00    2.195E+00    2.044E+00    1.896E+00    1.750E+00    1.606E+00    1.465E+00    1.326E+00    1.188E+00    1.053E+00
     9.205E-01    7.896E-01    6.608E-01    5.339E-01    4.089E-01    2.858E-01    1.647E-01    4.529E-02   -7.228E-02   -1.881E-01
    -3.022E-01   -4.146E-01   -5.253E-01   -6.345E-01   -7.420E-01   -8.481E-01   -9.526E-01   -1.056E+00   -1.157E+00   -1.257E+00
    -1.355E+00   -1.452E+00   -1.547E+00   -1.640E+00   -1.732E+00   -1.822E+00   -1.910E+00   -1.996E+00   -2.081E+00   -2.163E+00
    -2.244E+00   -2.322E+00   -2.399E+00   -2.474E+00   -2.547E+00   -2.617E+00   -2.686E+00   -2.752E+00   -2.816E+00   -2.878E+00
    -2.938E+00   -2.996E+00   -3.051E+00   -3.104E+00   -3.155E+00   -3.203E+00   -3.249E+00   -3.292E+00   -3.333E+00   -3.371E+00
    -3.407E+00   -3.440E+00   -3.471E+00   -3.499E+00   -3.524E+00   -3.547E+00   -3.567E+00   -3.584E+00   -3.599E+00   -3.610E+00
    -3.619E+00   -3.625E+00   -3.628E+00   -3.628E+00   -3.625E+00   -3.620E+00   -3.612E+00   -3.602E+00   -3.590E+00   -3.575E+00
    -3.557E+00   -3.538E+00   -3.516E+00   -3.493E+00   -3.468E+00   -3.440E+00   -3.411E+00   -3.381E+00   -3.349E+00   -3.315E+00
    -3.279E+00   -3.243E+00   -3.205E+00   -3.166E+00   -3.126E+00   -3.085E+00   -3.042E+00   -2.999E+00   -2.955E+00   -2.911E+00
    -2.866E+00   -2.820E+00   -2.774E+00   -2.727E+00   -2.680E+00   -2.633E+00   -2.586E+00   -2.538E+00   -2.491E+00   -2.443E+00
    -2.396E+00   -2.349E+00   -2.303E+00   -2.257E+00   -2.211E+00   -2.166E+00   -2.121E+00   -2.077E+00   -2.034E+00   -1.992E+00
    -1.950E+00   -1.910E+00   -1.870E+00   -1.830E+00   -1.792E+00   -1.754E+00   -1.717E+00   -1.681E+00   -1.646E+00   -1.611E+00
    -1.578E+00   -1.545E+00   -1.513E+00   -1.482E+00   -1.451E+00   -1.422E+00   -1.393E+00   -1.366E+00   -1.339E+00   -1.313E+00
    -1.288E+00   -1.264E+00   -1.241E+00   -1.218E+00   -1.197E+00   -1.177E+00   -1.157E+00   -1.139E+00   -1.121E+00   -1.105E+00
    -1.089E+00   -1.075E+00   -1.061E+00   -1.049E+00   -1.037E+00   -1.027E+00   -1.017E+00   -1.009E+00   -1.001E+00   -9.952E-01
    -9.899E-01   -9.857E-01   -9.826E-01   -9.806E-01   -9.797E-01   -9.798E-01   -9.811E-01   -9.834E-01   -9.869E-01   -9.915E-01
    -9.972E-01   -1.004E+00   -1.012E+00   -1.021E+00   -1.031E+00   -1.042E+00   -1.055E+00   -1.068E+00   -1.083E+00   -1.099E+00
    -1.116E+00   -1.134E+00   -1.154E+00   -1.174E+00   -1.196E+00   -1.219E+00   -1.243E+00   -1.268E+00   -1.295E+00   -1.322E+00
    -1.351E+00   -1.381E+00   -1.413E+00   -1.445E+00   -1.479E+00   -1.514E+00   -1.550E+00   -1.587E+00   -1.626E+00   -1.666E+00
    -1.707E+00   -1.749E+00   -1.793E+00   -1.838E+00   -1.884E+00   -1.931E+00   -1.980E+00   -2.030E+00   -2.081E+00   -2.133E+00
    -2.187E+00   -2.242E+00   -2.298E+00   -2.354E+00   -2.412E+00   -2.471E+00   -2.531E+00   -2.592E+00   -2.654E+00   -2.716E+00
    -2.780E+00   -2.844E+00   -2.909E+00   -2.974E+00   -3.041E+00   -3.108E+00   -3.175E+00   -3.244E+00   -3.312E+00   -3.382E+00
    -3.451E+00   -3.521E+00   -3.592E+00   -3.663E+00   -3.734E+00   -3.806E+00   -3.877E+00   -3.949E+00   -4.022E+00   -4.094E+00
    -4.166E+00   -4.239E+00   -4.312E+00   -4.384E+00   -4.457E+00   -4.529E+00   -4.602E+00   -4.674E+00   -4.746E+00   -4.818E+00
    -4.890E+00   -4.962E+00   -5.033E+00   -5.104E+00   -5.174E+00   -5.244E+00   -5.314E+00   -5.383E+00   -5.452E+00   -5.520E+00
    -5.588E+00   -5.655E+00   -5.721E+00   -5.787E+00   -5.853E+00   -5.917E+00   -5.981E+00   -6.044E+00   -6.107E+00   -6.169E+00
    -6.229E+00   -6.289E+00   -6.349E+00   -6.407E+00   -6.464E+00   -6.520E+00   -6.576E+00   -6.630E+00   -6.683E+00   -6.736E+00
    -6.787E+00   -6.837E+00   -6.886E+00   -6.934E+00   -6.980E+00   -7.025E+00   -7.069E+00   -7.112E+00   -7.153E+00   -7.194E+00
    -7.232E+00   -7.269E+00   -7.305E+00   -7.340E+00   -7.373E+00   -7.404E+00   -7.434E+00   -7.462E+00   -7.489E+00   -7.514E+00
    -7.538E+00   -7.560E+00   -7.581E+00   -7.600E+00   -7.619E+00   -7.635E+00   -7.651E+00   -7.666E+00   -7.679E+00   -7.692E+00
    -7.703E+00   -7.713E+00   -7.723E+00   -7.731E+00   -7.739E+00   -7.745E+00   -7.752E+00   -7.757E+00   -7.761E+00   -7.765E+00
    -7.769E+00   -7.772E+00   -7.774E+00   -7.776E+00   -7.777E+00   -7.778E+00   -7.779E+00   -7.780E+00   -7.780E+00   -7.780E+00
    -7.780E+00   -7.780E+00   -7.779E+00   -7.779E+00   -7.779E+00   -7.779E+00   -7.779E+00   -7.779E+00   -7.779E+00   -7.780E+00
    -7.780E+00   -7.782E+00   -7.783E+00   -7.785E+00   -7.788E+00   -7.790E+00   -7.793E+00   -7.797E+00   -7.801E+00   -7.805E+00
    -7.810E+00   -7.814E+00   -7.820E+00   -7.825E+00   -7.831E+00   -7.837E+00   -7.843E+00   -7.850E+00   -7.856E+00   -7.863E+00
    -7.870E+00   -7.878E+00   -7.885E+00   -7.893E+00   -7.901E+00   -7.909E+00   -7.917E+00   -7.926E+00   -7.934E+00   -7.942E+00
    -7.951E+00   -7.960E+00   -7.969E+00   -7.977E+00   -7.986E+00   -7.995E+00   -8.004E+00   -8.013E+00   -8.022E+00   -8.031E+00
    -8.039E+00   -8.048E+00   -8.057E+00   -8.066E+00   -8.074E+00   -8.083E+00   -8.091E+00   -8.099E+00
 Ala      Conc. = 3.37E+01
