 LCModel (Version 6.3-1L) Copyright: S.W. Provencher.          Ref.: Magn. Reson. Med. 30:672-679 (1993).                
 Slice#1 Row#8 Col#11  PD_24_press_1_raw_act
 36 lines in following concentration table = NCONC+1
    Conc.  %SD /Cr+PCr  Metabolite                                         
  200.764  83%   0.291 Ala                                                 
  150.001 124%   0.218 Asp                                                 
  417.611  59%   0.606 Cr                                                  
  271.290  92%   0.394 PCr                                                 
    4.088 999% 5.9E-03 GABA                                                
   43.459 278% 6.3E-02 Glc                                                 
  997.642  38%   1.448 Gln                                                 
 1.48E+03  29%   2.143 Glu                                                 
  285.526   8%   0.414 GPC                                                 
    0.000 999%   0.000 PCh                                                 
  251.789  35%   0.365 GSH                                                 
  987.572  27%   1.434 Ins                                                 
  104.605 181%   0.152 Lac                                                 
 2.25E+03   4%   3.270 NAA                                                 
    0.000 999%   0.000 NAAG                                                
  121.508  22%   0.176 Scyllo                                              
  402.508  43%   0.584 Tau                                                 
  424.196  24%   0.616 -CrCH2                                              
  285.526   8%   0.414 GPC+PCh                                             
 2.25E+03   4%   3.270 NAA+NAAG                                            
  688.901   8%   1.000 Cr+PCr                                              
 2.47E+03  28%   3.591 Glu+Gln                                             
 1.83E+03  33%   2.657 Lip13a                                              
    0.000 999%   0.000 Lip13b                                              
  136.393 223%   0.198 Lip09                                               
 1.86E+03  19%   2.705 MM09                                                
  340.200  61%   0.494 Lip20                                               
 4.33E+03  10%   6.287 MM20                                                
  723.170  34%   1.050 MM12                                                
 1.20E+03  33%   1.738 MM14                                                
 1.42E+03  18%   2.061 MM17                                                
 1.83E+03  33%   2.657 Lip13a+Lip13b                                       
 3.75E+03  10%   5.445 MM14+Lip13a+Lip13b+MM12                             
 2.00E+03  10%   2.903 MM09+Lip09                                          
 4.67E+03   8%   6.781 MM20+Lip20                                          
   6 lines in following misc. output table
  FWHM = 0.076 ppm    S/N =  11                                            
  Data shift =-0.023 ppm                                                   
  Ph: -75 deg     -20.0 deg/ppm                                            
  alphaB,S = 8.5E+01,   4.1E+02                                            
   14 spline knots.   Ns = 9(1)                                            
   2 inflections.     1 extrema                                            
  498 points on ppm-axis = NY
      4.000000     3.992357     3.984714     3.977070     3.969427     3.961784     3.954141     3.946497     3.938854     3.931211
      3.923568     3.915925     3.908281     3.900638     3.892995     3.885352     3.877708     3.870065     3.862422     3.854779
      3.847136     3.839492     3.831849     3.824206     3.816563     3.808919     3.801276     3.793633     3.785990     3.778347
      3.770703     3.763060     3.755417     3.747774     3.740130     3.732487     3.724844     3.717201     3.709558     3.701914
      3.694271     3.686628     3.678985     3.671341     3.663698     3.656055     3.648412     3.640769     3.633125     3.625482
      3.617839     3.610196     3.602552     3.594909     3.587266     3.579623     3.571980     3.564336     3.556693     3.549050
      3.541407     3.533763     3.526120     3.518477     3.510834     3.503191     3.495547     3.487904     3.480261     3.472618
      3.464974     3.457331     3.449688     3.442045     3.434402     3.426758     3.419115     3.411472     3.403829     3.396185
      3.388542     3.380899     3.373256     3.365613     3.357969     3.350326     3.342683     3.335040     3.327396     3.319753
      3.312110     3.304467     3.296824     3.289180     3.281537     3.273894     3.266251     3.258607     3.250964     3.243321
      3.235678     3.228034     3.220391     3.212748     3.205105     3.197462     3.189818     3.182175     3.174532     3.166889
      3.159245     3.151602     3.143959     3.136316     3.128673     3.121029     3.113386     3.105743     3.098100     3.090456
      3.082813     3.075170     3.067527     3.059884     3.052240     3.044597     3.036954     3.029311     3.021667     3.014024
      3.006381     2.998738     2.991095     2.983451     2.975808     2.968165     2.960522     2.952878     2.945235     2.937592
      2.929949     2.922306     2.914662     2.907019     2.899376     2.891733     2.884089     2.876446     2.868803     2.861160
      2.853517     2.845873     2.838230     2.830587     2.822944     2.815300     2.807657     2.800014     2.792371     2.784728
      2.777084     2.769441     2.761798     2.754155     2.746511     2.738868     2.731225     2.723582     2.715939     2.708295
      2.700652     2.693009     2.685366     2.677722     2.670079     2.662436     2.654793     2.647150     2.639506     2.631863
      2.624220     2.616577     2.608933     2.601290     2.593647     2.586004     2.578361     2.570717     2.563074     2.555431
      2.547788     2.540144     2.532501     2.524858     2.517215     2.509572     2.501928     2.494285     2.486642     2.478999
      2.471355     2.463712     2.456069     2.448426     2.440783     2.433139     2.425496     2.417853     2.410210     2.402566
      2.394923     2.387280     2.379637     2.371994     2.364350     2.356707     2.349064     2.341421     2.333777     2.326134
      2.318491     2.310848     2.303205     2.295561     2.287918     2.280275     2.272632     2.264988     2.257345     2.249702
      2.242059     2.234416     2.226772     2.219129     2.211486     2.203843     2.196199     2.188556     2.180913     2.173270
      2.165627     2.157983     2.150340     2.142697     2.135054     2.127410     2.119767     2.112124     2.104481     2.096838
      2.089194     2.081551     2.073908     2.066265     2.058621     2.050978     2.043335     2.035692     2.028049     2.020405
      2.012762     2.005119     1.997476     1.989833     1.982190     1.974546     1.966903     1.959260     1.951617     1.943974
      1.936331     1.928688     1.921045     1.913402     1.905759     1.898115     1.890472     1.882829     1.875186     1.867543
      1.859900     1.852257     1.844614     1.836971     1.829327     1.821684     1.814041     1.806398     1.798755     1.791112
      1.783469     1.775826     1.768183     1.760540     1.752896     1.745253     1.737610     1.729967     1.722324     1.714681
      1.707038     1.699395     1.691752     1.684108     1.676465     1.668822     1.661179     1.653536     1.645893     1.638250
      1.630607     1.622964     1.615321     1.607677     1.600034     1.592391     1.584748     1.577105     1.569462     1.561819
      1.554176     1.546533     1.538890     1.531246     1.523603     1.515960     1.508317     1.500674     1.493031     1.485388
      1.477745     1.470102     1.462458     1.454815     1.447172     1.439529     1.431886     1.424243     1.416600     1.408957
      1.401314     1.393671     1.386027     1.378384     1.370741     1.363098     1.355455     1.347812     1.340169     1.332526
      1.324883     1.317240     1.309596     1.301953     1.294310     1.286667     1.279024     1.271381     1.263738     1.256095
      1.248452     1.240808     1.233165     1.225522     1.217879     1.210236     1.202593     1.194950     1.187307     1.179664
      1.172021     1.164377     1.156734     1.149091     1.141448     1.133805     1.126162     1.118519     1.110876     1.103233
      1.095590     1.087946     1.080303     1.072660     1.065017     1.057374     1.049731     1.042088     1.034445     1.026802
      1.019158     1.011515     1.003872     0.996229     0.988586     0.980943     0.973300     0.965657     0.958014     0.950371
      0.942727     0.935084     0.927441     0.919798     0.912155     0.904512     0.896869     0.889226     0.881583     0.873940
      0.866296     0.858653     0.851010     0.843367     0.835724     0.828081     0.820438     0.812795     0.805152     0.797508
      0.789865     0.782222     0.774579     0.766936     0.759293     0.751650     0.744007     0.736364     0.728721     0.721077
      0.713434     0.705791     0.698148     0.690505     0.682862     0.675219     0.667576     0.659933     0.652290     0.644646
      0.637003     0.629360     0.621717     0.614074     0.606431     0.598788     0.591145     0.583502     0.575858     0.568215
      0.560572     0.552929     0.545286     0.537643     0.530000     0.522357     0.514714     0.507071     0.499427     0.491784
      0.484141     0.476498     0.468855     0.461212     0.453569     0.445925     0.438282     0.430639     0.422996     0.415353
      0.407710     0.400067     0.392424     0.384780     0.377137     0.369494     0.361851     0.354208     0.346565     0.338922
      0.331278     0.323635     0.315992     0.308349     0.300706     0.293063     0.285420     0.277777     0.270133     0.262490
      0.254847     0.247204     0.239561     0.231918     0.224275     0.216631     0.208988     0.201345
 NY phased data points follow
   6.13784E+00  3.51371E+00  1.59902E+00  7.29435E+00  6.65123E+00  7.93277E+00  3.03823E+00  4.22855E+00  6.65116E+00  6.61775E+00
   9.84045E+00  2.12392E+00  2.66168E+00  1.22377E+01  8.90923E+00  7.02950E+00  9.52928E+00  1.37694E+01  7.50749E+00  9.70863E+00
   4.46005E+00  6.03989E+00  3.58934E+00  5.04494E+00  5.44781E+00  4.72815E+00  8.89931E+00  3.82277E+00  5.28995E+00  9.26766E+00
   7.05249E+00  8.05875E+00  1.06220E+01  1.14214E+01  7.10036E+00  6.47835E+00  3.40195E+00  5.08746E+00  3.61714E+00  6.23326E+00
   8.93140E+00  8.53695E+00  5.87772E+00  7.30962E+00  8.88086E+00  9.54988E+00  7.19833E+00  9.11881E+00  1.09948E+01  6.19721E+00
   6.45258E+00  1.28689E+01  6.86173E+00  1.14952E+01  7.28333E+00  1.11472E+01  8.19065E+00  4.60799E+00  2.46954E+00  7.25529E+00
   5.35632E+00  3.61745E+00  3.30022E+00  3.37903E+00  4.21660E+00  8.03280E+00  5.47654E+00  8.53768E+00  2.57784E+00  4.41025E+00
   3.29779E+00  6.21300E+00  6.81226E+00  1.23411E+00  8.42101E+00  4.43438E+00  8.87959E+00  6.69894E+00  5.51177E+00  3.84779E+00
   6.69491E+00  1.80277E+00  4.66869E+00  3.43133E+00  7.30856E+00  9.51441E+00  6.99207E+00  8.90198E+00  7.54465E+00  8.08836E+00
   9.74830E+00  1.14347E+01  1.03668E+01  6.78137E+00  1.04407E+01  1.00436E+01  1.13955E+01  1.11004E+01  1.06730E+01  1.43700E+01
   2.29513E+01  1.60583E+01  2.11801E+01  2.25605E+01  2.15725E+01  2.03219E+01  2.18724E+01  1.87166E+01  1.59476E+01  1.63197E+01
   1.37276E+01  1.09343E+01  5.31222E+00  1.06674E+01  6.50713E+00  2.36718E+00  6.83980E+00  3.42329E+00  3.32575E+00  2.70171E+00
   5.47376E+00  1.17915E+01  5.96169E+00  8.53016E+00  1.57089E+01  1.82754E+01  2.33124E+01  2.58757E+01  2.22538E+01  2.10605E+01
   2.31525E+01  1.96975E+01  1.58164E+01  1.49452E+01  1.23874E+01  8.80123E+00  8.07139E+00  5.84432E+00  1.11548E+01  5.32932E+00
  -8.55986E-01  5.65232E+00  6.02641E+00  3.73837E+00  3.60502E+00  7.16382E+00  6.95388E+00  1.84978E+00  2.28597E+00  3.34876E+00
  -1.23313E+00  7.73804E+00  2.18749E+00  7.47076E+00  2.65757E+00  3.34294E+00  3.07391E+00  2.80083E+00  3.57764E+00  1.84701E-02
   2.96491E+00  3.03052E+00  3.11308E+00  2.38691E-01 -2.81627E+00  3.77177E+00  5.33929E-01 -2.18474E-01 -3.25757E+00 -4.45860E+00
  -6.18313E+00 -2.11657E+00 -2.33432E+00 -1.32726E+00 -3.96751E+00 -8.34233E+00 -1.68125E+00 -5.15679E+00 -8.00456E+00 -5.05802E+00
  -4.79995E+00 -5.55314E+00 -2.53437E-01 -3.60791E+00 -1.79475E+00 -6.26366E-01  1.91064E+00 -4.55878E-01 -4.72221E+00  8.68309E-01
   8.82348E-01  3.97161E-01  4.20789E+00 -1.80548E+00  1.69753E+00  2.81853E+00  1.16636E+00 -3.65194E+00 -2.43000E+00 -6.38834E+00
   2.57902E+00  2.88449E-02  2.70883E+00  8.29870E+00  2.18339E+00  9.86009E+00  2.22842E+00  8.78754E+00  6.53597E+00  4.48301E+00
   3.51587E+00  9.21114E+00  1.05357E+01  1.22075E+01  1.54356E+01  1.20653E+01  1.67451E+01  1.61418E+01  7.51704E+00  8.43825E+00
   6.70595E+00  5.01513E+00  9.75755E+00  6.61602E+00  9.01299E+00  1.04027E+01  9.90576E+00  1.19827E+01  1.32384E+01  9.01084E+00
   1.54533E+01  8.12696E+00  1.27047E+01  1.72088E+01  1.16542E+01  1.06991E+01  1.15786E+01  1.77757E+01  1.36355E+01  1.22980E+01
   1.19005E+01  1.15959E+01  9.62531E+00  1.56494E+01  1.27747E+01  1.57659E+01  1.48801E+01  1.50530E+01  1.21241E+01  1.74951E+01
   1.95298E+01  1.66931E+01  1.95514E+01  2.49206E+01  3.37963E+01  3.85458E+01  4.34278E+01  5.08664E+01  6.11085E+01  7.31949E+01
   7.82692E+01  7.56336E+01  6.95001E+01  5.57977E+01  5.62889E+01  4.79526E+01  4.35742E+01  3.39494E+01  2.87600E+01  2.60618E+01
   2.35030E+01  1.56186E+01  1.93373E+01  1.30613E+01  1.27201E+01  9.34384E+00  1.02788E+01  1.10294E+01  1.15561E+01  1.07497E+01
   5.37004E+00  9.48152E+00  1.08009E+01  1.05074E+01  8.25977E+00  7.01891E+00  7.93153E+00  1.06369E+01  1.01997E+01  1.23940E+01
   9.60371E+00  1.42810E+01  6.71198E+00  6.74768E+00  9.71287E+00  8.34483E+00  6.13965E+00  6.90476E+00  9.85635E+00  1.19895E+01
   1.49821E+01  1.05683E+01  1.60744E+01  1.11970E+01  1.20666E+01  1.05949E+01  1.22540E+01  1.29354E+01  1.25410E+01  1.21607E+01
   1.14153E+01  1.33558E+01  1.49364E+01  1.03612E+01  1.18146E+01  1.09103E+01  1.34619E+01  1.19413E+01  1.29331E+01  1.81869E+01
   1.43823E+01  1.10329E+01  1.10615E+01  6.46221E+00  7.40622E+00  9.84653E+00  1.04768E+01  8.37339E+00  1.04592E+01  9.00305E+00
   1.38321E+01  4.32429E+00  1.16317E+01  1.09130E+01  1.06431E+01  1.12273E+01  1.40084E+01  1.19099E+01  1.04262E+01  1.42202E+01
   1.26495E+01  1.55188E+01  1.48080E+01  1.74965E+01  1.45757E+01  1.46084E+01  1.87835E+01  1.71584E+01  1.61821E+01  1.87989E+01
   1.82382E+01  1.47616E+01  1.69482E+01  1.73491E+01  1.32772E+01  1.08700E+01  8.43735E+00  1.08559E+01  1.56560E+01  1.52432E+01
   1.40749E+01  1.59471E+01  1.58119E+01  1.85463E+01  1.71777E+01  1.40518E+01  1.40732E+01  1.43177E+01  1.58938E+01  1.67753E+01
   1.68162E+01  1.52642E+01  1.79571E+01  1.48989E+01  1.33249E+01  1.14473E+01  6.45374E+00  8.99244E+00  1.39652E+01  1.21220E+01
   6.69692E+00  8.81048E+00  4.08270E+00  8.54281E+00  9.54806E+00  8.51954E+00  6.24483E+00  9.98236E+00  8.00279E+00  1.20146E+01
   1.08753E+01  6.30249E+00  1.02145E+01  1.05364E+01  1.28351E+01  1.60626E+01  1.43312E+01  1.40863E+01  1.71435E+01  1.40671E+01
   1.08034E+01  1.40268E+01  1.46904E+01  1.37057E+01  1.34951E+01  1.85628E+01  1.58587E+01  2.12146E+01  1.41327E+01  2.08365E+01
   1.96727E+01  1.79684E+01  1.55356E+01  1.36505E+01  1.95669E+01  1.64255E+01  1.55696E+01  1.46882E+01  1.39817E+01  1.56802E+01
   9.07087E+00  1.42226E+01  9.87814E+00  1.02919E+01  1.28968E+01  9.08980E+00  9.54584E+00  9.36180E+00  1.07018E+01  1.04605E+01
   5.96472E+00  9.38900E+00  1.03657E+01  7.11891E+00  7.42861E+00  3.39394E+00  7.89498E+00  7.99153E+00  6.42576E+00  4.36917E+00
   3.80822E+00  3.96695E+00  4.14091E+00  4.24247E+00  1.03647E+01  5.94859E+00  5.74679E+00  5.87412E+00  6.23258E+00  5.49971E+00
   6.19039E+00  2.57000E+00  6.77648E+00  5.52856E+00  2.37017E+00  4.89513E+00  3.11267E+00  2.86242E+00  6.13905E+00  5.08020E+00
   5.92925E+00  1.05715E+00  3.51444E+00  6.71599E+00  2.29123E+00  6.19942E+00  2.99699E+00  5.42497E+00  1.37286E+00  7.45165E+00
   3.51614E+00  8.21490E+00  1.01381E+01  6.99905E+00  6.51620E+00  4.53230E+00  3.51155E+00  3.18419E+00  5.60622E+00  3.17291E+00
   3.75964E+00  2.33526E+00  4.80999E+00  2.86413E+00  1.33619E+00  1.36251E+00  5.17203E+00  5.25607E+00  3.28794E+00  5.87975E+00
   3.45818E-01  2.33628E+00 -1.88479E+00 -4.31800E-02  4.87342E+00  5.43371E+00  5.75255E+00  1.26551E+00
 NY points of the fit to the data follow
   4.73432E+00  4.24509E+00  3.83751E+00  3.66614E+00  3.77037E+00  4.06836E+00  4.54594E+00  5.24195E+00  6.14238E+00  7.16452E+00
   8.15730E+00  8.93926E+00  9.37883E+00  9.46135E+00  9.27095E+00  8.93163E+00  8.54433E+00  8.14873E+00  7.71974E+00  7.18731E+00
   6.51590E+00  5.87260E+00  5.44167E+00  5.33296E+00  5.43806E+00  5.72037E+00  6.23174E+00  6.98563E+00  7.92340E+00  8.88642E+00
   9.68179E+00  1.01459E+01  1.01878E+01  9.81863E+00  9.15318E+00  8.35589E+00  7.57473E+00  6.87918E+00  6.32677E+00  5.95244E+00
   5.82678E+00  6.01077E+00  6.46067E+00  7.14951E+00  7.98407E+00  8.79415E+00  9.37846E+00  9.57623E+00  9.34977E+00  8.76881E+00
   8.00219E+00  7.22854E+00  6.53163E+00  5.95650E+00  5.51587E+00  5.18533E+00  4.94930E+00  4.84876E+00  4.92828E+00  5.11906E+00
   5.28936E+00  5.35993E+00  5.33164E+00  5.25449E+00  5.17613E+00  5.11903E+00  5.10583E+00  5.15404E+00  5.24766E+00  5.36925E+00
   5.52843E+00  5.71372E+00  5.88608E+00  6.00652E+00  6.03003E+00  5.93546E+00  5.73824E+00  5.51224E+00  5.39457E+00  5.44262E+00
   5.65185E+00  5.97668E+00  6.38965E+00  6.87500E+00  7.35278E+00  7.71930E+00  7.91438E+00  7.90156E+00  7.66239E+00  7.25634E+00
   6.77845E+00  6.28372E+00  5.82302E+00  5.51269E+00  5.64620E+00  6.42455E+00  7.82221E+00  9.79943E+00  1.23205E+01  1.51785E+01
   1.80913E+01  2.07153E+01  2.26424E+01  2.35413E+01  2.33024E+01  2.20892E+01  2.02366E+01  1.80671E+01  1.57809E+01  1.34862E+01
   1.12394E+01  9.06032E+00  7.06208E+00  5.51791E+00  4.74868E+00  4.54097E+00  4.50895E+00  4.59762E+00  4.96254E+00  5.83304E+00
   7.20805E+00  9.00791E+00  1.11697E+01  1.36335E+01  1.62637E+01  1.87907E+01  2.08373E+01  2.20519E+01  2.22663E+01  2.15549E+01
   2.01663E+01  1.83747E+01  1.63725E+01  1.42665E+01  1.21199E+01  1.00099E+01  8.05954E+00  6.47684E+00  5.54541E+00  5.24030E+00
   5.15026E+00  5.09516E+00  5.03376E+00  4.96278E+00  4.89376E+00  4.82049E+00  4.70852E+00  4.54510E+00  4.34082E+00  4.11138E+00
   3.88348E+00  3.67424E+00  3.46664E+00  3.24815E+00  3.00993E+00  2.76112E+00  2.52183E+00  2.29037E+00  2.05939E+00  1.84443E+00
   1.68001E+00  1.58662E+00  1.55209E+00  1.53329E+00  1.47803E+00  1.35187E+00  1.15030E+00  8.83103E-01  5.71313E-01  2.54361E-01
  -5.18395E-02 -3.69316E-01 -7.41530E-01 -1.13261E+00 -1.46197E+00 -1.66503E+00 -1.72247E+00 -1.70927E+00 -1.70079E+00 -1.70662E+00
  -1.68896E+00 -1.60276E+00 -1.41885E+00 -1.12899E+00 -7.38649E-01 -2.60126E-01  2.91974E-01  8.80061E-01  1.48542E+00  2.07151E+00
   2.54853E+00  2.85484E+00  2.98902E+00  3.03676E+00  3.10302E+00  3.26438E+00  3.56449E+00  4.00816E+00  4.57033E+00  5.24488E+00
   5.96108E+00  6.52535E+00  6.80184E+00  6.71488E+00  6.20388E+00  5.30032E+00  4.17124E+00  3.09331E+00  2.31222E+00  1.95764E+00
   2.11650E+00  2.78445E+00  3.83837E+00  5.01983E+00  6.04604E+00  6.73821E+00  7.01278E+00  6.85462E+00  6.34257E+00  5.64620E+00
   4.93513E+00  4.36072E+00  4.16086E+00  4.39355E+00  4.94693E+00  5.74463E+00  6.72215E+00  7.80327E+00  8.82823E+00  9.72419E+00
   1.05076E+01  1.11851E+01  1.17404E+01  1.21366E+01  1.24066E+01  1.26888E+01  1.30483E+01  1.34311E+01  1.37742E+01  1.40313E+01
   1.41937E+01  1.42870E+01  1.43512E+01  1.44480E+01  1.46493E+01  1.49600E+01  1.53229E+01  1.56975E+01  1.61456E+01  1.67033E+01
   1.74618E+01  1.90482E+01  2.21672E+01  2.67038E+01  3.23502E+01  3.90084E+01  4.65826E+01  5.46509E+01  6.23199E+01  6.83815E+01
   7.16999E+01  7.17383E+01  6.87970E+01  6.37525E+01  5.75592E+01  5.08690E+01  4.40083E+01  3.71145E+01  3.03103E+01  2.38512E+01
   1.83959E+01  1.50042E+01  1.35453E+01  1.27093E+01  1.20816E+01  1.15656E+01  1.11046E+01  1.06709E+01  1.02721E+01  9.90554E+00
   9.56981E+00  9.26528E+00  8.99145E+00  8.74892E+00  8.54978E+00  8.40505E+00  8.31511E+00  8.27730E+00  8.29064E+00  8.35406E+00
   8.46519E+00  8.61921E+00  8.81244E+00  9.04449E+00  9.31285E+00  9.61269E+00  9.93804E+00  1.02816E+01  1.06352E+01  1.09892E+01
   1.13340E+01  1.16602E+01  1.19585E+01  1.22197E+01  1.24367E+01  1.26034E+01  1.27159E+01  1.27721E+01  1.27725E+01  1.27196E+01
   1.26182E+01  1.24748E+01  1.22979E+01  1.20976E+01  1.18853E+01  1.16739E+01  1.14783E+01  1.13197E+01  1.12279E+01  1.12017E+01
   1.12145E+01  1.12460E+01  1.12799E+01  1.12926E+01  1.12453E+01  1.10928E+01  1.08314E+01  1.05088E+01  1.01872E+01  9.93397E+00
   9.80969E+00  9.85592E+00  1.00876E+01  1.04892E+01  1.10174E+01  1.16127E+01  1.22241E+01  1.28314E+01  1.34344E+01  1.39861E+01
   1.44460E+01  1.48186E+01  1.51047E+01  1.52962E+01  1.53767E+01  1.53418E+01  1.52490E+01  1.51521E+01  1.50529E+01  1.49703E+01
   1.49327E+01  1.49632E+01  1.50700E+01  1.52429E+01  1.54563E+01  1.56754E+01  1.58700E+01  1.60257E+01  1.61421E+01  1.62023E+01
   1.61780E+01  1.60731E+01  1.58942E+01  1.56445E+01  1.53274E+01  1.49559E+01  1.45659E+01  1.41798E+01  1.37893E+01  1.33916E+01
   1.29889E+01  1.25849E+01  1.21842E+01  1.17914E+01  1.14116E+01  1.10492E+01  1.07089E+01  1.03948E+01  1.01106E+01  9.85979E+00
   9.64564E+00  9.47094E+00  9.33843E+00  9.25045E+00  9.20933E+00  9.21706E+00  9.27561E+00  9.38658E+00  9.55139E+00  9.77088E+00
   1.00454E+01  1.03746E+01  1.07571E+01  1.11905E+01  1.16709E+01  1.21931E+01  1.27503E+01  1.33340E+01  1.39342E+01  1.45394E+01
   1.51370E+01  1.57136E+01  1.62553E+01  1.67483E+01  1.71797E+01  1.75374E+01  1.78114E+01  1.79937E+01  1.80790E+01  1.80647E+01
   1.79512E+01  1.77416E+01  1.74419E+01  1.70601E+01  1.66063E+01  1.60920E+01  1.55295E+01  1.49314E+01  1.43102E+01  1.36775E+01
   1.30443E+01  1.24198E+01  1.18123E+01  1.12282E+01  1.06725E+01  1.01486E+01  9.65873E+00  9.20393E+00  8.78424E+00  8.39883E+00
   8.04639E+00  7.72508E+00  7.43289E+00  7.16751E+00  6.92672E+00  6.70820E+00  6.50985E+00  6.32959E+00  6.16559E+00  6.01605E+00
   5.87948E+00  5.75441E+00  5.63968E+00  5.53412E+00  5.43683E+00  5.34687E+00  5.26354E+00  5.18612E+00  5.11409E+00  5.04689E+00
   4.98411E+00  4.92528E+00  4.87011E+00  4.81821E+00  4.76939E+00  4.72333E+00  4.67985E+00  4.63869E+00  4.59973E+00  4.56275E+00
   4.52767E+00  4.49428E+00  4.46253E+00  4.43223E+00  4.40336E+00  4.37575E+00  4.34940E+00  4.32416E+00  4.30000E+00  4.27680E+00
   4.25457E+00  4.23320E+00  4.21270E+00  4.19294E+00  4.17394E+00  4.15559E+00  4.13794E+00  4.12088E+00  4.10443E+00  4.08848E+00
   4.07308E+00  4.05814E+00  4.04369E+00  4.02965E+00  4.01604E+00  4.00278E+00  3.98990E+00  3.97733E+00  3.96511E+00  3.95315E+00
   3.94148E+00  3.93002E+00  3.91883E+00  3.90781E+00  3.89701E+00  3.88633E+00  3.87581E+00  3.86537E+00
 NY background values follow
     8.212E-01    8.249E-01    8.287E-01    8.324E-01    8.361E-01    8.398E-01    8.436E-01    8.473E-01    8.510E-01    8.548E-01
     8.585E-01    8.622E-01    8.659E-01    8.697E-01    8.734E-01    8.771E-01    8.809E-01    8.846E-01    8.883E-01    8.920E-01
     8.958E-01    8.995E-01    9.032E-01    9.069E-01    9.107E-01    9.144E-01    9.181E-01    9.219E-01    9.256E-01    9.293E-01
     9.330E-01    9.368E-01    9.405E-01    9.442E-01    9.479E-01    9.517E-01    9.554E-01    9.591E-01    9.628E-01    9.666E-01
     9.703E-01    9.740E-01    9.778E-01    9.815E-01    9.852E-01    9.889E-01    9.927E-01    9.964E-01    1.000E+00    1.004E+00
     1.008E+00    1.011E+00    1.015E+00    1.019E+00    1.022E+00    1.026E+00    1.030E+00    1.034E+00    1.037E+00    1.041E+00
     1.045E+00    1.049E+00    1.052E+00    1.056E+00    1.060E+00    1.063E+00    1.067E+00    1.071E+00    1.075E+00    1.078E+00
     1.082E+00    1.086E+00    1.089E+00    1.093E+00    1.097E+00    1.101E+00    1.104E+00    1.108E+00    1.112E+00    1.116E+00
     1.119E+00    1.123E+00    1.127E+00    1.130E+00    1.134E+00    1.138E+00    1.142E+00    1.145E+00    1.149E+00    1.153E+00
     1.156E+00    1.160E+00    1.164E+00    1.168E+00    1.171E+00    1.175E+00    1.179E+00    1.183E+00    1.186E+00    1.190E+00
     1.194E+00    1.197E+00    1.201E+00    1.205E+00    1.209E+00    1.212E+00    1.216E+00    1.220E+00    1.223E+00    1.227E+00
     1.231E+00    1.235E+00    1.238E+00    1.242E+00    1.246E+00    1.249E+00    1.253E+00    1.257E+00    1.261E+00    1.264E+00
     1.268E+00    1.272E+00    1.275E+00    1.279E+00    1.283E+00    1.287E+00    1.290E+00    1.294E+00    1.298E+00    1.301E+00
     1.305E+00    1.309E+00    1.313E+00    1.316E+00    1.320E+00    1.324E+00    1.327E+00    1.331E+00    1.335E+00    1.339E+00
     1.342E+00    1.346E+00    1.350E+00    1.353E+00    1.357E+00    1.361E+00    1.365E+00    1.368E+00    1.372E+00    1.376E+00
     1.379E+00    1.383E+00    1.387E+00    1.390E+00    1.394E+00    1.398E+00    1.402E+00    1.405E+00    1.409E+00    1.413E+00
     1.416E+00    1.420E+00    1.424E+00    1.427E+00    1.431E+00    1.435E+00    1.439E+00    1.442E+00    1.446E+00    1.450E+00
     1.453E+00    1.457E+00    1.461E+00    1.464E+00    1.468E+00    1.472E+00    1.476E+00    1.479E+00    1.483E+00    1.487E+00
     1.490E+00    1.494E+00    1.498E+00    1.501E+00    1.505E+00    1.509E+00    1.513E+00    1.516E+00    1.520E+00    1.524E+00
     1.527E+00    1.531E+00    1.535E+00    1.538E+00    1.542E+00    1.546E+00    1.549E+00    1.553E+00    1.557E+00    1.561E+00
     1.564E+00    1.568E+00    1.572E+00    1.575E+00    1.579E+00    1.583E+00    1.586E+00    1.590E+00    1.594E+00    1.597E+00
     1.601E+00    1.605E+00    1.609E+00    1.612E+00    1.616E+00    1.620E+00    1.623E+00    1.627E+00    1.631E+00    1.634E+00
     1.638E+00    1.642E+00    1.645E+00    1.649E+00    1.653E+00    1.656E+00    1.660E+00    1.664E+00    1.667E+00    1.671E+00
     1.675E+00    1.678E+00    1.682E+00    1.686E+00    1.689E+00    1.693E+00    1.697E+00    1.700E+00    1.704E+00    1.708E+00
     1.712E+00    1.715E+00    1.719E+00    1.723E+00    1.726E+00    1.730E+00    1.734E+00    1.737E+00    1.741E+00    1.745E+00
     1.748E+00    1.752E+00    1.756E+00    1.759E+00    1.763E+00    1.767E+00    1.770E+00    1.774E+00    1.778E+00    1.781E+00
     1.785E+00    1.789E+00    1.792E+00    1.796E+00    1.799E+00    1.803E+00    1.807E+00    1.810E+00    1.814E+00    1.818E+00
     1.821E+00    1.825E+00    1.829E+00    1.832E+00    1.836E+00    1.840E+00    1.843E+00    1.847E+00    1.851E+00    1.854E+00
     1.858E+00    1.862E+00    1.865E+00    1.869E+00    1.873E+00    1.876E+00    1.880E+00    1.883E+00    1.887E+00    1.891E+00
     1.894E+00    1.898E+00    1.902E+00    1.905E+00    1.909E+00    1.913E+00    1.916E+00    1.920E+00    1.924E+00    1.927E+00
     1.931E+00    1.934E+00    1.938E+00    1.942E+00    1.945E+00    1.949E+00    1.953E+00    1.956E+00    1.960E+00    1.964E+00
     1.967E+00    1.971E+00    1.974E+00    1.978E+00    1.982E+00    1.985E+00    1.989E+00    1.993E+00    1.996E+00    2.000E+00
     2.003E+00    2.007E+00    2.011E+00    2.014E+00    2.018E+00    2.022E+00    2.025E+00    2.029E+00    2.032E+00    2.036E+00
     2.040E+00    2.043E+00    2.047E+00    2.051E+00    2.054E+00    2.058E+00    2.061E+00    2.065E+00    2.069E+00    2.072E+00
     2.076E+00    2.079E+00    2.083E+00    2.087E+00    2.090E+00    2.094E+00    2.098E+00    2.101E+00    2.105E+00    2.108E+00
     2.112E+00    2.116E+00    2.119E+00    2.123E+00    2.126E+00    2.130E+00    2.134E+00    2.137E+00    2.141E+00    2.144E+00
     2.148E+00    2.152E+00    2.155E+00    2.159E+00    2.162E+00    2.166E+00    2.170E+00    2.173E+00    2.177E+00    2.180E+00
     2.184E+00    2.187E+00    2.191E+00    2.195E+00    2.198E+00    2.202E+00    2.205E+00    2.209E+00    2.213E+00    2.216E+00
     2.220E+00    2.223E+00    2.227E+00    2.231E+00    2.234E+00    2.238E+00    2.241E+00    2.245E+00    2.248E+00    2.252E+00
     2.256E+00    2.259E+00    2.263E+00    2.266E+00    2.270E+00    2.273E+00    2.277E+00    2.281E+00    2.284E+00    2.288E+00
     2.291E+00    2.295E+00    2.298E+00    2.302E+00    2.306E+00    2.309E+00    2.313E+00    2.316E+00    2.320E+00    2.323E+00
     2.327E+00    2.330E+00    2.334E+00    2.338E+00    2.341E+00    2.345E+00    2.348E+00    2.352E+00    2.355E+00    2.359E+00
     2.362E+00    2.366E+00    2.370E+00    2.373E+00    2.377E+00    2.380E+00    2.384E+00    2.387E+00    2.391E+00    2.394E+00
     2.398E+00    2.401E+00    2.405E+00    2.409E+00    2.412E+00    2.416E+00    2.419E+00    2.423E+00    2.426E+00    2.430E+00
     2.433E+00    2.437E+00    2.440E+00    2.444E+00    2.447E+00    2.451E+00    2.454E+00    2.458E+00    2.462E+00    2.465E+00
     2.469E+00    2.472E+00    2.476E+00    2.479E+00    2.483E+00    2.486E+00    2.490E+00    2.493E+00    2.497E+00    2.500E+00
     2.504E+00    2.507E+00    2.511E+00    2.514E+00    2.518E+00    2.521E+00    2.525E+00    2.528E+00    2.532E+00    2.535E+00
     2.539E+00    2.542E+00    2.546E+00    2.549E+00    2.553E+00    2.556E+00    2.560E+00    2.563E+00    2.567E+00    2.570E+00
     2.574E+00    2.577E+00    2.581E+00    2.584E+00    2.588E+00    2.591E+00    2.595E+00    2.598E+00    2.602E+00    2.605E+00
     2.609E+00    2.612E+00    2.616E+00    2.619E+00    2.623E+00    2.626E+00    2.630E+00    2.633E+00
 Ala      Conc. = 2.01E+02
