 LCModel (Version 6.3-1L) Copyright: S.W. Provencher.          Ref.: Magn. Reson. Med. 30:672-679 (1993).                
 Slice#1 Row#5 Col#7  PD_24_press_1_raw_act
 36 lines in following concentration table = NCONC+1
    Conc.  %SD /Cr+PCr  Metabolite                                         
    0.000 999%   0.000 Ala                                                 
  118.697 134%   0.172 Asp                                                 
    0.000 999%   0.000 Cr                                                  
  688.141   9%   1.000 PCr                                                 
   66.736 152% 9.7E-02 GABA                                                
  106.609  93%   0.155 Glc                                                 
 1.17E+03  31%   1.699 Gln                                                 
 1.31E+03  31%   1.899 Glu                                                 
  410.873   6%   0.597 GPC                                                 
    0.000 999%   0.000 PCh                                                 
  104.894  86%   0.152 GSH                                                 
  773.220  36%   1.124 Ins                                                 
  109.836 268%   0.160 Lac                                                 
 1.42E+03   6%   2.069 NAA                                                 
    0.000 999%   0.000 NAAG                                                
   86.276  30%   0.125 Scyllo                                              
  400.955  37%   0.583 Tau                                                 
  250.527  41%   0.364 -CrCH2                                              
  410.873   6%   0.597 GPC+PCh                                             
 1.42E+03   6%   2.069 NAA+NAAG                                            
  688.141   9%   1.000 Cr+PCr                                              
 2.48E+03  26%   3.599 Glu+Gln                                             
    0.000 999%   0.000 Lip13a                                              
 1.25E+03  29%   1.811 Lip13b                                              
  334.364  52%   0.486 Lip09                                               
 1.26E+03  18%   1.837 MM09                                                
  188.048  60%   0.273 Lip20                                               
 2.14E+03  17%   3.107 MM20                                                
  282.386  73%   0.410 MM12                                                
 1.64E+03  24%   2.377 MM14                                                
  614.809  37%   0.893 MM17                                                
 1.25E+03  29%   1.811 Lip13a+Lip13b                                       
 3.16E+03  11%   4.598 MM14+Lip13a+Lip13b+MM12                             
 1.60E+03  11%   2.323 MM09+Lip09                                          
 2.33E+03  15%   3.380 MM20+Lip20                                          
   6 lines in following misc. output table
  FWHM = 0.069 ppm    S/N =   6                                            
  Data shift =-0.031 ppm                                                   
  Ph: -92 deg     -27.8 deg/ppm                                            
  alphaB,S = 8.5E+01,   2.0E+02                                            
   14 spline knots.   Ns = 9(1)                                            
   2 inflections.     1 extrema                                            
  498 points on ppm-axis = NY
      4.000000     3.992357     3.984714     3.977070     3.969427     3.961784     3.954141     3.946497     3.938854     3.931211
      3.923568     3.915925     3.908281     3.900638     3.892995     3.885352     3.877708     3.870065     3.862422     3.854779
      3.847136     3.839492     3.831849     3.824206     3.816563     3.808919     3.801276     3.793633     3.785990     3.778347
      3.770703     3.763060     3.755417     3.747774     3.740130     3.732487     3.724844     3.717201     3.709558     3.701914
      3.694271     3.686628     3.678985     3.671341     3.663698     3.656055     3.648412     3.640769     3.633125     3.625482
      3.617839     3.610196     3.602552     3.594909     3.587266     3.579623     3.571980     3.564336     3.556693     3.549050
      3.541407     3.533763     3.526120     3.518477     3.510834     3.503191     3.495547     3.487904     3.480261     3.472618
      3.464974     3.457331     3.449688     3.442045     3.434402     3.426758     3.419115     3.411472     3.403829     3.396185
      3.388542     3.380899     3.373256     3.365613     3.357969     3.350326     3.342683     3.335040     3.327396     3.319753
      3.312110     3.304467     3.296824     3.289180     3.281537     3.273894     3.266251     3.258607     3.250964     3.243321
      3.235678     3.228034     3.220391     3.212748     3.205105     3.197462     3.189818     3.182175     3.174532     3.166889
      3.159245     3.151602     3.143959     3.136316     3.128673     3.121029     3.113386     3.105743     3.098100     3.090456
      3.082813     3.075170     3.067527     3.059884     3.052240     3.044597     3.036954     3.029311     3.021667     3.014024
      3.006381     2.998738     2.991095     2.983451     2.975808     2.968165     2.960522     2.952878     2.945235     2.937592
      2.929949     2.922306     2.914662     2.907019     2.899376     2.891733     2.884089     2.876446     2.868803     2.861160
      2.853517     2.845873     2.838230     2.830587     2.822944     2.815300     2.807657     2.800014     2.792371     2.784728
      2.777084     2.769441     2.761798     2.754155     2.746511     2.738868     2.731225     2.723582     2.715939     2.708295
      2.700652     2.693009     2.685366     2.677722     2.670079     2.662436     2.654793     2.647150     2.639506     2.631863
      2.624220     2.616577     2.608933     2.601290     2.593647     2.586004     2.578361     2.570717     2.563074     2.555431
      2.547788     2.540144     2.532501     2.524858     2.517215     2.509572     2.501928     2.494285     2.486642     2.478999
      2.471355     2.463712     2.456069     2.448426     2.440783     2.433139     2.425496     2.417853     2.410210     2.402566
      2.394923     2.387280     2.379637     2.371994     2.364350     2.356707     2.349064     2.341421     2.333777     2.326134
      2.318491     2.310848     2.303205     2.295561     2.287918     2.280275     2.272632     2.264988     2.257345     2.249702
      2.242059     2.234416     2.226772     2.219129     2.211486     2.203843     2.196199     2.188556     2.180913     2.173270
      2.165627     2.157983     2.150340     2.142697     2.135054     2.127410     2.119767     2.112124     2.104481     2.096838
      2.089194     2.081551     2.073908     2.066265     2.058621     2.050978     2.043335     2.035692     2.028049     2.020405
      2.012762     2.005119     1.997476     1.989833     1.982190     1.974546     1.966903     1.959260     1.951617     1.943974
      1.936331     1.928688     1.921045     1.913402     1.905759     1.898115     1.890472     1.882829     1.875186     1.867543
      1.859900     1.852257     1.844614     1.836971     1.829327     1.821684     1.814041     1.806398     1.798755     1.791112
      1.783469     1.775826     1.768183     1.760540     1.752896     1.745253     1.737610     1.729967     1.722324     1.714681
      1.707038     1.699395     1.691752     1.684108     1.676465     1.668822     1.661179     1.653536     1.645893     1.638250
      1.630607     1.622964     1.615321     1.607677     1.600034     1.592391     1.584748     1.577105     1.569462     1.561819
      1.554176     1.546533     1.538890     1.531246     1.523603     1.515960     1.508317     1.500674     1.493031     1.485388
      1.477745     1.470102     1.462458     1.454815     1.447172     1.439529     1.431886     1.424243     1.416600     1.408957
      1.401314     1.393671     1.386027     1.378384     1.370741     1.363098     1.355455     1.347812     1.340169     1.332526
      1.324883     1.317240     1.309596     1.301953     1.294310     1.286667     1.279024     1.271381     1.263738     1.256095
      1.248452     1.240808     1.233165     1.225522     1.217879     1.210236     1.202593     1.194950     1.187307     1.179664
      1.172021     1.164377     1.156734     1.149091     1.141448     1.133805     1.126162     1.118519     1.110876     1.103233
      1.095590     1.087946     1.080303     1.072660     1.065017     1.057374     1.049731     1.042088     1.034445     1.026802
      1.019158     1.011515     1.003872     0.996229     0.988586     0.980943     0.973300     0.965657     0.958014     0.950371
      0.942727     0.935084     0.927441     0.919798     0.912155     0.904512     0.896869     0.889226     0.881583     0.873940
      0.866296     0.858653     0.851010     0.843367     0.835724     0.828081     0.820438     0.812795     0.805152     0.797508
      0.789865     0.782222     0.774579     0.766936     0.759293     0.751650     0.744007     0.736364     0.728721     0.721077
      0.713434     0.705791     0.698148     0.690505     0.682862     0.675219     0.667576     0.659933     0.652290     0.644646
      0.637003     0.629360     0.621717     0.614074     0.606431     0.598788     0.591145     0.583502     0.575858     0.568215
      0.560572     0.552929     0.545286     0.537643     0.530000     0.522357     0.514714     0.507071     0.499427     0.491784
      0.484141     0.476498     0.468855     0.461212     0.453569     0.445925     0.438282     0.430639     0.422996     0.415353
      0.407710     0.400067     0.392424     0.384780     0.377137     0.369494     0.361851     0.354208     0.346565     0.338922
      0.331278     0.323635     0.315992     0.308349     0.300706     0.293063     0.285420     0.277777     0.270133     0.262490
      0.254847     0.247204     0.239561     0.231918     0.224275     0.216631     0.208988     0.201345
 NY phased data points follow
  -1.36815E+01 -1.71229E+01 -1.13231E+01 -1.95912E+01 -1.85839E+01 -9.69240E+00 -1.05287E+01 -4.81719E+00 -2.98706E+00 -4.66395E+00
  -3.99820E+00 -3.25690E+00  2.42598E+00 -4.34676E+00 -6.40056E+00 -9.80724E+00 -1.11125E+01 -1.73175E+01 -1.27310E+01 -1.08569E+01
  -1.22863E+01 -1.70078E+01 -9.45599E+00 -1.37361E+01 -1.16509E+01 -1.42435E+01 -9.71857E+00 -7.75494E+00 -9.85923E+00 -6.49311E+00
  -6.03890E+00 -9.24156E+00 -6.45419E+00 -9.11742E+00 -1.32475E+01 -9.65577E+00 -9.39966E+00 -1.16094E+01 -8.56882E+00 -1.21370E+01
  -8.70486E+00 -8.23831E+00 -5.06054E+00 -4.93928E+00  8.23615E-01 -6.57424E+00 -4.51957E+00 -7.62004E+00 -6.54713E+00 -2.11212E+00
  -2.89759E+00 -5.53529E+00 -6.81799E+00 -4.94616E+00 -1.04097E+01 -1.29528E+01 -1.07685E+01 -1.24994E+01 -1.33601E+01 -9.53660E+00
  -1.18409E+01 -6.84796E+00 -1.32043E+01 -1.50814E+01 -4.33375E+00 -6.97823E+00 -1.18976E+01 -1.05574E+01 -1.17986E+00 -5.68547E+00
  -1.06812E+01 -7.10608E+00 -5.44236E+00 -7.85205E+00 -5.64126E+00 -5.52565E+00 -3.05531E+00 -5.70125E+00 -1.20091E+01 -8.36206E+00
  -4.51115E+00 -7.71071E+00 -1.23190E+01 -1.07506E+01 -3.04642E+00 -8.50994E+00 -1.62292E+00 -5.74530E+00 -1.14558E+01 -1.53436E+00
  -3.99350E+00 -6.74363E+00 -7.26261E+00 -5.52138E+00  1.11821E+00  3.92691E+00 -4.06101E+00  3.72778E+00  1.79113E+00  1.15880E+01
   1.51534E+01  2.33805E+01  2.48127E+01  2.27039E+01  2.03375E+01  1.47256E+01  1.04278E+01  1.01503E+01  6.94188E+00 -9.65899E-02
  -1.65724E+00 -5.21622E+00 -8.67545E+00 -4.06310E+00 -8.67978E+00 -1.05345E+01 -3.55185E+00 -8.84287E+00 -1.26645E+01 -3.00671E+00
  -1.14497E+01 -3.65964E+00 -9.18941E-01 -8.42406E+00  3.28414E+00  9.66949E+00  1.33591E+01  8.61140E+00  6.73156E+00  1.11050E+01
   1.04334E+01  9.22805E+00  5.74006E+00  4.28466E+00 -5.07848E+00 -4.54741E+00 -6.86280E+00 -7.79862E+00 -9.23217E+00 -1.15346E+01
  -6.07521E+00 -1.04477E+01 -8.61134E-01 -1.40096E+01 -1.04195E+01 -9.52892E+00 -5.75177E+00 -8.13393E+00 -1.04217E+01 -8.43949E+00
  -6.29559E+00 -5.74644E+00 -6.90752E+00 -7.79498E+00 -6.13287E+00 -4.55025E+00 -4.23282E+00 -1.30083E+01 -4.41142E+00 -1.11931E+01
  -7.36689E+00 -1.12283E+01 -3.34424E+00 -1.19614E+01 -1.19638E+01 -1.13995E+01 -9.43178E+00 -6.64384E+00 -1.05646E+01 -4.23952E+00
  -8.44918E+00 -1.05383E+01 -1.51474E+01 -9.22602E+00 -1.46056E+01 -1.51282E+01 -1.14270E+01 -1.43972E+01 -1.08773E+01 -1.27290E+01
  -1.76675E+01 -1.23967E+01 -7.24323E+00 -1.26324E+01 -1.15733E+01 -1.29377E+01 -1.18124E+01 -4.83350E+00 -1.22826E+01 -8.28630E+00
  -4.27762E+00 -4.44262E+00 -5.55886E+00 -1.22429E+01 -4.01724E+00 -7.55828E+00 -1.79351E+00 -1.72780E+00 -7.84050E+00 -1.12335E+01
  -5.16520E+00 -4.24569E+00 -3.05801E+00 -3.88247E+00 -1.79768E+00 -5.67849E+00  3.09979E+00 -9.44842E+00 -2.84010E+00 -5.36002E+00
  -8.44896E+00 -5.47871E+00 -1.81647E+00 -3.63830E+00 -6.39803E-01  5.94311E+00  3.99320E+00  2.90487E+00  3.04545E+00  1.18297E+00
  -4.85053E+00 -5.33472E+00 -5.04446E+00 -1.80721E+00 -7.20134E+00  5.65142E-01  4.69412E+00  1.20886E+00  3.34379E+00 -1.67745E+00
   3.13127E+00  4.47312E+00  1.43034E+00 -4.96146E-01 -3.63839E+00  2.92949E+00 -4.45271E+00 -1.98966E+00  5.57797E+00  2.72868E+00
  -1.28753E+00  1.83407E+00  1.14202E+00 -4.01333E+00 -7.65662E-01 -1.09273E+00  3.32211E-01  1.10096E+00  1.29816E+00  2.83263E+00
   6.03643E+00  8.16830E+00  5.48698E+00  1.32335E+01  1.22285E+01  1.81956E+01  2.24004E+01  2.66541E+01  2.70057E+01  3.33546E+01
   4.14165E+01  4.61313E+01  3.87417E+01  3.52645E+01  3.05394E+01  2.66327E+01  1.99559E+01  1.48883E+01  1.04332E+01  3.43875E+00
   6.63897E+00  5.30221E+00  6.77518E+00  8.80302E+00  9.10575E+00 -1.99608E+00  8.21712E+00  2.22292E+00  2.48021E+00  3.12783E+00
   6.63716E+00  5.12447E+00 -5.82387E+00 -8.46905E-01  2.35481E+00  3.01590E+00  1.66848E+00 -4.56597E+00  6.59779E-01 -1.29173E+00
   8.46131E-01 -1.33391E+00 -3.85986E+00 -1.95835E+00  1.62377E-01  4.22061E-01 -5.25567E+00 -2.01960E+00  1.76921E+00  4.56779E+00
  -1.56074E+00  1.06256E+00 -3.45451E-02 -1.31582E-01  5.90762E+00  6.87150E+00 -3.36792E+00  1.31897E+00  3.58419E+00  6.29558E+00
   3.83827E-01  6.19328E+00  8.70014E+00  4.70845E+00  6.78629E+00 -6.89805E-01  7.10275E+00  4.30205E+00  6.74343E+00  8.58552E+00
   5.84990E+00  6.79707E+00  2.78345E+00  1.37537E+00  3.02964E+00  9.96183E+00  5.06802E+00  3.60769E+00  3.33287E+00  4.91673E+00
   8.24410E+00  7.61381E+00  7.43144E+00  1.07683E+01  1.12128E+01  7.43218E+00  9.18967E+00  6.00955E+00  1.45591E+01  4.78709E+00
   5.18134E+00  6.32186E+00  1.21266E+01  9.85957E+00  1.26812E+01  9.72981E+00  1.01251E+01  1.77363E+01  1.25503E+01  1.82290E+01
   1.28964E+01  1.44158E+01  1.80158E+01  1.87620E+01  2.20771E+01  1.56388E+01  1.73633E+01  1.81863E+01  1.40899E+01  1.23733E+01
   8.92559E+00  1.09368E+01  1.32165E+01  7.10678E+00  6.54430E+00  7.04401E+00  1.35661E+00  5.35000E+00  2.48665E+00  1.06846E+00
  -1.81288E+00 -7.68892E-01  1.45678E+00 -4.73605E+00  7.79729E-01  7.60929E+00  1.32803E+00 -3.04832E+00  5.15326E+00  5.39689E+00
   4.10642E+00  5.85616E+00  7.06400E+00  6.72396E+00  8.10434E+00  7.39285E+00  5.54849E+00  9.17384E+00  1.01481E+01  9.43223E+00
   9.58630E+00  5.50540E+00  1.21420E+01  8.69895E+00  7.54170E+00  7.41674E+00  4.28303E+00  6.26674E+00  7.49815E+00  1.09214E+01
   8.85731E+00  9.47012E+00  1.07288E+01  8.82937E+00  8.54538E+00  9.55519E+00  1.23591E+01  1.16711E+01  6.94810E+00  1.37314E+01
   1.03008E+01  9.41614E+00  6.94746E+00  8.32747E+00  1.56527E+01  9.54868E+00  8.97490E+00  1.15618E+01  1.26341E+01  1.13281E+01
   1.13067E+01  7.40251E+00  1.09140E+01  5.89315E+00  6.95817E+00  7.16605E+00  1.32721E+01  1.06329E+01  4.45363E+00  7.47015E+00
   8.30484E+00  7.74141E+00  1.09595E+01  1.17473E+00  5.41761E-01  6.56203E+00 -4.29925E+00 -3.87257E+00 -1.33892E+00 -2.21739E+00
   3.20071E+00 -1.32102E+00 -1.03250E-01  5.55608E+00  1.88344E+00  6.65421E+00 -1.38068E+00  7.27079E+00  1.67817E+00  4.80658E+00
   3.42824E+00  5.99904E+00  3.86084E-01  7.20736E+00 -1.70323E-01  3.83517E+00 -1.32537E+00  2.55455E+00  2.63038E+00 -3.00290E-01
  -1.62954E+00  4.58873E+00 -1.60030E+00  4.42048E+00  1.10401E+00  4.48308E+00  4.12424E+00 -2.42063E+00 -4.28866E+00  3.96666E+00
   4.90154E+00  5.49806E+00  4.80291E+00  6.29739E+00  7.18564E+00  8.00322E+00  4.42147E-01  7.56910E+00 -1.82672E+00  3.83005E+00
   8.23501E+00  6.89926E+00  2.28117E+00  7.55932E+00  1.43263E+00  2.36112E+00  2.78920E+00  5.80454E-01  3.75185E+00  1.46935E+00
   5.03376E+00  7.81469E-01  8.97644E-01  9.49352E+00 -1.48526E+00  5.46771E+00  9.40438E+00  5.48449E+00
 NY points of the fit to the data follow
  -1.24038E+01 -1.22674E+01 -1.18551E+01 -1.12366E+01 -1.04142E+01 -9.36646E+00 -8.08906E+00 -6.65565E+00 -5.26465E+00 -4.16015E+00
  -3.53322E+00 -3.44836E+00 -3.83715E+00 -4.56638E+00 -5.50152E+00 -6.53086E+00 -7.55101E+00 -8.48365E+00 -9.26175E+00 -9.87074E+00
  -1.02910E+01 -1.05241E+01 -1.06699E+01 -1.07496E+01 -1.08094E+01 -1.08516E+01 -1.08042E+01 -1.05579E+01 -1.00293E+01 -9.21040E+00
  -8.21618E+00 -7.27028E+00 -6.60271E+00 -6.34659E+00 -6.52990E+00 -7.08391E+00 -7.84067E+00 -8.60986E+00 -9.21211E+00 -9.52052E+00
  -9.48284E+00 -9.13530E+00 -8.54157E+00 -7.76285E+00 -6.90365E+00 -6.08191E+00 -5.43491E+00 -5.08289E+00 -5.09139E+00 -5.44743E+00
  -6.05519E+00 -6.79361E+00 -7.55820E+00 -8.26650E+00 -8.86544E+00 -9.30323E+00 -9.53302E+00 -9.55038E+00 -9.39862E+00 -9.17662E+00
  -8.97974E+00 -8.88068E+00 -8.89332E+00 -8.97010E+00 -9.06344E+00 -9.15001E+00 -9.19191E+00 -9.14936E+00 -9.03467E+00 -8.86932E+00
  -8.65893E+00 -8.41902E+00 -8.17498E+00 -7.95131E+00 -7.79148E+00 -7.74554E+00 -7.83202E+00 -7.98469E+00 -8.11223E+00 -8.20590E+00
  -8.23977E+00 -8.16422E+00 -7.93991E+00 -7.56696E+00 -7.12263E+00 -6.73741E+00 -6.52270E+00 -6.53317E+00 -6.76954E+00 -7.16355E+00
  -7.61448E+00 -8.05076E+00 -8.26296E+00 -7.65423E+00 -6.15091E+00 -4.08011E+00 -1.46439E+00  1.90563E+00  6.12849E+00  1.09906E+01
   1.58792E+01  1.99162E+01  2.22895E+01  2.25900E+01  2.09279E+01  1.77572E+01  1.36377E+01  9.08373E+00  4.53969E+00  4.26917E-01
  -2.90468E+00 -5.29438E+00 -6.75778E+00 -7.43636E+00 -7.72872E+00 -7.90547E+00 -8.00790E+00 -7.98772E+00 -7.57164E+00 -6.63105E+00
  -5.38718E+00 -3.91331E+00 -2.08099E+00  2.42452E-01  3.02913E+00  5.99027E+00  8.61457E+00  1.03761E+01  1.09485E+01  1.03153E+01
   8.70205E+00  6.42239E+00  3.77571E+00  1.02673E+00 -1.56773E+00 -3.76135E+00 -5.39038E+00 -6.41634E+00 -6.89569E+00 -7.04027E+00
  -7.07182E+00 -7.05801E+00 -7.02710E+00 -6.99867E+00 -6.98746E+00 -7.00544E+00 -7.05918E+00 -7.14197E+00 -7.24051E+00 -7.34153E+00
  -7.43412E+00 -7.51651E+00 -7.60290E+00 -7.70197E+00 -7.80272E+00 -7.89707E+00 -7.98235E+00 -8.07412E+00 -8.19540E+00 -8.33673E+00
  -8.46192E+00 -8.53512E+00 -8.54130E+00 -8.49578E+00 -8.43513E+00 -8.39724E+00 -8.40679E+00 -8.47739E+00 -8.61168E+00 -8.77936E+00
  -8.96062E+00 -9.15710E+00 -9.37746E+00 -9.60518E+00 -9.78917E+00 -9.89075E+00 -9.90241E+00 -9.85204E+00 -9.78287E+00 -9.70997E+00
  -9.60714E+00 -9.45724E+00 -9.26286E+00 -9.03853E+00 -8.80431E+00 -8.56251E+00 -8.28569E+00 -7.97011E+00 -7.62148E+00 -7.28080E+00
  -7.01641E+00 -6.85998E+00 -6.78020E+00 -6.72539E+00 -6.65188E+00 -6.49563E+00 -6.18048E+00 -5.67642E+00 -5.00351E+00 -4.20224E+00
  -3.40349E+00 -2.80391E+00 -2.46170E+00 -2.44841E+00 -2.90127E+00 -3.86157E+00 -5.18431E+00 -6.56462E+00 -7.72255E+00 -8.40731E+00
  -8.41091E+00 -7.66787E+00 -6.31192E+00 -4.65515E+00 -3.04135E+00 -1.73506E+00 -9.72840E-01 -9.33734E-01 -1.59840E+00 -2.74722E+00
  -4.04575E+00 -5.12551E+00 -5.67779E+00 -5.58667E+00 -4.89627E+00 -3.77435E+00 -2.48567E+00 -1.28490E+00 -3.19141E-01  3.57763E-01
   7.31775E-01  8.41711E-01  7.96780E-01  6.87195E-01  6.32245E-01  7.85220E-01  1.18752E+00  1.73971E+00  2.28504E+00  2.67599E+00
   2.81517E+00  2.70195E+00  2.42208E+00  2.10006E+00  1.85648E+00  1.76753E+00  1.87224E+00  2.19336E+00  2.75166E+00  3.51063E+00
   4.47265E+00  5.94662E+00  8.34081E+00  1.12376E+01  1.42999E+01  1.77070E+01  2.17833E+01  2.66320E+01  3.19049E+01  3.67486E+01
   4.01202E+01  4.12386E+01  3.99065E+01  3.64824E+01  3.15983E+01  2.59086E+01  1.99818E+01  1.43350E+01  9.45890E+00  5.70273E+00
   3.18133E+00  1.80439E+00  1.25599E+00  1.02317E+00  8.92683E-01  7.98988E-01  7.03589E-01  5.90316E-01  4.56079E-01  3.01726E-01
   1.36702E-01 -2.35359E-02 -1.63536E-01 -2.71447E-01 -3.39243E-01 -3.66538E-01 -3.58935E-01 -3.22636E-01 -2.63378E-01 -1.86098E-01
  -9.36879E-02  1.26445E-02  1.33432E-01  2.70331E-01  4.24486E-01  5.96157E-01  7.84817E-01  9.88925E-01  1.20584E+00  1.43229E+00
   1.66497E+00  1.90014E+00  2.13363E+00  2.36139E+00  2.57979E+00  2.78558E+00  2.97645E+00  3.15091E+00  3.30832E+00  3.44897E+00
   3.57413E+00  3.68601E+00  3.78773E+00  3.88302E+00  3.97613E+00  4.07140E+00  4.17325E+00  4.28589E+00  4.41311E+00  4.55796E+00
   4.72260E+00  4.90816E+00  5.11470E+00  5.34114E+00  5.58529E+00  5.84391E+00  6.11283E+00  6.38714E+00  6.66149E+00  6.93031E+00
   7.18814E+00  7.42984E+00  7.65108E+00  7.84871E+00  8.02139E+00  8.17025E+00  8.30019E+00  8.42266E+00  8.55857E+00  8.71152E+00
   8.87562E+00  9.07452E+00  9.34595E+00  9.71942E+00  1.02074E+01  1.08091E+01  1.15390E+01  1.24036E+01  1.33828E+01  1.44464E+01
   1.55498E+01  1.66228E+01  1.75699E+01  1.82791E+01  1.86400E+01  1.85651E+01  1.80122E+01  1.70003E+01  1.56080E+01  1.39502E+01
   1.21623E+01  1.03822E+01  8.72269E+00  7.26456E+00  6.05253E+00  5.09729E+00  4.38509E+00  3.87651E+00  3.52383E+00  3.28751E+00
   3.13592E+00  3.04487E+00  2.99697E+00  2.98042E+00  2.98781E+00  3.01477E+00  3.05913E+00  3.12010E+00  3.19782E+00  3.29300E+00
   3.40670E+00  3.54019E+00  3.69483E+00  3.87208E+00  4.07340E+00  4.30020E+00  4.55375E+00  4.83509E+00  5.14499E+00  5.48375E+00
   5.85121E+00  6.24647E+00  6.66788E+00  7.11278E+00  7.57756E+00  8.05749E+00  8.54677E+00  9.03846E+00  9.52471E+00  9.99677E+00
   1.04454E+01  1.08610E+01  1.12343E+01  1.15561E+01  1.18183E+01  1.20140E+01  1.21378E+01  1.21863E+01  1.21580E+01  1.20536E+01
   1.18759E+01  1.16296E+01  1.13213E+01  1.09590E+01  1.05518E+01  1.01093E+01  9.64170E+00  9.15882E+00  8.67013E+00  8.18426E+00
   7.70887E+00  7.25042E+00  6.81413E+00  6.40399E+00  6.02279E+00  5.67219E+00  5.35287E+00  5.06465E+00  4.80671E+00  4.57772E+00
   4.37598E+00  4.19952E+00  4.04625E+00  3.91404E+00  3.80082E+00  3.70460E+00  3.62353E+00  3.55585E+00  3.50001E+00  3.45457E+00
   3.41830E+00  3.39010E+00  3.36900E+00  3.35411E+00  3.34471E+00  3.34013E+00  3.33983E+00  3.34332E+00  3.35017E+00  3.36000E+00
   3.37248E+00  3.38734E+00  3.40435E+00  3.42329E+00  3.44395E+00  3.46617E+00  3.48981E+00  3.51472E+00  3.54082E+00  3.56798E+00
   3.59612E+00  3.62513E+00  3.65496E+00  3.68555E+00  3.71684E+00  3.74877E+00  3.78128E+00  3.81433E+00  3.84789E+00  3.88192E+00
   3.91641E+00  3.95130E+00  3.98656E+00  4.02218E+00  4.05816E+00  4.09446E+00  4.13107E+00  4.16795E+00  4.20511E+00  4.24252E+00
   4.28020E+00  4.31812E+00  4.35628E+00  4.39466E+00  4.43325E+00  4.47206E+00  4.51111E+00  4.55038E+00  4.58986E+00  4.62954E+00
   4.66946E+00  4.70961E+00  4.75001E+00  4.79066E+00  4.83157E+00  4.87275E+00  4.91424E+00  4.95608E+00
 NY background values follow
    -1.471E+01   -1.467E+01   -1.463E+01   -1.459E+01   -1.455E+01   -1.451E+01   -1.447E+01   -1.443E+01   -1.439E+01   -1.435E+01
    -1.432E+01   -1.428E+01   -1.424E+01   -1.420E+01   -1.416E+01   -1.412E+01   -1.408E+01   -1.404E+01   -1.400E+01   -1.396E+01
    -1.392E+01   -1.388E+01   -1.384E+01   -1.380E+01   -1.376E+01   -1.372E+01   -1.368E+01   -1.364E+01   -1.360E+01   -1.356E+01
    -1.352E+01   -1.348E+01   -1.344E+01   -1.340E+01   -1.336E+01   -1.332E+01   -1.328E+01   -1.324E+01   -1.320E+01   -1.316E+01
    -1.312E+01   -1.308E+01   -1.304E+01   -1.301E+01   -1.297E+01   -1.293E+01   -1.289E+01   -1.285E+01   -1.281E+01   -1.277E+01
    -1.273E+01   -1.269E+01   -1.265E+01   -1.261E+01   -1.257E+01   -1.253E+01   -1.249E+01   -1.245E+01   -1.241E+01   -1.237E+01
    -1.233E+01   -1.229E+01   -1.225E+01   -1.221E+01   -1.217E+01   -1.213E+01   -1.208E+01   -1.204E+01   -1.200E+01   -1.196E+01
    -1.192E+01   -1.188E+01   -1.184E+01   -1.180E+01   -1.176E+01   -1.172E+01   -1.168E+01   -1.164E+01   -1.160E+01   -1.156E+01
    -1.152E+01   -1.148E+01   -1.144E+01   -1.140E+01   -1.136E+01   -1.132E+01   -1.128E+01   -1.124E+01   -1.120E+01   -1.116E+01
    -1.112E+01   -1.108E+01   -1.104E+01   -1.100E+01   -1.096E+01   -1.092E+01   -1.088E+01   -1.084E+01   -1.080E+01   -1.076E+01
    -1.072E+01   -1.068E+01   -1.064E+01   -1.059E+01   -1.055E+01   -1.051E+01   -1.047E+01   -1.043E+01   -1.039E+01   -1.035E+01
    -1.031E+01   -1.027E+01   -1.023E+01   -1.019E+01   -1.015E+01   -1.011E+01   -1.007E+01   -1.003E+01   -9.988E+00   -9.947E+00
    -9.907E+00   -9.866E+00   -9.826E+00   -9.785E+00   -9.744E+00   -9.704E+00   -9.663E+00   -9.623E+00   -9.582E+00   -9.541E+00
    -9.501E+00   -9.460E+00   -9.420E+00   -9.379E+00   -9.338E+00   -9.298E+00   -9.257E+00   -9.216E+00   -9.176E+00   -9.135E+00
    -9.094E+00   -9.054E+00   -9.013E+00   -8.972E+00   -8.932E+00   -8.891E+00   -8.850E+00   -8.810E+00   -8.769E+00   -8.728E+00
    -8.688E+00   -8.647E+00   -8.606E+00   -8.565E+00   -8.525E+00   -8.484E+00   -8.443E+00   -8.402E+00   -8.362E+00   -8.321E+00
    -8.280E+00   -8.239E+00   -8.199E+00   -8.158E+00   -8.117E+00   -8.076E+00   -8.035E+00   -7.995E+00   -7.954E+00   -7.913E+00
    -7.872E+00   -7.831E+00   -7.791E+00   -7.750E+00   -7.709E+00   -7.668E+00   -7.627E+00   -7.586E+00   -7.546E+00   -7.505E+00
    -7.464E+00   -7.423E+00   -7.382E+00   -7.341E+00   -7.300E+00   -7.260E+00   -7.219E+00   -7.178E+00   -7.137E+00   -7.096E+00
    -7.055E+00   -7.014E+00   -6.973E+00   -6.933E+00   -6.892E+00   -6.851E+00   -6.810E+00   -6.769E+00   -6.728E+00   -6.687E+00
    -6.646E+00   -6.605E+00   -6.564E+00   -6.523E+00   -6.483E+00   -6.442E+00   -6.401E+00   -6.360E+00   -6.319E+00   -6.278E+00
    -6.237E+00   -6.196E+00   -6.155E+00   -6.114E+00   -6.073E+00   -6.032E+00   -5.991E+00   -5.950E+00   -5.909E+00   -5.868E+00
    -5.828E+00   -5.787E+00   -5.746E+00   -5.705E+00   -5.664E+00   -5.623E+00   -5.582E+00   -5.541E+00   -5.500E+00   -5.459E+00
    -5.418E+00   -5.377E+00   -5.336E+00   -5.295E+00   -5.254E+00   -5.213E+00   -5.172E+00   -5.131E+00   -5.090E+00   -5.049E+00
    -5.008E+00   -4.967E+00   -4.926E+00   -4.885E+00   -4.844E+00   -4.803E+00   -4.762E+00   -4.721E+00   -4.680E+00   -4.639E+00
    -4.598E+00   -4.557E+00   -4.516E+00   -4.476E+00   -4.435E+00   -4.394E+00   -4.353E+00   -4.312E+00   -4.271E+00   -4.230E+00
    -4.189E+00   -4.148E+00   -4.107E+00   -4.066E+00   -4.025E+00   -3.984E+00   -3.943E+00   -3.902E+00   -3.861E+00   -3.820E+00
    -3.779E+00   -3.738E+00   -3.697E+00   -3.656E+00   -3.615E+00   -3.574E+00   -3.533E+00   -3.492E+00   -3.451E+00   -3.410E+00
    -3.369E+00   -3.328E+00   -3.287E+00   -3.246E+00   -3.206E+00   -3.165E+00   -3.124E+00   -3.083E+00   -3.042E+00   -3.001E+00
    -2.960E+00   -2.919E+00   -2.878E+00   -2.837E+00   -2.796E+00   -2.755E+00   -2.714E+00   -2.673E+00   -2.632E+00   -2.592E+00
    -2.551E+00   -2.510E+00   -2.469E+00   -2.428E+00   -2.387E+00   -2.346E+00   -2.305E+00   -2.264E+00   -2.223E+00   -2.182E+00
    -2.142E+00   -2.101E+00   -2.060E+00   -2.019E+00   -1.978E+00   -1.937E+00   -1.896E+00   -1.855E+00   -1.815E+00   -1.774E+00
    -1.733E+00   -1.692E+00   -1.651E+00   -1.610E+00   -1.569E+00   -1.529E+00   -1.488E+00   -1.447E+00   -1.406E+00   -1.365E+00
    -1.325E+00   -1.284E+00   -1.243E+00   -1.202E+00   -1.161E+00   -1.120E+00   -1.080E+00   -1.039E+00   -9.981E-01   -9.573E-01
    -9.165E-01   -8.758E-01   -8.350E-01   -7.942E-01   -7.535E-01   -7.127E-01   -6.720E-01   -6.312E-01   -5.905E-01   -5.497E-01
    -5.090E-01   -4.683E-01   -4.276E-01   -3.868E-01   -3.461E-01   -3.054E-01   -2.647E-01   -2.240E-01   -1.834E-01   -1.427E-01
    -1.020E-01   -6.132E-02   -2.065E-02    2.001E-02    6.067E-02    1.013E-01    1.420E-01    1.826E-01    2.232E-01    2.639E-01
     3.045E-01    3.451E-01    3.857E-01    4.263E-01    4.669E-01    5.075E-01    5.481E-01    5.887E-01    6.292E-01    6.698E-01
     7.103E-01    7.509E-01    7.914E-01    8.320E-01    8.725E-01    9.130E-01    9.536E-01    9.941E-01    1.035E+00    1.075E+00
     1.116E+00    1.156E+00    1.197E+00    1.237E+00    1.277E+00    1.318E+00    1.358E+00    1.399E+00    1.439E+00    1.480E+00
     1.520E+00    1.560E+00    1.601E+00    1.641E+00    1.682E+00    1.722E+00    1.762E+00    1.803E+00    1.843E+00    1.884E+00
     1.924E+00    1.964E+00    2.005E+00    2.045E+00    2.085E+00    2.125E+00    2.166E+00    2.206E+00    2.246E+00    2.287E+00
     2.327E+00    2.367E+00    2.407E+00    2.448E+00    2.488E+00    2.528E+00    2.568E+00    2.608E+00    2.649E+00    2.689E+00
     2.729E+00    2.769E+00    2.809E+00    2.849E+00    2.890E+00    2.930E+00    2.970E+00    3.010E+00    3.050E+00    3.090E+00
     3.130E+00    3.170E+00    3.210E+00    3.250E+00    3.290E+00    3.330E+00    3.370E+00    3.410E+00    3.450E+00    3.490E+00
     3.530E+00    3.570E+00    3.610E+00    3.650E+00    3.690E+00    3.730E+00    3.770E+00    3.810E+00    3.850E+00    3.890E+00
     3.930E+00    3.970E+00    4.009E+00    4.049E+00    4.089E+00    4.129E+00    4.169E+00    4.209E+00    4.248E+00    4.288E+00
     4.328E+00    4.368E+00    4.407E+00    4.447E+00    4.487E+00    4.527E+00    4.566E+00    4.606E+00    4.646E+00    4.685E+00
     4.725E+00    4.765E+00    4.804E+00    4.844E+00    4.884E+00    4.923E+00    4.963E+00    5.002E+00    5.042E+00    5.081E+00
     5.121E+00    5.161E+00    5.200E+00    5.240E+00    5.279E+00    5.319E+00    5.358E+00    5.397E+00
 Asp      Conc. = 1.19E+02
