 LCModel (Version 6.3-1L) Copyright: S.W. Provencher.          Ref.: Magn. Reson. Med. 30:672-679 (1993).                
 Slice#1 Row#6 Col#4  PD_24_press_1_raw_act
 36 lines in following concentration table = NCONC+1
    Conc.  %SD /Cr+PCr  Metabolite                                         
  188.674  59%   0.185 Ala                                                 
   51.951 388% 5.1E-02 Asp                                                 
    0.000 999%   0.000 Cr                                                  
 1.02E+03   5%   1.000 PCr                                                 
   40.901 334% 4.0E-02 GABA                                                
    0.000 999%   0.000 Glc                                                 
  337.193  66%   0.331 Gln                                                 
 1.46E+03  18%   1.431 Glu                                                 
  431.015   5%   0.423 GPC                                                 
    0.000 999%   0.000 PCh                                                 
  262.267  27%   0.257 GSH                                                 
  660.153  37%   0.647 Ins                                                 
   77.467 154% 7.6E-02 Lac                                                 
 2.08E+03   5%   2.039 NAA                                                 
  231.435  49%   0.227 NAAG                                                
   79.272  31% 7.8E-02 Scyllo                                              
    0.000 999%   0.000 Tau                                                 
   78.130 126% 7.7E-02 -CrCH2                                              
  431.015   5%   0.423 GPC+PCh                                             
 2.31E+03   3%   2.266 NAA+NAAG                                            
 1.02E+03   5%   1.000 Cr+PCr                                              
 1.80E+03  20%   1.762 Glu+Gln                                             
  517.601  60%   0.508 Lip13a                                              
    0.000 999%   0.000 Lip13b                                              
   46.533 223% 4.6E-02 Lip09                                               
 1.16E+03  16%   1.136 MM09                                                
   92.912  68% 9.1E-02 Lip20                                               
 2.42E+03  12%   2.377 MM20                                                
  342.375  25%   0.336 MM12                                                
 1.47E+03  18%   1.440 MM14                                                
  697.751  23%   0.684 MM17                                                
  517.601  60%   0.508 Lip13a+Lip13b                                       
 2.33E+03  14%   2.284 MM14+Lip13a+Lip13b+MM12                             
 1.20E+03  14%   1.182 MM09+Lip09                                          
 2.52E+03  12%   2.469 MM20+Lip20                                          
   6 lines in following misc. output table
  FWHM = 0.054 ppm    S/N =  11                                            
  Data shift = 0.015 ppm                                                   
  Ph: -39 deg      -1.0 deg/ppm                                            
  alphaB,S = 6.5E-01,   1.8E+02                                            
   14 spline knots.   Ns = 7(1)                                            
  (10) 4 infls.   ( 5) 1 extrs.                                            
  498 points on ppm-axis = NY
      4.000000     3.992357     3.984714     3.977070     3.969427     3.961784     3.954141     3.946497     3.938854     3.931211
      3.923568     3.915925     3.908281     3.900638     3.892995     3.885352     3.877708     3.870065     3.862422     3.854779
      3.847136     3.839492     3.831849     3.824206     3.816563     3.808919     3.801276     3.793633     3.785990     3.778347
      3.770703     3.763060     3.755417     3.747774     3.740130     3.732487     3.724844     3.717201     3.709558     3.701914
      3.694271     3.686628     3.678985     3.671341     3.663698     3.656055     3.648412     3.640769     3.633125     3.625482
      3.617839     3.610196     3.602552     3.594909     3.587266     3.579623     3.571980     3.564336     3.556693     3.549050
      3.541407     3.533763     3.526120     3.518477     3.510834     3.503191     3.495547     3.487904     3.480261     3.472618
      3.464974     3.457331     3.449688     3.442045     3.434402     3.426758     3.419115     3.411472     3.403829     3.396185
      3.388542     3.380899     3.373256     3.365613     3.357969     3.350326     3.342683     3.335040     3.327396     3.319753
      3.312110     3.304467     3.296824     3.289180     3.281537     3.273894     3.266251     3.258607     3.250964     3.243321
      3.235678     3.228034     3.220391     3.212748     3.205105     3.197462     3.189818     3.182175     3.174532     3.166889
      3.159245     3.151602     3.143959     3.136316     3.128673     3.121029     3.113386     3.105743     3.098100     3.090456
      3.082813     3.075170     3.067527     3.059884     3.052240     3.044597     3.036954     3.029311     3.021667     3.014024
      3.006381     2.998738     2.991095     2.983451     2.975808     2.968165     2.960522     2.952878     2.945235     2.937592
      2.929949     2.922306     2.914662     2.907019     2.899376     2.891733     2.884089     2.876446     2.868803     2.861160
      2.853517     2.845873     2.838230     2.830587     2.822944     2.815300     2.807657     2.800014     2.792371     2.784728
      2.777084     2.769441     2.761798     2.754155     2.746511     2.738868     2.731225     2.723582     2.715939     2.708295
      2.700652     2.693009     2.685366     2.677722     2.670079     2.662436     2.654793     2.647150     2.639506     2.631863
      2.624220     2.616577     2.608933     2.601290     2.593647     2.586004     2.578361     2.570717     2.563074     2.555431
      2.547788     2.540144     2.532501     2.524858     2.517215     2.509572     2.501928     2.494285     2.486642     2.478999
      2.471355     2.463712     2.456069     2.448426     2.440783     2.433139     2.425496     2.417853     2.410210     2.402566
      2.394923     2.387280     2.379637     2.371994     2.364350     2.356707     2.349064     2.341421     2.333777     2.326134
      2.318491     2.310848     2.303205     2.295561     2.287918     2.280275     2.272632     2.264988     2.257345     2.249702
      2.242059     2.234416     2.226772     2.219129     2.211486     2.203843     2.196199     2.188556     2.180913     2.173270
      2.165627     2.157983     2.150340     2.142697     2.135054     2.127410     2.119767     2.112124     2.104481     2.096838
      2.089194     2.081551     2.073908     2.066265     2.058621     2.050978     2.043335     2.035692     2.028049     2.020405
      2.012762     2.005119     1.997476     1.989833     1.982190     1.974546     1.966903     1.959260     1.951617     1.943974
      1.936331     1.928688     1.921045     1.913402     1.905759     1.898115     1.890472     1.882829     1.875186     1.867543
      1.859900     1.852257     1.844614     1.836971     1.829327     1.821684     1.814041     1.806398     1.798755     1.791112
      1.783469     1.775826     1.768183     1.760540     1.752896     1.745253     1.737610     1.729967     1.722324     1.714681
      1.707038     1.699395     1.691752     1.684108     1.676465     1.668822     1.661179     1.653536     1.645893     1.638250
      1.630607     1.622964     1.615321     1.607677     1.600034     1.592391     1.584748     1.577105     1.569462     1.561819
      1.554176     1.546533     1.538890     1.531246     1.523603     1.515960     1.508317     1.500674     1.493031     1.485388
      1.477745     1.470102     1.462458     1.454815     1.447172     1.439529     1.431886     1.424243     1.416600     1.408957
      1.401314     1.393671     1.386027     1.378384     1.370741     1.363098     1.355455     1.347812     1.340169     1.332526
      1.324883     1.317240     1.309596     1.301953     1.294310     1.286667     1.279024     1.271381     1.263738     1.256095
      1.248452     1.240808     1.233165     1.225522     1.217879     1.210236     1.202593     1.194950     1.187307     1.179664
      1.172021     1.164377     1.156734     1.149091     1.141448     1.133805     1.126162     1.118519     1.110876     1.103233
      1.095590     1.087946     1.080303     1.072660     1.065017     1.057374     1.049731     1.042088     1.034445     1.026802
      1.019158     1.011515     1.003872     0.996229     0.988586     0.980943     0.973300     0.965657     0.958014     0.950371
      0.942727     0.935084     0.927441     0.919798     0.912155     0.904512     0.896869     0.889226     0.881583     0.873940
      0.866296     0.858653     0.851010     0.843367     0.835724     0.828081     0.820438     0.812795     0.805152     0.797508
      0.789865     0.782222     0.774579     0.766936     0.759293     0.751650     0.744007     0.736364     0.728721     0.721077
      0.713434     0.705791     0.698148     0.690505     0.682862     0.675219     0.667576     0.659933     0.652290     0.644646
      0.637003     0.629360     0.621717     0.614074     0.606431     0.598788     0.591145     0.583502     0.575858     0.568215
      0.560572     0.552929     0.545286     0.537643     0.530000     0.522357     0.514714     0.507071     0.499427     0.491784
      0.484141     0.476498     0.468855     0.461212     0.453569     0.445925     0.438282     0.430639     0.422996     0.415353
      0.407710     0.400067     0.392424     0.384780     0.377137     0.369494     0.361851     0.354208     0.346565     0.338922
      0.331278     0.323635     0.315992     0.308349     0.300706     0.293063     0.285420     0.277777     0.270133     0.262490
      0.254847     0.247204     0.239561     0.231918     0.224275     0.216631     0.208988     0.201345
 NY phased data points follow
   1.33290E+01  9.99415E+00  1.37767E+01  1.23300E+01  1.54926E+01  2.10426E+01  1.96384E+01  2.48206E+01  2.80748E+01  3.30665E+01
   3.28564E+01  2.86587E+01  3.08051E+01  2.73907E+01  2.05547E+01  1.37341E+01  1.83074E+01  1.34937E+01  1.30525E+01  1.69413E+01
   1.10173E+01  1.59579E+01  1.63578E+01  8.75914E+00  1.37840E+01  1.62985E+01  1.62472E+01  1.42363E+01  1.71695E+01  1.37713E+01
   1.27921E+01  1.28344E+01  1.45584E+01  1.32480E+01  1.41920E+01  1.36830E+01  1.59518E+01  1.24564E+01  1.69620E+01  9.71051E+00
   1.12866E+01  1.11788E+01  1.02420E+01  1.25935E+01  1.65742E+01  1.78519E+01  1.87958E+01  2.03652E+01  1.47626E+01  1.30546E+01
   1.19549E+01  1.05431E+01  1.16103E+01  1.01674E+01  1.53858E+01  8.78694E+00  7.45084E+00  1.03660E+01  7.89445E+00  8.15490E+00
   1.14538E+01  8.89777E+00  9.90956E+00  5.33867E+00  5.08072E+00  8.52307E+00  2.58987E+00  1.24178E+00  8.87952E+00  6.62984E+00
   4.19992E+00  3.75802E+00  3.08997E+00  3.57376E+00  5.17112E+00  4.90313E+00  5.96433E+00  2.50007E+00  5.05453E+00  2.85453E+00
   7.77132E+00  6.40651E+00  8.77820E+00  9.41920E+00  7.73846E+00  5.69641E+00  9.58465E+00  4.83196E+00  1.00304E+01  4.41201E+00
   6.13954E+00  8.24075E+00  1.18553E+01  7.91867E+00  8.31144E+00  9.20783E+00  7.08594E+00  4.58544E+00  1.00879E+01  1.57963E+01
   2.74144E+01  3.69267E+01  4.60811E+01  4.49449E+01  3.96467E+01  3.44476E+01  2.78540E+01  2.63188E+01  1.81468E+01  1.85178E+01
   1.59226E+01  1.33593E+01  1.00098E+01  1.20568E+01  7.12620E+00  8.86981E+00  1.07314E+01  4.00031E+00  8.40973E+00  6.89387E+00
   7.27739E+00  2.63026E+00  7.57957E+00  1.19703E+01  2.51723E+01  2.91095E+01  3.36590E+01  4.40772E+01  3.79609E+01  3.40126E+01
   3.00374E+01  1.68898E+01  1.93070E+01  1.53959E+01  1.33728E+01  1.55150E+01  8.84708E+00  6.90558E+00  8.58483E+00  1.02956E+01
   7.90974E+00  8.22521E+00  4.22344E+00  3.13393E+00  4.79530E+00  5.56629E+00  4.18773E+00  4.63403E+00  4.93739E+00  1.52249E+00
  -1.68436E+00  2.47262E+00  1.20074E+00  1.42881E-01  3.05512E+00  4.24881E+00  1.26399E-01  6.14441E+00  1.98561E+00  6.58845E-01
   1.71029E+00 -2.46073E+00 -2.56561E-01  4.21686E+00  3.74901E+00  5.76000E+00 -2.04340E-01 -2.66423E+00  3.61676E-01 -3.42442E+00
  -5.06798E+00 -4.68694E+00 -4.31442E+00 -8.01510E+00 -6.69526E+00 -7.96222E+00 -1.00974E+01 -4.67536E+00 -9.74755E+00 -1.00652E+01
  -7.52431E+00 -8.86298E+00 -5.30058E+00 -6.24670E+00 -2.84642E+00 -3.92534E+00 -1.29660E+00 -5.07022E-01 -3.18069E+00 -1.76333E+00
   1.40216E+00 -7.02116E+00  6.18112E+00 -9.17398E-01  4.42079E+00 -7.41957E-01 -5.80737E+00 -2.76892E+00 -1.10586E+00 -4.28902E+00
  -2.25493E+00 -2.99728E+00 -3.03572E-02  3.52316E+00 -4.89686E-01 -2.21819E+00  1.49434E+00  3.56878E+00  7.82862E-01  8.70712E-01
  -5.81268E-01  2.02870E+00  2.27484E+00  8.70182E+00  7.66584E+00  1.84671E+01  1.17440E+01  8.42869E+00  9.07285E+00  7.24925E+00
   7.59119E-02  3.88889E+00 -1.12691E+00 -2.26900E+00  4.90028E-01  3.32722E+00  4.66193E+00  5.45887E+00  6.44051E+00  2.32328E+00
   9.98570E+00  7.45086E+00  1.02935E+01  9.36399E+00  5.92599E+00  7.52029E+00  7.30002E+00  5.91858E+00  1.38237E+01  1.03217E+01
   3.21726E+00  6.54582E+00  2.02373E+00  5.84579E+00  1.03330E+01  8.06992E+00  8.34920E+00  1.25568E+01  1.58201E+01  1.46848E+01
   1.12090E+01  1.19197E+01  1.83790E+01  1.86766E+01  2.71697E+01  2.87702E+01  3.57188E+01  4.84153E+01  6.62786E+01  7.64789E+01
   7.98429E+01  7.46906E+01  6.37489E+01  5.53075E+01  3.95930E+01  2.97916E+01  2.74029E+01  1.73527E+01  1.25309E+01  1.61698E+01
   8.27774E+00  7.13034E+00  5.28948E+00  6.51600E+00  5.31775E+00  5.56892E+00  4.13645E+00  1.57249E+00  3.40263E+00  2.46882E+00
   2.13453E-01  3.61287E+00 -2.22296E-01  2.23484E+00 -1.03293E+00 -7.90427E-01  1.20277E+00  3.71993E+00  3.52200E+00 -4.30231E+00
   1.51686E+00 -6.42172E-02 -1.81038E+00  1.92211E+00 -1.97052E+00 -2.29990E+00 -3.08764E+00 -3.73362E+00 -3.18954E-01  2.39255E+00
   1.78575E+00  1.14768E+00  4.33362E+00  1.72273E-01  2.55552E+00  3.68416E+00 -1.57536E+00  2.90744E+00  1.97595E+00  5.05746E+00
   3.54099E+00  8.39215E+00  6.54586E+00  8.04015E+00  6.13744E+00  7.34351E+00  2.02285E+00  9.69569E+00  6.27808E+00  6.95480E+00
   8.75486E+00  4.39318E+00  8.85457E+00  2.14210E+00  4.42146E+00  6.49676E+00  7.57186E+00  7.16958E+00  4.17444E+00  1.50272E+00
   7.92425E+00  4.79112E+00  4.45071E+00  5.48623E+00  6.13827E+00  6.65264E+00  7.40043E+00  7.91638E+00  8.73877E+00  7.08669E+00
   5.76614E+00  7.82754E+00  7.91453E+00  9.34136E+00  1.51730E+01  7.73754E+00  5.39919E+00  8.54909E+00  1.15188E+01  8.31880E+00
   5.26227E+00  5.02017E+00  4.14249E+00  3.71259E+00  1.29137E+00  7.12961E+00  1.27419E-01  5.19686E+00  1.61562E+00  4.65608E+00
   5.02405E+00 -8.34769E-01  2.09704E+00  4.25945E-01  1.44010E+00  1.59209E+00  4.65857E+00 -1.85682E+00  2.95758E+00  3.49409E+00
   1.74490E+00  4.99060E+00  4.99203E+00  9.78291E-01 -8.41415E-01 -3.98017E+00 -4.52322E+00 -6.56968E+00 -4.00752E+00 -3.04650E+00
  -4.61885E+00 -3.35957E+00 -6.91447E+00 -3.37153E+00 -5.73352E+00 -2.28357E+00 -2.92612E+00 -4.76293E+00 -3.70322E-01 -1.06550E+00
  -1.39680E+00 -1.66144E-01 -1.00323E+00  4.36467E-01  4.55086E+00 -5.13898E-01  3.65528E+00  6.73088E+00 -3.55058E+00  4.35646E+00
   2.11891E+00  5.07670E+00  5.15940E+00  4.35366E+00  8.10940E+00  6.01222E+00  5.50074E+00  4.08449E+00  7.42346E+00  4.09476E+00
   7.46919E+00  2.92065E+00  2.96554E+00  2.30182E+00 -2.98675E-01 -3.08341E+00 -4.19188E+00 -3.49025E+00 -1.94847E+00 -1.88868E+00
  -4.54610E+00  4.44477E-01 -3.02993E-01 -3.93682E+00 -4.94776E+00 -5.61018E-01 -9.93022E-01 -5.52943E-01 -1.90141E+00 -2.11251E+00
   2.69439E+00 -2.97633E+00  1.11567E+00 -2.19309E+00 -3.20481E+00 -4.58596E+00 -3.23034E+00 -9.40700E-01 -1.39392E+00 -1.52552E+00
  -2.20334E+00  2.28285E+00 -2.19615E+00 -3.73850E+00 -4.02335E+00  1.75400E-02 -8.91803E-01 -1.58535E+00 -9.21705E-01 -8.74045E-01
   2.97577E-01 -3.07447E+00  2.18696E-01 -3.00436E+00 -4.92871E-01  7.89362E-01 -8.79279E-01  4.79605E-01  1.36842E+00 -1.32516E+00
   1.89588E+00 -1.51611E-01  4.29332E-01 -1.91057E+00  1.77747E+00 -6.02546E-01 -2.51098E+00  1.57467E-01  3.59250E+00 -4.51316E+00
  -1.28120E+00 -8.81590E-01 -4.60733E+00  2.09878E+00 -2.82900E+00  1.58496E+00  2.55838E+00  4.12437E+00  1.49997E+00  5.74356E+00
   1.33864E+00 -5.05540E+00 -5.76238E-01  1.94814E+00 -1.68613E+00  4.02548E+00  1.76459E+00  1.67893E+00  3.29604E+00  1.84243E+00
  -1.32909E+00 -5.02575E-01 -6.55749E-01 -2.03111E+00  3.60350E-01  1.75544E+00  3.26947E+00  1.34253E+00
 NY points of the fit to the data follow
   1.08218E+01  1.05570E+01  1.06824E+01  1.15290E+01  1.33644E+01  1.64775E+01  2.07767E+01  2.55261E+01  2.95647E+01  3.18569E+01
   3.20037E+01  3.03753E+01  2.77593E+01  2.49331E+01  2.24273E+01  2.03382E+01  1.83874E+01  1.63567E+01  1.46190E+01  1.37581E+01
   1.33210E+01  1.30138E+01  1.27685E+01  1.25919E+01  1.24912E+01  1.25511E+01  1.28684E+01  1.34343E+01  1.41640E+01  1.49542E+01
   1.57140E+01  1.63491E+01  1.66895E+01  1.65620E+01  1.59346E+01  1.48640E+01  1.35483E+01  1.22346E+01  1.12034E+01  1.07498E+01
   1.07436E+01  1.10546E+01  1.16346E+01  1.24963E+01  1.35569E+01  1.45527E+01  1.51997E+01  1.53187E+01  1.48711E+01  1.39961E+01
   1.29293E+01  1.18822E+01  1.10345E+01  1.03953E+01  9.85831E+00  9.46962E+00  9.36101E+00  9.47790E+00  9.61230E+00  9.61625E+00
   9.43213E+00  9.05729E+00  8.55966E+00  8.04443E+00  7.62771E+00  7.37672E+00  7.26745E+00  7.24750E+00  7.29858E+00  7.39077E+00
   7.47408E+00  7.50651E+00  7.45267E+00  7.31769E+00  7.12516E+00  6.90387E+00  6.68924E+00  6.49652E+00  6.33524E+00  6.24794E+00
   6.31994E+00  6.62035E+00  7.16052E+00  7.84505E+00  8.45298E+00  8.74038E+00  8.57940E+00  8.02946E+00  7.28900E+00  6.57244E+00
   6.01789E+00  5.65370E+00  5.39342E+00  5.10586E+00  4.76226E+00  4.62092E+00  5.35336E+00  7.60607E+00  1.19589E+01  1.88033E+01
   2.74631E+01  3.59979E+01  4.20444E+01  4.40313E+01  4.19327E+01  3.70479E+01  3.10468E+01  2.53128E+01  2.05549E+01  1.65800E+01
   1.27682E+01  9.10011E+00  6.75961E+00  5.92266E+00  5.54399E+00  5.30186E+00  5.11853E+00  4.97785E+00  4.89661E+00  4.95698E+00
   5.55166E+00  7.31956E+00  1.07004E+01  1.60456E+01  2.30033E+01  3.01897E+01  3.57201E+01  3.81560E+01  3.72104E+01  3.37388E+01
   2.90234E+01  2.41642E+01  1.98207E+01  1.60074E+01  1.23562E+01  8.83211E+00  6.36087E+00  5.53661E+00  5.40604E+00  5.46491E+00
   5.50805E+00  5.46300E+00  5.35806E+00  5.20918E+00  5.00559E+00  4.76768E+00  4.49764E+00  4.18556E+00  3.85566E+00  3.52211E+00
   3.22078E+00  2.96450E+00  2.75841E+00  2.61378E+00  2.50908E+00  2.38976E+00  2.18915E+00  1.85292E+00  1.40608E+00  9.52003E-01
   6.30081E-01  5.43830E-01  6.60833E-01  8.15567E-01  8.33090E-01  6.29627E-01  2.31255E-01 -2.38798E-01 -6.50552E-01 -9.75375E-01
  -1.31983E+00 -1.77379E+00 -2.32647E+00 -2.88672E+00 -3.28146E+00 -3.43124E+00 -3.39095E+00 -3.26239E+00 -3.17026E+00 -3.16720E+00
  -3.21815E+00 -3.25814E+00 -3.21829E+00 -3.06412E+00 -2.76687E+00 -2.29328E+00 -1.60433E+00 -6.31292E-01  5.14920E-01  1.57489E+00
   2.28669E+00  2.53934E+00  2.45214E+00  2.21336E+00  1.97876E+00  1.82552E+00  1.73857E+00  1.75792E+00  2.00015E+00  2.48230E+00
   3.17601E+00  3.96829E+00  4.64739E+00  4.96492E+00  4.74370E+00  3.93054E+00  2.62510E+00  1.05367E+00 -4.40356E-01 -1.50432E+00
  -1.81292E+00 -1.22562E+00  2.56687E-01  2.44283E+00  4.77706E+00  6.51791E+00  7.07430E+00  6.19605E+00  4.09880E+00  1.29743E+00
  -1.46664E+00 -3.42077E+00 -4.17764E+00 -3.73848E+00 -2.36460E+00 -4.79647E-01  1.56795E+00  3.24033E+00  4.33478E+00  5.01004E+00
   5.54535E+00  6.05066E+00  6.43340E+00  6.73203E+00  7.09302E+00  7.47331E+00  7.68917E+00  7.64996E+00  7.36803E+00  6.93275E+00
   6.48432E+00  6.23600E+00  6.40301E+00  7.01915E+00  7.90658E+00  8.82635E+00  9.63356E+00  1.02225E+01  1.06197E+01  1.11110E+01
   1.19794E+01  1.34218E+01  1.55070E+01  1.85378E+01  2.33524E+01  3.03923E+01  4.01726E+01  5.23777E+01  6.48812E+01  7.42694E+01
   7.76397E+01  7.41875E+01  6.54506E+01  5.41181E+01  4.28094E+01  3.33537E+01  2.57813E+01  1.90087E+01  1.23839E+01  7.20073E+00
   5.00564E+00  4.16879E+00  3.71287E+00  3.43502E+00  3.24599E+00  3.03894E+00  2.77625E+00  2.48057E+00  2.16542E+00  1.85530E+00
   1.57470E+00  1.32458E+00  1.09397E+00  8.92308E-01  7.29002E-01  5.93010E-01  4.70952E-01  3.63866E-01  2.82060E-01  2.31459E-01
   2.05480E-01  1.98903E-01  2.13566E-01  2.47313E-01  2.98373E-01  3.70263E-01  4.67898E-01  5.96786E-01  7.60161E-01  9.58098E-01
   1.18996E+00  1.45555E+00  1.74981E+00  2.06511E+00  2.39413E+00  2.73030E+00  3.06707E+00  3.39637E+00  3.70900E+00  3.99860E+00
   4.25941E+00  4.48635E+00  4.67656E+00  4.82973E+00  4.94770E+00  5.03471E+00  5.09813E+00  5.14873E+00  5.20187E+00  5.28128E+00
   5.42558E+00  5.65013E+00  5.93070E+00  6.21255E+00  6.38090E+00  6.30569E+00  5.92509E+00  5.29017E+00  4.56718E+00  3.97163E+00
   3.66330E+00  3.75186E+00  4.26021E+00  5.08118E+00  6.02476E+00  6.92158E+00  7.68075E+00  8.20153E+00  8.43071E+00  8.46564E+00
   8.42215E+00  8.35604E+00  8.23723E+00  8.00708E+00  7.67987E+00  7.29953E+00  6.80824E+00  6.20269E+00  5.55313E+00  4.95262E+00
   4.47632E+00  4.17383E+00  4.04718E+00  4.03860E+00  4.06141E+00  4.05059E+00  3.98685E+00  3.84781E+00  3.61566E+00  3.32948E+00
   3.02709E+00  2.72001E+00  2.39555E+00  2.04699E+00  1.71500E+00  1.42260E+00  1.15423E+00  9.03445E-01  6.68850E-01  4.50593E-01
   2.49420E-01  6.62605E-02 -9.78182E-02 -2.41745E-01 -3.64449E-01 -4.64980E-01 -5.42436E-01 -5.95969E-01 -6.24652E-01 -6.27544E-01
  -6.03659E-01 -5.52074E-01 -4.71851E-01 -3.62084E-01 -2.21857E-01 -5.04278E-02  1.52705E-01  3.87596E-01  6.53838E-01  9.50386E-01
   1.27549E+00  1.62645E+00  1.99952E+00  2.38978E+00  2.79126E+00  3.19690E+00  3.59874E+00  3.98799E+00  4.35535E+00  4.69127E+00
   4.98648E+00  5.23236E+00  5.42131E+00  5.54712E+00  5.60528E+00  5.59328E+00  5.51081E+00  5.35974E+00  5.14403E+00  4.86943E+00
   4.54331E+00  4.17426E+00  3.77173E+00  3.34553E+00  2.90540E+00  2.46057E+00  2.01954E+00  1.58979E+00  1.17767E+00  7.88229E-01
   4.25190E-01  9.10032E-02 -2.12964E-01 -4.86326E-01 -7.29472E-01 -9.43512E-01 -1.13004E+00 -1.29103E+00 -1.42856E+00 -1.54481E+00
  -1.64191E+00 -1.72199E+00 -1.78703E+00 -1.83889E+00 -1.87919E+00 -1.90938E+00 -1.93072E+00 -1.94440E+00 -1.95141E+00 -1.95263E+00
  -1.94876E+00 -1.94040E+00 -1.92809E+00 -1.91233E+00 -1.89354E+00 -1.87206E+00 -1.84815E+00 -1.82207E+00 -1.79403E+00 -1.76428E+00
  -1.73298E+00 -1.70028E+00 -1.66627E+00 -1.63106E+00 -1.59477E+00 -1.55753E+00 -1.51940E+00 -1.48043E+00 -1.44065E+00 -1.40014E+00
  -1.35897E+00 -1.31723E+00 -1.27490E+00 -1.23202E+00 -1.18860E+00 -1.14472E+00 -1.10040E+00 -1.05570E+00 -1.01061E+00 -9.65120E-01
  -9.19257E-01 -8.73083E-01 -8.26616E-01 -7.79875E-01 -7.32829E-01 -6.85497E-01 -6.37898E-01 -5.90089E-01 -5.42071E-01 -4.93845E-01
  -4.45382E-01 -3.96706E-01 -3.47836E-01 -2.98817E-01 -2.49627E-01 -2.00258E-01 -1.50683E-01 -1.00936E-01 -5.10292E-02 -9.88126E-04
   4.92266E-02  9.96289E-02  1.50243E-01  2.01036E-01  2.52015E-01  3.03181E-01  3.54597E-01  4.06287E-01
 NY background values follow
     1.064E+01    1.057E+01    1.050E+01    1.044E+01    1.037E+01    1.030E+01    1.024E+01    1.017E+01    1.010E+01    1.004E+01
     9.972E+00    9.905E+00    9.839E+00    9.772E+00    9.706E+00    9.639E+00    9.573E+00    9.506E+00    9.440E+00    9.373E+00
     9.307E+00    9.240E+00    9.174E+00    9.108E+00    9.041E+00    8.975E+00    8.909E+00    8.842E+00    8.776E+00    8.710E+00
     8.644E+00    8.578E+00    8.512E+00    8.446E+00    8.381E+00    8.315E+00    8.249E+00    8.184E+00    8.118E+00    8.053E+00
     7.988E+00    7.923E+00    7.858E+00    7.793E+00    7.728E+00    7.663E+00    7.598E+00    7.534E+00    7.469E+00    7.405E+00
     7.341E+00    7.277E+00    7.213E+00    7.149E+00    7.086E+00    7.022E+00    6.959E+00    6.896E+00    6.832E+00    6.769E+00
     6.707E+00    6.644E+00    6.581E+00    6.519E+00    6.456E+00    6.394E+00    6.332E+00    6.270E+00    6.209E+00    6.147E+00
     6.085E+00    6.024E+00    5.963E+00    5.902E+00    5.841E+00    5.780E+00    5.720E+00    5.659E+00    5.599E+00    5.539E+00
     5.479E+00    5.419E+00    5.359E+00    5.300E+00    5.241E+00    5.181E+00    5.122E+00    5.063E+00    5.005E+00    4.946E+00
     4.888E+00    4.830E+00    4.772E+00    4.714E+00    4.656E+00    4.599E+00    4.541E+00    4.484E+00    4.427E+00    4.370E+00
     4.314E+00    4.257E+00    4.201E+00    4.145E+00    4.089E+00    4.033E+00    3.977E+00    3.922E+00    3.867E+00    3.812E+00
     3.757E+00    3.702E+00    3.648E+00    3.593E+00    3.539E+00    3.485E+00    3.432E+00    3.378E+00    3.325E+00    3.272E+00
     3.219E+00    3.166E+00    3.113E+00    3.061E+00    3.009E+00    2.957E+00    2.905E+00    2.853E+00    2.802E+00    2.751E+00
     2.700E+00    2.649E+00    2.598E+00    2.548E+00    2.498E+00    2.448E+00    2.398E+00    2.349E+00    2.299E+00    2.250E+00
     2.201E+00    2.153E+00    2.104E+00    2.056E+00    2.009E+00    1.961E+00    1.914E+00    1.867E+00    1.820E+00    1.774E+00
     1.728E+00    1.683E+00    1.637E+00    1.592E+00    1.548E+00    1.504E+00    1.460E+00    1.417E+00    1.374E+00    1.332E+00
     1.289E+00    1.248E+00    1.207E+00    1.166E+00    1.126E+00    1.086E+00    1.047E+00    1.008E+00    9.698E-01    9.321E-01
     8.949E-01    8.582E-01    8.221E-01    7.865E-01    7.515E-01    7.171E-01    6.832E-01    6.500E-01    6.173E-01    5.853E-01
     5.539E-01    5.231E-01    4.930E-01    4.634E-01    4.345E-01    4.062E-01    3.784E-01    3.512E-01    3.245E-01    2.983E-01
     2.727E-01    2.475E-01    2.228E-01    1.986E-01    1.748E-01    1.515E-01    1.285E-01    1.059E-01    8.377E-02    6.196E-02
     4.049E-02    1.936E-02   -1.461E-03   -2.198E-02   -4.222E-02   -6.220E-02   -8.192E-02   -1.014E-01   -1.207E-01   -1.397E-01
    -1.586E-01   -1.773E-01   -1.959E-01   -2.143E-01   -2.326E-01   -2.508E-01   -2.689E-01   -2.869E-01   -3.049E-01   -3.228E-01
    -3.407E-01   -3.586E-01   -3.765E-01   -3.944E-01   -4.124E-01   -4.304E-01   -4.484E-01   -4.666E-01   -4.848E-01   -5.032E-01
    -5.216E-01   -5.401E-01   -5.587E-01   -5.774E-01   -5.961E-01   -6.150E-01   -6.339E-01   -6.529E-01   -6.720E-01   -6.912E-01
    -7.105E-01   -7.299E-01   -7.493E-01   -7.688E-01   -7.885E-01   -8.082E-01   -8.280E-01   -8.479E-01   -8.679E-01   -8.879E-01
    -9.081E-01   -9.284E-01   -9.487E-01   -9.691E-01   -9.896E-01   -1.010E+00   -1.031E+00   -1.052E+00   -1.073E+00   -1.094E+00
    -1.115E+00   -1.136E+00   -1.157E+00   -1.178E+00   -1.200E+00   -1.221E+00   -1.243E+00   -1.265E+00   -1.286E+00   -1.308E+00
    -1.330E+00   -1.352E+00   -1.374E+00   -1.397E+00   -1.419E+00   -1.441E+00   -1.464E+00   -1.487E+00   -1.509E+00   -1.532E+00
    -1.555E+00   -1.577E+00   -1.600E+00   -1.623E+00   -1.646E+00   -1.669E+00   -1.692E+00   -1.715E+00   -1.738E+00   -1.761E+00
    -1.784E+00   -1.807E+00   -1.830E+00   -1.854E+00   -1.877E+00   -1.900E+00   -1.923E+00   -1.946E+00   -1.969E+00   -1.992E+00
    -2.015E+00   -2.038E+00   -2.061E+00   -2.084E+00   -2.107E+00   -2.129E+00   -2.152E+00   -2.175E+00   -2.197E+00   -2.220E+00
    -2.242E+00   -2.265E+00   -2.287E+00   -2.309E+00   -2.331E+00   -2.353E+00   -2.375E+00   -2.397E+00   -2.419E+00   -2.441E+00
    -2.462E+00   -2.483E+00   -2.505E+00   -2.526E+00   -2.546E+00   -2.567E+00   -2.588E+00   -2.608E+00   -2.628E+00   -2.648E+00
    -2.668E+00   -2.687E+00   -2.706E+00   -2.725E+00   -2.744E+00   -2.762E+00   -2.780E+00   -2.798E+00   -2.816E+00   -2.833E+00
    -2.850E+00   -2.867E+00   -2.883E+00   -2.899E+00   -2.915E+00   -2.930E+00   -2.945E+00   -2.959E+00   -2.973E+00   -2.987E+00
    -3.000E+00   -3.013E+00   -3.026E+00   -3.038E+00   -3.049E+00   -3.061E+00   -3.071E+00   -3.081E+00   -3.091E+00   -3.100E+00
    -3.109E+00   -3.117E+00   -3.125E+00   -3.132E+00   -3.139E+00   -3.145E+00   -3.151E+00   -3.156E+00   -3.160E+00   -3.164E+00
    -3.168E+00   -3.171E+00   -3.173E+00   -3.174E+00   -3.175E+00   -3.176E+00   -3.176E+00   -3.175E+00   -3.174E+00   -3.172E+00
    -3.169E+00   -3.166E+00   -3.162E+00   -3.157E+00   -3.152E+00   -3.146E+00   -3.139E+00   -3.132E+00   -3.124E+00   -3.115E+00
    -3.106E+00   -3.096E+00   -3.085E+00   -3.074E+00   -3.062E+00   -3.049E+00   -3.035E+00   -3.021E+00   -3.006E+00   -2.990E+00
    -2.973E+00   -2.956E+00   -2.937E+00   -2.918E+00   -2.899E+00   -2.878E+00   -2.857E+00   -2.834E+00   -2.811E+00   -2.788E+00
    -2.763E+00   -2.738E+00   -2.712E+00   -2.685E+00   -2.658E+00   -2.629E+00   -2.600E+00   -2.571E+00   -2.540E+00   -2.510E+00
    -2.478E+00   -2.446E+00   -2.413E+00   -2.379E+00   -2.345E+00   -2.311E+00   -2.276E+00   -2.240E+00   -2.204E+00   -2.167E+00
    -2.129E+00   -2.092E+00   -2.053E+00   -2.015E+00   -1.975E+00   -1.936E+00   -1.896E+00   -1.855E+00   -1.814E+00   -1.773E+00
    -1.731E+00   -1.689E+00   -1.647E+00   -1.604E+00   -1.561E+00   -1.518E+00   -1.474E+00   -1.430E+00   -1.386E+00   -1.341E+00
    -1.296E+00   -1.251E+00   -1.206E+00   -1.161E+00   -1.115E+00   -1.069E+00   -1.023E+00   -9.770E-01   -9.306E-01   -8.840E-01
    -8.373E-01   -7.904E-01   -7.434E-01   -6.962E-01   -6.489E-01   -6.014E-01   -5.539E-01   -5.062E-01   -4.583E-01   -4.104E-01
    -3.624E-01   -3.143E-01   -2.660E-01   -2.177E-01   -1.694E-01   -1.209E-01   -7.238E-02   -2.381E-02    2.482E-02    7.350E-02
     1.222E-01    1.710E-01    2.198E-01    2.686E-01    3.174E-01    3.662E-01    4.150E-01    4.639E-01    5.127E-01    5.615E-01
     6.103E-01    6.590E-01    7.078E-01    7.564E-01    8.051E-01    8.537E-01    9.022E-01    9.507E-01
 Ala      Conc. = 1.89E+02
