 LCModel (Version 6.3-1L) Copyright: S.W. Provencher.          Ref.: Magn. Reson. Med. 30:672-679 (1993).                
 Slice#1 Row#13 Col#4  PD_24_press_1_raw_act
 36 lines in following concentration table = NCONC+1
    Conc.  %SD /Cr+PCr  Metabolite                                         
   18.045 211%   0.237 Ala                                                 
   18.814  47%   0.247 Asp                                                 
   76.162  27%   1.000 Cr                                                  
    0.000 999%   0.000 PCr                                                 
   10.771  49%   0.141 GABA                                                
   11.155  48%   0.146 Glc                                                 
   98.233  77%   1.290 Gln                                                 
  243.509  36%   3.197 Glu                                                 
   33.840  24%   0.444 GPC                                                 
    0.000 999%   0.000 PCh                                                 
   29.296  96%   0.385 GSH                                                 
  345.136  29%   4.532 Ins                                                 
   54.824  75%   0.720 Lac                                                 
  102.434  26%   1.345 NAA                                                 
   83.933  34%   1.102 NAAG                                                
    3.716  48% 4.9E-02 Scyllo                                              
   17.015  52%   0.223 Tau                                                 
    8.967  84%   0.118 -CrCH2                                              
   33.840  24%   0.444 GPC+PCh                                             
  186.367  17%   2.447 NAA+NAAG                                            
   76.162  27%   1.000 Cr+PCr                                              
  341.742  33%   4.487 Glu+Gln                                             
 1.65E+03  20%  21.649 Lip13a                                              
    0.000 999%   0.000 Lip13b                                              
  420.397  38%   5.520 Lip09                                               
   17.234 681%   0.226 MM09                                                
  265.495  46%   3.486 Lip20                                               
   20.958 877%   0.275 MM20                                                
   15.332 363%   0.201 MM12                                                
    0.000 999%   0.000 MM14                                                
    0.000 999%   0.000 MM17                                                
 1.65E+03  20%  21.649 Lip13a+Lip13b                                       
 1.66E+03  20%  21.850 MM14+Lip13a+Lip13b+MM12                             
  437.631  27%   5.746 MM09+Lip09                                          
  286.454  64%   3.761 MM20+Lip20                                          
   6 lines in following misc. output table
  FWHM = 0.038 ppm    S/N =   2                                            
  Data shift =-0.023 ppm                                                   
  Ph:  -2 deg       1.7 deg/ppm                                            
  alphaB,S = 5.0E-01,   4.4E+01                                            
   14 spline knots.   Ns = 5(1)                                            
   2 inflections.     1 extrema                                            
  498 points on ppm-axis = NY
      4.000000     3.992357     3.984714     3.977070     3.969427     3.961784     3.954141     3.946497     3.938854     3.931211
      3.923568     3.915925     3.908281     3.900638     3.892995     3.885352     3.877708     3.870065     3.862422     3.854779
      3.847136     3.839492     3.831849     3.824206     3.816563     3.808919     3.801276     3.793633     3.785990     3.778347
      3.770703     3.763060     3.755417     3.747774     3.740130     3.732487     3.724844     3.717201     3.709558     3.701914
      3.694271     3.686628     3.678985     3.671341     3.663698     3.656055     3.648412     3.640769     3.633125     3.625482
      3.617839     3.610196     3.602552     3.594909     3.587266     3.579623     3.571980     3.564336     3.556693     3.549050
      3.541407     3.533763     3.526120     3.518477     3.510834     3.503191     3.495547     3.487904     3.480261     3.472618
      3.464974     3.457331     3.449688     3.442045     3.434402     3.426758     3.419115     3.411472     3.403829     3.396185
      3.388542     3.380899     3.373256     3.365613     3.357969     3.350326     3.342683     3.335040     3.327396     3.319753
      3.312110     3.304467     3.296824     3.289180     3.281537     3.273894     3.266251     3.258607     3.250964     3.243321
      3.235678     3.228034     3.220391     3.212748     3.205105     3.197462     3.189818     3.182175     3.174532     3.166889
      3.159245     3.151602     3.143959     3.136316     3.128673     3.121029     3.113386     3.105743     3.098100     3.090456
      3.082813     3.075170     3.067527     3.059884     3.052240     3.044597     3.036954     3.029311     3.021667     3.014024
      3.006381     2.998738     2.991095     2.983451     2.975808     2.968165     2.960522     2.952878     2.945235     2.937592
      2.929949     2.922306     2.914662     2.907019     2.899376     2.891733     2.884089     2.876446     2.868803     2.861160
      2.853517     2.845873     2.838230     2.830587     2.822944     2.815300     2.807657     2.800014     2.792371     2.784728
      2.777084     2.769441     2.761798     2.754155     2.746511     2.738868     2.731225     2.723582     2.715939     2.708295
      2.700652     2.693009     2.685366     2.677722     2.670079     2.662436     2.654793     2.647150     2.639506     2.631863
      2.624220     2.616577     2.608933     2.601290     2.593647     2.586004     2.578361     2.570717     2.563074     2.555431
      2.547788     2.540144     2.532501     2.524858     2.517215     2.509572     2.501928     2.494285     2.486642     2.478999
      2.471355     2.463712     2.456069     2.448426     2.440783     2.433139     2.425496     2.417853     2.410210     2.402566
      2.394923     2.387280     2.379637     2.371994     2.364350     2.356707     2.349064     2.341421     2.333777     2.326134
      2.318491     2.310848     2.303205     2.295561     2.287918     2.280275     2.272632     2.264988     2.257345     2.249702
      2.242059     2.234416     2.226772     2.219129     2.211486     2.203843     2.196199     2.188556     2.180913     2.173270
      2.165627     2.157983     2.150340     2.142697     2.135054     2.127410     2.119767     2.112124     2.104481     2.096838
      2.089194     2.081551     2.073908     2.066265     2.058621     2.050978     2.043335     2.035692     2.028049     2.020405
      2.012762     2.005119     1.997476     1.989833     1.982190     1.974546     1.966903     1.959260     1.951617     1.943974
      1.936331     1.928688     1.921045     1.913402     1.905759     1.898115     1.890472     1.882829     1.875186     1.867543
      1.859900     1.852257     1.844614     1.836971     1.829327     1.821684     1.814041     1.806398     1.798755     1.791112
      1.783469     1.775826     1.768183     1.760540     1.752896     1.745253     1.737610     1.729967     1.722324     1.714681
      1.707038     1.699395     1.691752     1.684108     1.676465     1.668822     1.661179     1.653536     1.645893     1.638250
      1.630607     1.622964     1.615321     1.607677     1.600034     1.592391     1.584748     1.577105     1.569462     1.561819
      1.554176     1.546533     1.538890     1.531246     1.523603     1.515960     1.508317     1.500674     1.493031     1.485388
      1.477745     1.470102     1.462458     1.454815     1.447172     1.439529     1.431886     1.424243     1.416600     1.408957
      1.401314     1.393671     1.386027     1.378384     1.370741     1.363098     1.355455     1.347812     1.340169     1.332526
      1.324883     1.317240     1.309596     1.301953     1.294310     1.286667     1.279024     1.271381     1.263738     1.256095
      1.248452     1.240808     1.233165     1.225522     1.217879     1.210236     1.202593     1.194950     1.187307     1.179664
      1.172021     1.164377     1.156734     1.149091     1.141448     1.133805     1.126162     1.118519     1.110876     1.103233
      1.095590     1.087946     1.080303     1.072660     1.065017     1.057374     1.049731     1.042088     1.034445     1.026802
      1.019158     1.011515     1.003872     0.996229     0.988586     0.980943     0.973300     0.965657     0.958014     0.950371
      0.942727     0.935084     0.927441     0.919798     0.912155     0.904512     0.896869     0.889226     0.881583     0.873940
      0.866296     0.858653     0.851010     0.843367     0.835724     0.828081     0.820438     0.812795     0.805152     0.797508
      0.789865     0.782222     0.774579     0.766936     0.759293     0.751650     0.744007     0.736364     0.728721     0.721077
      0.713434     0.705791     0.698148     0.690505     0.682862     0.675219     0.667576     0.659933     0.652290     0.644646
      0.637003     0.629360     0.621717     0.614074     0.606431     0.598788     0.591145     0.583502     0.575858     0.568215
      0.560572     0.552929     0.545286     0.537643     0.530000     0.522357     0.514714     0.507071     0.499427     0.491784
      0.484141     0.476498     0.468855     0.461212     0.453569     0.445925     0.438282     0.430639     0.422996     0.415353
      0.407710     0.400067     0.392424     0.384780     0.377137     0.369494     0.361851     0.354208     0.346565     0.338922
      0.331278     0.323635     0.315992     0.308349     0.300706     0.293063     0.285420     0.277777     0.270133     0.262490
      0.254847     0.247204     0.239561     0.231918     0.224275     0.216631     0.208988     0.201345
 NY phased data points follow
  -3.89052E+01 -3.62515E+01 -3.60718E+01 -3.35708E+01 -3.22483E+01 -3.18534E+01 -3.26566E+01 -3.30437E+01 -3.01298E+01 -3.16829E+01
  -3.05573E+01 -2.57319E+01 -2.87518E+01 -2.73496E+01 -2.99016E+01 -2.99294E+01 -3.27851E+01 -2.70432E+01 -2.96021E+01 -2.79374E+01
  -2.66559E+01 -2.70500E+01 -2.46360E+01 -2.34280E+01 -2.81174E+01 -2.49938E+01 -2.59051E+01 -2.77435E+01 -2.44126E+01 -2.59773E+01
  -2.13170E+01 -2.58230E+01 -2.24183E+01 -2.30523E+01 -2.33896E+01 -2.45449E+01 -2.47672E+01 -2.20624E+01 -2.51588E+01 -2.21374E+01
  -2.25390E+01 -1.92212E+01 -2.11471E+01 -1.99980E+01 -1.77871E+01 -1.93339E+01 -1.78076E+01 -1.82377E+01 -1.89418E+01 -2.00411E+01
  -2.02628E+01 -2.05211E+01 -1.64562E+01 -1.98215E+01 -2.10208E+01 -1.95144E+01 -1.65307E+01 -1.60364E+01 -2.06421E+01 -1.92330E+01
  -1.82592E+01 -1.90579E+01 -1.72459E+01 -1.89794E+01 -1.75271E+01 -1.89891E+01 -1.79027E+01 -1.50064E+01 -1.67433E+01 -1.70336E+01
  -1.62210E+01 -1.59729E+01 -1.55623E+01 -1.67844E+01 -1.52788E+01 -1.46305E+01 -1.73396E+01 -1.42380E+01 -1.71240E+01 -1.74908E+01
  -1.58970E+01 -1.76174E+01 -1.56466E+01 -1.36080E+01 -1.57593E+01 -1.47947E+01 -1.54601E+01 -1.59368E+01 -1.54151E+01 -1.50908E+01
  -1.63393E+01 -1.43149E+01 -1.67241E+01 -1.02193E+01 -1.38513E+01 -1.24409E+01 -1.66497E+01 -1.39907E+01 -1.53231E+01 -1.29903E+01
  -1.01885E+01 -8.05137E+00 -8.91803E+00 -9.21360E+00 -1.09221E+01 -1.10525E+01 -1.18165E+01 -1.30173E+01 -1.69846E+01 -1.82855E+01
  -1.39103E+01 -1.16157E+01 -1.15441E+01 -1.18322E+01 -8.23649E+00 -9.17096E+00 -9.77096E+00 -8.58867E+00 -8.81612E+00 -9.33247E+00
  -1.10538E+01 -1.02994E+01 -1.09084E+01 -1.21586E+01 -7.88405E+00 -6.35684E+00 -7.45611E+00 -6.40239E+00 -6.46099E+00 -7.29314E+00
  -1.16762E+01 -1.08982E+01 -1.15927E+01 -1.00803E+01 -9.21695E+00 -9.41946E+00 -9.41949E+00 -6.79172E+00 -7.39590E+00 -2.28254E+00
  -7.59473E+00 -8.70986E+00 -1.04228E+01 -6.88421E+00 -7.28397E+00 -6.48609E+00 -1.08520E+01 -7.72673E+00 -1.02171E+01 -1.00123E+01
  -8.87285E+00 -8.61790E+00 -8.76129E+00 -7.72835E+00 -5.73052E+00 -9.46415E+00 -6.79811E+00 -1.00387E+01 -6.85514E+00 -7.80565E+00
  -8.25914E+00 -8.30023E+00 -1.03143E+01 -6.66678E+00 -8.46034E+00 -7.87348E+00 -8.27177E+00 -8.15413E+00 -7.19521E+00 -8.51812E+00
  -7.32802E+00 -6.39210E+00 -8.71153E+00 -9.67461E+00 -7.94313E+00 -9.46466E+00 -8.99539E+00 -5.45208E+00 -3.97832E+00 -3.76085E+00
  -5.75391E+00 -3.77979E+00 -5.23996E+00 -6.24968E+00 -6.20173E+00 -6.63613E+00 -1.05452E+01 -6.18911E+00 -6.83040E+00 -1.18566E+01
  -8.88051E+00 -6.08040E+00 -1.12258E+01 -9.21014E+00 -9.22476E+00 -1.05510E+01 -8.89614E+00 -8.44256E+00 -8.86215E+00 -1.05022E+01
  -8.61924E+00 -6.36579E+00 -7.67091E+00 -4.55602E+00 -3.62211E+00 -6.50185E+00 -5.17910E+00 -5.22140E+00 -1.04335E+01 -6.82975E+00
  -5.57562E+00 -4.40529E+00 -5.07963E+00 -4.37549E+00 -5.69513E+00 -3.88655E+00 -3.49575E+00 -5.42848E+00 -6.49395E+00 -6.07377E+00
  -9.27528E+00 -5.62421E+00 -8.06099E+00 -5.70679E+00 -3.39266E+00 -6.90018E+00 -4.82885E+00 -5.62233E+00 -3.77467E+00 -4.84974E+00
  -5.02573E+00 -4.08809E+00 -5.44639E+00 -1.29352E+00 -3.65509E+00 -4.93116E+00 -4.51308E+00 -3.19823E+00 -3.67839E+00 -4.83836E+00
  -5.58009E+00 -3.51949E+00 -5.02683E+00 -7.43114E+00 -6.29977E+00 -4.83124E+00 -2.21517E+00 -1.74079E+00 -4.77545E+00 -3.67192E+00
  -3.76568E+00 -5.28677E+00 -4.07422E+00 -4.53897E-01  2.57338E+00  2.70046E-01  2.47267E+00  1.67813E+00  2.97868E+00  6.79912E+00
   3.98348E-01 -1.65025E+00 -1.37119E+00 -4.53490E-01 -9.76080E-01 -6.80734E+00 -6.70900E+00 -6.33840E+00 -1.47161E+00  4.33904E-02
  -8.85721E-01  1.36151E+00 -1.09403E+00 -2.54876E+00 -2.24528E+00  2.77836E+00 -3.95979E+00 -2.21318E+00 -1.50049E+00 -2.78292E+00
  -1.72380E+00 -9.66704E-01 -2.37719E+00 -2.92886E+00 -1.05451E+00 -3.52462E+00 -9.44407E-01 -4.08928E+00 -4.44019E+00 -6.57854E+00
  -8.54575E-01 -7.18407E-01 -4.34748E+00 -4.75502E+00 -4.02304E+00 -3.77214E+00 -2.64156E+00 -3.67018E+00 -3.12231E+00 -3.38520E+00
  -3.12084E+00 -2.32573E+00 -5.82372E-01 -2.64065E+00 -5.15952E+00 -3.63194E+00 -2.40937E+00 -5.19938E+00 -1.39669E+00 -2.60321E+00
  -8.04046E-02 -3.35013E+00 -6.08130E-02 -3.72313E+00 -3.75590E+00 -4.01951E+00 -1.34461E+00 -1.55743E+00  6.10351E-01  3.71215E-01
  -2.62027E+00 -9.12243E-01 -7.91011E-01 -2.34400E+00 -2.35437E+00  1.52664E+00 -2.52517E+00 -8.16698E-01 -7.96827E-01 -1.75344E+00
  -2.21437E+00  6.66774E-01 -2.91771E+00 -1.26600E+00 -3.44727E+00 -1.54949E+00 -1.42242E-01 -8.41156E-01 -7.14019E-01  1.13475E-01
  -2.79553E+00  2.38161E+00  4.67349E+00 -2.52505E-01 -1.44757E+00  2.06841E+00 -1.39992E+00 -3.04341E+00  2.40249E+00 -7.76098E-02
  -6.53664E-01 -4.76117E-01  1.16974E-01  2.26358E-01  2.24962E-01  2.06830E+00  1.07103E+00  2.52844E+00 -4.64376E-01  4.69089E+00
   8.09600E-01  6.30347E-01  1.50037E+00  1.58680E+00  7.89626E-01  3.89540E+00  1.21072E+00 -2.35364E+00 -1.42290E-01  2.33951E+00
  -1.16055E+00  7.73947E-01 -5.07910E-01  1.08281E+00  1.53819E-01 -2.76032E+00 -2.20452E+00 -1.45615E+00 -2.02142E+00 -6.77470E-01
  -4.19672E+00 -4.05169E-01 -2.48604E+00 -3.07383E+00 -8.32233E-01 -2.71275E+00 -3.43007E+00  4.94544E-01 -4.43174E+00 -4.29901E+00
  -3.66696E+00 -2.46827E+00 -2.12057E+00 -2.40402E+00 -3.36704E+00 -2.46519E+00 -3.65070E+00 -5.73370E+00 -4.21486E+00 -2.36032E+00
  -3.94333E+00 -2.87470E+00 -1.23821E+00 -1.17019E+00 -3.48176E+00 -6.68283E+00 -3.63334E+00 -2.03290E+00 -4.47808E+00 -4.46816E+00
  -4.63703E+00 -5.21099E+00 -5.90311E+00 -4.60258E+00 -3.20631E+00 -7.91572E+00 -3.59146E+00 -4.71400E+00 -4.74472E+00 -6.86342E+00
  -6.42123E+00 -6.56769E+00 -8.60014E+00 -8.18684E+00 -8.09849E+00 -7.13152E+00 -8.56304E+00 -7.54405E+00 -7.35088E+00 -7.93334E+00
  -7.80636E+00 -6.23672E+00 -7.96408E+00 -1.13613E+01 -8.77261E+00 -1.02561E+01 -1.07868E+01 -7.98555E+00 -1.01305E+01 -6.83622E+00
  -9.39551E+00 -8.72376E+00 -7.14657E+00 -1.03222E+01 -7.64650E+00 -7.26716E+00 -7.63726E+00 -9.68262E+00 -1.05596E+01 -7.46725E+00
  -6.45892E+00 -7.16377E+00 -9.22071E+00 -5.20717E+00 -7.64839E+00 -7.13369E+00 -7.49897E+00 -2.75412E+00 -8.47709E+00 -9.30623E+00
  -5.67366E+00 -1.01853E+01 -6.54276E+00 -8.28479E+00 -7.55798E+00 -8.50587E+00 -7.53473E+00 -8.22929E+00 -7.66491E+00 -8.22398E+00
  -1.03927E+01 -7.23682E+00 -7.02147E+00 -7.39339E+00 -8.72456E+00 -7.08587E+00 -7.49724E+00 -6.57711E+00 -4.06518E+00 -5.90023E+00
  -5.08442E+00 -8.56431E+00 -8.25503E+00 -8.55683E+00 -9.86446E+00 -7.17777E+00 -8.42479E+00 -4.93920E+00 -5.01645E+00 -7.59597E+00
  -5.99201E+00 -9.28559E+00 -6.38193E+00 -7.08677E+00 -3.30951E+00 -7.31094E+00 -5.24853E+00 -6.91633E+00
 NY points of the fit to the data follow
  -3.40695E+01 -3.37868E+01 -3.34449E+01 -3.31041E+01 -3.27860E+01 -3.24674E+01 -3.20174E+01 -3.13119E+01 -3.04523E+01 -2.96360E+01
  -2.90433E+01 -2.87528E+01 -2.87270E+01 -2.88710E+01 -2.90786E+01 -2.92375E+01 -2.92257E+01 -2.89923E+01 -2.86439E+01 -2.82996E+01
  -2.79392E+01 -2.75635E+01 -2.72272E+01 -2.70122E+01 -2.69128E+01 -2.68003E+01 -2.65634E+01 -2.61190E+01 -2.54550E+01 -2.46616E+01
  -2.38962E+01 -2.33263E+01 -2.30557E+01 -2.31045E+01 -2.33867E+01 -2.36988E+01 -2.39063E+01 -2.39526E+01 -2.37877E+01 -2.34521E+01
  -2.30296E+01 -2.25027E+01 -2.17205E+01 -2.06460E+01 -1.95176E+01 -1.86591E+01 -1.82936E+01 -1.84849E+01 -1.90881E+01 -1.98640E+01
  -2.05741E+01 -2.10027E+01 -2.10251E+01 -2.06906E+01 -2.01678E+01 -1.95870E+01 -1.89828E+01 -1.84113E+01 -1.79822E+01 -1.77742E+01
  -1.77924E+01 -1.79652E+01 -1.81748E+01 -1.83131E+01 -1.82788E+01 -1.80575E+01 -1.77042E+01 -1.72761E+01 -1.68567E+01 -1.65133E+01
  -1.62698E+01 -1.61172E+01 -1.60284E+01 -1.59768E+01 -1.59484E+01 -1.59274E+01 -1.58984E+01 -1.58315E+01 -1.57323E+01 -1.56227E+01
  -1.55001E+01 -1.53743E+01 -1.52974E+01 -1.53271E+01 -1.54581E+01 -1.56239E+01 -1.57332E+01 -1.57080E+01 -1.55164E+01 -1.51787E+01
  -1.47544E+01 -1.43068E+01 -1.39293E+01 -1.36947E+01 -1.36005E+01 -1.35942E+01 -1.36036E+01 -1.34837E+01 -1.29033E+01 -1.18332E+01
  -1.05961E+01 -9.59036E+00 -9.11695E+00 -9.26030E+00 -9.87385E+00 -1.07133E+01 -1.15417E+01 -1.21433E+01 -1.23545E+01 -1.22215E+01
  -1.20393E+01 -1.19047E+01 -1.17823E+01 -1.16679E+01 -1.15599E+01 -1.14612E+01 -1.13673E+01 -1.12707E+01 -1.11658E+01 -1.10457E+01
  -1.08971E+01 -1.06744E+01 -1.01885E+01 -9.33256E+00 -8.31911E+00 -7.45391E+00 -6.98738E+00 -7.00519E+00 -7.41722E+00 -8.04184E+00
  -8.70681E+00 -9.26645E+00 -9.59388E+00 -9.66255E+00 -9.63588E+00 -9.62339E+00 -9.56685E+00 -9.44614E+00 -9.27741E+00 -9.09078E+00
  -8.92349E+00 -8.79796E+00 -8.71148E+00 -8.65574E+00 -8.61639E+00 -8.57812E+00 -8.53537E+00 -8.48846E+00 -8.44081E+00 -8.40184E+00
  -8.37513E+00 -8.35322E+00 -8.32448E+00 -8.27865E+00 -8.20819E+00 -8.12708E+00 -8.06531E+00 -8.03774E+00 -8.03911E+00 -8.05205E+00
  -8.05334E+00 -8.03241E+00 -7.99094E+00 -7.94299E+00 -7.90418E+00 -7.89186E+00 -7.90946E+00 -7.93106E+00 -7.92913E+00 -7.89726E+00
  -7.85241E+00 -7.82801E+00 -7.83829E+00 -7.86042E+00 -7.87107E+00 -7.86139E+00 -7.83978E+00 -7.81519E+00 -7.79626E+00 -7.77474E+00
  -7.73866E+00 -7.69043E+00 -7.63603E+00 -7.56569E+00 -7.47306E+00 -7.36018E+00 -7.22789E+00 -7.08147E+00 -6.93908E+00 -6.83568E+00
  -6.79533E+00 -6.83595E+00 -6.95085E+00 -7.10744E+00 -7.24462E+00 -7.30413E+00 -7.24840E+00 -7.06432E+00 -6.77971E+00 -6.45498E+00
  -6.14168E+00 -5.88060E+00 -5.73934E+00 -5.76161E+00 -5.96460E+00 -6.36815E+00 -6.89851E+00 -7.38819E+00 -7.68050E+00 -7.66212E+00
  -7.28229E+00 -6.52879E+00 -5.58917E+00 -4.74888E+00 -4.24277E+00 -4.21058E+00 -4.63973E+00 -5.40530E+00 -6.34310E+00 -7.18975E+00
  -7.64724E+00 -7.57436E+00 -7.03508E+00 -6.27492E+00 -5.48573E+00 -4.81195E+00 -4.38745E+00 -4.27747E+00 -4.41581E+00 -4.62225E+00
  -4.75019E+00 -4.79263E+00 -4.76701E+00 -4.66484E+00 -4.50954E+00 -4.34425E+00 -4.21234E+00 -4.15295E+00 -4.20414E+00 -4.32830E+00
  -4.45755E+00 -4.53359E+00 -4.52354E+00 -4.40182E+00 -4.20812E+00 -4.01938E+00 -3.88235E+00 -3.79979E+00 -3.74450E+00 -3.64898E+00
  -3.36980E+00 -2.68835E+00 -1.62694E+00 -4.94635E-01  4.11974E-01  1.11345E+00  1.77072E+00  2.30116E+00  2.53645E+00  2.33189E+00
   1.68617E+00  7.89272E-01 -1.75621E-01 -1.20481E+00 -2.15511E+00 -2.76329E+00 -2.95534E+00 -2.97392E+00 -3.01459E+00 -3.02346E+00
  -2.98517E+00 -2.91942E+00 -2.84460E+00 -2.78033E+00 -2.74862E+00 -2.75350E+00 -2.78821E+00 -2.83716E+00 -2.88043E+00 -2.89974E+00
  -2.89226E+00 -2.86643E+00 -2.83408E+00 -2.80492E+00 -2.78215E+00 -2.76792E+00 -2.76404E+00 -2.76430E+00 -2.75907E+00 -2.74418E+00
  -2.72118E+00 -2.69447E+00 -2.66730E+00 -2.64402E+00 -2.62830E+00 -2.62048E+00 -2.61792E+00 -2.61566E+00 -2.60811E+00 -2.59469E+00
  -2.57678E+00 -2.55572E+00 -2.53325E+00 -2.51120E+00 -2.49119E+00 -2.47348E+00 -2.45635E+00 -2.43881E+00 -2.42061E+00 -2.40141E+00
  -2.38123E+00 -2.36006E+00 -2.33769E+00 -2.31392E+00 -2.28842E+00 -2.26081E+00 -2.23060E+00 -2.19716E+00 -2.15960E+00 -2.11658E+00
  -2.06553E+00 -2.00019E+00 -1.90922E+00 -1.80843E+00 -1.73607E+00 -1.71565E+00 -1.74803E+00 -1.81312E+00 -1.88283E+00 -1.93437E+00
  -1.93392E+00 -1.84053E+00 -1.64850E+00 -1.39224E+00 -1.13061E+00 -8.98001E-01 -7.01543E-01 -5.41408E-01 -4.07774E-01 -2.82399E-01
  -1.34854E-01  7.71997E-02  3.87940E-01  7.34216E-01  9.90648E-01  1.07528E+00  9.75188E-01  7.44196E-01  4.64096E-01  2.15154E-01
   1.31417E-01  3.12371E-01  7.43803E-01  1.29766E+00  1.78351E+00  2.10159E+00  2.24613E+00  2.22747E+00  2.07761E+00  1.84930E+00
   1.61880E+00  1.44062E+00  1.27978E+00  1.10253E+00  9.09612E-01  7.02756E-01  4.83706E-01  2.54566E-01  1.77063E-02 -2.24374E-01
  -4.69139E-01 -7.14118E-01 -9.56936E-01 -1.19539E+00 -1.42743E+00 -1.65125E+00 -1.86522E+00 -2.06792E+00 -2.25814E+00 -2.43481E+00
  -2.59706E+00 -2.74418E+00 -2.87558E+00 -2.99085E+00 -3.08972E+00 -3.17211E+00 -3.23811E+00 -3.28807E+00 -3.32258E+00 -3.34252E+00
  -3.34912E+00 -3.34393E+00 -3.32887E+00 -3.30623E+00 -3.27863E+00 -3.24896E+00 -3.22033E+00 -3.19600E+00 -3.17922E+00 -3.17314E+00
  -3.18069E+00 -3.20441E+00 -3.24638E+00 -3.30811E+00 -3.39045E+00 -3.49358E+00 -3.61700E+00 -3.75953E+00 -3.91946E+00 -4.09455E+00
  -4.28224E+00 -4.47967E+00 -4.68389E+00 -4.89194E+00 -5.10098E+00 -5.30839E+00 -5.51185E+00 -5.70938E+00 -5.89936E+00 -6.08054E+00
  -6.25206E+00 -6.41338E+00 -6.56424E+00 -6.70465E+00 -6.83481E+00 -6.95509E+00 -7.06595E+00 -7.16794E+00 -7.26164E+00 -7.34763E+00
  -7.42649E+00 -7.49879E+00 -7.56502E+00 -7.62568E+00 -7.68119E+00 -7.73194E+00 -7.77826E+00 -7.82046E+00 -7.85880E+00 -7.89350E+00
  -7.92476E+00 -7.95274E+00 -7.97760E+00 -7.99945E+00 -8.01841E+00 -8.03456E+00 -8.04798E+00 -8.05874E+00 -8.06689E+00 -8.07248E+00
  -8.07556E+00 -8.07614E+00 -8.07427E+00 -8.06997E+00 -8.06335E+00 -8.05448E+00 -8.04346E+00 -8.03036E+00 -8.01527E+00 -7.99826E+00
  -7.97940E+00 -7.95878E+00 -7.93647E+00 -7.91252E+00 -7.88701E+00 -7.86002E+00 -7.83161E+00 -7.80184E+00 -7.77078E+00 -7.73850E+00
  -7.70505E+00 -7.67051E+00 -7.63492E+00 -7.59836E+00 -7.56089E+00 -7.52256E+00 -7.48343E+00 -7.44358E+00 -7.40306E+00 -7.36192E+00
  -7.32023E+00 -7.27804E+00 -7.23541E+00 -7.19241E+00 -7.14909E+00 -7.10550E+00 -7.06171E+00 -7.01777E+00 -6.97374E+00 -6.92968E+00
  -6.88565E+00 -6.84169E+00 -6.79787E+00 -6.75424E+00 -6.71087E+00 -6.66780E+00 -6.62509E+00 -6.58279E+00
 NY background values follow
    -3.455E+01   -3.425E+01   -3.396E+01   -3.366E+01   -3.336E+01   -3.307E+01   -3.277E+01   -3.247E+01   -3.218E+01   -3.188E+01
    -3.159E+01   -3.130E+01   -3.101E+01   -3.071E+01   -3.042E+01   -3.014E+01   -2.985E+01   -2.956E+01   -2.928E+01   -2.899E+01
    -2.871E+01   -2.843E+01   -2.815E+01   -2.787E+01   -2.760E+01   -2.732E+01   -2.705E+01   -2.678E+01   -2.651E+01   -2.625E+01
    -2.598E+01   -2.572E+01   -2.546E+01   -2.520E+01   -2.495E+01   -2.470E+01   -2.445E+01   -2.420E+01   -2.396E+01   -2.371E+01
    -2.347E+01   -2.324E+01   -2.301E+01   -2.278E+01   -2.255E+01   -2.232E+01   -2.210E+01   -2.189E+01   -2.167E+01   -2.146E+01
    -2.125E+01   -2.105E+01   -2.085E+01   -2.065E+01   -2.045E+01   -2.026E+01   -2.006E+01   -1.988E+01   -1.969E+01   -1.951E+01
    -1.933E+01   -1.915E+01   -1.897E+01   -1.880E+01   -1.862E+01   -1.845E+01   -1.829E+01   -1.812E+01   -1.796E+01   -1.779E+01
    -1.763E+01   -1.747E+01   -1.732E+01   -1.716E+01   -1.701E+01   -1.686E+01   -1.671E+01   -1.656E+01   -1.641E+01   -1.626E+01
    -1.612E+01   -1.597E+01   -1.583E+01   -1.569E+01   -1.555E+01   -1.541E+01   -1.527E+01   -1.513E+01   -1.499E+01   -1.486E+01
    -1.472E+01   -1.459E+01   -1.445E+01   -1.432E+01   -1.418E+01   -1.405E+01   -1.392E+01   -1.379E+01   -1.365E+01   -1.352E+01
    -1.340E+01   -1.327E+01   -1.314E+01   -1.301E+01   -1.289E+01   -1.276E+01   -1.264E+01   -1.252E+01   -1.240E+01   -1.228E+01
    -1.216E+01   -1.204E+01   -1.193E+01   -1.181E+01   -1.170E+01   -1.159E+01   -1.147E+01   -1.137E+01   -1.126E+01   -1.115E+01
    -1.105E+01   -1.094E+01   -1.084E+01   -1.074E+01   -1.064E+01   -1.055E+01   -1.045E+01   -1.036E+01   -1.027E+01   -1.018E+01
    -1.009E+01   -1.001E+01   -9.922E+00   -9.840E+00   -9.761E+00   -9.684E+00   -9.608E+00   -9.535E+00   -9.464E+00   -9.394E+00
    -9.327E+00   -9.262E+00   -9.198E+00   -9.136E+00   -9.076E+00   -9.018E+00   -8.961E+00   -8.906E+00   -8.853E+00   -8.801E+00
    -8.750E+00   -8.701E+00   -8.653E+00   -8.606E+00   -8.561E+00   -8.517E+00   -8.474E+00   -8.432E+00   -8.391E+00   -8.351E+00
    -8.312E+00   -8.274E+00   -8.237E+00   -8.200E+00   -8.164E+00   -8.129E+00   -8.095E+00   -8.061E+00   -8.028E+00   -7.995E+00
    -7.962E+00   -7.930E+00   -7.899E+00   -7.867E+00   -7.836E+00   -7.805E+00   -7.774E+00   -7.744E+00   -7.713E+00   -7.682E+00
    -7.651E+00   -7.620E+00   -7.589E+00   -7.558E+00   -7.526E+00   -7.495E+00   -7.463E+00   -7.431E+00   -7.399E+00   -7.366E+00
    -7.333E+00   -7.300E+00   -7.267E+00   -7.234E+00   -7.200E+00   -7.166E+00   -7.131E+00   -7.097E+00   -7.062E+00   -7.026E+00
    -6.991E+00   -6.955E+00   -6.918E+00   -6.882E+00   -6.845E+00   -6.807E+00   -6.769E+00   -6.731E+00   -6.692E+00   -6.653E+00
    -6.614E+00   -6.574E+00   -6.533E+00   -6.492E+00   -6.451E+00   -6.409E+00   -6.367E+00   -6.324E+00   -6.280E+00   -6.237E+00
    -6.192E+00   -6.147E+00   -6.102E+00   -6.056E+00   -6.009E+00   -5.962E+00   -5.914E+00   -5.866E+00   -5.817E+00   -5.767E+00
    -5.717E+00   -5.667E+00   -5.616E+00   -5.565E+00   -5.513E+00   -5.462E+00   -5.410E+00   -5.358E+00   -5.305E+00   -5.253E+00
    -5.200E+00   -5.147E+00   -5.095E+00   -5.042E+00   -4.990E+00   -4.937E+00   -4.885E+00   -4.833E+00   -4.781E+00   -4.729E+00
    -4.678E+00   -4.627E+00   -4.576E+00   -4.526E+00   -4.476E+00   -4.427E+00   -4.378E+00   -4.330E+00   -4.282E+00   -4.235E+00
    -4.189E+00   -4.144E+00   -4.099E+00   -4.055E+00   -4.012E+00   -3.970E+00   -3.928E+00   -3.888E+00   -3.849E+00   -3.810E+00
    -3.773E+00   -3.737E+00   -3.702E+00   -3.668E+00   -3.635E+00   -3.604E+00   -3.573E+00   -3.544E+00   -3.516E+00   -3.489E+00
    -3.463E+00   -3.438E+00   -3.414E+00   -3.391E+00   -3.369E+00   -3.348E+00   -3.329E+00   -3.310E+00   -3.292E+00   -3.276E+00
    -3.260E+00   -3.245E+00   -3.232E+00   -3.219E+00   -3.207E+00   -3.196E+00   -3.187E+00   -3.178E+00   -3.170E+00   -3.162E+00
    -3.156E+00   -3.151E+00   -3.147E+00   -3.143E+00   -3.140E+00   -3.139E+00   -3.138E+00   -3.138E+00   -3.138E+00   -3.140E+00
    -3.142E+00   -3.146E+00   -3.150E+00   -3.154E+00   -3.160E+00   -3.166E+00   -3.174E+00   -3.181E+00   -3.190E+00   -3.199E+00
    -3.210E+00   -3.221E+00   -3.232E+00   -3.245E+00   -3.258E+00   -3.273E+00   -3.288E+00   -3.304E+00   -3.321E+00   -3.338E+00
    -3.357E+00   -3.376E+00   -3.397E+00   -3.418E+00   -3.440E+00   -3.463E+00   -3.487E+00   -3.513E+00   -3.539E+00   -3.566E+00
    -3.593E+00   -3.622E+00   -3.652E+00   -3.683E+00   -3.715E+00   -3.748E+00   -3.783E+00   -3.818E+00   -3.854E+00   -3.891E+00
    -3.930E+00   -3.969E+00   -4.010E+00   -4.052E+00   -4.094E+00   -4.138E+00   -4.183E+00   -4.230E+00   -4.277E+00   -4.326E+00
    -4.376E+00   -4.427E+00   -4.479E+00   -4.532E+00   -4.587E+00   -4.643E+00   -4.699E+00   -4.757E+00   -4.816E+00   -4.875E+00
    -4.935E+00   -4.997E+00   -5.058E+00   -5.121E+00   -5.184E+00   -5.248E+00   -5.312E+00   -5.377E+00   -5.442E+00   -5.508E+00
    -5.574E+00   -5.640E+00   -5.706E+00   -5.773E+00   -5.840E+00   -5.906E+00   -5.973E+00   -6.040E+00   -6.107E+00   -6.173E+00
    -6.240E+00   -6.306E+00   -6.372E+00   -6.438E+00   -6.503E+00   -6.568E+00   -6.632E+00   -6.696E+00   -6.759E+00   -6.822E+00
    -6.884E+00   -6.945E+00   -7.006E+00   -7.065E+00   -7.124E+00   -7.182E+00   -7.239E+00   -7.295E+00   -7.349E+00   -7.403E+00
    -7.456E+00   -7.507E+00   -7.557E+00   -7.606E+00   -7.654E+00   -7.701E+00   -7.747E+00   -7.791E+00   -7.834E+00   -7.876E+00
    -7.916E+00   -7.955E+00   -7.993E+00   -8.029E+00   -8.064E+00   -8.098E+00   -8.130E+00   -8.161E+00   -8.190E+00   -8.218E+00
    -8.245E+00   -8.269E+00   -8.293E+00   -8.315E+00   -8.335E+00   -8.353E+00   -8.370E+00   -8.386E+00   -8.399E+00   -8.411E+00
    -8.422E+00   -8.430E+00   -8.437E+00   -8.443E+00   -8.446E+00   -8.448E+00   -8.447E+00   -8.445E+00   -8.442E+00   -8.436E+00
    -8.428E+00   -8.419E+00   -8.407E+00   -8.394E+00   -8.379E+00   -8.362E+00   -8.343E+00   -8.323E+00   -8.301E+00   -8.277E+00
    -8.251E+00   -8.225E+00   -8.196E+00   -8.167E+00   -8.136E+00   -8.104E+00   -8.070E+00   -8.036E+00   -8.000E+00   -7.963E+00
    -7.926E+00   -7.887E+00   -7.847E+00   -7.807E+00   -7.766E+00   -7.724E+00   -7.681E+00   -7.638E+00   -7.594E+00   -7.550E+00
    -7.505E+00   -7.460E+00   -7.414E+00   -7.369E+00   -7.323E+00   -7.276E+00   -7.230E+00   -7.184E+00   -7.137E+00   -7.091E+00
    -7.044E+00   -6.998E+00   -6.952E+00   -6.906E+00   -6.861E+00   -6.816E+00   -6.771E+00   -6.727E+00
 Ala      Conc. = 1.80E+01
