 LCModel (Version 6.3-1L) Copyright: S.W. Provencher.          Ref.: Magn. Reson. Med. 30:672-679 (1993).                
 Slice#3 Row#11 Col#12  PD_24_press_1_raw_act
 36 lines in following concentration table = NCONC+1
    Conc.  %SD /Cr+PCr  Metabolite                                         
    3.910 227%   0.120 Ala                                                 
    6.925  22%   0.212 Asp                                                 
   32.609  18%   1.000 Cr                                                  
    0.000 999%   0.000 PCr                                                 
    4.159  22%   0.128 GABA                                                
    4.179  22%   0.128 Glc                                                 
    3.275 559%   0.100 Gln                                                 
   41.696  48%   1.279 Glu                                                 
    0.000 999%   0.000 GPC                                                 
   10.907  22%   0.334 PCh                                                 
    0.000 999%   0.000 GSH                                                 
    0.860 999% 2.6E-02 Ins                                                 
   29.413  39%   0.902 Lac                                                 
   41.872  18%   1.284 NAA                                                 
   31.717  24%   0.973 NAAG                                                
    1.390  22% 4.3E-02 Scyllo                                              
    6.920  22%   0.212 Tau                                                 
    3.751  60%   0.115 -CrCH2                                              
   10.907  22%   0.334 GPC+PCh                                             
   73.590  14%   2.257 NAA+NAAG                                            
   32.609  18%   1.000 Cr+PCr                                              
   44.972  57%   1.379 Glu+Gln                                             
 2.30E+04   3% 705.534 Lip13a                                              
   93.943 141%   2.881 Lip13b                                              
   70.797 290%   2.171 Lip09                                               
  184.529  57%   5.659 MM09                                                
    0.000 999%   0.000 Lip20                                               
    0.000 999%   0.000 MM20                                                
   50.992 107%   1.564 MM12                                                
  603.128  27%  18.496 MM14                                                
  441.707  24%  13.546 MM17                                                
 2.31E+04   2% 708.415 Lip13a+Lip13b                                       
 2.38E+04   2% 728.475 MM14+Lip13a+Lip13b+MM12                             
  255.326  68%   7.830 MM09+Lip09                                          
    0.000 999%   0.000 MM20+Lip20                                          
   6 lines in following misc. output table
  FWHM = 0.153 ppm    S/N =  23                                            
  Data shift =-0.054 ppm                                                   
  Ph: 158 deg      33.8 deg/ppm                                            
  alphaB,S = 5.1E-01,   2.3E+00                                            
    9 spline knots.   Ns = 9(2)                                            
   6 inflections.     5 extrema                                            
  498 points on ppm-axis = NY
      4.000000     3.992357     3.984714     3.977070     3.969427     3.961784     3.954141     3.946497     3.938854     3.931211
      3.923568     3.915925     3.908281     3.900638     3.892995     3.885352     3.877708     3.870065     3.862422     3.854779
      3.847136     3.839492     3.831849     3.824206     3.816563     3.808919     3.801276     3.793633     3.785990     3.778347
      3.770703     3.763060     3.755417     3.747774     3.740130     3.732487     3.724844     3.717201     3.709558     3.701914
      3.694271     3.686628     3.678985     3.671341     3.663698     3.656055     3.648412     3.640769     3.633125     3.625482
      3.617839     3.610196     3.602552     3.594909     3.587266     3.579623     3.571980     3.564336     3.556693     3.549050
      3.541407     3.533763     3.526120     3.518477     3.510834     3.503191     3.495547     3.487904     3.480261     3.472618
      3.464974     3.457331     3.449688     3.442045     3.434402     3.426758     3.419115     3.411472     3.403829     3.396185
      3.388542     3.380899     3.373256     3.365613     3.357969     3.350326     3.342683     3.335040     3.327396     3.319753
      3.312110     3.304467     3.296824     3.289180     3.281537     3.273894     3.266251     3.258607     3.250964     3.243321
      3.235678     3.228034     3.220391     3.212748     3.205105     3.197462     3.189818     3.182175     3.174532     3.166889
      3.159245     3.151602     3.143959     3.136316     3.128673     3.121029     3.113386     3.105743     3.098100     3.090456
      3.082813     3.075170     3.067527     3.059884     3.052240     3.044597     3.036954     3.029311     3.021667     3.014024
      3.006381     2.998738     2.991095     2.983451     2.975808     2.968165     2.960522     2.952878     2.945235     2.937592
      2.929949     2.922306     2.914662     2.907019     2.899376     2.891733     2.884089     2.876446     2.868803     2.861160
      2.853517     2.845873     2.838230     2.830587     2.822944     2.815300     2.807657     2.800014     2.792371     2.784728
      2.777084     2.769441     2.761798     2.754155     2.746511     2.738868     2.731225     2.723582     2.715939     2.708295
      2.700652     2.693009     2.685366     2.677722     2.670079     2.662436     2.654793     2.647150     2.639506     2.631863
      2.624220     2.616577     2.608933     2.601290     2.593647     2.586004     2.578361     2.570717     2.563074     2.555431
      2.547788     2.540144     2.532501     2.524858     2.517215     2.509572     2.501928     2.494285     2.486642     2.478999
      2.471355     2.463712     2.456069     2.448426     2.440783     2.433139     2.425496     2.417853     2.410210     2.402566
      2.394923     2.387280     2.379637     2.371994     2.364350     2.356707     2.349064     2.341421     2.333777     2.326134
      2.318491     2.310848     2.303205     2.295561     2.287918     2.280275     2.272632     2.264988     2.257345     2.249702
      2.242059     2.234416     2.226772     2.219129     2.211486     2.203843     2.196199     2.188556     2.180913     2.173270
      2.165627     2.157983     2.150340     2.142697     2.135054     2.127410     2.119767     2.112124     2.104481     2.096838
      2.089194     2.081551     2.073908     2.066265     2.058621     2.050978     2.043335     2.035692     2.028049     2.020405
      2.012762     2.005119     1.997476     1.989833     1.982190     1.974546     1.966903     1.959260     1.951617     1.943974
      1.936331     1.928688     1.921045     1.913402     1.905759     1.898115     1.890472     1.882829     1.875186     1.867543
      1.859900     1.852257     1.844614     1.836971     1.829327     1.821684     1.814041     1.806398     1.798755     1.791112
      1.783469     1.775826     1.768183     1.760540     1.752896     1.745253     1.737610     1.729967     1.722324     1.714681
      1.707038     1.699395     1.691752     1.684108     1.676465     1.668822     1.661179     1.653536     1.645893     1.638250
      1.630607     1.622964     1.615321     1.607677     1.600034     1.592391     1.584748     1.577105     1.569462     1.561819
      1.554176     1.546533     1.538890     1.531246     1.523603     1.515960     1.508317     1.500674     1.493031     1.485388
      1.477745     1.470102     1.462458     1.454815     1.447172     1.439529     1.431886     1.424243     1.416600     1.408957
      1.401314     1.393671     1.386027     1.378384     1.370741     1.363098     1.355455     1.347812     1.340169     1.332526
      1.324883     1.317240     1.309596     1.301953     1.294310     1.286667     1.279024     1.271381     1.263738     1.256095
      1.248452     1.240808     1.233165     1.225522     1.217879     1.210236     1.202593     1.194950     1.187307     1.179664
      1.172021     1.164377     1.156734     1.149091     1.141448     1.133805     1.126162     1.118519     1.110876     1.103233
      1.095590     1.087946     1.080303     1.072660     1.065017     1.057374     1.049731     1.042088     1.034445     1.026802
      1.019158     1.011515     1.003872     0.996229     0.988586     0.980943     0.973300     0.965657     0.958014     0.950371
      0.942727     0.935084     0.927441     0.919798     0.912155     0.904512     0.896869     0.889226     0.881583     0.873940
      0.866296     0.858653     0.851010     0.843367     0.835724     0.828081     0.820438     0.812795     0.805152     0.797508
      0.789865     0.782222     0.774579     0.766936     0.759293     0.751650     0.744007     0.736364     0.728721     0.721077
      0.713434     0.705791     0.698148     0.690505     0.682862     0.675219     0.667576     0.659933     0.652290     0.644646
      0.637003     0.629360     0.621717     0.614074     0.606431     0.598788     0.591145     0.583502     0.575858     0.568215
      0.560572     0.552929     0.545286     0.537643     0.530000     0.522357     0.514714     0.507071     0.499427     0.491784
      0.484141     0.476498     0.468855     0.461212     0.453569     0.445925     0.438282     0.430639     0.422996     0.415353
      0.407710     0.400067     0.392424     0.384780     0.377137     0.369494     0.361851     0.354208     0.346565     0.338922
      0.331278     0.323635     0.315992     0.308349     0.300706     0.293063     0.285420     0.277777     0.270133     0.262490
      0.254847     0.247204     0.239561     0.231918     0.224275     0.216631     0.208988     0.201345
 NY phased data points follow
  -3.44539E+00 -3.41133E+00 -3.80378E+00 -3.96013E+00 -2.69028E+00 -3.99645E+00 -2.92123E+00 -5.35947E+00 -1.71964E+00 -4.60851E+00
  -5.75353E+00 -4.06451E+00 -2.95811E+00 -2.38858E+00  1.69914E+00 -8.98622E-03 -5.76324E-02 -3.99617E+00 -5.28366E+00 -6.37225E+00
  -4.08144E+00 -5.89024E+00 -3.90219E+00 -6.97014E+00 -5.56416E+00 -5.72318E+00 -4.70784E+00 -5.17149E+00 -1.72845E+00 -4.53103E+00
  -4.39191E+00 -4.35735E+00 -3.13340E+00 -5.30284E+00 -3.13704E+00 -5.05751E+00 -4.40795E+00 -5.02951E+00 -3.31574E+00 -3.94846E+00
  -5.74301E+00 -5.21871E+00 -3.78182E+00 -5.69822E+00 -4.03473E+00 -4.43595E+00 -4.97460E+00 -6.20907E+00 -5.74456E+00 -4.62553E+00
  -5.67532E+00 -4.50217E+00 -3.88815E+00 -5.32508E+00 -4.07798E+00 -6.69209E+00 -6.87790E+00 -7.76446E+00 -8.15503E+00 -6.04299E+00
  -6.87393E+00 -8.40812E+00 -7.43774E+00 -1.08041E+01 -5.34741E+00 -6.31903E+00 -6.53362E+00 -7.06632E+00 -4.92685E+00 -5.71553E+00
  -7.11256E+00 -5.08876E+00 -5.11046E+00 -8.65063E+00 -6.64330E+00 -8.41439E+00 -6.22301E+00 -4.98600E+00 -5.20759E+00 -6.55253E+00
  -6.92264E+00 -7.07209E+00 -8.06589E+00 -8.74539E+00 -8.63443E+00 -8.32767E+00 -8.75295E+00 -9.13302E+00 -9.55754E+00 -8.61271E+00
  -1.04117E+01 -6.82010E+00 -7.34576E+00 -7.62231E+00 -1.13875E+01 -1.03183E+01 -9.25200E+00 -9.20390E+00 -8.61099E+00 -1.32143E+01
  -7.51027E+00 -1.11762E+01 -8.36018E+00 -1.06748E+01 -7.07196E+00 -4.85409E+00 -6.25174E+00 -5.35111E+00 -7.82179E+00 -1.11317E+01
  -1.52773E+01 -1.32941E+01 -1.48231E+01 -1.43725E+01 -1.43329E+01 -1.53393E+01 -1.40418E+01 -1.23255E+01 -1.31946E+01 -9.56360E+00
  -1.07969E+01 -1.08827E+01 -1.18245E+01 -1.19427E+01 -1.14557E+01 -1.04929E+01 -7.74139E+00 -8.58838E+00 -7.92184E+00 -7.78112E+00
  -9.63661E+00 -1.15534E+01 -1.18003E+01 -1.51965E+01 -1.66794E+01 -1.80652E+01 -1.84622E+01 -1.69393E+01 -1.51710E+01 -1.47827E+01
  -1.45612E+01 -1.60697E+01 -1.11055E+01 -1.49312E+01 -1.66867E+01 -1.24247E+01 -1.41728E+01 -1.23337E+01 -1.24684E+01 -1.02755E+01
  -1.47065E+01 -1.26901E+01 -1.20538E+01 -1.26782E+01 -1.27565E+01 -1.40389E+01 -1.25405E+01 -1.30918E+01 -1.44698E+01 -1.25194E+01
  -1.46286E+01 -1.36387E+01 -1.21610E+01 -1.32723E+01 -1.45381E+01 -1.66960E+01 -1.61121E+01 -1.51723E+01 -1.50330E+01 -1.36085E+01
  -1.44837E+01 -1.31609E+01 -1.37820E+01 -1.56216E+01 -1.42897E+01 -1.43480E+01 -1.53480E+01 -1.50725E+01 -1.20650E+01 -1.63186E+01
  -1.39464E+01 -1.41178E+01 -1.27734E+01 -1.50727E+01 -1.57778E+01 -1.48905E+01 -1.49896E+01 -1.66867E+01 -1.70855E+01 -1.47612E+01
  -1.60900E+01 -1.53301E+01 -1.70066E+01 -1.58495E+01 -1.60730E+01 -1.76267E+01 -1.86895E+01 -1.80720E+01 -1.95059E+01 -1.61302E+01
  -1.66088E+01 -1.83737E+01 -1.74027E+01 -1.57733E+01 -1.81919E+01 -1.85041E+01 -1.57315E+01 -1.57304E+01 -1.81212E+01 -1.79719E+01
  -2.04745E+01 -1.88181E+01 -1.80569E+01 -1.81913E+01 -1.91952E+01 -1.88389E+01 -1.72424E+01 -1.78593E+01 -1.93275E+01 -1.86082E+01
  -2.00367E+01 -2.04501E+01 -1.80109E+01 -2.03644E+01 -2.09304E+01 -1.90617E+01 -1.92314E+01 -1.78021E+01 -1.74099E+01 -1.52795E+01
  -1.76371E+01 -1.87958E+01 -1.74062E+01 -2.10599E+01 -1.66601E+01 -1.91402E+01 -1.95359E+01 -1.89179E+01 -2.06584E+01 -1.68987E+01
  -1.85201E+01 -1.71691E+01 -1.92768E+01 -1.82843E+01 -1.82784E+01 -1.84362E+01 -1.95523E+01 -1.91804E+01 -1.66726E+01 -1.59897E+01
  -1.50641E+01 -1.74718E+01 -1.66874E+01 -1.59260E+01 -1.74085E+01 -1.43472E+01 -1.54015E+01 -1.57519E+01 -1.30472E+01 -1.53653E+01
  -1.65129E+01 -1.66707E+01 -1.75996E+01 -1.68699E+01 -1.83455E+01 -1.86299E+01 -2.25121E+01 -1.95366E+01 -1.70772E+01 -1.03884E+01
  -9.29571E+00 -9.61566E+00 -6.22838E+00 -7.71544E+00 -5.84169E+00 -4.93510E+00 -9.46375E-01 -1.78368E+00 -4.27882E+00 -1.65678E+00
  -2.96022E+00 -6.53628E-01 -1.91519E+00 -6.03713E-01 -1.30437E+00 -8.94451E-01  2.74207E+00  1.45963E+00  1.24774E+00  1.41251E+00
   4.26955E+00  3.38554E+00  1.45261E+00  5.90139E+00  5.54097E+00  2.70158E+00  4.63820E+00  5.98858E+00  5.98733E+00  6.07299E+00
   6.87138E+00  9.16282E+00  7.47351E+00  9.17267E+00  1.10106E+01  1.09644E+01  1.03643E+01  1.24950E+01  8.79929E+00  1.33344E+01
   1.15338E+01  1.30035E+01  1.33597E+01  1.40053E+01  1.23557E+01  1.52441E+01  1.46507E+01  1.61825E+01  1.73222E+01  1.80886E+01
   1.70427E+01  1.86816E+01  1.71738E+01  1.94453E+01  2.15886E+01  1.88162E+01  2.01270E+01  2.26508E+01  2.27322E+01  2.42927E+01
   2.38378E+01  2.58120E+01  2.56799E+01  2.56548E+01  2.46352E+01  2.70955E+01  2.78609E+01  2.79656E+01  2.83877E+01  2.71373E+01
   2.65162E+01  2.98733E+01  2.94706E+01  3.16491E+01  3.01091E+01  3.39444E+01  3.35007E+01  3.81582E+01  3.87347E+01  3.92435E+01
   4.48258E+01  4.69211E+01  4.55177E+01  5.10871E+01  5.47696E+01  6.27994E+01  6.71560E+01  6.89694E+01  7.09508E+01  7.58948E+01
   7.99363E+01  8.05992E+01  8.55768E+01  9.20308E+01  9.08584E+01  9.59597E+01  9.88000E+01  1.03521E+02  1.06449E+02  1.07122E+02
   1.05906E+02  1.08453E+02  1.11237E+02  1.10624E+02  1.07629E+02  1.07738E+02  1.03212E+02  1.00535E+02  9.62133E+01  9.39316E+01
   8.81097E+01  8.47258E+01  7.64961E+01  7.26909E+01  6.46270E+01  6.32990E+01  5.62789E+01  5.23094E+01  4.65900E+01  4.21221E+01
   3.59569E+01  3.47010E+01  3.04172E+01  2.89092E+01  2.37500E+01  2.30491E+01  1.92812E+01  1.65949E+01  1.63148E+01  1.35244E+01
   1.06238E+01  9.18109E+00  8.19579E+00  6.10111E+00  4.96859E+00  6.52476E+00  5.12114E+00  3.27419E+00  2.08780E+00 -1.44302E+00
  -2.87927E+00 -1.28059E+00 -1.78395E+00 -3.38514E+00 -3.90697E+00 -3.04812E+00 -3.88296E+00 -3.43451E+00 -5.41330E+00 -5.44631E+00
  -5.05162E+00 -7.14875E+00 -1.00194E+01 -6.28213E+00 -9.06012E+00 -6.13549E+00 -7.03689E+00 -8.46290E+00 -1.06542E+01 -9.46049E+00
  -9.28807E+00 -1.05372E+01 -1.21036E+01 -1.13644E+01 -1.14215E+01 -1.24034E+01 -1.26539E+01 -1.26212E+01 -1.23738E+01 -1.56628E+01
  -1.38119E+01 -1.42769E+01 -1.36194E+01 -1.31422E+01 -1.26332E+01 -1.24468E+01 -1.46231E+01 -1.37397E+01 -1.55641E+01 -1.64726E+01
  -1.56511E+01 -1.65906E+01 -1.50300E+01 -1.42669E+01 -1.36284E+01 -1.38601E+01 -1.67194E+01 -1.47342E+01 -1.82802E+01 -1.73979E+01
  -1.90783E+01 -1.78091E+01 -1.87986E+01 -1.34174E+01 -1.31331E+01 -1.65767E+01 -1.65341E+01 -1.33022E+01 -1.80620E+01 -1.72845E+01
  -1.58488E+01 -1.63815E+01 -1.72331E+01 -1.66698E+01 -1.83263E+01 -1.54227E+01 -1.40991E+01 -1.55309E+01 -1.76934E+01 -1.45638E+01
  -1.75176E+01 -1.32196E+01 -1.68988E+01 -1.67727E+01 -1.66794E+01 -1.48489E+01 -1.60103E+01 -1.62613E+01 -1.66561E+01 -1.55291E+01
  -1.68803E+01 -1.52093E+01 -1.67633E+01 -1.62847E+01 -1.58515E+01 -1.56174E+01 -1.32095E+01 -1.56495E+01
 NY points of the fit to the data follow
  -4.00371E+00 -3.98450E+00 -4.01775E+00 -4.09940E+00 -4.12012E+00 -4.09644E+00 -4.13840E+00 -4.30891E+00 -4.17008E+00 -4.17474E+00
  -3.74484E+00 -3.29371E+00 -2.80034E+00 -1.94094E+00 -1.91613E+00 -1.59497E+00 -2.51143E+00 -3.47726E+00 -4.51918E+00 -5.81132E+00
  -5.84204E+00 -6.28491E+00 -5.96242E+00 -6.01799E+00 -5.53871E+00 -5.27450E+00 -4.75121E+00 -4.28302E+00 -3.93199E+00 -3.40747E+00
  -3.31118E+00 -3.03593E+00 -3.51219E+00 -3.68362E+00 -3.66826E+00 -3.59698E+00 -3.67884E+00 -3.93693E+00 -4.17084E+00 -4.56855E+00
  -4.72971E+00 -4.84833E+00 -4.85986E+00 -4.75897E+00 -4.84774E+00 -4.85344E+00 -5.02903E+00 -5.14882E+00 -5.17483E+00 -5.12219E+00
  -5.12738E+00 -5.11159E+00 -5.23424E+00 -5.40429E+00 -5.59494E+00 -5.79727E+00 -5.85611E+00 -5.92374E+00 -5.96990E+00 -5.97808E+00
  -6.11829E+00 -6.22319E+00 -6.36174E+00 -6.46481E+00 -6.55143E+00 -6.63117E+00 -6.73941E+00 -6.81840E+00 -6.94090E+00 -7.05101E+00
  -7.15770E+00 -7.29566E+00 -7.37286E+00 -7.48902E+00 -7.55278E+00 -7.59599E+00 -7.66588E+00 -7.74226E+00 -7.86808E+00 -8.00557E+00
  -8.23192E+00 -8.39058E+00 -8.59626E+00 -8.67610E+00 -8.75174E+00 -8.75282E+00 -8.75955E+00 -8.72137E+00 -8.78500E+00 -8.87293E+00
  -8.99527E+00 -9.20159E+00 -9.14955E+00 -9.26215E+00 -9.37030E+00 -9.53561E+00 -9.70093E+00 -9.81309E+00 -1.00329E+01 -1.01798E+01
  -9.99861E+00 -9.82085E+00 -9.21301E+00 -8.61446E+00 -8.03375E+00 -7.31665E+00 -7.98907E+00 -8.32242E+00 -1.02926E+01 -1.19316E+01
  -1.34254E+01 -1.49905E+01 -1.46391E+01 -1.48227E+01 -1.40776E+01 -1.37815E+01 -1.26255E+01 -1.19934E+01 -1.10208E+01 -1.02637E+01
  -9.61361E+00 -8.95914E+00 -9.23674E+00 -9.13139E+00 -9.99037E+00 -1.04628E+01 -9.86539E+00 -9.68717E+00 -8.83163E+00 -8.76026E+00
  -9.43245E+00 -9.99675E+00 -1.25718E+01 -1.34614E+01 -1.57540E+01 -1.60888E+01 -1.61028E+01 -1.58106E+01 -1.52010E+01 -1.48249E+01
  -1.37242E+01 -1.33526E+01 -1.19033E+01 -1.16577E+01 -1.04070E+01 -1.04310E+01 -1.00917E+01 -1.05403E+01 -1.16222E+01 -1.21299E+01
  -1.24728E+01 -1.27161E+01 -1.29203E+01 -1.30870E+01 -1.32067E+01 -1.33170E+01 -1.33935E+01 -1.34769E+01 -1.35427E+01 -1.36230E+01
  -1.37286E+01 -1.38372E+01 -1.39879E+01 -1.40963E+01 -1.42026E+01 -1.42464E+01 -1.42993E+01 -1.43645E+01 -1.44563E+01 -1.46564E+01
  -1.47500E+01 -1.49047E+01 -1.49412E+01 -1.50174E+01 -1.50773E+01 -1.51879E+01 -1.53419E+01 -1.54744E+01 -1.56430E+01 -1.57334E+01
  -1.57858E+01 -1.58000E+01 -1.59202E+01 -1.60157E+01 -1.62040E+01 -1.62726E+01 -1.63712E+01 -1.63869E+01 -1.65023E+01 -1.66013E+01
  -1.67719E+01 -1.69525E+01 -1.71370E+01 -1.73618E+01 -1.75652E+01 -1.78209E+01 -1.79680E+01 -1.81404E+01 -1.82518E+01 -1.83735E+01
  -1.83099E+01 -1.83763E+01 -1.82445E+01 -1.82727E+01 -1.82154E+01 -1.82826E+01 -1.84492E+01 -1.85617E+01 -1.89178E+01 -1.91137E+01
  -1.94880E+01 -1.95115E+01 -1.93991E+01 -1.91597E+01 -1.86501E+01 -1.84160E+01 -1.80502E+01 -1.80598E+01 -1.83744E+01 -1.87415E+01
  -1.95298E+01 -1.99265E+01 -2.03831E+01 -2.03404E+01 -2.00514E+01 -1.95715E+01 -1.90093E+01 -1.85287E+01 -1.80743E+01 -1.80897E+01
  -1.79505E+01 -1.83586E+01 -1.83359E+01 -1.85832E+01 -1.87644E+01 -1.89173E+01 -1.92290E+01 -1.91875E+01 -1.91425E+01 -1.90403E+01
  -1.87980E+01 -1.85263E+01 -1.79391E+01 -1.74909E+01 -1.68489E+01 -1.66244E+01 -1.63361E+01 -1.60390E+01 -1.57893E+01 -1.54701E+01
  -1.58211E+01 -1.54950E+01 -1.51954E+01 -1.46569E+01 -1.38380E+01 -1.35188E+01 -1.22439E+01 -1.22693E+01 -1.20696E+01 -1.22146E+01
  -1.37055E+01 -1.33736E+01 -1.58697E+01 -1.55837E+01 -1.72728E+01 -1.78273E+01 -1.76833E+01 -1.75532E+01 -1.43991E+01 -1.30043E+01
  -9.66514E+00 -8.39974E+00 -5.51276E+00 -4.66159E+00 -2.90733E+00 -2.44964E+00 -2.51555E+00 -1.87648E+00 -2.24984E+00 -2.12160E+00
  -3.44065E+00 -3.64396E+00 -3.39171E+00 -2.93060E+00 -2.47846E+00 -1.90482E+00 -1.34727E+00 -7.48967E-01 -1.36604E-01  5.00872E-01
   1.15066E+00  1.80471E+00  2.46092E+00  3.10132E+00  3.73524E+00  4.35681E+00  4.97085E+00  5.58035E+00  6.16099E+00  6.72543E+00
   7.28542E+00  7.81975E+00  8.33340E+00  8.82011E+00  9.28464E+00  9.74016E+00  1.01685E+01  1.05888E+01  1.10130E+01  1.14273E+01
   1.18510E+01  1.22707E+01  1.26986E+01  1.31390E+01  1.36078E+01  1.40910E+01  1.45918E+01  1.51123E+01  1.56675E+01  1.62417E+01
   1.68286E+01  1.74281E+01  1.80520E+01  1.86965E+01  1.93308E+01  1.99645E+01  2.05513E+01  2.11419E+01  2.16865E+01  2.22177E+01
   2.27669E+01  2.32945E+01  2.39508E+01  2.45954E+01  2.53420E+01  2.60824E+01  2.67400E+01  2.73111E+01  2.79843E+01  2.86130E+01
   2.92936E+01  3.00665E+01  3.09557E+01  3.22565E+01  3.34533E+01  3.48527E+01  3.61542E+01  3.75510E+01  3.90936E+01  4.04652E+01
   4.25632E+01  4.48120E+01  4.80074E+01  5.18986E+01  5.59592E+01  6.07800E+01  6.48331E+01  6.88382E+01  7.26460E+01  7.58658E+01
   7.93027E+01  8.24659E+01  8.58264E+01  8.94793E+01  9.29671E+01  9.62767E+01  9.94470E+01  1.02318E+02  1.05125E+02  1.07758E+02
   1.09412E+02  1.10598E+02  1.10810E+02  1.10233E+02  1.08829E+02  1.06307E+02  1.03362E+02  9.99356E+01  9.60314E+01  9.17063E+01
   8.70354E+01  8.21019E+01  7.69909E+01  7.17863E+01  6.65668E+01  6.14045E+01  5.63623E+01  5.14934E+01  4.68404E+01  4.24355E+01
   3.83007E+01  3.44488E+01  3.08838E+01  2.76032E+01  2.45981E+01  2.18552E+01  1.93578E+01  1.70869E+01  1.50222E+01  1.31431E+01
   1.14294E+01  9.86172E+00  8.42198E+00  7.09385E+00  5.86267E+00  4.71578E+00  3.64231E+00  2.63327E+00  1.68121E+00  7.80270E-01
  -7.42782E-02 -8.85972E-01 -1.65763E+00 -2.39131E+00 -3.08874E+00 -3.75125E+00 -4.38023E+00 -4.97694E+00 -5.54273E+00 -6.07889E+00
  -6.58683E+00 -7.06797E+00 -7.52381E+00 -7.95581E+00 -8.36552E+00 -8.75438E+00 -9.12386E+00 -9.47529E+00 -9.81002E+00 -1.01292E+01
  -1.04340E+01 -1.07253E+01 -1.10042E+01 -1.12715E+01 -1.15278E+01 -1.17738E+01 -1.20102E+01 -1.22375E+01 -1.24561E+01 -1.26664E+01
  -1.28688E+01 -1.30637E+01 -1.32513E+01 -1.34319E+01 -1.36058E+01 -1.37731E+01 -1.39341E+01 -1.40889E+01 -1.42378E+01 -1.43808E+01
  -1.45182E+01 -1.46499E+01 -1.47763E+01 -1.48973E+01 -1.50132E+01 -1.51239E+01 -1.52296E+01 -1.53304E+01 -1.54264E+01 -1.55176E+01
  -1.56041E+01 -1.56861E+01 -1.57635E+01 -1.58364E+01 -1.59049E+01 -1.59691E+01 -1.60291E+01 -1.60848E+01 -1.61363E+01 -1.61837E+01
  -1.62271E+01 -1.62665E+01 -1.63019E+01 -1.63335E+01 -1.63611E+01 -1.63850E+01 -1.64051E+01 -1.64215E+01 -1.64342E+01 -1.64433E+01
  -1.64488E+01 -1.64508E+01 -1.64493E+01 -1.64443E+01 -1.64359E+01 -1.64241E+01 -1.64089E+01 -1.63905E+01 -1.63688E+01 -1.63439E+01
  -1.63158E+01 -1.62845E+01 -1.62502E+01 -1.62127E+01 -1.61722E+01 -1.61287E+01 -1.60822E+01 -1.60327E+01
 NY background values follow
     1.089E+00    1.134E+00    1.177E+00    1.216E+00    1.254E+00    1.288E+00    1.321E+00    1.350E+00    1.377E+00    1.401E+00
     1.422E+00    1.441E+00    1.457E+00    1.471E+00    1.482E+00    1.490E+00    1.496E+00    1.499E+00    1.499E+00    1.497E+00
     1.492E+00    1.484E+00    1.474E+00    1.461E+00    1.446E+00    1.428E+00    1.408E+00    1.385E+00    1.360E+00    1.332E+00
     1.302E+00    1.269E+00    1.234E+00    1.196E+00    1.157E+00    1.114E+00    1.070E+00    1.023E+00    9.745E-01    9.235E-01
     8.704E-01    8.151E-01    7.577E-01    6.984E-01    6.371E-01    5.738E-01    5.086E-01    4.416E-01    3.728E-01    3.022E-01
     2.299E-01    1.560E-01    8.048E-02    3.415E-03   -7.515E-02   -1.551E-01   -2.365E-01   -3.192E-01   -4.032E-01   -4.883E-01
    -5.746E-01   -6.620E-01   -7.503E-01   -8.396E-01   -9.298E-01   -1.021E+00   -1.113E+00   -1.205E+00   -1.298E+00   -1.391E+00
    -1.485E+00   -1.580E+00   -1.674E+00   -1.769E+00   -1.864E+00   -1.959E+00   -2.054E+00   -2.149E+00   -2.244E+00   -2.339E+00
    -2.433E+00   -2.527E+00   -2.620E+00   -2.712E+00   -2.804E+00   -2.896E+00   -2.986E+00   -3.076E+00   -3.165E+00   -3.253E+00
    -3.340E+00   -3.427E+00   -3.513E+00   -3.598E+00   -3.682E+00   -3.765E+00   -3.847E+00   -3.929E+00   -4.010E+00   -4.090E+00
    -4.169E+00   -4.247E+00   -4.324E+00   -4.401E+00   -4.477E+00   -4.552E+00   -4.626E+00   -4.699E+00   -4.772E+00   -4.843E+00
    -4.915E+00   -4.985E+00   -5.054E+00   -5.123E+00   -5.192E+00   -5.259E+00   -5.326E+00   -5.393E+00   -5.458E+00   -5.524E+00
    -5.588E+00   -5.653E+00   -5.717E+00   -5.780E+00   -5.843E+00   -5.906E+00   -5.968E+00   -6.030E+00   -6.092E+00   -6.154E+00
    -6.215E+00   -6.277E+00   -6.338E+00   -6.399E+00   -6.461E+00   -6.522E+00   -6.584E+00   -6.646E+00   -6.708E+00   -6.770E+00
    -6.833E+00   -6.896E+00   -6.959E+00   -7.024E+00   -7.088E+00   -7.153E+00   -7.219E+00   -7.286E+00   -7.354E+00   -7.422E+00
    -7.491E+00   -7.562E+00   -7.633E+00   -7.706E+00   -7.780E+00   -7.855E+00   -7.931E+00   -8.009E+00   -8.089E+00   -8.170E+00
    -8.253E+00   -8.337E+00   -8.423E+00   -8.511E+00   -8.601E+00   -8.694E+00   -8.788E+00   -8.884E+00   -8.983E+00   -9.083E+00
    -9.185E+00   -9.289E+00   -9.395E+00   -9.503E+00   -9.611E+00   -9.721E+00   -9.833E+00   -9.945E+00   -1.006E+01   -1.017E+01
    -1.029E+01   -1.040E+01   -1.052E+01   -1.064E+01   -1.075E+01   -1.087E+01   -1.099E+01   -1.111E+01   -1.122E+01   -1.134E+01
    -1.146E+01   -1.157E+01   -1.169E+01   -1.180E+01   -1.191E+01   -1.203E+01   -1.214E+01   -1.224E+01   -1.235E+01   -1.246E+01
    -1.256E+01   -1.266E+01   -1.276E+01   -1.286E+01   -1.295E+01   -1.305E+01   -1.314E+01   -1.322E+01   -1.330E+01   -1.338E+01
    -1.346E+01   -1.353E+01   -1.360E+01   -1.367E+01   -1.373E+01   -1.378E+01   -1.384E+01   -1.388E+01   -1.393E+01   -1.396E+01
    -1.400E+01   -1.402E+01   -1.404E+01   -1.406E+01   -1.407E+01   -1.407E+01   -1.407E+01   -1.406E+01   -1.405E+01   -1.403E+01
    -1.400E+01   -1.396E+01   -1.392E+01   -1.387E+01   -1.381E+01   -1.375E+01   -1.367E+01   -1.359E+01   -1.350E+01   -1.340E+01
    -1.329E+01   -1.318E+01   -1.305E+01   -1.292E+01   -1.277E+01   -1.262E+01   -1.245E+01   -1.228E+01   -1.209E+01   -1.190E+01
    -1.170E+01   -1.148E+01   -1.126E+01   -1.102E+01   -1.078E+01   -1.052E+01   -1.026E+01   -9.991E+00   -9.711E+00   -9.424E+00
    -9.128E+00   -8.824E+00   -8.513E+00   -8.195E+00   -7.870E+00   -7.538E+00   -7.199E+00   -6.855E+00   -6.504E+00   -6.148E+00
    -5.786E+00   -5.419E+00   -5.047E+00   -4.671E+00   -4.291E+00   -3.906E+00   -3.518E+00   -3.126E+00   -2.731E+00   -2.333E+00
    -1.933E+00   -1.530E+00   -1.126E+00   -7.193E-01   -3.116E-01    9.723E-02    5.069E-01    9.170E-01    1.327E+00    1.738E+00
     2.147E+00    2.556E+00    2.965E+00    3.371E+00    3.776E+00    4.180E+00    4.581E+00    4.979E+00    5.374E+00    5.767E+00
     6.155E+00    6.540E+00    6.921E+00    7.298E+00    7.669E+00    8.036E+00    8.397E+00    8.753E+00    9.102E+00    9.445E+00
     9.782E+00    1.011E+01    1.043E+01    1.075E+01    1.106E+01    1.135E+01    1.164E+01    1.192E+01    1.220E+01    1.246E+01
     1.271E+01    1.295E+01    1.319E+01    1.341E+01    1.362E+01    1.382E+01    1.401E+01    1.418E+01    1.434E+01    1.449E+01
     1.463E+01    1.476E+01    1.487E+01    1.497E+01    1.505E+01    1.512E+01    1.518E+01    1.522E+01    1.526E+01    1.528E+01
     1.529E+01    1.528E+01    1.527E+01    1.524E+01    1.521E+01    1.516E+01    1.510E+01    1.503E+01    1.495E+01    1.486E+01
     1.476E+01    1.465E+01    1.453E+01    1.440E+01    1.426E+01    1.411E+01    1.396E+01    1.379E+01    1.362E+01    1.344E+01
     1.325E+01    1.306E+01    1.285E+01    1.264E+01    1.242E+01    1.220E+01    1.197E+01    1.173E+01    1.149E+01    1.124E+01
     1.099E+01    1.073E+01    1.047E+01    1.020E+01    9.923E+00    9.645E+00    9.363E+00    9.077E+00    8.787E+00    8.494E+00
     8.198E+00    7.898E+00    7.596E+00    7.291E+00    6.984E+00    6.675E+00    6.364E+00    6.051E+00    5.737E+00    5.421E+00
     5.105E+00    4.788E+00    4.470E+00    4.152E+00    3.834E+00    3.516E+00    3.199E+00    2.882E+00    2.566E+00    2.251E+00
     1.937E+00    1.625E+00    1.314E+00    1.006E+00    6.989E-01    3.946E-01    9.280E-02   -2.063E-01   -5.024E-01   -7.953E-01
    -1.085E+00   -1.371E+00   -1.653E+00   -1.931E+00   -2.205E+00   -2.475E+00   -2.740E+00   -3.001E+00   -3.258E+00   -3.510E+00
    -3.758E+00   -4.001E+00   -4.240E+00   -4.475E+00   -4.705E+00   -4.931E+00   -5.153E+00   -5.370E+00   -5.583E+00   -5.792E+00
    -5.997E+00   -6.197E+00   -6.393E+00   -6.585E+00   -6.772E+00   -6.956E+00   -7.135E+00   -7.310E+00   -7.481E+00   -7.647E+00
    -7.810E+00   -7.968E+00   -8.122E+00   -8.273E+00   -8.419E+00   -8.561E+00   -8.699E+00   -8.833E+00   -8.963E+00   -9.089E+00
    -9.211E+00   -9.329E+00   -9.443E+00   -9.553E+00   -9.660E+00   -9.762E+00   -9.861E+00   -9.956E+00   -1.005E+01   -1.013E+01
    -1.022E+01   -1.030E+01   -1.037E+01   -1.045E+01   -1.051E+01   -1.058E+01   -1.064E+01   -1.070E+01   -1.075E+01   -1.080E+01
    -1.085E+01   -1.090E+01   -1.094E+01   -1.097E+01   -1.101E+01   -1.104E+01   -1.106E+01   -1.109E+01   -1.111E+01   -1.112E+01
    -1.114E+01   -1.115E+01   -1.115E+01   -1.116E+01   -1.116E+01   -1.116E+01   -1.115E+01   -1.114E+01   -1.113E+01   -1.112E+01
    -1.110E+01   -1.108E+01   -1.105E+01   -1.103E+01   -1.100E+01   -1.097E+01   -1.093E+01   -1.090E+01
 Ala      Conc. = 3.91E+00
