 LCModel (Version 6.3-1L) Copyright: S.W. Provencher.          Ref.: Magn. Reson. Med. 30:672-679 (1993).                
 Slice#1 Row#10 Col#8  PD_24_press_1_raw_act
 36 lines in following concentration table = NCONC+1
    Conc.  %SD /Cr+PCr  Metabolite                                         
   94.167 101%   0.159 Ala                                                 
  128.352 100%   0.217 Asp                                                 
   37.832 470% 6.4E-02 Cr                                                  
  554.425  34%   0.936 PCr                                                 
   24.290 328% 4.1E-02 GABA                                                
   78.039 102%   0.132 Glc                                                 
  313.614  62%   0.530 Gln                                                 
  868.992  26%   1.467 Glu                                                 
  276.235   7%   0.466 GPC                                                 
    0.000 999%   0.000 PCh                                                 
  209.683  31%   0.354 GSH                                                 
 1.00E+03  21%   1.694 Ins                                                 
  199.614  64%   0.337 Lac                                                 
 1.09E+03   8%   1.846 NAA                                                 
  105.878  94%   0.179 NAAG                                                
   62.415  31%   0.105 Scyllo                                              
  110.241 109%   0.186 Tau                                                 
  104.591  78%   0.177 -CrCH2                                              
  276.235   7%   0.466 GPC+PCh                                             
 1.20E+03   6%   2.024 NAA+NAAG                                            
  592.257   9%   1.000 Cr+PCr                                              
 1.18E+03  26%   1.997 Glu+Gln                                             
 1.71E+03  35%   2.895 Lip13a                                              
  885.727  21%   1.496 Lip13b                                              
  628.252  45%   1.061 Lip09                                               
  679.256  41%   1.147 MM09                                                
  242.086  82%   0.409 Lip20                                               
 1.16E+03  29%   1.962 MM20                                                
  270.688  63%   0.457 MM12                                                
  441.831  78%   0.746 MM14                                                
  373.343  44%   0.630 MM17                                                
 2.60E+03  20%   4.391 Lip13a+Lip13b                                       
 3.31E+03  10%   5.594 MM14+Lip13a+Lip13b+MM12                             
 1.31E+03  13%   2.208 MM09+Lip09                                          
 1.40E+03  22%   2.371 MM20+Lip20                                          
   6 lines in following misc. output table
  FWHM = 0.054 ppm    S/N =   6                                            
  Data shift =-0.008 ppm                                                   
  Ph: -14 deg       4.7 deg/ppm                                            
  alphaB,S = 8.5E+01,   5.1E+01                                            
   14 spline knots.   Ns = 6(1)                                            
   2 inflections.     1 extrema                                            
  498 points on ppm-axis = NY
      4.000000     3.992357     3.984714     3.977070     3.969427     3.961784     3.954141     3.946497     3.938854     3.931211
      3.923568     3.915925     3.908281     3.900638     3.892995     3.885352     3.877708     3.870065     3.862422     3.854779
      3.847136     3.839492     3.831849     3.824206     3.816563     3.808919     3.801276     3.793633     3.785990     3.778347
      3.770703     3.763060     3.755417     3.747774     3.740130     3.732487     3.724844     3.717201     3.709558     3.701914
      3.694271     3.686628     3.678985     3.671341     3.663698     3.656055     3.648412     3.640769     3.633125     3.625482
      3.617839     3.610196     3.602552     3.594909     3.587266     3.579623     3.571980     3.564336     3.556693     3.549050
      3.541407     3.533763     3.526120     3.518477     3.510834     3.503191     3.495547     3.487904     3.480261     3.472618
      3.464974     3.457331     3.449688     3.442045     3.434402     3.426758     3.419115     3.411472     3.403829     3.396185
      3.388542     3.380899     3.373256     3.365613     3.357969     3.350326     3.342683     3.335040     3.327396     3.319753
      3.312110     3.304467     3.296824     3.289180     3.281537     3.273894     3.266251     3.258607     3.250964     3.243321
      3.235678     3.228034     3.220391     3.212748     3.205105     3.197462     3.189818     3.182175     3.174532     3.166889
      3.159245     3.151602     3.143959     3.136316     3.128673     3.121029     3.113386     3.105743     3.098100     3.090456
      3.082813     3.075170     3.067527     3.059884     3.052240     3.044597     3.036954     3.029311     3.021667     3.014024
      3.006381     2.998738     2.991095     2.983451     2.975808     2.968165     2.960522     2.952878     2.945235     2.937592
      2.929949     2.922306     2.914662     2.907019     2.899376     2.891733     2.884089     2.876446     2.868803     2.861160
      2.853517     2.845873     2.838230     2.830587     2.822944     2.815300     2.807657     2.800014     2.792371     2.784728
      2.777084     2.769441     2.761798     2.754155     2.746511     2.738868     2.731225     2.723582     2.715939     2.708295
      2.700652     2.693009     2.685366     2.677722     2.670079     2.662436     2.654793     2.647150     2.639506     2.631863
      2.624220     2.616577     2.608933     2.601290     2.593647     2.586004     2.578361     2.570717     2.563074     2.555431
      2.547788     2.540144     2.532501     2.524858     2.517215     2.509572     2.501928     2.494285     2.486642     2.478999
      2.471355     2.463712     2.456069     2.448426     2.440783     2.433139     2.425496     2.417853     2.410210     2.402566
      2.394923     2.387280     2.379637     2.371994     2.364350     2.356707     2.349064     2.341421     2.333777     2.326134
      2.318491     2.310848     2.303205     2.295561     2.287918     2.280275     2.272632     2.264988     2.257345     2.249702
      2.242059     2.234416     2.226772     2.219129     2.211486     2.203843     2.196199     2.188556     2.180913     2.173270
      2.165627     2.157983     2.150340     2.142697     2.135054     2.127410     2.119767     2.112124     2.104481     2.096838
      2.089194     2.081551     2.073908     2.066265     2.058621     2.050978     2.043335     2.035692     2.028049     2.020405
      2.012762     2.005119     1.997476     1.989833     1.982190     1.974546     1.966903     1.959260     1.951617     1.943974
      1.936331     1.928688     1.921045     1.913402     1.905759     1.898115     1.890472     1.882829     1.875186     1.867543
      1.859900     1.852257     1.844614     1.836971     1.829327     1.821684     1.814041     1.806398     1.798755     1.791112
      1.783469     1.775826     1.768183     1.760540     1.752896     1.745253     1.737610     1.729967     1.722324     1.714681
      1.707038     1.699395     1.691752     1.684108     1.676465     1.668822     1.661179     1.653536     1.645893     1.638250
      1.630607     1.622964     1.615321     1.607677     1.600034     1.592391     1.584748     1.577105     1.569462     1.561819
      1.554176     1.546533     1.538890     1.531246     1.523603     1.515960     1.508317     1.500674     1.493031     1.485388
      1.477745     1.470102     1.462458     1.454815     1.447172     1.439529     1.431886     1.424243     1.416600     1.408957
      1.401314     1.393671     1.386027     1.378384     1.370741     1.363098     1.355455     1.347812     1.340169     1.332526
      1.324883     1.317240     1.309596     1.301953     1.294310     1.286667     1.279024     1.271381     1.263738     1.256095
      1.248452     1.240808     1.233165     1.225522     1.217879     1.210236     1.202593     1.194950     1.187307     1.179664
      1.172021     1.164377     1.156734     1.149091     1.141448     1.133805     1.126162     1.118519     1.110876     1.103233
      1.095590     1.087946     1.080303     1.072660     1.065017     1.057374     1.049731     1.042088     1.034445     1.026802
      1.019158     1.011515     1.003872     0.996229     0.988586     0.980943     0.973300     0.965657     0.958014     0.950371
      0.942727     0.935084     0.927441     0.919798     0.912155     0.904512     0.896869     0.889226     0.881583     0.873940
      0.866296     0.858653     0.851010     0.843367     0.835724     0.828081     0.820438     0.812795     0.805152     0.797508
      0.789865     0.782222     0.774579     0.766936     0.759293     0.751650     0.744007     0.736364     0.728721     0.721077
      0.713434     0.705791     0.698148     0.690505     0.682862     0.675219     0.667576     0.659933     0.652290     0.644646
      0.637003     0.629360     0.621717     0.614074     0.606431     0.598788     0.591145     0.583502     0.575858     0.568215
      0.560572     0.552929     0.545286     0.537643     0.530000     0.522357     0.514714     0.507071     0.499427     0.491784
      0.484141     0.476498     0.468855     0.461212     0.453569     0.445925     0.438282     0.430639     0.422996     0.415353
      0.407710     0.400067     0.392424     0.384780     0.377137     0.369494     0.361851     0.354208     0.346565     0.338922
      0.331278     0.323635     0.315992     0.308349     0.300706     0.293063     0.285420     0.277777     0.270133     0.262490
      0.254847     0.247204     0.239561     0.231918     0.224275     0.216631     0.208988     0.201345
 NY phased data points follow
  -6.14808E+00 -1.10487E+01 -9.02915E+00 -6.59667E+00 -4.65593E+00 -4.58223E+00  4.14226E+00  2.35538E+00  6.37525E+00  3.34445E-01
   1.33400E+01  2.73960E+00  9.19879E+00 -2.56409E+00  3.71899E+00 -1.07504E+01 -4.15795E+00 -8.03784E+00 -2.22270E+00 -7.61101E+00
  -3.21416E+00 -7.19284E+00  3.92552E+00  2.28378E+00 -3.74297E+00 -7.98537E+00  3.58839E-01 -8.10436E+00 -2.81504E+00 -3.39712E+00
   3.94907E+00  3.15049E+00  4.70964E+00 -4.00735E-01 -1.82191E-02 -1.06777E+01  3.11998E+00 -1.80046E+00  1.00563E+00 -1.11557E+00
  -2.11045E+00 -4.95686E+00  6.11033E+00  1.64834E+00  2.56023E-01  3.19208E+00  2.24696E+00  3.58745E+00  3.92083E+00  2.25663E+00
   5.75669E+00 -5.66077E+00 -2.86452E+00 -4.03377E+00 -2.13384E+00 -3.29639E+00  4.64676E+00 -6.63269E+00 -1.41761E+00 -1.59252E+00
  -6.68104E+00 -3.81054E-01 -4.86757E+00 -8.02001E+00 -2.09854E+00 -1.37601E+01 -1.01793E+01 -5.58682E+00 -5.66452E+00 -5.59331E+00
   9.84656E-01 -1.02357E+01 -9.09620E+00  1.46764E+00 -5.76591E+00 -6.31898E+00  2.75039E+00 -7.97168E+00 -9.39043E-01 -4.16303E+00
  -2.80883E+00 -4.22991E+00 -5.19721E+00 -5.48956E+00  4.94882E-01 -6.05427E+00  6.74553E-01 -4.07854E+00 -1.84380E+00 -1.94007E+00
  -2.89658E+00 -5.16584E+00 -5.50902E+00 -3.63032E+00 -1.35650E+00 -1.68200E+00 -2.48620E+00  1.07552E-01 -9.95538E-01  7.25840E+00
   1.05808E+01  1.64355E+01  2.13969E+01  2.01446E+01  1.99691E+01  1.02062E+01  1.42241E+01  1.45889E+00  4.36470E+00 -6.08261E+00
  -1.57958E+00 -6.17610E+00 -3.52118E+00 -4.72009E+00 -6.82096E+00 -1.81018E+00 -2.56421E+00 -3.74826E+00 -4.40099E+00 -5.25597E+00
  -1.54456E+00 -4.85746E+00  2.02080E+00  2.52351E+00  6.52004E+00  8.89745E+00  1.68208E+01  1.38019E+01  1.44941E+01  1.02727E+01
   1.26035E+01  3.19924E+00 -1.62191E+00  3.59640E+00 -8.86257E-01 -4.62368E+00  1.52725E+00 -1.80955E+00 -1.57189E+00 -3.53662E+00
  -2.74351E+00 -3.49518E+00 -9.85179E-01 -6.17871E+00 -5.79140E+00 -9.45102E+00 -4.79246E+00 -1.10178E+01 -5.09450E+00 -1.02788E+01
  -1.03880E+01 -1.18543E+01 -3.37082E+00 -8.57926E+00 -6.11536E+00 -3.84526E+00 -3.84223E+00 -3.76269E+00 -5.16486E+00 -1.05368E+01
  -1.70577E+00 -1.19858E+01 -5.42393E+00 -9.50292E+00 -7.40681E+00 -7.39908E+00  1.49605E+00 -7.15306E+00 -5.51163E+00 -1.13061E+01
  -7.75459E+00 -1.12932E+01 -1.19238E+01 -7.11806E+00 -1.04075E+01 -1.12946E+01 -1.16552E+01 -1.31936E+01 -1.45921E+01 -1.15227E+01
  -1.17477E+01 -1.04308E+01 -2.33493E+00 -1.66631E+01 -8.64306E+00 -1.05425E+01 -1.74071E+00 -6.73892E+00 -7.73050E+00 -3.17773E+00
  -3.48447E+00 -8.54594E+00 -8.58823E+00 -8.93219E+00 -4.78497E+00 -8.16238E+00 -9.52347E+00 -7.95307E+00 -6.88209E+00 -8.90263E+00
  -1.18284E+01 -5.15469E+00 -3.50991E+00 -8.86323E+00 -1.36838E+00 -3.61802E+00 -6.98030E+00 -1.49332E-01 -3.33709E+00 -9.68131E+00
  -5.94841E+00 -6.73024E+00 -1.56386E+00 -6.19208E+00  1.39752E+00 -1.08807E+00  1.84420E+00  1.36264E+00  2.84690E+00 -5.84398E+00
  -4.81931E+00 -5.71721E+00 -1.07775E+01 -5.67791E+00 -8.28305E+00 -5.08562E+00 -4.02587E+00  1.36253E+00  5.93585E-01 -1.94744E+00
  -3.49597E+00 -3.11326E+00 -1.48004E+00 -3.41666E+00  2.36066E+00 -2.74587E+00 -2.64947E+00 -6.24574E+00  6.21205E-01 -4.49578E+00
  -4.02932E+00 -5.48531E+00  1.43276E+00 -2.47803E+00 -1.03374E+00  1.68845E+00 -1.74046E+00 -2.15894E+00  3.28249E+00 -1.83841E+00
   2.44400E+00 -2.46300E+00  1.64328E+00  5.45571E+00  6.14712E+00  1.41212E+01  9.26600E+00  1.85991E+01  3.17993E+01  3.12197E+01
   3.80719E+01  4.13403E+01  3.50885E+01  3.01777E+01  1.91704E+01  8.93500E+00  5.24993E+00  5.35339E+00  3.75806E+00 -1.48881E+00
   8.25267E-01 -2.46353E+00 -4.61482E+00 -6.48935E+00 -1.52897E+00  7.54749E-01 -3.26004E-01 -1.86269E+00 -5.23656E+00 -2.09155E+00
  -8.27077E+00 -8.92421E+00 -7.48254E+00 -5.39364E-01 -6.87274E+00 -6.76325E+00  9.82969E-02 -7.14019E+00 -4.27556E+00 -2.78843E+00
  -6.22811E+00 -5.75574E+00 -3.37239E+00 -8.47567E+00 -5.62496E+00 -5.65559E+00 -2.73012E+00 -3.10772E+00 -2.51001E+00 -7.59048E+00
  -2.89057E+00 -5.23460E+00 -1.04218E+00  2.56075E+00  3.14103E+00  3.27612E+00 -2.01416E+00  1.93833E+00 -2.17381E+00 -2.46007E+00
   1.59150E+00 -4.23798E+00 -3.68919E+00 -2.87404E+00 -6.16776E+00  1.80166E-01  1.05054E+00 -1.38596E+00 -1.64315E-01  4.79075E-01
   3.72817E-01  4.02264E-01 -2.44134E+00 -5.55880E+00 -3.82045E+00 -3.44110E+00  3.36721E+00  3.68034E+00  9.05476E-01 -6.49232E-02
  -2.19792E+00 -7.49216E+00 -2.10122E+00 -4.12927E+00  4.47164E+00  1.95863E+00 -5.41068E-01  1.04012E-01  4.07586E+00 -5.36475E+00
   3.15923E+00  2.42464E+00  2.41470E+00  4.60379E+00  7.42321E+00  1.47844E+01  1.38128E+01  1.18255E+01  1.37633E+01  1.56663E+01
   1.07158E+01  1.26092E+01  1.51798E+01  1.28653E+01  1.90595E+01  1.23478E+01  1.27560E+01  9.06898E+00  1.09094E+01  9.34284E+00
   7.88199E+00  9.36268E+00  6.58176E+00  9.17167E-01  3.83112E+00  4.64022E+00  1.26373E+00 -1.19209E+00  6.82309E+00  1.70507E+00
   3.28596E-01  2.69794E+00  3.71689E+00  6.09152E+00  3.94670E+00  4.19337E+00  2.42652E+00 -1.31732E+00  7.03418E+00  9.99803E-01
  -1.15913E+00 -1.57896E+00  4.59377E+00  4.62869E+00  8.83226E-01  1.86169E+00  6.71933E+00  5.96435E-01  2.58844E+00  8.59653E-01
  -1.77390E+00 -1.31263E+00  1.93922E+00 -2.37142E+00  4.21583E+00  1.70091E+00  1.12207E+00  3.34322E+00  2.75995E+00  4.17091E-01
   4.24566E+00 -2.44632E+00  5.58594E+00  5.24599E+00  7.74561E+00  3.85576E+00  5.21874E+00  3.83782E+00  6.80219E+00  1.09719E+01
   8.50068E+00  1.14130E+00  5.47581E+00  9.14478E-01  2.76727E+00  7.15943E+00  2.40381E+00  2.70098E+00  2.76209E-01 -1.29591E+00
  -1.34768E-01  1.80859E+00  1.04469E+00 -4.68287E+00  1.68071E-01 -2.13147E+00  1.78860E+00  3.38395E-01  3.69522E+00 -4.84855E+00
  -4.31980E+00  4.13883E-01 -1.14341E+00 -4.41254E-01  1.85761E+00 -6.04675E-01  2.12594E+00 -4.79671E+00 -3.88326E+00 -6.17461E+00
  -4.09158E+00 -7.46227E+00 -4.11203E+00 -6.59316E+00 -2.29834E+00 -5.61248E+00 -3.90657E+00 -7.14409E+00 -2.06084E+00 -8.32987E+00
  -8.71795E-01 -1.01747E+00 -3.88993E+00 -1.65656E+00 -1.11842E+00 -8.97299E+00  3.13112E+00 -5.46085E+00 -1.88867E+00 -3.78699E+00
  -5.65451E+00  2.18008E-01 -6.44305E+00 -1.74699E+00 -1.91144E+00 -7.50040E+00 -7.52808E+00 -2.44042E+00 -5.38807E+00 -1.68740E+00
  -4.60474E+00 -5.99479E-02 -3.30189E+00 -4.53326E+00 -1.09492E+00 -2.91488E+00 -2.77855E+00 -6.94507E-01 -3.95864E+00 -5.39397E+00
  -6.61415E+00 -1.62750E+00 -4.72330E+00 -1.65824E+00 -4.84610E+00 -5.44770E+00 -3.64313E+00 -6.34866E+00 -4.39096E+00 -2.70942E-01
   2.61569E-01 -5.08082E+00 -1.80159E+00 -5.32438E+00 -1.69175E+00 -1.66965E+00  1.67082E+00  2.78745E-01
 NY points of the fit to the data follow
  -4.79415E+00 -4.95176E+00 -4.78917E+00 -4.08598E+00 -2.80909E+00 -1.06072E+00  1.14828E+00  3.43701E+00  5.33570E+00  6.46889E+00
   6.54308E+00  5.49627E+00  3.57332E+00  1.27834E+00 -7.55911E-01 -2.22138E+00 -3.29154E+00 -3.93796E+00 -4.21806E+00 -4.34508E+00
  -4.34911E+00 -4.28329E+00 -4.23959E+00 -4.22709E+00 -4.15148E+00 -4.04058E+00 -3.71113E+00 -2.99587E+00 -1.95791E+00 -7.10702E-01
   5.42138E-01  1.50945E+00  1.84728E+00  1.39879E+00  3.52035E-01 -9.80295E-01 -2.40317E+00 -3.70097E+00 -4.56781E+00 -4.96654E+00
  -4.88866E+00 -4.29655E+00 -3.22506E+00 -1.77706E+00 -1.49993E-01  1.40848E+00  2.56392E+00  3.00041E+00  2.58706E+00  1.31068E+00
  -5.63473E-01 -2.51839E+00 -4.06442E+00 -4.96074E+00 -5.26334E+00 -5.04372E+00 -4.43732E+00 -3.69563E+00 -3.02252E+00 -2.57754E+00
  -2.45823E+00 -2.68577E+00 -3.22969E+00 -3.92092E+00 -4.53609E+00 -4.89363E+00 -4.93364E+00 -4.69288E+00 -4.27787E+00 -3.79732E+00
  -3.35701E+00 -3.04161E+00 -2.85383E+00 -2.80586E+00 -2.90534E+00 -3.12174E+00 -3.41757E+00 -3.71940E+00 -4.01693E+00 -4.26170E+00
  -4.31091E+00 -4.14151E+00 -3.85895E+00 -3.49959E+00 -3.18873E+00 -3.09476E+00 -3.27408E+00 -3.70710E+00 -4.31497E+00 -4.95012E+00
  -5.41210E+00 -5.57920E+00 -5.47008E+00 -5.27146E+00 -5.07766E+00 -4.79540E+00 -3.98476E+00 -1.91215E+00  1.23415E+00  5.72308E+00
   1.11655E+01  1.63271E+01  2.00583E+01  2.13967E+01  1.98214E+01  1.55995E+01  9.82127E+00  4.16868E+00  4.50352E-02 -2.68141E+00
  -4.49930E+00 -5.17432E+00 -5.36405E+00 -5.43810E+00 -5.47245E+00 -5.49636E+00 -5.50864E+00 -5.50700E+00 -5.46901E+00 -5.33909E+00
  -4.89265E+00 -3.50314E+00 -1.19295E+00  2.05601E+00  6.18528E+00  1.03884E+01  1.37462E+01  1.55503E+01  1.52757E+01  1.28821E+01
   8.98994E+00  4.66645E+00  1.07707E+00 -1.48104E+00 -3.45942E+00 -4.68632E+00 -5.29826E+00 -5.61207E+00 -5.63524E+00 -5.40446E+00
  -5.05350E+00 -4.71415E+00 -4.46565E+00 -4.37420E+00 -4.43374E+00 -4.58321E+00 -4.77637E+00 -4.97468E+00 -5.16870E+00 -5.35574E+00
  -5.51357E+00 -5.64584E+00 -5.74781E+00 -5.81627E+00 -5.85695E+00 -5.90962E+00 -5.99763E+00 -6.13618E+00 -6.33620E+00 -6.54610E+00
  -6.72996E+00 -6.82903E+00 -6.79861E+00 -6.66842E+00 -6.49845E+00 -6.37124E+00 -6.37246E+00 -6.51012E+00 -6.71900E+00 -6.95419E+00
  -7.18605E+00 -7.40740E+00 -7.61945E+00 -7.81910E+00 -7.98917E+00 -8.12086E+00 -8.18761E+00 -8.17286E+00 -8.09728E+00 -7.99829E+00
  -7.91793E+00 -7.90816E+00 -7.93229E+00 -7.88591E+00 -7.73862E+00 -7.47408E+00 -7.05837E+00 -6.51404E+00 -5.85712E+00 -5.17214E+00
  -4.60612E+00 -4.28653E+00 -4.30386E+00 -4.59929E+00 -5.03892E+00 -5.49809E+00 -5.82393E+00 -5.88880E+00 -5.64964E+00 -5.12728E+00
  -4.37139E+00 -3.52739E+00 -2.77628E+00 -2.31371E+00 -2.34658E+00 -2.87465E+00 -3.86347E+00 -5.19832E+00 -6.53846E+00 -7.51730E+00
  -7.79348E+00 -7.27821E+00 -6.01419E+00 -4.23961E+00 -2.42445E+00 -1.13006E+00 -7.56899E-01 -1.40143E+00 -2.98981E+00 -5.13596E+00
  -7.21224E+00 -8.60316E+00 -9.02810E+00 -8.52288E+00 -7.16323E+00 -5.35031E+00 -3.60861E+00 -2.33613E+00 -1.71185E+00 -1.59185E+00
  -1.77659E+00 -2.07822E+00 -2.27727E+00 -2.24246E+00 -1.99208E+00 -1.60506E+00 -1.24416E+00 -1.09443E+00 -1.13477E+00 -1.35849E+00
  -1.73491E+00 -2.12557E+00 -2.33804E+00 -2.26821E+00 -1.96701E+00 -1.50569E+00 -9.78841E-01 -5.15699E-01 -2.28291E-01 -3.13905E-02
   3.37094E-01  9.01299E-01  1.72667E+00  2.99181E+00  5.40923E+00  9.41452E+00  1.45478E+01  2.10904E+01  2.82373E+01  3.43800E+01
   3.82335E+01  3.87974E+01  3.54680E+01  2.87163E+01  2.02496E+01  1.24201E+01  6.76628E+00  2.78527E+00  1.31434E-01 -9.73068E-01
  -1.49641E+00 -1.81485E+00 -1.99073E+00 -2.07107E+00 -2.12435E+00 -2.18533E+00 -2.28509E+00 -2.43889E+00 -2.63288E+00 -2.83205E+00
  -3.01360E+00 -3.16427E+00 -3.27419E+00 -3.34450E+00 -3.38474E+00 -3.40849E+00 -3.42465E+00 -3.43356E+00 -3.43180E+00 -3.41761E+00
  -3.38689E+00 -3.33658E+00 -3.26694E+00 -3.18286E+00 -3.08754E+00 -2.98407E+00 -2.87524E+00 -2.76046E+00 -2.63864E+00 -2.51122E+00
  -2.37908E+00 -2.24445E+00 -2.11155E+00 -1.98523E+00 -1.87056E+00 -1.77093E+00 -1.68812E+00 -1.62367E+00 -1.57726E+00 -1.54760E+00
  -1.53336E+00 -1.53235E+00 -1.54181E+00 -1.55849E+00 -1.57855E+00 -1.59765E+00 -1.61108E+00 -1.61363E+00 -1.59917E+00 -1.55926E+00
  -1.47824E+00 -1.32995E+00 -1.13956E+00 -9.39257E-01 -7.53814E-01 -6.54464E-01 -6.93384E-01 -8.82949E-01 -1.20996E+00 -1.58241E+00
  -1.86777E+00 -1.96615E+00 -1.77672E+00 -1.31418E+00 -6.85468E-01  4.49321E-02  7.86053E-01  1.43358E+00  1.96090E+00  2.40477E+00
   2.89039E+00  3.60174E+00  4.58491E+00  5.79016E+00  7.23857E+00  8.77054E+00  1.01958E+01  1.13853E+01  1.22385E+01  1.27999E+01
   1.31868E+01  1.35001E+01  1.38926E+01  1.43333E+01  1.45992E+01  1.45786E+01  1.42147E+01  1.33821E+01  1.21164E+01  1.05564E+01
   8.94527E+00  7.50774E+00  6.27637E+00  5.26521E+00  4.49934E+00  3.90236E+00  3.41677E+00  3.00515E+00  2.64214E+00  2.31140E+00
   2.00332E+00  1.71309E+00  1.43900E+00  1.18130E+00  9.41229E-01  7.20557E-01  5.21201E-01  3.45128E-01  1.94171E-01  7.00941E-02
  -2.55097E-02 -9.10908E-02 -1.25241E-01 -1.26598E-01 -9.39750E-02 -2.62976E-02  7.72387E-02  2.17196E-01  3.93686E-01  6.06345E-01
   8.54096E-01  1.13512E+00  1.44665E+00  1.78496E+00  2.14521E+00  2.52154E+00  2.90699E+00  3.29372E+00  3.67315E+00  4.03623E+00
   4.37370E+00  4.67654E+00  4.93621E+00  5.14513E+00  5.29696E+00  5.38699E+00  5.41219E+00  5.37154E+00  5.26588E+00  5.09799E+00
   4.87231E+00  4.59482E+00  4.27256E+00  3.91347E+00  3.52583E+00  3.11810E+00  2.69844E+00  2.27451E+00  1.85320E+00  1.44051E+00
   1.04141E+00  6.59891E-01  2.98873E-01 -3.96229E-02 -3.54488E-01 -6.45295E-01 -9.12282E-01 -1.15611E+00 -1.37787E+00 -1.57883E+00
  -1.76052E+00 -1.92443E+00 -2.07215E+00 -2.20519E+00 -2.32500E+00 -2.43295E+00 -2.53031E+00 -2.61821E+00 -2.69769E+00 -2.76965E+00
  -2.83494E+00 -2.89427E+00 -2.94830E+00 -2.99757E+00 -3.04261E+00 -3.08381E+00 -3.12161E+00 -3.15631E+00 -3.18824E+00 -3.21762E+00
  -3.24473E+00 -3.26973E+00 -3.29285E+00 -3.31421E+00 -3.33399E+00 -3.35228E+00 -3.36924E+00 -3.38493E+00 -3.39950E+00 -3.41299E+00
  -3.42551E+00 -3.43710E+00 -3.44784E+00 -3.45779E+00 -3.46701E+00 -3.47552E+00 -3.48340E+00 -3.49066E+00 -3.49736E+00 -3.50352E+00
  -3.50920E+00 -3.51440E+00 -3.51916E+00 -3.52348E+00 -3.52741E+00 -3.53097E+00 -3.53418E+00 -3.53705E+00 -3.53961E+00 -3.54185E+00
  -3.54383E+00 -3.54553E+00 -3.54699E+00 -3.54819E+00 -3.54917E+00 -3.54992E+00 -3.55048E+00 -3.55083E+00 -3.55100E+00 -3.55098E+00
  -3.55080E+00 -3.55044E+00 -3.54996E+00 -3.54931E+00 -3.54853E+00 -3.54761E+00 -3.54657E+00 -3.54540E+00
 NY background values follow
    -7.435E+00   -7.428E+00   -7.421E+00   -7.414E+00   -7.408E+00   -7.401E+00   -7.394E+00   -7.387E+00   -7.380E+00   -7.373E+00
    -7.366E+00   -7.360E+00   -7.353E+00   -7.346E+00   -7.339E+00   -7.332E+00   -7.325E+00   -7.318E+00   -7.311E+00   -7.305E+00
    -7.298E+00   -7.291E+00   -7.284E+00   -7.277E+00   -7.270E+00   -7.263E+00   -7.256E+00   -7.250E+00   -7.243E+00   -7.236E+00
    -7.229E+00   -7.222E+00   -7.215E+00   -7.208E+00   -7.201E+00   -7.194E+00   -7.188E+00   -7.181E+00   -7.174E+00   -7.167E+00
    -7.160E+00   -7.153E+00   -7.146E+00   -7.139E+00   -7.133E+00   -7.126E+00   -7.119E+00   -7.112E+00   -7.105E+00   -7.098E+00
    -7.091E+00   -7.084E+00   -7.078E+00   -7.071E+00   -7.064E+00   -7.057E+00   -7.050E+00   -7.043E+00   -7.036E+00   -7.029E+00
    -7.022E+00   -7.016E+00   -7.009E+00   -7.002E+00   -6.995E+00   -6.988E+00   -6.981E+00   -6.974E+00   -6.967E+00   -6.960E+00
    -6.954E+00   -6.947E+00   -6.940E+00   -6.933E+00   -6.926E+00   -6.919E+00   -6.912E+00   -6.905E+00   -6.898E+00   -6.892E+00
    -6.885E+00   -6.878E+00   -6.871E+00   -6.864E+00   -6.857E+00   -6.850E+00   -6.843E+00   -6.836E+00   -6.830E+00   -6.823E+00
    -6.816E+00   -6.809E+00   -6.802E+00   -6.795E+00   -6.788E+00   -6.781E+00   -6.774E+00   -6.768E+00   -6.761E+00   -6.754E+00
    -6.747E+00   -6.740E+00   -6.733E+00   -6.726E+00   -6.719E+00   -6.712E+00   -6.706E+00   -6.699E+00   -6.692E+00   -6.685E+00
    -6.678E+00   -6.671E+00   -6.664E+00   -6.657E+00   -6.650E+00   -6.643E+00   -6.637E+00   -6.630E+00   -6.623E+00   -6.616E+00
    -6.609E+00   -6.602E+00   -6.595E+00   -6.588E+00   -6.581E+00   -6.575E+00   -6.568E+00   -6.561E+00   -6.554E+00   -6.547E+00
    -6.540E+00   -6.533E+00   -6.526E+00   -6.519E+00   -6.512E+00   -6.506E+00   -6.499E+00   -6.492E+00   -6.485E+00   -6.478E+00
    -6.471E+00   -6.464E+00   -6.457E+00   -6.450E+00   -6.443E+00   -6.436E+00   -6.430E+00   -6.423E+00   -6.416E+00   -6.409E+00
    -6.402E+00   -6.395E+00   -6.388E+00   -6.381E+00   -6.374E+00   -6.367E+00   -6.361E+00   -6.354E+00   -6.347E+00   -6.340E+00
    -6.333E+00   -6.326E+00   -6.319E+00   -6.312E+00   -6.305E+00   -6.298E+00   -6.292E+00   -6.285E+00   -6.278E+00   -6.271E+00
    -6.264E+00   -6.257E+00   -6.250E+00   -6.243E+00   -6.236E+00   -6.229E+00   -6.222E+00   -6.216E+00   -6.209E+00   -6.202E+00
    -6.195E+00   -6.188E+00   -6.181E+00   -6.174E+00   -6.167E+00   -6.160E+00   -6.153E+00   -6.146E+00   -6.140E+00   -6.133E+00
    -6.126E+00   -6.119E+00   -6.112E+00   -6.105E+00   -6.098E+00   -6.091E+00   -6.084E+00   -6.077E+00   -6.070E+00   -6.063E+00
    -6.057E+00   -6.050E+00   -6.043E+00   -6.036E+00   -6.029E+00   -6.022E+00   -6.015E+00   -6.008E+00   -6.001E+00   -5.994E+00
    -5.987E+00   -5.980E+00   -5.974E+00   -5.967E+00   -5.960E+00   -5.953E+00   -5.946E+00   -5.939E+00   -5.932E+00   -5.925E+00
    -5.918E+00   -5.911E+00   -5.904E+00   -5.897E+00   -5.891E+00   -5.884E+00   -5.877E+00   -5.870E+00   -5.863E+00   -5.856E+00
    -5.849E+00   -5.842E+00   -5.835E+00   -5.828E+00   -5.821E+00   -5.814E+00   -5.808E+00   -5.801E+00   -5.794E+00   -5.787E+00
    -5.780E+00   -5.773E+00   -5.766E+00   -5.759E+00   -5.752E+00   -5.745E+00   -5.738E+00   -5.731E+00   -5.724E+00   -5.718E+00
    -5.711E+00   -5.704E+00   -5.697E+00   -5.690E+00   -5.683E+00   -5.676E+00   -5.669E+00   -5.662E+00   -5.655E+00   -5.648E+00
    -5.641E+00   -5.634E+00   -5.628E+00   -5.621E+00   -5.614E+00   -5.607E+00   -5.600E+00   -5.593E+00   -5.586E+00   -5.579E+00
    -5.572E+00   -5.565E+00   -5.558E+00   -5.551E+00   -5.544E+00   -5.537E+00   -5.531E+00   -5.524E+00   -5.517E+00   -5.510E+00
    -5.503E+00   -5.496E+00   -5.489E+00   -5.482E+00   -5.475E+00   -5.468E+00   -5.461E+00   -5.454E+00   -5.447E+00   -5.441E+00
    -5.434E+00   -5.427E+00   -5.420E+00   -5.413E+00   -5.406E+00   -5.399E+00   -5.392E+00   -5.385E+00   -5.378E+00   -5.371E+00
    -5.364E+00   -5.357E+00   -5.350E+00   -5.343E+00   -5.337E+00   -5.330E+00   -5.323E+00   -5.316E+00   -5.309E+00   -5.302E+00
    -5.295E+00   -5.288E+00   -5.281E+00   -5.274E+00   -5.267E+00   -5.260E+00   -5.253E+00   -5.246E+00   -5.240E+00   -5.233E+00
    -5.226E+00   -5.219E+00   -5.212E+00   -5.205E+00   -5.198E+00   -5.191E+00   -5.184E+00   -5.177E+00   -5.170E+00   -5.163E+00
    -5.156E+00   -5.149E+00   -5.142E+00   -5.136E+00   -5.129E+00   -5.122E+00   -5.115E+00   -5.108E+00   -5.101E+00   -5.094E+00
    -5.087E+00   -5.080E+00   -5.073E+00   -5.066E+00   -5.059E+00   -5.052E+00   -5.045E+00   -5.038E+00   -5.031E+00   -5.025E+00
    -5.018E+00   -5.011E+00   -5.004E+00   -4.997E+00   -4.990E+00   -4.983E+00   -4.976E+00   -4.969E+00   -4.962E+00   -4.955E+00
    -4.948E+00   -4.941E+00   -4.934E+00   -4.927E+00   -4.920E+00   -4.914E+00   -4.907E+00   -4.900E+00   -4.893E+00   -4.886E+00
    -4.879E+00   -4.872E+00   -4.865E+00   -4.858E+00   -4.851E+00   -4.844E+00   -4.837E+00   -4.830E+00   -4.823E+00   -4.816E+00
    -4.809E+00   -4.803E+00   -4.796E+00   -4.789E+00   -4.782E+00   -4.775E+00   -4.768E+00   -4.761E+00   -4.754E+00   -4.747E+00
    -4.740E+00   -4.733E+00   -4.726E+00   -4.719E+00   -4.712E+00   -4.705E+00   -4.698E+00   -4.692E+00   -4.685E+00   -4.678E+00
    -4.671E+00   -4.664E+00   -4.657E+00   -4.650E+00   -4.643E+00   -4.636E+00   -4.629E+00   -4.622E+00   -4.615E+00   -4.608E+00
    -4.601E+00   -4.594E+00   -4.587E+00   -4.581E+00   -4.574E+00   -4.567E+00   -4.560E+00   -4.553E+00   -4.546E+00   -4.539E+00
    -4.532E+00   -4.525E+00   -4.518E+00   -4.511E+00   -4.504E+00   -4.497E+00   -4.490E+00   -4.483E+00   -4.476E+00   -4.469E+00
    -4.463E+00   -4.456E+00   -4.449E+00   -4.442E+00   -4.435E+00   -4.428E+00   -4.421E+00   -4.414E+00   -4.407E+00   -4.400E+00
    -4.393E+00   -4.386E+00   -4.379E+00   -4.372E+00   -4.365E+00   -4.358E+00   -4.352E+00   -4.345E+00   -4.338E+00   -4.331E+00
    -4.324E+00   -4.317E+00   -4.310E+00   -4.303E+00   -4.296E+00   -4.289E+00   -4.282E+00   -4.275E+00   -4.268E+00   -4.261E+00
    -4.254E+00   -4.247E+00   -4.240E+00   -4.234E+00   -4.227E+00   -4.220E+00   -4.213E+00   -4.206E+00   -4.199E+00   -4.192E+00
    -4.185E+00   -4.178E+00   -4.171E+00   -4.164E+00   -4.157E+00   -4.150E+00   -4.143E+00   -4.136E+00   -4.129E+00   -4.122E+00
    -4.116E+00   -4.109E+00   -4.102E+00   -4.095E+00   -4.088E+00   -4.081E+00   -4.074E+00   -4.067E+00   -4.060E+00   -4.053E+00
    -4.046E+00   -4.039E+00   -4.032E+00   -4.025E+00   -4.018E+00   -4.011E+00   -4.005E+00   -3.998E+00
 Ala      Conc. = 9.42E+01
