 LCModel (Version 6.3-1L) Copyright: S.W. Provencher.          Ref.: Magn. Reson. Med. 30:672-679 (1993).                
 Slice#2 Row#5 Col#5  PD_24_press_1_raw_act
 36 lines in following concentration table = NCONC+1
    Conc.  %SD /Cr+PCr  Metabolite                                         
  126.643 118% 7.6E-02 Ala                                                 
  109.195 242% 6.6E-02 Asp                                                 
  843.512  31%   0.506 Cr                                                  
  822.003  33%   0.494 PCr                                                 
  129.649 146% 7.8E-02 GABA                                                
    0.000 999%   0.000 Glc                                                 
 1.01E+03  31%   0.605 Gln                                                 
 1.81E+03  20%   1.084 Glu                                                 
  726.399   4%   0.436 GPC                                                 
    0.000 999%   0.000 PCh                                                 
  419.163  21%   0.252 GSH                                                 
  676.724  46%   0.406 Ins                                                 
  184.167  90%   0.111 Lac                                                 
 2.57E+03   5%   1.542 NAA                                                 
  170.622  85%   0.102 NAAG                                                
   89.073  38% 5.3E-02 Scyllo                                              
    0.000 999%   0.000 Tau                                                 
    0.000 999%   0.000 -CrCH2                                              
  726.399   4%   0.436 GPC+PCh                                             
 2.74E+03   3%   1.644 NAA+NAAG                                            
 1.67E+03   4%   1.000 Cr+PCr                                              
 2.81E+03  19%   1.689 Glu+Gln                                             
 1.51E+03  30%   0.904 Lip13a                                              
    0.000 999%   0.000 Lip13b                                              
    0.000 999%   0.000 Lip09                                               
 1.38E+03  17%   0.827 MM09                                                
  244.775  83%   0.147 Lip20                                               
 2.92E+03  14%   1.753 MM20                                                
  489.924  26%   0.294 MM12                                                
 2.16E+03  17%   1.296 MM14                                                
 1.40E+03  19%   0.842 MM17                                                
 1.51E+03  30%   0.904 Lip13a+Lip13b                                       
 4.15E+03  14%   2.494 MM14+Lip13a+Lip13b+MM12                             
 1.38E+03  17%   0.827 MM09+Lip09                                          
 3.16E+03  14%   1.899 MM20+Lip20                                          
   6 lines in following misc. output table
  FWHM = 0.061 ppm    S/N =  12                                            
  Data shift = 0.000 ppm                                                   
  Ph: -25 deg      -7.1 deg/ppm                                            
  alphaB,S = 7.1E-01,   1.0E+02                                            
   14 spline knots.   Ns = 8(1)                                            
  (14) 6 infls.   (13) 1 extrs.                                            
  498 points on ppm-axis = NY
      4.000000     3.992357     3.984714     3.977070     3.969427     3.961784     3.954141     3.946497     3.938854     3.931211
      3.923568     3.915925     3.908281     3.900638     3.892995     3.885352     3.877708     3.870065     3.862422     3.854779
      3.847136     3.839492     3.831849     3.824206     3.816563     3.808919     3.801276     3.793633     3.785990     3.778347
      3.770703     3.763060     3.755417     3.747774     3.740130     3.732487     3.724844     3.717201     3.709558     3.701914
      3.694271     3.686628     3.678985     3.671341     3.663698     3.656055     3.648412     3.640769     3.633125     3.625482
      3.617839     3.610196     3.602552     3.594909     3.587266     3.579623     3.571980     3.564336     3.556693     3.549050
      3.541407     3.533763     3.526120     3.518477     3.510834     3.503191     3.495547     3.487904     3.480261     3.472618
      3.464974     3.457331     3.449688     3.442045     3.434402     3.426758     3.419115     3.411472     3.403829     3.396185
      3.388542     3.380899     3.373256     3.365613     3.357969     3.350326     3.342683     3.335040     3.327396     3.319753
      3.312110     3.304467     3.296824     3.289180     3.281537     3.273894     3.266251     3.258607     3.250964     3.243321
      3.235678     3.228034     3.220391     3.212748     3.205105     3.197462     3.189818     3.182175     3.174532     3.166889
      3.159245     3.151602     3.143959     3.136316     3.128673     3.121029     3.113386     3.105743     3.098100     3.090456
      3.082813     3.075170     3.067527     3.059884     3.052240     3.044597     3.036954     3.029311     3.021667     3.014024
      3.006381     2.998738     2.991095     2.983451     2.975808     2.968165     2.960522     2.952878     2.945235     2.937592
      2.929949     2.922306     2.914662     2.907019     2.899376     2.891733     2.884089     2.876446     2.868803     2.861160
      2.853517     2.845873     2.838230     2.830587     2.822944     2.815300     2.807657     2.800014     2.792371     2.784728
      2.777084     2.769441     2.761798     2.754155     2.746511     2.738868     2.731225     2.723582     2.715939     2.708295
      2.700652     2.693009     2.685366     2.677722     2.670079     2.662436     2.654793     2.647150     2.639506     2.631863
      2.624220     2.616577     2.608933     2.601290     2.593647     2.586004     2.578361     2.570717     2.563074     2.555431
      2.547788     2.540144     2.532501     2.524858     2.517215     2.509572     2.501928     2.494285     2.486642     2.478999
      2.471355     2.463712     2.456069     2.448426     2.440783     2.433139     2.425496     2.417853     2.410210     2.402566
      2.394923     2.387280     2.379637     2.371994     2.364350     2.356707     2.349064     2.341421     2.333777     2.326134
      2.318491     2.310848     2.303205     2.295561     2.287918     2.280275     2.272632     2.264988     2.257345     2.249702
      2.242059     2.234416     2.226772     2.219129     2.211486     2.203843     2.196199     2.188556     2.180913     2.173270
      2.165627     2.157983     2.150340     2.142697     2.135054     2.127410     2.119767     2.112124     2.104481     2.096838
      2.089194     2.081551     2.073908     2.066265     2.058621     2.050978     2.043335     2.035692     2.028049     2.020405
      2.012762     2.005119     1.997476     1.989833     1.982190     1.974546     1.966903     1.959260     1.951617     1.943974
      1.936331     1.928688     1.921045     1.913402     1.905759     1.898115     1.890472     1.882829     1.875186     1.867543
      1.859900     1.852257     1.844614     1.836971     1.829327     1.821684     1.814041     1.806398     1.798755     1.791112
      1.783469     1.775826     1.768183     1.760540     1.752896     1.745253     1.737610     1.729967     1.722324     1.714681
      1.707038     1.699395     1.691752     1.684108     1.676465     1.668822     1.661179     1.653536     1.645893     1.638250
      1.630607     1.622964     1.615321     1.607677     1.600034     1.592391     1.584748     1.577105     1.569462     1.561819
      1.554176     1.546533     1.538890     1.531246     1.523603     1.515960     1.508317     1.500674     1.493031     1.485388
      1.477745     1.470102     1.462458     1.454815     1.447172     1.439529     1.431886     1.424243     1.416600     1.408957
      1.401314     1.393671     1.386027     1.378384     1.370741     1.363098     1.355455     1.347812     1.340169     1.332526
      1.324883     1.317240     1.309596     1.301953     1.294310     1.286667     1.279024     1.271381     1.263738     1.256095
      1.248452     1.240808     1.233165     1.225522     1.217879     1.210236     1.202593     1.194950     1.187307     1.179664
      1.172021     1.164377     1.156734     1.149091     1.141448     1.133805     1.126162     1.118519     1.110876     1.103233
      1.095590     1.087946     1.080303     1.072660     1.065017     1.057374     1.049731     1.042088     1.034445     1.026802
      1.019158     1.011515     1.003872     0.996229     0.988586     0.980943     0.973300     0.965657     0.958014     0.950371
      0.942727     0.935084     0.927441     0.919798     0.912155     0.904512     0.896869     0.889226     0.881583     0.873940
      0.866296     0.858653     0.851010     0.843367     0.835724     0.828081     0.820438     0.812795     0.805152     0.797508
      0.789865     0.782222     0.774579     0.766936     0.759293     0.751650     0.744007     0.736364     0.728721     0.721077
      0.713434     0.705791     0.698148     0.690505     0.682862     0.675219     0.667576     0.659933     0.652290     0.644646
      0.637003     0.629360     0.621717     0.614074     0.606431     0.598788     0.591145     0.583502     0.575858     0.568215
      0.560572     0.552929     0.545286     0.537643     0.530000     0.522357     0.514714     0.507071     0.499427     0.491784
      0.484141     0.476498     0.468855     0.461212     0.453569     0.445925     0.438282     0.430639     0.422996     0.415353
      0.407710     0.400067     0.392424     0.384780     0.377137     0.369494     0.361851     0.354208     0.346565     0.338922
      0.331278     0.323635     0.315992     0.308349     0.300706     0.293063     0.285420     0.277777     0.270133     0.262490
      0.254847     0.247204     0.239561     0.231918     0.224275     0.216631     0.208988     0.201345
 NY phased data points follow
   3.23985E+01  3.38438E+01  2.96628E+01  3.78404E+01  3.61797E+01  4.25528E+01  4.58877E+01  5.38977E+01  5.30319E+01  6.54954E+01
   6.14515E+01  6.34523E+01  5.86458E+01  5.98007E+01  4.84403E+01  5.09947E+01  3.87835E+01  4.52707E+01  3.55249E+01  3.80846E+01
   3.63033E+01  3.82640E+01  3.48219E+01  3.43386E+01  3.48759E+01  3.59074E+01  2.89623E+01  3.64955E+01  3.27946E+01  3.67940E+01
   3.64065E+01  3.63999E+01  3.13216E+01  3.84113E+01  2.99197E+01  3.36793E+01  3.29586E+01  3.61305E+01  2.78371E+01  3.11921E+01
   2.80400E+01  3.30984E+01  2.99908E+01  2.89478E+01  3.09785E+01  3.78982E+01  3.70897E+01  3.77140E+01  3.42554E+01  3.39399E+01
   2.82521E+01  2.69871E+01  2.76752E+01  3.01938E+01  2.60313E+01  2.84209E+01  2.59139E+01  2.03571E+01  2.27848E+01  2.95760E+01
   1.72373E+01  1.68333E+01  1.60531E+01  1.79157E+01  1.74253E+01  1.92225E+01  1.33726E+01  1.08795E+01  1.25493E+01  1.37559E+01
   1.85262E+01  2.19337E+01  1.49959E+01  1.73512E+01  1.49737E+01  1.90892E+01  1.36330E+01  1.49307E+01  1.42854E+01  1.65711E+01
   1.44552E+01  1.54610E+01  1.24469E+01  1.77075E+01  1.67939E+01  2.09639E+01  1.39689E+01  1.62861E+01  1.72926E+01  2.00042E+01
   1.78180E+01  2.20764E+01  1.57384E+01  1.90782E+01  2.21121E+01  1.79538E+01  1.53176E+01  2.22397E+01  2.72957E+01  4.20696E+01
   5.51200E+01  6.85239E+01  7.02689E+01  7.10730E+01  6.13496E+01  5.65917E+01  5.27025E+01  5.05150E+01  4.47098E+01  3.95734E+01
   3.29534E+01  3.06631E+01  2.35202E+01  2.58662E+01  2.15175E+01  2.41838E+01  1.98394E+01  2.80535E+01  1.69872E+01  1.90578E+01
   1.62108E+01  1.94386E+01  2.73057E+01  4.09495E+01  4.62067E+01  6.03964E+01  6.16859E+01  6.13506E+01  5.68321E+01  5.05257E+01
   4.22671E+01  3.71273E+01  3.86663E+01  2.90002E+01  2.76609E+01  2.48511E+01  2.38152E+01  1.76952E+01  1.23538E+01  1.87087E+01
   1.81245E+01  1.06186E+01  1.41186E+01  1.29096E+01  1.05073E+01  1.02370E+01  1.35059E+01  1.56578E+01  8.79592E+00  1.26840E+01
   7.87885E+00  1.33629E+01  7.24506E+00  6.57670E+00  1.35124E+01  1.17418E+01  8.30420E+00  1.26608E+01  6.68627E+00  1.04271E+01
   6.16616E+00  3.39673E+00  8.35563E+00  6.25830E+00  8.98843E+00  1.20785E+01  2.42749E+00  5.60017E+00  6.37468E+00  6.68635E+00
   3.45436E+00  5.94798E+00 -6.52924E-02 -5.34188E-01 -5.25827E-01 -1.07334E+00 -1.28913E+00  6.60209E-01 -1.06889E+00  4.11488E+00
  -8.65473E-01  2.62393E+00 -2.34326E+00  5.76555E-01  7.44480E-01 -2.26763E-01 -8.92065E-01  2.43479E+00  2.69114E+00  9.57729E+00
   1.67330E+01  1.31128E+01  1.27871E+01  1.16542E+01  8.27440E+00  1.10396E+01  7.29306E+00  3.40299E+00  4.90322E+00  9.44479E+00
   7.67826E+00  1.47660E+01  9.86327E+00  9.33934E+00  1.01861E+01  1.25210E+01  4.86067E+00  6.09177E+00  6.98166E+00  3.85591E+00
   6.55324E+00  8.36251E+00  1.27020E+01  1.15758E+01  1.46094E+01  1.82617E+01  1.89862E+01  1.83251E+01  1.56853E+01  8.16177E+00
   1.00696E+01  9.80227E+00  6.81507E+00  1.02002E+01  1.08929E+01  1.66861E+01  1.63759E+01  1.57337E+01  1.58454E+01  1.01016E+01
   1.58355E+01  1.18249E+01  1.55824E+01  1.51927E+01  1.78736E+01  1.82505E+01  1.80098E+01  1.83057E+01  1.59346E+01  1.59766E+01
   1.35723E+01  2.14135E+01  8.16286E+00  1.73516E+01  1.64317E+01  2.02824E+01  1.93870E+01  2.32396E+01  2.44508E+01  2.31360E+01
   2.34195E+01  2.54109E+01  2.24866E+01  3.04389E+01  3.96299E+01  4.55358E+01  5.20810E+01  6.63947E+01  8.22807E+01  9.93556E+01
   9.85991E+01  8.83029E+01  7.74148E+01  6.92484E+01  6.07832E+01  5.85307E+01  4.43768E+01  3.89019E+01  3.42826E+01  3.03413E+01
   2.39380E+01  2.38606E+01  1.86947E+01  2.09604E+01  1.74770E+01  1.70529E+01  1.72664E+01  1.64656E+01  1.27375E+01  1.90244E+01
   1.31872E+01  1.26971E+01  2.07589E+01  1.34770E+01  1.46804E+01  1.13826E+01  1.23118E+01  1.66702E+01  1.50909E+01  1.82749E+01
   1.07210E+01  2.17179E+01  1.20904E+01  1.94123E+01  1.82752E+01  1.73872E+01  1.70724E+01  1.63173E+01  1.19749E+01  1.22388E+01
   1.59753E+01  1.68713E+01  2.32303E+01  1.61348E+01  1.99801E+01  2.00409E+01  1.78492E+01  2.10483E+01  1.99842E+01  2.19047E+01
   2.03894E+01  1.91689E+01  1.53610E+01  2.30993E+01  1.81657E+01  1.91713E+01  1.63149E+01  1.74442E+01  1.48465E+01  2.40702E+01
   2.15908E+01  2.00689E+01  2.00316E+01  2.20765E+01  1.91588E+01  2.19368E+01  1.81253E+01  2.08826E+01  1.72519E+01  2.41217E+01
   1.75703E+01  2.12877E+01  1.83055E+01  1.85243E+01  2.36541E+01  2.28875E+01  1.91247E+01  1.93539E+01  1.76232E+01  1.89274E+01
   1.61304E+01  1.68598E+01  1.45192E+01  1.78870E+01  1.54942E+01  1.37780E+01  1.42811E+01  1.16753E+01  8.40356E+00  7.94956E+00
   1.09453E+01  1.64399E+01  1.09556E+01  1.37067E+01  1.08404E+01  1.43881E+01  9.65803E+00  1.37122E+01  1.28379E+01  1.28640E+01
   1.24710E+01  1.43607E+01  5.53214E+00  1.50568E+01  9.62924E+00  9.26452E+00  1.00286E+01  1.10405E+01  1.48688E+01  1.27638E+01
   1.34373E+01  1.69133E+01  1.14929E+01  1.09919E+01  1.26277E+01  1.18822E+01  1.12760E+01  9.76119E+00  4.28543E+00  6.24682E+00
   6.75721E+00  6.26675E+00 -5.07207E-01  6.03693E+00  5.21070E-01  6.32612E+00  4.23993E+00  6.16011E+00  3.14106E+00  3.25415E+00
   2.16878E+00  6.96985E+00  3.68014E+00  8.97945E-01  6.28649E+00  6.80479E+00  9.71582E+00  8.08021E+00  5.94657E+00  7.86804E+00
   4.56835E+00  1.02635E+01  9.56048E+00  6.18617E+00  1.01596E+01  6.70181E+00  1.03796E+01  7.87380E+00  5.04059E+00  7.27117E+00
   5.29397E+00  6.09351E+00  3.73133E+00 -1.45399E+00  3.08201E+00  3.30112E+00  1.36638E-01  3.65780E+00 -9.67855E-01 -2.84521E+00
   2.13808E+00  6.60221E-01 -2.38263E+00 -6.79158E+00 -3.40409E+00 -1.98512E+00 -3.02800E+00 -7.78092E+00 -5.62379E-01 -2.49171E+00
  -2.21641E+00 -6.10365E+00 -8.18314E+00 -3.54914E+00 -7.04676E+00 -4.89325E+00 -4.66628E+00 -2.97001E+00 -7.61895E+00 -3.64967E-01
  -2.80464E+00 -6.12316E-01 -3.32267E+00 -2.80127E+00 -3.45991E+00 -3.39946E+00 -7.23235E+00 -9.05558E+00  8.59823E-01 -3.83211E+00
  -2.96127E+00  1.82974E+00  2.26972E-01  2.95360E+00 -4.49421E+00 -2.06684E-01 -3.20158E+00 -1.70246E+00 -4.37652E+00 -5.16894E+00
  -1.48142E+00 -3.88600E+00 -5.66192E+00 -4.58324E+00 -2.76585E+00  1.92618E+00 -1.62529E+00 -4.44386E+00 -6.28321E+00 -5.68705E+00
  -9.00616E+00 -6.05189E+00 -1.75769E+00 -1.47177E+00  4.40166E-01 -2.72342E+00 -2.18699E+00 -1.01340E+00 -3.18647E+00 -4.59983E+00
  -4.56263E+00 -7.95879E+00 -6.15365E+00 -6.19480E+00 -5.15978E+00 -2.14152E+00 -1.11999E+00 -1.24617E+00 -6.87603E-02 -1.16840E-01
  -2.86633E+00 -5.36352E+00 -5.77332E+00 -3.36974E+00  4.16685E+00 -6.19552E+00 -1.11026E+00 -2.70133E+00
 NY points of the fit to the data follow
   3.07384E+01  3.09731E+01  3.17341E+01  3.34352E+01  3.65008E+01  4.09424E+01  4.65669E+01  5.25378E+01  5.75994E+01  6.07398E+01
   6.14923E+01  6.01069E+01  5.74573E+01  5.44603E+01  5.16477E+01  4.91330E+01  4.66328E+01  4.37556E+01  4.06446E+01  3.82075E+01
   3.59851E+01  3.39201E+01  3.27438E+01  3.18980E+01  3.11973E+01  3.09036E+01  3.13871E+01  3.28330E+01  3.48507E+01  3.67088E+01
   3.78278E+01  3.80131E+01  3.73714E+01  3.61021E+01  3.44033E+01  3.26810E+01  3.13007E+01  3.04991E+01  3.00270E+01  2.95145E+01
   2.93211E+01  2.93205E+01  2.94465E+01  2.98139E+01  3.04333E+01  3.11795E+01  3.15877E+01  3.14096E+01  3.07419E+01  2.98312E+01
   2.89052E+01  2.80094E+01  2.70771E+01  2.62818E+01  2.57117E+01  2.51290E+01  2.45072E+01  2.40795E+01  2.38228E+01  2.34711E+01
   2.29272E+01  2.22704E+01  2.16092E+01  2.10438E+01  2.06062E+01  2.02949E+01  2.00972E+01  1.99553E+01  1.98012E+01  1.96399E+01
   1.94766E+01  1.92773E+01  1.90457E+01  1.87833E+01  1.85191E+01  1.82638E+01  1.79991E+01  1.77288E+01  1.75090E+01  1.74140E+01
   1.73963E+01  1.75062E+01  1.78832E+01  1.84861E+01  1.90583E+01  1.92465E+01  1.88714E+01  1.80994E+01  1.72837E+01  1.66717E+01
   1.62646E+01  1.59283E+01  1.55856E+01  1.52894E+01  1.52218E+01  1.61313E+01  1.85312E+01  2.28081E+01  3.00110E+01  4.09145E+01
   5.43502E+01  6.65783E+01  7.31342E+01  7.22662E+01  6.62051E+01  5.88059E+01  5.25821E+01  4.75841E+01  4.27488E+01  3.79144E+01
   3.34986E+01  2.87051E+01  2.26455E+01  1.79614E+01  1.61621E+01  1.53408E+01  1.48149E+01  1.44731E+01  1.45486E+01  1.57841E+01
   1.82816E+01  2.22513E+01  2.86938E+01  3.80662E+01  4.89808E+01  5.81446E+01  6.22294E+01  6.05418E+01  5.54158E+01  4.98935E+01
   4.54048E+01  4.14874E+01  3.72335E+01  3.27384E+01  2.84579E+01  2.38350E+01  1.87744E+01  1.58233E+01  1.51362E+01  1.50180E+01
   1.49160E+01  1.46826E+01  1.43111E+01  1.39503E+01  1.37257E+01  1.35325E+01  1.33054E+01  1.30215E+01  1.26400E+01  1.21964E+01
   1.17395E+01  1.13093E+01  1.09884E+01  1.07332E+01  1.05030E+01  1.02724E+01  9.97042E+00  9.53084E+00  8.95525E+00  8.37547E+00
   8.02559E+00  8.03382E+00  8.28566E+00  8.49442E+00  8.39623E+00  7.95220E+00  7.36726E+00  6.83750E+00  6.40583E+00  6.03790E+00
   5.72786E+00  5.34682E+00  4.76227E+00  4.06060E+00  3.41453E+00  3.13765E+00  3.27789E+00  3.46888E+00  3.45669E+00  3.23248E+00
   3.00040E+00  2.99312E+00  3.16922E+00  3.36406E+00  3.61260E+00  4.16208E+00  5.15135E+00  6.40157E+00  7.66260E+00  8.64291E+00
   9.15562E+00  9.17965E+00  8.82546E+00  8.39830E+00  8.11462E+00  8.09363E+00  8.46430E+00  9.20119E+00  1.01500E+01  1.13097E+01
   1.24983E+01  1.35144E+01  1.41059E+01  1.40540E+01  1.31464E+01  1.13661E+01  9.00978E+00  6.79706E+00  5.36116E+00  5.06549E+00
   5.76548E+00  7.30503E+00  9.52973E+00  1.20412E+01  1.42237E+01  1.53375E+01  1.49308E+01  1.33447E+01  1.12347E+01  9.16016E+00
   7.28057E+00  6.22714E+00  6.60573E+00  8.10270E+00  9.81244E+00  1.10702E+01  1.17998E+01  1.24741E+01  1.29616E+01  1.33505E+01
   1.38396E+01  1.46259E+01  1.56507E+01  1.65114E+01  1.71454E+01  1.78226E+01  1.84675E+01  1.87517E+01  1.85110E+01  1.78113E+01
   1.70112E+01  1.64691E+01  1.63646E+01  1.68144E+01  1.76956E+01  1.86036E+01  1.91684E+01  1.96023E+01  2.02150E+01  2.09889E+01
   2.20641E+01  2.37776E+01  2.67283E+01  3.14868E+01  3.71856E+01  4.44486E+01  5.50801E+01  6.94514E+01  8.46327E+01  9.51279E+01
   9.66650E+01  8.99380E+01  7.94928E+01  6.96983E+01  6.18293E+01  5.47363E+01  4.77730E+01  4.15066E+01  3.57176E+01  2.85867E+01
   2.10725E+01  1.76667E+01  1.66494E+01  1.61310E+01  1.57390E+01  1.54175E+01  1.50575E+01  1.46744E+01  1.43340E+01  1.40381E+01
   1.37867E+01  1.36066E+01  1.34850E+01  1.33856E+01  1.33187E+01  1.33055E+01  1.33510E+01  1.34543E+01  1.36101E+01  1.38204E+01
   1.40879E+01  1.43869E+01  1.47028E+01  1.50391E+01  1.53899E+01  1.57477E+01  1.61115E+01  1.64746E+01  1.68282E+01  1.71640E+01
   1.74727E+01  1.77421E+01  1.79671E+01  1.81455E+01  1.82742E+01  1.83539E+01  1.83890E+01  1.83870E+01  1.83563E+01  1.83040E+01
   1.82416E+01  1.81812E+01  1.81340E+01  1.81104E+01  1.81205E+01  1.81724E+01  1.82722E+01  1.84257E+01  1.86411E+01  1.89290E+01
   1.92640E+01  1.96302E+01  2.00235E+01  2.03909E+01  2.06256E+01  2.06174E+01  2.03398E+01  1.99166E+01  1.95095E+01  1.91931E+01
   1.89872E+01  1.88989E+01  1.89399E+01  1.90797E+01  1.91850E+01  1.90977E+01  1.88141E+01  1.85027E+01  1.82219E+01  1.79676E+01
   1.77133E+01  1.74612E+01  1.72557E+01  1.70271E+01  1.65732E+01  1.58059E+01  1.47956E+01  1.37249E+01  1.28077E+01  1.21763E+01
   1.18776E+01  1.19037E+01  1.22110E+01  1.26809E+01  1.30862E+01  1.32293E+01  1.31495E+01  1.30936E+01  1.30763E+01  1.29994E+01
   1.28391E+01  1.26161E+01  1.23582E+01  1.20084E+01  1.15099E+01  1.10213E+01  1.05876E+01  1.01700E+01  9.75632E+00  9.34437E+00
   8.93573E+00  8.53360E+00  8.14195E+00  7.76505E+00  7.40712E+00  7.07231E+00  6.76453E+00  6.48749E+00  6.24453E+00  6.03854E+00
   5.87196E+00  5.74682E+00  5.66472E+00  5.62678E+00  5.63351E+00  5.68472E+00  5.77943E+00  5.91586E+00  6.09134E+00  6.30214E+00
   6.54338E+00  6.80898E+00  7.09172E+00  7.38337E+00  7.67481E+00  7.95620E+00  8.21725E+00  8.44758E+00  8.63715E+00  8.77674E+00
   8.85830E+00  8.87529E+00  8.82299E+00  8.69875E+00  8.50221E+00  8.23529E+00  7.90204E+00  7.50839E+00  7.06182E+00  6.57109E+00
   6.04580E+00  5.49595E+00  4.93147E+00  4.36182E+00  3.79571E+00  3.24085E+00  2.70383E+00  2.18996E+00  1.70323E+00  1.24633E+00
   8.20845E-01  4.27398E-01  6.57800E-02 -2.64918E-01 -5.66162E-01 -8.39799E-01 -1.08787E+00 -1.31250E+00 -1.51580E+00 -1.69989E+00
  -1.86678E+00 -2.01837E+00 -2.15637E+00 -2.28226E+00 -2.39740E+00 -2.50303E+00 -2.60024E+00 -2.68997E+00 -2.77302E+00 -2.85005E+00
  -2.92166E+00 -2.98841E+00 -3.05078E+00 -3.10918E+00 -3.16393E+00 -3.21530E+00 -3.26356E+00 -3.30899E+00 -3.35181E+00 -3.39219E+00
  -3.43025E+00 -3.46613E+00 -3.49997E+00 -3.53193E+00 -3.56212E+00 -3.59063E+00 -3.61750E+00 -3.64286E+00 -3.66679E+00 -3.68940E+00
  -3.71074E+00 -3.73085E+00 -3.74977E+00 -3.76758E+00 -3.78436E+00 -3.80017E+00 -3.81504E+00 -3.82899E+00 -3.84206E+00 -3.85431E+00
  -3.86581E+00 -3.87658E+00 -3.88664E+00 -3.89600E+00 -3.90471E+00 -3.91282E+00 -3.92038E+00 -3.92741E+00 -3.93391E+00 -3.93988E+00
  -3.94540E+00 -3.95049E+00 -3.95520E+00 -3.95950E+00 -3.96342E+00 -3.96696E+00 -3.97019E+00 -3.97313E+00 -3.97578E+00 -3.97814E+00
  -3.98021E+00 -3.98201E+00 -3.98358E+00 -3.98492E+00 -3.98603E+00 -3.98686E+00 -3.98743E+00 -3.98773E+00
 NY background values follow
     3.078E+01    3.059E+01    3.041E+01    3.022E+01    3.003E+01    2.984E+01    2.966E+01    2.947E+01    2.928E+01    2.909E+01
     2.890E+01    2.871E+01    2.852E+01    2.834E+01    2.815E+01    2.796E+01    2.777E+01    2.758E+01    2.739E+01    2.721E+01
     2.702E+01    2.683E+01    2.664E+01    2.646E+01    2.627E+01    2.608E+01    2.589E+01    2.571E+01    2.552E+01    2.534E+01
     2.515E+01    2.497E+01    2.478E+01    2.460E+01    2.441E+01    2.423E+01    2.405E+01    2.386E+01    2.368E+01    2.350E+01
     2.332E+01    2.314E+01    2.296E+01    2.278E+01    2.260E+01    2.242E+01    2.224E+01    2.207E+01    2.189E+01    2.172E+01
     2.154E+01    2.137E+01    2.119E+01    2.102E+01    2.085E+01    2.068E+01    2.051E+01    2.034E+01    2.017E+01    2.000E+01
     1.984E+01    1.967E+01    1.950E+01    1.934E+01    1.918E+01    1.901E+01    1.885E+01    1.869E+01    1.853E+01    1.837E+01
     1.821E+01    1.805E+01    1.790E+01    1.774E+01    1.759E+01    1.743E+01    1.728E+01    1.713E+01    1.698E+01    1.683E+01
     1.668E+01    1.653E+01    1.638E+01    1.624E+01    1.609E+01    1.595E+01    1.581E+01    1.567E+01    1.553E+01    1.539E+01
     1.525E+01    1.511E+01    1.498E+01    1.484E+01    1.471E+01    1.457E+01    1.444E+01    1.431E+01    1.418E+01    1.406E+01
     1.393E+01    1.380E+01    1.368E+01    1.355E+01    1.343E+01    1.331E+01    1.319E+01    1.307E+01    1.295E+01    1.284E+01
     1.272E+01    1.261E+01    1.249E+01    1.238E+01    1.227E+01    1.216E+01    1.205E+01    1.194E+01    1.184E+01    1.173E+01
     1.163E+01    1.152E+01    1.142E+01    1.132E+01    1.122E+01    1.112E+01    1.102E+01    1.092E+01    1.083E+01    1.073E+01
     1.064E+01    1.055E+01    1.046E+01    1.037E+01    1.028E+01    1.019E+01    1.010E+01    1.002E+01    9.935E+00    9.852E+00
     9.770E+00    9.689E+00    9.609E+00    9.531E+00    9.454E+00    9.378E+00    9.303E+00    9.230E+00    9.158E+00    9.087E+00
     9.018E+00    8.950E+00    8.883E+00    8.818E+00    8.754E+00    8.691E+00    8.630E+00    8.571E+00    8.513E+00    8.456E+00
     8.401E+00    8.347E+00    8.295E+00    8.245E+00    8.196E+00    8.148E+00    8.102E+00    8.058E+00    8.016E+00    7.975E+00
     7.936E+00    7.898E+00    7.862E+00    7.828E+00    7.796E+00    7.765E+00    7.736E+00    7.709E+00    7.683E+00    7.660E+00
     7.638E+00    7.618E+00    7.600E+00    7.584E+00    7.570E+00    7.557E+00    7.546E+00    7.536E+00    7.528E+00    7.522E+00
     7.517E+00    7.513E+00    7.511E+00    7.511E+00    7.511E+00    7.513E+00    7.516E+00    7.520E+00    7.526E+00    7.532E+00
     7.540E+00    7.548E+00    7.558E+00    7.568E+00    7.579E+00    7.591E+00    7.604E+00    7.618E+00    7.632E+00    7.647E+00
     7.662E+00    7.678E+00    7.695E+00    7.712E+00    7.729E+00    7.747E+00    7.765E+00    7.783E+00    7.802E+00    7.821E+00
     7.840E+00    7.859E+00    7.878E+00    7.897E+00    7.916E+00    7.935E+00    7.954E+00    7.973E+00    7.991E+00    8.010E+00
     8.028E+00    8.046E+00    8.063E+00    8.080E+00    8.097E+00    8.114E+00    8.130E+00    8.146E+00    8.161E+00    8.176E+00
     8.190E+00    8.204E+00    8.217E+00    8.230E+00    8.242E+00    8.253E+00    8.264E+00    8.274E+00    8.284E+00    8.293E+00
     8.301E+00    8.308E+00    8.314E+00    8.320E+00    8.324E+00    8.328E+00    8.331E+00    8.333E+00    8.334E+00    8.335E+00
     8.334E+00    8.332E+00    8.329E+00    8.325E+00    8.320E+00    8.313E+00    8.306E+00    8.297E+00    8.288E+00    8.277E+00
     8.264E+00    8.251E+00    8.236E+00    8.220E+00    8.202E+00    8.183E+00    8.163E+00    8.142E+00    8.119E+00    8.095E+00
     8.070E+00    8.044E+00    8.016E+00    7.987E+00    7.957E+00    7.925E+00    7.893E+00    7.859E+00    7.823E+00    7.787E+00
     7.749E+00    7.710E+00    7.670E+00    7.628E+00    7.586E+00    7.542E+00    7.497E+00    7.451E+00    7.403E+00    7.354E+00
     7.304E+00    7.253E+00    7.201E+00    7.148E+00    7.093E+00    7.037E+00    6.980E+00    6.922E+00    6.863E+00    6.802E+00
     6.740E+00    6.678E+00    6.614E+00    6.548E+00    6.482E+00    6.415E+00    6.346E+00    6.277E+00    6.206E+00    6.134E+00
     6.061E+00    5.987E+00    5.912E+00    5.836E+00    5.759E+00    5.681E+00    5.602E+00    5.523E+00    5.442E+00    5.361E+00
     5.278E+00    5.195E+00    5.111E+00    5.027E+00    4.941E+00    4.855E+00    4.768E+00    4.681E+00    4.593E+00    4.504E+00
     4.415E+00    4.325E+00    4.235E+00    4.144E+00    4.052E+00    3.960E+00    3.868E+00    3.775E+00    3.682E+00    3.588E+00
     3.494E+00    3.400E+00    3.305E+00    3.210E+00    3.115E+00    3.020E+00    2.924E+00    2.828E+00    2.732E+00    2.636E+00
     2.540E+00    2.443E+00    2.347E+00    2.250E+00    2.154E+00    2.057E+00    1.961E+00    1.865E+00    1.768E+00    1.672E+00
     1.576E+00    1.480E+00    1.385E+00    1.290E+00    1.195E+00    1.100E+00    1.006E+00    9.123E-01    8.190E-01    7.261E-01
     6.338E-01    5.419E-01    4.507E-01    3.600E-01    2.700E-01    1.807E-01    9.201E-02    4.099E-03   -8.305E-02   -1.694E-01
    -2.549E-01   -3.396E-01   -4.233E-01   -5.062E-01   -5.880E-01   -6.689E-01   -7.488E-01   -8.275E-01   -9.052E-01   -9.818E-01
    -1.057E+00   -1.131E+00   -1.204E+00   -1.276E+00   -1.347E+00   -1.416E+00   -1.484E+00   -1.550E+00   -1.615E+00   -1.679E+00
    -1.741E+00   -1.802E+00   -1.861E+00   -1.920E+00   -1.977E+00   -2.032E+00   -2.087E+00   -2.140E+00   -2.191E+00   -2.242E+00
    -2.291E+00   -2.339E+00   -2.386E+00   -2.432E+00   -2.476E+00   -2.519E+00   -2.562E+00   -2.603E+00   -2.642E+00   -2.681E+00
    -2.719E+00   -2.755E+00   -2.791E+00   -2.825E+00   -2.859E+00   -2.891E+00   -2.922E+00   -2.952E+00   -2.982E+00   -3.010E+00
    -3.037E+00   -3.064E+00   -3.089E+00   -3.114E+00   -3.137E+00   -3.160E+00   -3.182E+00   -3.202E+00   -3.222E+00   -3.242E+00
    -3.260E+00   -3.277E+00   -3.294E+00   -3.310E+00   -3.325E+00   -3.340E+00   -3.353E+00   -3.366E+00   -3.378E+00   -3.390E+00
    -3.401E+00   -3.411E+00   -3.421E+00   -3.430E+00   -3.438E+00   -3.446E+00   -3.454E+00   -3.461E+00   -3.467E+00   -3.473E+00
    -3.479E+00   -3.484E+00   -3.489E+00   -3.493E+00   -3.497E+00   -3.501E+00   -3.504E+00   -3.508E+00   -3.510E+00   -3.513E+00
    -3.515E+00   -3.518E+00   -3.520E+00   -3.522E+00   -3.523E+00   -3.525E+00   -3.526E+00   -3.528E+00   -3.529E+00   -3.530E+00
    -3.532E+00   -3.533E+00   -3.534E+00   -3.536E+00   -3.537E+00   -3.539E+00   -3.540E+00   -3.542E+00
 Ala      Conc. = 1.27E+02
