 LCModel (Version 6.3-1L) Copyright: S.W. Provencher.          Ref.: Magn. Reson. Med. 30:672-679 (1993).                
 Slice#1 Row#10 Col#12  PD_24_press_1_raw_act
 36 lines in following concentration table = NCONC+1
    Conc.  %SD /Cr+PCr  Metabolite                                         
   41.282 171%   0.557 Ala                                                 
   16.962 274%   0.229 Asp                                                 
   74.069  34%   1.000 Cr                                                  
    0.000 999%   0.000 PCr                                                 
   23.863 121%   0.322 GABA                                                
   27.200 104%   0.367 Glc                                                 
  245.268  68%   3.311 Gln                                                 
  384.399  48%   5.190 Glu                                                 
    0.000 999%   0.000 GPC                                                 
   22.468  43%   0.303 PCh                                                 
   25.323 155%   0.342 GSH                                                 
  215.279  56%   2.906 Ins                                                 
    0.000 999%   0.000 Lac                                                 
  705.299  14%   9.522 NAA                                                 
   45.138 240%   0.609 NAAG                                                
   11.780  68%   0.159 Scyllo                                              
   67.104  67%   0.906 Tau                                                 
   32.323  88%   0.436 -CrCH2                                              
   22.468  43%   0.303 GPC+PCh                                             
  750.437   7%  10.132 NAA+NAAG                                            
   74.069  34%   1.000 Cr+PCr                                              
  629.667  47%   8.501 Glu+Gln                                             
  392.219  47%   5.295 Lip13a                                              
    0.000 999%   0.000 Lip13b                                              
  141.839  59%   1.915 Lip09                                               
  773.027  15%  10.437 MM09                                                
   73.159  78%   0.988 Lip20                                               
  861.159  20%  11.626 MM20                                                
  238.634  50%   3.222 MM12                                                
    0.000 999%   0.000 MM14                                                
    0.000 999%   0.000 MM17                                                
  392.219  47%   5.295 Lip13a+Lip13b                                       
  630.853  23%   8.517 MM14+Lip13a+Lip13b+MM12                             
  914.867  10%  12.352 MM09+Lip09                                          
  934.318  18%  12.614 MM20+Lip20                                          
   6 lines in following misc. output table
  FWHM = 0.084 ppm    S/N =   6                                            
  Data shift =-0.031 ppm                                                   
  Ph:  73 deg      29.8 deg/ppm                                            
  alphaB,S = 8.5E+01,   1.4E+02                                            
   14 spline knots.   Ns =10(1)                                            
   2 inflections.     1 extrema                                            
  498 points on ppm-axis = NY
      4.000000     3.992357     3.984714     3.977070     3.969427     3.961784     3.954141     3.946497     3.938854     3.931211
      3.923568     3.915925     3.908281     3.900638     3.892995     3.885352     3.877708     3.870065     3.862422     3.854779
      3.847136     3.839492     3.831849     3.824206     3.816563     3.808919     3.801276     3.793633     3.785990     3.778347
      3.770703     3.763060     3.755417     3.747774     3.740130     3.732487     3.724844     3.717201     3.709558     3.701914
      3.694271     3.686628     3.678985     3.671341     3.663698     3.656055     3.648412     3.640769     3.633125     3.625482
      3.617839     3.610196     3.602552     3.594909     3.587266     3.579623     3.571980     3.564336     3.556693     3.549050
      3.541407     3.533763     3.526120     3.518477     3.510834     3.503191     3.495547     3.487904     3.480261     3.472618
      3.464974     3.457331     3.449688     3.442045     3.434402     3.426758     3.419115     3.411472     3.403829     3.396185
      3.388542     3.380899     3.373256     3.365613     3.357969     3.350326     3.342683     3.335040     3.327396     3.319753
      3.312110     3.304467     3.296824     3.289180     3.281537     3.273894     3.266251     3.258607     3.250964     3.243321
      3.235678     3.228034     3.220391     3.212748     3.205105     3.197462     3.189818     3.182175     3.174532     3.166889
      3.159245     3.151602     3.143959     3.136316     3.128673     3.121029     3.113386     3.105743     3.098100     3.090456
      3.082813     3.075170     3.067527     3.059884     3.052240     3.044597     3.036954     3.029311     3.021667     3.014024
      3.006381     2.998738     2.991095     2.983451     2.975808     2.968165     2.960522     2.952878     2.945235     2.937592
      2.929949     2.922306     2.914662     2.907019     2.899376     2.891733     2.884089     2.876446     2.868803     2.861160
      2.853517     2.845873     2.838230     2.830587     2.822944     2.815300     2.807657     2.800014     2.792371     2.784728
      2.777084     2.769441     2.761798     2.754155     2.746511     2.738868     2.731225     2.723582     2.715939     2.708295
      2.700652     2.693009     2.685366     2.677722     2.670079     2.662436     2.654793     2.647150     2.639506     2.631863
      2.624220     2.616577     2.608933     2.601290     2.593647     2.586004     2.578361     2.570717     2.563074     2.555431
      2.547788     2.540144     2.532501     2.524858     2.517215     2.509572     2.501928     2.494285     2.486642     2.478999
      2.471355     2.463712     2.456069     2.448426     2.440783     2.433139     2.425496     2.417853     2.410210     2.402566
      2.394923     2.387280     2.379637     2.371994     2.364350     2.356707     2.349064     2.341421     2.333777     2.326134
      2.318491     2.310848     2.303205     2.295561     2.287918     2.280275     2.272632     2.264988     2.257345     2.249702
      2.242059     2.234416     2.226772     2.219129     2.211486     2.203843     2.196199     2.188556     2.180913     2.173270
      2.165627     2.157983     2.150340     2.142697     2.135054     2.127410     2.119767     2.112124     2.104481     2.096838
      2.089194     2.081551     2.073908     2.066265     2.058621     2.050978     2.043335     2.035692     2.028049     2.020405
      2.012762     2.005119     1.997476     1.989833     1.982190     1.974546     1.966903     1.959260     1.951617     1.943974
      1.936331     1.928688     1.921045     1.913402     1.905759     1.898115     1.890472     1.882829     1.875186     1.867543
      1.859900     1.852257     1.844614     1.836971     1.829327     1.821684     1.814041     1.806398     1.798755     1.791112
      1.783469     1.775826     1.768183     1.760540     1.752896     1.745253     1.737610     1.729967     1.722324     1.714681
      1.707038     1.699395     1.691752     1.684108     1.676465     1.668822     1.661179     1.653536     1.645893     1.638250
      1.630607     1.622964     1.615321     1.607677     1.600034     1.592391     1.584748     1.577105     1.569462     1.561819
      1.554176     1.546533     1.538890     1.531246     1.523603     1.515960     1.508317     1.500674     1.493031     1.485388
      1.477745     1.470102     1.462458     1.454815     1.447172     1.439529     1.431886     1.424243     1.416600     1.408957
      1.401314     1.393671     1.386027     1.378384     1.370741     1.363098     1.355455     1.347812     1.340169     1.332526
      1.324883     1.317240     1.309596     1.301953     1.294310     1.286667     1.279024     1.271381     1.263738     1.256095
      1.248452     1.240808     1.233165     1.225522     1.217879     1.210236     1.202593     1.194950     1.187307     1.179664
      1.172021     1.164377     1.156734     1.149091     1.141448     1.133805     1.126162     1.118519     1.110876     1.103233
      1.095590     1.087946     1.080303     1.072660     1.065017     1.057374     1.049731     1.042088     1.034445     1.026802
      1.019158     1.011515     1.003872     0.996229     0.988586     0.980943     0.973300     0.965657     0.958014     0.950371
      0.942727     0.935084     0.927441     0.919798     0.912155     0.904512     0.896869     0.889226     0.881583     0.873940
      0.866296     0.858653     0.851010     0.843367     0.835724     0.828081     0.820438     0.812795     0.805152     0.797508
      0.789865     0.782222     0.774579     0.766936     0.759293     0.751650     0.744007     0.736364     0.728721     0.721077
      0.713434     0.705791     0.698148     0.690505     0.682862     0.675219     0.667576     0.659933     0.652290     0.644646
      0.637003     0.629360     0.621717     0.614074     0.606431     0.598788     0.591145     0.583502     0.575858     0.568215
      0.560572     0.552929     0.545286     0.537643     0.530000     0.522357     0.514714     0.507071     0.499427     0.491784
      0.484141     0.476498     0.468855     0.461212     0.453569     0.445925     0.438282     0.430639     0.422996     0.415353
      0.407710     0.400067     0.392424     0.384780     0.377137     0.369494     0.361851     0.354208     0.346565     0.338922
      0.331278     0.323635     0.315992     0.308349     0.300706     0.293063     0.285420     0.277777     0.270133     0.262490
      0.254847     0.247204     0.239561     0.231918     0.224275     0.216631     0.208988     0.201345
 NY phased data points follow
  -3.19699E+00 -3.52688E+00 -5.92617E+00 -3.71318E+00 -5.18914E+00 -5.26729E+00 -6.40926E+00 -4.07645E+00 -4.50319E+00 -2.72554E+00
  -3.42450E+00 -3.00685E+00 -5.02873E+00 -1.65842E+00 -3.81065E+00 -3.72821E+00 -5.20231E+00 -3.29595E+00 -4.25220E+00 -3.44605E+00
  -4.56660E+00 -2.57758E+00 -3.53489E+00 -6.12409E-01 -4.61712E+00 -4.41159E+00 -5.28404E+00 -1.08657E+00 -3.90073E+00 -4.08325E+00
  -2.59422E+00 -1.43893E+00 -2.83569E+00 -2.61539E+00 -4.85993E+00 -4.61629E+00 -3.49960E+00 -4.48295E+00 -2.90573E+00 -3.89344E+00
  -4.20700E+00 -2.70084E+00 -3.64465E+00 -8.60809E-01 -3.25374E+00 -4.22565E+00 -3.34606E+00 -3.29985E+00 -1.70577E-01 -5.33699E+00
   2.56641E-01 -5.56870E-01 -4.40058E+00 -1.71439E+00 -3.62551E+00 -3.36344E+00 -4.44525E+00 -4.00585E+00 -2.64450E+00 -3.78761E+00
  -9.67749E-01 -2.38486E+00 -2.70238E+00 -3.37827E+00 -4.49323E+00 -3.66125E+00 -4.23858E+00 -3.53798E+00 -3.11310E+00 -3.69087E-01
  -3.82376E+00 -2.06779E+00 -1.96443E+00 -2.36849E+00 -1.36916E+00 -3.94514E+00 -4.26982E+00 -2.09525E+00 -2.86893E+00 -7.66115E-01
  -2.91423E+00 -1.45398E+00 -3.50610E+00 -3.29983E+00 -4.66737E+00 -2.54052E+00 -2.70486E+00 -1.51702E+00 -2.29674E+00 -3.20443E+00
  -4.00612E+00 -1.78469E+00  1.43241E+00 -3.69591E+00 -4.14855E+00 -1.66163E+00  2.60150E-01 -5.10358E-01 -3.01042E+00 -3.12245E+00
  -2.69987E+00 -2.78753E+00 -2.76408E+00 -2.06395E+00 -1.68927E+00  6.22508E-02 -1.38179E+00 -2.94391E-01  6.28528E-01 -1.63482E+00
  -3.02580E+00 -1.91790E+00 -4.64196E+00 -1.46739E+00 -1.60930E+00 -2.34311E+00 -9.51565E-01 -1.90928E+00 -1.17015E+00 -3.27605E+00
  -3.33041E+00 -3.34247E+00 -2.57191E+00 -3.04066E+00 -2.06709E+00  1.40058E+00  7.42344E-02 -1.20228E+00  6.78636E-01  5.19603E-01
  -6.24732E-02  4.18039E-01  1.67662E+00  1.73047E-01  1.76452E-01 -2.65533E+00 -1.32575E+00 -1.11179E+00 -1.61604E+00 -2.33638E+00
   6.55872E-01 -8.09889E-01 -2.64556E+00 -1.46553E+00 -1.94439E+00 -2.35487E+00 -6.66465E-01 -8.79251E-01  5.27967E-01 -1.70816E+00
   3.00753E-01 -3.10770E+00 -7.71167E-01  2.35664E-01 -2.65825E+00 -3.20368E+00 -1.80071E+00 -8.43665E-01 -4.20284E-01 -2.10086E+00
  -9.98847E-01 -2.58683E+00 -1.29309E+00  9.91988E-01 -5.86045E-01 -2.62327E+00 -1.60631E+00 -2.75512E+00 -1.14538E+00 -2.57984E+00
  -2.05698E+00 -5.32646E+00 -3.61838E+00 -2.90198E+00 -1.93074E+00 -3.74478E+00 -4.30172E+00 -2.51474E+00 -1.99513E+00 -6.66554E+00
  -6.17770E-01 -4.42587E+00 -4.78014E+00 -2.17011E+00 -1.24430E+00 -2.03945E+00 -3.64878E+00 -5.88503E-01 -4.71886E+00 -3.26785E+00
  -3.70922E+00 -2.37694E+00 -2.60672E+00 -4.74583E+00 -4.95079E+00 -3.01508E+00 -5.87080E+00 -3.20345E+00 -4.15431E+00 -2.25953E+00
  -1.36332E+00 -3.72936E+00 -4.17798E+00 -2.29584E+00 -3.13326E+00 -1.51654E+00 -3.81142E+00 -4.18309E+00 -3.20887E+00 -3.34961E-01
  -3.18392E+00 -1.11166E+00 -1.58881E+00 -1.05400E+00 -2.06361E-01  1.66466E+00  1.70391E+00  9.05928E-02 -2.33223E+00 -9.91723E-01
  -2.09037E+00 -3.54117E+00 -1.86111E+00 -1.76547E+00 -2.30893E+00 -7.96167E-01 -1.20054E+00  1.73161E-01 -1.39758E+00  4.50056E+00
   5.05319E-01 -3.63981E-01  5.33410E-01  2.46006E+00  6.15035E-01  8.33563E-01  8.40649E-02  7.49732E-01  4.40325E-01  2.23751E+00
   5.93830E-01  4.85588E-01 -3.88296E-01  9.74537E-01  5.07832E-01  5.01875E+00  8.32095E-01  3.08662E+00  3.54097E+00  3.73616E+00
   4.17674E+00  2.74666E+00  4.91223E+00  9.62924E+00  1.01426E+01  1.42506E+01  1.81066E+01  1.92978E+01  2.03514E+01  2.16105E+01
   2.06807E+01  1.97957E+01  1.64410E+01  1.72794E+01  1.67621E+01  1.18439E+01  8.27330E+00  5.70407E+00  3.66773E+00  1.81214E+00
   1.27298E+00  3.47245E+00 -1.26392E+00 -1.54307E+00  1.44740E-01 -1.60764E+00 -1.31812E+00 -6.77246E-01  4.09918E-01  7.91188E-01
  -1.88720E+00 -5.61421E-01 -6.63064E-01  1.41323E+00 -7.95925E-01 -1.40738E+00  1.98334E+00 -9.15284E-02 -8.91754E-01 -2.72788E-01
  -1.92335E-01 -2.18885E+00 -1.55796E+00 -3.49745E-01 -1.89595E+00  1.71361E+00 -9.28762E-01 -1.41338E+00 -3.10518E+00 -1.27443E+00
   1.51161E-01 -4.76096E-01  3.39792E-01  6.99619E-01  7.78014E-01  1.25165E+00 -6.73619E-02 -2.58685E+00  1.41870E+00  1.66443E+00
   2.45617E+00  2.72075E+00 -4.71649E-01  2.58801E+00  1.16329E+00  1.15517E+00 -2.16177E+00 -2.67689E+00 -3.53517E-01  2.63292E-01
  -1.59866E+00  1.75322E-01 -1.00403E-01  6.35630E-01  8.88170E-01 -2.35945E+00 -4.58641E-03 -2.64915E+00  1.24503E-01 -3.32152E+00
  -2.25203E+00  3.64808E-01  2.77748E+00  1.24823E+00  1.37928E+00  2.12572E+00  1.78512E+00  3.20499E+00  9.65823E-01  2.77603E+00
  -1.94676E-01  1.39734E+00  3.75426E+00  2.24432E+00  2.59856E+00  3.50814E+00  2.55872E+00  1.30208E+00  4.19455E+00  3.53279E+00
   2.20670E+00  2.29361E+00  4.82405E-02  2.68805E+00  3.95876E+00  2.63604E+00  5.09126E+00  3.74878E-01  1.30945E+00  2.76510E+00
   1.67454E+00  3.37293E+00  8.00612E-01  3.53822E+00 -2.73891E-01  5.70286E+00  3.57289E+00  4.35407E+00  5.26664E+00  5.65968E+00
   3.80346E+00  3.69114E+00  5.88078E+00  6.28722E+00  3.82381E+00  4.36680E+00  1.30959E+00  9.70953E-01  2.48730E-01  2.31086E+00
   3.14802E+00  2.75090E+00  3.45696E+00  3.87753E+00  3.03744E+00  1.36187E+00  5.05995E+00  3.89992E+00  4.88622E+00  5.57474E+00
   4.91296E+00  5.01854E+00  6.27502E+00  7.04319E+00  4.46017E+00  9.97308E+00  7.67528E+00  8.12557E+00  5.90974E+00  8.29138E+00
   5.23499E+00  6.07153E+00  6.90197E+00  8.79541E+00  6.90199E+00  7.14252E+00  6.65881E+00  6.46485E+00  5.94102E+00  5.67904E+00
   4.75816E+00  5.73659E+00  5.32564E+00  6.94726E+00  6.06830E+00  6.75098E+00  5.16980E+00  4.69446E+00  4.89763E+00  7.14031E+00
   3.13838E+00  5.52026E+00  5.66556E+00  4.63254E+00  6.00856E+00  3.73333E+00  2.94296E+00  4.55907E+00  3.93715E+00  4.23929E+00
   2.88645E+00  4.88296E+00  4.81827E+00  4.86817E+00  4.15296E+00  3.65292E+00  7.23870E+00  3.37512E+00  3.85168E+00  2.70331E+00
   3.23112E+00  4.28470E+00  2.71272E+00  3.37404E+00  4.48560E+00  6.13133E+00  4.18609E+00  3.56600E+00  4.86170E+00  3.45707E+00
   4.19442E+00  3.00284E+00  2.90810E+00  1.46943E+00  2.88945E+00  3.08734E+00  4.22285E+00  6.39895E-01  2.13557E+00  5.01806E+00
   3.00329E+00  4.61838E+00 -1.61048E-01  4.04627E+00  5.01522E+00  4.75845E+00  1.77694E+00  3.53854E+00  3.91301E+00  3.32720E+00
   3.97048E+00  3.36035E+00  4.23329E+00  2.86429E+00  7.59018E-02  3.31703E+00  4.12159E+00  1.26956E+00  1.50789E+00  1.12113E+00
   2.09811E+00  2.73744E+00  3.24438E+00  2.11859E+00  2.02513E+00  2.83696E+00  4.23752E+00  2.32475E+00  2.08472E+00  1.41911E+00
   2.98134E+00  3.06830E+00  9.79469E-01  1.91270E-01  4.07166E+00  1.75294E+00 -5.09913E-02  1.12995E+00
 NY points of the fit to the data follow
  -4.13044E+00 -4.25602E+00 -4.35593E+00 -4.39846E+00 -4.36941E+00 -4.27363E+00 -4.12295E+00 -3.94274E+00 -3.76603E+00 -3.61765E+00
  -3.51246E+00 -3.45358E+00 -3.42689E+00 -3.40878E+00 -3.38848E+00 -3.37988E+00 -3.40229E+00 -3.45534E+00 -3.52305E+00 -3.59118E+00
  -3.65086E+00 -3.69522E+00 -3.72208E+00 -3.72410E+00 -3.68070E+00 -3.56819E+00 -3.38942E+00 -3.17489E+00 -2.97259E+00 -2.82805E+00
  -2.76410E+00 -2.77196E+00 -2.82107E+00 -2.88593E+00 -2.95993E+00 -3.05250E+00 -3.17895E+00 -3.33689E+00 -3.48693E+00 -3.56776E+00
  -3.53013E+00 -3.36874E+00 -3.11910E+00 -2.84358E+00 -2.61568E+00 -2.48526E+00 -2.46433E+00 -2.53308E+00 -2.65451E+00 -2.79325E+00
  -2.92693E+00 -3.05317E+00 -3.17724E+00 -3.28781E+00 -3.35838E+00 -3.36947E+00 -3.32194E+00 -3.23502E+00 -3.13902E+00 -3.06392E+00
  -3.02251E+00 -3.00662E+00 -3.00259E+00 -3.00264E+00 -3.00493E+00 -3.00820E+00 -3.00436E+00 -2.98072E+00 -2.93079E+00 -2.85809E+00
  -2.77563E+00 -2.70395E+00 -2.66027E+00 -2.64934E+00 -2.66454E+00 -2.69449E+00 -2.72743E+00 -2.74951E+00 -2.75344E+00 -2.74719E+00
  -2.74405E+00 -2.75115E+00 -2.76781E+00 -2.79068E+00 -2.81616E+00 -2.84222E+00 -2.87161E+00 -2.90801E+00 -2.94995E+00 -2.99390E+00
  -3.03829E+00 -3.07684E+00 -3.09583E+00 -3.07815E+00 -3.00426E+00 -2.85921E+00 -2.64914E+00 -2.39953E+00 -2.13767E+00 -1.88683E+00
  -1.67152E+00 -1.51331E+00 -1.42595E+00 -1.41195E+00 -1.45822E+00 -1.54199E+00 -1.65054E+00 -1.79302E+00 -1.97852E+00 -2.18797E+00
  -2.38280E+00 -2.52926E+00 -2.60979E+00 -2.62810E+00 -2.60617E+00 -2.57276E+00 -2.54051E+00 -2.49446E+00 -2.40656E+00 -2.24347E+00
  -1.99396E+00 -1.67466E+00 -1.31525E+00 -9.54997E-01 -6.36737E-01 -3.91998E-01 -2.38099E-01 -1.79776E-01 -2.08186E-01 -3.05786E-01
  -4.60345E-01 -6.77262E-01 -9.59521E-01 -1.27666E+00 -1.57385E+00 -1.80389E+00 -1.94538E+00 -2.00437E+00 -2.00936E+00 -1.99821E+00
  -1.99251E+00 -1.98714E+00 -1.98064E+00 -1.97690E+00 -1.98090E+00 -1.99635E+00 -2.02290E+00 -2.05563E+00 -2.08844E+00 -2.11592E+00
  -2.13551E+00 -2.15166E+00 -2.17594E+00 -2.21833E+00 -2.27898E+00 -2.34821E+00 -2.41115E+00 -2.45604E+00 -2.48081E+00 -2.48970E+00
  -2.49172E+00 -2.50008E+00 -2.52580E+00 -2.57262E+00 -2.63313E+00 -2.69276E+00 -2.74640E+00 -2.80793E+00 -2.89816E+00 -3.02244E+00
  -3.16377E+00 -3.29508E+00 -3.39269E+00 -3.44501E+00 -3.45714E+00 -3.44274E+00 -3.41747E+00 -3.39334E+00 -3.37152E+00 -3.34166E+00
  -3.28406E+00 -3.18933E+00 -3.06582E+00 -2.92380E+00 -2.76523E+00 -2.58701E+00 -2.39065E+00 -2.18707E+00 -1.99444E+00 -1.83414E+00
  -1.71571E+00 -1.62834E+00 -1.55976E+00 -1.50301E+00 -1.45063E+00 -1.38597E+00 -1.28827E+00 -1.14349E+00 -9.54159E-01 -7.49566E-01
  -5.89493E-01 -5.36648E-01 -6.18657E-01 -8.23334E-01 -1.12095E+00 -1.46631E+00 -1.79221E+00 -2.03148E+00 -2.14125E+00 -2.11005E+00
  -1.94716E+00 -1.68511E+00 -1.37918E+00 -1.08963E+00 -8.65983E-01 -7.46270E-01 -7.43472E-01 -8.35528E-01 -9.81470E-01 -1.14473E+00
  -1.29997E+00 -1.41193E+00 -1.43760E+00 -1.36212E+00 -1.18731E+00 -9.21413E-01 -5.90820E-01 -2.41842E-01  6.68122E-02  2.96613E-01
   4.38463E-01  5.08176E-01  5.43266E-01  5.82622E-01  6.49540E-01  7.46225E-01  8.56982E-01  9.59936E-01  1.04428E+00  1.11659E+00
   1.19129E+00  1.27210E+00  1.35379E+00  1.43293E+00  1.50946E+00  1.59207E+00  1.71375E+00  1.92264E+00  2.24011E+00  2.65239E+00
   3.21954E+00  4.17619E+00  5.78036E+00  8.05747E+00  1.08256E+01  1.38122E+01  1.66373E+01  1.89186E+01  2.04146E+01  2.10226E+01
   2.07621E+01  1.97986E+01  1.83732E+01  1.65893E+01  1.43288E+01  1.15557E+01  8.57388E+00  5.85843E+00  3.78129E+00  2.50450E+00
   1.95303E+00  1.83370E+00  1.78402E+00  1.66727E+00  1.54408E+00  1.42879E+00  1.31982E+00  1.21589E+00  1.11472E+00  1.01244E+00
   9.09574E-01  8.10043E-01  7.18480E-01  6.38519E-01  5.72357E-01  5.19461E-01  4.77165E-01  4.42613E-01  4.13382E-01  3.87536E-01
   3.63652E-01  3.41129E-01  3.20387E-01  3.02230E-01  2.86930E-01  2.74573E-01  2.65046E-01  2.57960E-01  2.52935E-01  2.49915E-01
   2.48939E-01  2.49955E-01  2.52921E-01  2.57792E-01  2.64292E-01  2.72088E-01  2.80959E-01  2.90710E-01  3.01241E-01  3.12615E-01
   3.25069E-01  3.38942E-01  3.54559E-01  3.72323E-01  3.92814E-01  4.16954E-01  4.46641E-01  4.85859E-01  5.38788E-01  6.03278E-01
   6.69158E-01  7.24638E-01  7.59525E-01  7.65384E-01  7.38322E-01  6.81486E-01  6.07363E-01  5.35984E-01  4.85806E-01  4.67323E-01
   4.81749E-01  5.24339E-01  5.93375E-01  6.91452E-01  8.17374E-01  9.63012E-01  1.11756E+00  1.27165E+00  1.41604E+00  1.54002E+00
   1.63850E+00  1.71381E+00  1.77443E+00  1.83272E+00  1.90039E+00  1.98489E+00  2.08626E+00  2.19707E+00  2.31101E+00  2.42650E+00
   2.54218E+00  2.65653E+00  2.76804E+00  2.87521E+00  2.97662E+00  3.07094E+00  3.15698E+00  3.23370E+00  3.30027E+00  3.35608E+00
   3.40073E+00  3.43406E+00  3.45619E+00  3.46749E+00  3.46860E+00  3.46036E+00  3.44383E+00  3.42031E+00  3.39124E+00  3.35824E+00
   3.32304E+00  3.28745E+00  3.25335E+00  3.22267E+00  3.19735E+00  3.17936E+00  3.17058E+00  3.17288E+00  3.18806E+00  3.21784E+00
   3.26381E+00  3.32744E+00  3.41000E+00  3.51253E+00  3.63580E+00  3.78026E+00  3.94595E+00  4.13242E+00  4.33872E+00  4.56328E+00
   4.80393E+00  5.05787E+00  5.32162E+00  5.59112E+00  5.86180E+00  6.12864E+00  6.38638E+00  6.62965E+00  6.85318E+00  7.05196E+00
   7.22150E+00  7.35798E+00  7.45843E+00  7.52082E+00  7.54418E+00  7.52857E+00  7.47511E+00  7.38586E+00  7.26376E+00  7.11242E+00
   6.93595E+00  6.73883E+00  6.52565E+00  6.30102E+00  6.06932E+00  5.83465E+00  5.60067E+00  5.37058E+00  5.14706E+00  4.93227E+00
   4.72787E+00  4.53500E+00  4.35440E+00  4.18643E+00  4.03113E+00  3.88830E+00  3.75753E+00  3.63824E+00  3.52978E+00  3.43144E+00
   3.34247E+00  3.26212E+00  3.18967E+00  3.12439E+00  3.06564E+00  3.01279E+00  2.96530E+00  2.92263E+00  2.88431E+00  2.84992E+00
   2.81908E+00  2.79145E+00  2.76672E+00  2.74462E+00  2.72491E+00  2.70736E+00  2.69178E+00  2.67800E+00  2.66588E+00  2.65526E+00
   2.64601E+00  2.63804E+00  2.63123E+00  2.62551E+00  2.62078E+00  2.61698E+00  2.61403E+00  2.61187E+00  2.61045E+00  2.60972E+00
   2.60964E+00  2.61015E+00  2.61121E+00  2.61280E+00  2.61488E+00  2.61743E+00  2.62041E+00  2.62379E+00  2.62755E+00  2.63167E+00
   2.63613E+00  2.64091E+00  2.64600E+00  2.65136E+00  2.65699E+00  2.66288E+00  2.66901E+00  2.67537E+00  2.68193E+00  2.68870E+00
   2.69566E+00  2.70281E+00  2.71012E+00  2.71759E+00  2.72521E+00  2.73298E+00  2.74088E+00  2.74890E+00  2.75705E+00  2.76530E+00
   2.77364E+00  2.78208E+00  2.79061E+00  2.79921E+00  2.80788E+00  2.81660E+00  2.82537E+00  2.83419E+00
 NY background values follow
    -4.709E+00   -4.695E+00   -4.680E+00   -4.666E+00   -4.652E+00   -4.637E+00   -4.623E+00   -4.609E+00   -4.594E+00   -4.580E+00
    -4.565E+00   -4.551E+00   -4.537E+00   -4.522E+00   -4.508E+00   -4.494E+00   -4.479E+00   -4.465E+00   -4.451E+00   -4.436E+00
    -4.422E+00   -4.408E+00   -4.393E+00   -4.379E+00   -4.364E+00   -4.350E+00   -4.336E+00   -4.321E+00   -4.307E+00   -4.292E+00
    -4.278E+00   -4.264E+00   -4.249E+00   -4.235E+00   -4.221E+00   -4.206E+00   -4.192E+00   -4.177E+00   -4.163E+00   -4.149E+00
    -4.134E+00   -4.120E+00   -4.105E+00   -4.091E+00   -4.077E+00   -4.062E+00   -4.048E+00   -4.033E+00   -4.019E+00   -4.004E+00
    -3.990E+00   -3.976E+00   -3.961E+00   -3.947E+00   -3.932E+00   -3.918E+00   -3.903E+00   -3.889E+00   -3.875E+00   -3.860E+00
    -3.846E+00   -3.831E+00   -3.817E+00   -3.802E+00   -3.788E+00   -3.773E+00   -3.759E+00   -3.745E+00   -3.730E+00   -3.716E+00
    -3.701E+00   -3.687E+00   -3.672E+00   -3.658E+00   -3.643E+00   -3.629E+00   -3.615E+00   -3.600E+00   -3.586E+00   -3.571E+00
    -3.557E+00   -3.542E+00   -3.528E+00   -3.513E+00   -3.499E+00   -3.484E+00   -3.470E+00   -3.455E+00   -3.441E+00   -3.426E+00
    -3.412E+00   -3.398E+00   -3.383E+00   -3.369E+00   -3.354E+00   -3.340E+00   -3.325E+00   -3.311E+00   -3.296E+00   -3.282E+00
    -3.267E+00   -3.253E+00   -3.238E+00   -3.224E+00   -3.209E+00   -3.195E+00   -3.180E+00   -3.166E+00   -3.151E+00   -3.137E+00
    -3.122E+00   -3.108E+00   -3.093E+00   -3.079E+00   -3.064E+00   -3.050E+00   -3.035E+00   -3.021E+00   -3.006E+00   -2.992E+00
    -2.977E+00   -2.963E+00   -2.948E+00   -2.934E+00   -2.919E+00   -2.905E+00   -2.890E+00   -2.876E+00   -2.861E+00   -2.847E+00
    -2.832E+00   -2.818E+00   -2.803E+00   -2.789E+00   -2.774E+00   -2.760E+00   -2.745E+00   -2.731E+00   -2.716E+00   -2.702E+00
    -2.687E+00   -2.673E+00   -2.658E+00   -2.644E+00   -2.629E+00   -2.615E+00   -2.600E+00   -2.585E+00   -2.571E+00   -2.556E+00
    -2.542E+00   -2.527E+00   -2.513E+00   -2.498E+00   -2.484E+00   -2.469E+00   -2.455E+00   -2.440E+00   -2.426E+00   -2.411E+00
    -2.397E+00   -2.382E+00   -2.368E+00   -2.353E+00   -2.339E+00   -2.324E+00   -2.310E+00   -2.295E+00   -2.281E+00   -2.266E+00
    -2.252E+00   -2.237E+00   -2.222E+00   -2.208E+00   -2.193E+00   -2.179E+00   -2.164E+00   -2.150E+00   -2.135E+00   -2.121E+00
    -2.106E+00   -2.092E+00   -2.077E+00   -2.063E+00   -2.048E+00   -2.034E+00   -2.019E+00   -2.005E+00   -1.990E+00   -1.976E+00
    -1.961E+00   -1.947E+00   -1.932E+00   -1.917E+00   -1.903E+00   -1.888E+00   -1.874E+00   -1.859E+00   -1.845E+00   -1.830E+00
    -1.816E+00   -1.801E+00   -1.787E+00   -1.772E+00   -1.758E+00   -1.743E+00   -1.729E+00   -1.714E+00   -1.700E+00   -1.685E+00
    -1.671E+00   -1.656E+00   -1.642E+00   -1.627E+00   -1.613E+00   -1.598E+00   -1.584E+00   -1.569E+00   -1.554E+00   -1.540E+00
    -1.525E+00   -1.511E+00   -1.496E+00   -1.482E+00   -1.467E+00   -1.453E+00   -1.438E+00   -1.424E+00   -1.409E+00   -1.395E+00
    -1.380E+00   -1.366E+00   -1.351E+00   -1.337E+00   -1.322E+00   -1.308E+00   -1.293E+00   -1.279E+00   -1.264E+00   -1.250E+00
    -1.235E+00   -1.221E+00   -1.206E+00   -1.192E+00   -1.177E+00   -1.163E+00   -1.148E+00   -1.134E+00   -1.119E+00   -1.105E+00
    -1.090E+00   -1.076E+00   -1.061E+00   -1.047E+00   -1.032E+00   -1.018E+00   -1.003E+00   -9.889E-01   -9.744E-01   -9.599E-01
    -9.454E-01   -9.310E-01   -9.165E-01   -9.020E-01   -8.875E-01   -8.730E-01   -8.586E-01   -8.441E-01   -8.296E-01   -8.151E-01
    -8.007E-01   -7.862E-01   -7.717E-01   -7.573E-01   -7.428E-01   -7.283E-01   -7.138E-01   -6.994E-01   -6.849E-01   -6.705E-01
    -6.560E-01   -6.415E-01   -6.271E-01   -6.126E-01   -5.982E-01   -5.837E-01   -5.692E-01   -5.548E-01   -5.403E-01   -5.259E-01
    -5.114E-01   -4.970E-01   -4.826E-01   -4.681E-01   -4.537E-01   -4.392E-01   -4.248E-01   -4.103E-01   -3.959E-01   -3.815E-01
    -3.670E-01   -3.526E-01   -3.382E-01   -3.237E-01   -3.093E-01   -2.949E-01   -2.805E-01   -2.660E-01   -2.516E-01   -2.372E-01
    -2.228E-01   -2.084E-01   -1.939E-01   -1.795E-01   -1.651E-01   -1.507E-01   -1.363E-01   -1.219E-01   -1.075E-01   -9.307E-02
    -7.867E-02   -6.427E-02   -4.987E-02   -3.548E-02   -2.108E-02   -6.687E-03    7.705E-03    2.210E-02    3.648E-02    5.087E-02
     6.525E-02    7.964E-02    9.402E-02    1.084E-01    1.228E-01    1.371E-01    1.515E-01    1.659E-01    1.803E-01    1.946E-01
     2.090E-01    2.234E-01    2.377E-01    2.521E-01    2.664E-01    2.808E-01    2.951E-01    3.095E-01    3.238E-01    3.382E-01
     3.525E-01    3.669E-01    3.812E-01    3.956E-01    4.099E-01    4.242E-01    4.386E-01    4.529E-01    4.672E-01    4.815E-01
     4.959E-01    5.102E-01    5.245E-01    5.388E-01    5.531E-01    5.674E-01    5.818E-01    5.961E-01    6.104E-01    6.247E-01
     6.390E-01    6.533E-01    6.676E-01    6.819E-01    6.961E-01    7.104E-01    7.247E-01    7.390E-01    7.533E-01    7.676E-01
     7.818E-01    7.961E-01    8.104E-01    8.247E-01    8.389E-01    8.532E-01    8.674E-01    8.817E-01    8.960E-01    9.102E-01
     9.245E-01    9.387E-01    9.530E-01    9.672E-01    9.814E-01    9.957E-01    1.010E+00    1.024E+00    1.038E+00    1.053E+00
     1.067E+00    1.081E+00    1.095E+00    1.109E+00    1.124E+00    1.138E+00    1.152E+00    1.166E+00    1.181E+00    1.195E+00
     1.209E+00    1.223E+00    1.237E+00    1.251E+00    1.266E+00    1.280E+00    1.294E+00    1.308E+00    1.322E+00    1.337E+00
     1.351E+00    1.365E+00    1.379E+00    1.393E+00    1.407E+00    1.421E+00    1.436E+00    1.450E+00    1.464E+00    1.478E+00
     1.492E+00    1.506E+00    1.520E+00    1.535E+00    1.549E+00    1.563E+00    1.577E+00    1.591E+00    1.605E+00    1.619E+00
     1.633E+00    1.648E+00    1.662E+00    1.676E+00    1.690E+00    1.704E+00    1.718E+00    1.732E+00    1.746E+00    1.760E+00
     1.774E+00    1.788E+00    1.802E+00    1.816E+00    1.831E+00    1.845E+00    1.859E+00    1.873E+00    1.887E+00    1.901E+00
     1.915E+00    1.929E+00    1.943E+00    1.957E+00    1.971E+00    1.985E+00    1.999E+00    2.013E+00    2.027E+00    2.041E+00
     2.055E+00    2.069E+00    2.083E+00    2.097E+00    2.111E+00    2.125E+00    2.139E+00    2.153E+00    2.167E+00    2.181E+00
     2.195E+00    2.209E+00    2.223E+00    2.237E+00    2.251E+00    2.265E+00    2.279E+00    2.292E+00    2.306E+00    2.320E+00
     2.334E+00    2.348E+00    2.362E+00    2.376E+00    2.390E+00    2.404E+00    2.418E+00    2.432E+00
 Ala      Conc. = 4.13E+01
