 LCModel (Version 6.3-1L) Copyright: S.W. Provencher.          Ref.: Magn. Reson. Med. 30:672-679 (1993).                
 Slice#1 Row#5 Col#5  PD_24_press_1_raw_act
 36 lines in following concentration table = NCONC+1
    Conc.  %SD /Cr+PCr  Metabolite                                         
    7.571 999% 7.0E-03 Ala                                                 
  105.517 192% 9.7E-02 Asp                                                 
   75.496 330% 6.9E-02 Cr                                                  
 1.01E+03  25%   0.931 PCr                                                 
   58.387 234% 5.4E-02 GABA                                                
  138.822  97%   0.128 Glc                                                 
  461.535  51%   0.425 Gln                                                 
 1.15E+03  24%   1.059 Glu                                                 
  367.586  31%   0.338 GPC                                                 
  147.602  81%   0.136 PCh                                                 
  230.024  33%   0.212 GSH                                                 
 1.22E+03  22%   1.125 Ins                                                 
    0.000 999%   0.000 Lac                                                 
 2.01E+03   4%   1.852 NAA                                                 
    0.000 999%   0.000 NAAG                                                
  178.249  15%   0.164 Scyllo                                              
  592.361  33%   0.545 Tau                                                 
  375.447  30%   0.345 -CrCH2                                              
  515.189   5%   0.474 GPC+PCh                                             
 2.01E+03   4%   1.852 NAA+NAAG                                            
 1.09E+03   5%   1.000 Cr+PCr                                              
 1.61E+03  24%   1.484 Glu+Gln                                             
 7.14E+03  16%   6.571 Lip13a                                              
    0.000 999%   0.000 Lip13b                                              
 1.48E+03  34%   1.365 Lip09                                               
  708.727  70%   0.652 MM09                                                
 1.00E+03  39%   0.924 Lip20                                               
 1.91E+03  25%   1.759 MM20                                                
  289.153 106%   0.266 MM12                                                
  718.303  71%   0.661 MM14                                                
  396.031  60%   0.364 MM17                                                
 7.14E+03  16%   6.571 Lip13a+Lip13b                                       
 8.15E+03  10%   7.498 MM14+Lip13a+Lip13b+MM12                             
 2.19E+03  13%   2.017 MM09+Lip09                                          
 2.92E+03  15%   2.684 MM20+Lip20                                          
   6 lines in following misc. output table
  FWHM = 0.061 ppm    S/N =  11                                            
  Data shift = 0.015 ppm                                                   
  Ph: -73 deg     -19.1 deg/ppm                                            
  alphaB,S = 1.1E+00,   1.5E+02                                            
   14 spline knots.   Ns = 7(1)                                            
  (11) 4 infls.   ( 9) 1 extrs.                                            
  498 points on ppm-axis = NY
      4.000000     3.992357     3.984714     3.977070     3.969427     3.961784     3.954141     3.946497     3.938854     3.931211
      3.923568     3.915925     3.908281     3.900638     3.892995     3.885352     3.877708     3.870065     3.862422     3.854779
      3.847136     3.839492     3.831849     3.824206     3.816563     3.808919     3.801276     3.793633     3.785990     3.778347
      3.770703     3.763060     3.755417     3.747774     3.740130     3.732487     3.724844     3.717201     3.709558     3.701914
      3.694271     3.686628     3.678985     3.671341     3.663698     3.656055     3.648412     3.640769     3.633125     3.625482
      3.617839     3.610196     3.602552     3.594909     3.587266     3.579623     3.571980     3.564336     3.556693     3.549050
      3.541407     3.533763     3.526120     3.518477     3.510834     3.503191     3.495547     3.487904     3.480261     3.472618
      3.464974     3.457331     3.449688     3.442045     3.434402     3.426758     3.419115     3.411472     3.403829     3.396185
      3.388542     3.380899     3.373256     3.365613     3.357969     3.350326     3.342683     3.335040     3.327396     3.319753
      3.312110     3.304467     3.296824     3.289180     3.281537     3.273894     3.266251     3.258607     3.250964     3.243321
      3.235678     3.228034     3.220391     3.212748     3.205105     3.197462     3.189818     3.182175     3.174532     3.166889
      3.159245     3.151602     3.143959     3.136316     3.128673     3.121029     3.113386     3.105743     3.098100     3.090456
      3.082813     3.075170     3.067527     3.059884     3.052240     3.044597     3.036954     3.029311     3.021667     3.014024
      3.006381     2.998738     2.991095     2.983451     2.975808     2.968165     2.960522     2.952878     2.945235     2.937592
      2.929949     2.922306     2.914662     2.907019     2.899376     2.891733     2.884089     2.876446     2.868803     2.861160
      2.853517     2.845873     2.838230     2.830587     2.822944     2.815300     2.807657     2.800014     2.792371     2.784728
      2.777084     2.769441     2.761798     2.754155     2.746511     2.738868     2.731225     2.723582     2.715939     2.708295
      2.700652     2.693009     2.685366     2.677722     2.670079     2.662436     2.654793     2.647150     2.639506     2.631863
      2.624220     2.616577     2.608933     2.601290     2.593647     2.586004     2.578361     2.570717     2.563074     2.555431
      2.547788     2.540144     2.532501     2.524858     2.517215     2.509572     2.501928     2.494285     2.486642     2.478999
      2.471355     2.463712     2.456069     2.448426     2.440783     2.433139     2.425496     2.417853     2.410210     2.402566
      2.394923     2.387280     2.379637     2.371994     2.364350     2.356707     2.349064     2.341421     2.333777     2.326134
      2.318491     2.310848     2.303205     2.295561     2.287918     2.280275     2.272632     2.264988     2.257345     2.249702
      2.242059     2.234416     2.226772     2.219129     2.211486     2.203843     2.196199     2.188556     2.180913     2.173270
      2.165627     2.157983     2.150340     2.142697     2.135054     2.127410     2.119767     2.112124     2.104481     2.096838
      2.089194     2.081551     2.073908     2.066265     2.058621     2.050978     2.043335     2.035692     2.028049     2.020405
      2.012762     2.005119     1.997476     1.989833     1.982190     1.974546     1.966903     1.959260     1.951617     1.943974
      1.936331     1.928688     1.921045     1.913402     1.905759     1.898115     1.890472     1.882829     1.875186     1.867543
      1.859900     1.852257     1.844614     1.836971     1.829327     1.821684     1.814041     1.806398     1.798755     1.791112
      1.783469     1.775826     1.768183     1.760540     1.752896     1.745253     1.737610     1.729967     1.722324     1.714681
      1.707038     1.699395     1.691752     1.684108     1.676465     1.668822     1.661179     1.653536     1.645893     1.638250
      1.630607     1.622964     1.615321     1.607677     1.600034     1.592391     1.584748     1.577105     1.569462     1.561819
      1.554176     1.546533     1.538890     1.531246     1.523603     1.515960     1.508317     1.500674     1.493031     1.485388
      1.477745     1.470102     1.462458     1.454815     1.447172     1.439529     1.431886     1.424243     1.416600     1.408957
      1.401314     1.393671     1.386027     1.378384     1.370741     1.363098     1.355455     1.347812     1.340169     1.332526
      1.324883     1.317240     1.309596     1.301953     1.294310     1.286667     1.279024     1.271381     1.263738     1.256095
      1.248452     1.240808     1.233165     1.225522     1.217879     1.210236     1.202593     1.194950     1.187307     1.179664
      1.172021     1.164377     1.156734     1.149091     1.141448     1.133805     1.126162     1.118519     1.110876     1.103233
      1.095590     1.087946     1.080303     1.072660     1.065017     1.057374     1.049731     1.042088     1.034445     1.026802
      1.019158     1.011515     1.003872     0.996229     0.988586     0.980943     0.973300     0.965657     0.958014     0.950371
      0.942727     0.935084     0.927441     0.919798     0.912155     0.904512     0.896869     0.889226     0.881583     0.873940
      0.866296     0.858653     0.851010     0.843367     0.835724     0.828081     0.820438     0.812795     0.805152     0.797508
      0.789865     0.782222     0.774579     0.766936     0.759293     0.751650     0.744007     0.736364     0.728721     0.721077
      0.713434     0.705791     0.698148     0.690505     0.682862     0.675219     0.667576     0.659933     0.652290     0.644646
      0.637003     0.629360     0.621717     0.614074     0.606431     0.598788     0.591145     0.583502     0.575858     0.568215
      0.560572     0.552929     0.545286     0.537643     0.530000     0.522357     0.514714     0.507071     0.499427     0.491784
      0.484141     0.476498     0.468855     0.461212     0.453569     0.445925     0.438282     0.430639     0.422996     0.415353
      0.407710     0.400067     0.392424     0.384780     0.377137     0.369494     0.361851     0.354208     0.346565     0.338922
      0.331278     0.323635     0.315992     0.308349     0.300706     0.293063     0.285420     0.277777     0.270133     0.262490
      0.254847     0.247204     0.239561     0.231918     0.224275     0.216631     0.208988     0.201345
 NY phased data points follow
  -4.14302E+01 -3.57060E+01 -3.70479E+01 -3.27729E+01 -2.77287E+01 -2.81878E+01 -2.42532E+01 -1.50345E+01 -1.33713E+01 -1.09515E+01
  -1.22969E+01 -1.37532E+01 -1.72457E+01 -2.11029E+01 -2.20836E+01 -2.47669E+01 -2.75653E+01 -3.20152E+01 -2.86543E+01 -2.48464E+01
  -3.02885E+01 -2.73695E+01 -2.39406E+01 -2.99367E+01 -2.69966E+01 -2.53668E+01 -2.42365E+01 -2.04746E+01 -2.25163E+01 -2.12785E+01
  -2.45109E+01 -2.03801E+01 -2.17609E+01 -2.07217E+01 -2.02131E+01 -2.08977E+01 -1.95589E+01 -2.14151E+01 -2.60580E+01 -1.77720E+01
  -2.19733E+01 -2.32979E+01 -1.48760E+01 -1.49393E+01 -1.65329E+01 -1.55145E+01 -1.23712E+01 -1.82757E+01 -1.97406E+01 -1.79464E+01
  -1.96740E+01 -1.95667E+01 -1.98690E+01 -1.94480E+01 -1.83772E+01 -2.25990E+01 -1.64131E+01 -1.75070E+01 -2.34746E+01 -1.73761E+01
  -1.38826E+01 -2.34104E+01 -2.09621E+01 -2.00770E+01 -2.55312E+01 -2.61365E+01 -1.55932E+01 -2.13924E+01 -1.72706E+01 -1.72645E+01
  -1.79990E+01 -2.22023E+01 -1.90987E+01 -1.50509E+01 -1.98494E+01 -1.57314E+01 -1.19230E+01 -1.66083E+01 -1.51199E+01 -1.73881E+01
  -1.74836E+01 -1.46530E+01 -1.29654E+01 -1.07733E+01 -1.55800E+01 -1.00371E+01 -7.91524E+00 -9.93513E+00 -1.13569E+01 -9.95704E+00
  -1.32197E+01 -1.26901E+01 -7.38556E+00 -1.50334E+01 -1.23538E+01 -6.50364E+00 -8.08798E+00 -3.36244E+00  5.41607E+00  9.72855E+00
   2.16975E+01  2.68366E+01  2.13429E+01  2.50338E+01  2.13531E+01  1.24038E+01  1.00780E+01  4.56474E+00 -1.07263E+00 -7.95829E+00
  -1.05058E+01 -7.58121E+00 -1.16474E+01 -8.76229E+00 -1.17723E+01 -1.00958E+01 -1.52634E+01 -1.32244E+01 -1.52684E+01 -1.67623E+01
  -1.47180E+01 -7.23242E+00 -8.83043E+00  5.13123E+00  9.70891E+00  2.03213E+01  1.82367E+01  1.75962E+01  1.38978E+01  8.16065E+00
   1.50811E+01 -1.26793E+00 -1.97745E+00 -5.80850E-01 -1.02112E+01 -1.13338E+01 -1.50491E+01 -1.34512E+01 -1.06712E+01 -1.43238E+01
  -1.36647E+01 -1.16632E+01 -1.15141E+01 -1.21451E+01 -8.84851E+00 -1.30634E+01 -1.62946E+01 -1.54668E+01 -9.85646E+00 -1.49746E+01
  -1.62144E+01 -1.32771E+01 -1.44291E+01 -1.87773E+01 -1.43620E+01 -8.73867E+00 -1.44730E+01 -1.19208E+01 -1.12009E+01 -9.95198E+00
  -1.34792E+01 -1.01536E+01 -7.66525E+00 -9.11148E+00 -1.07191E+01 -1.15568E+01 -1.03660E+01 -9.90577E+00 -1.28814E+01 -9.83065E+00
  -1.48962E+01 -1.46095E+01 -1.67449E+01 -1.58635E+01 -1.72460E+01 -1.39008E+01 -2.18245E+01 -1.62622E+01 -1.86935E+01 -1.57467E+01
  -1.67092E+01 -1.20201E+01 -1.65449E+01 -1.25702E+01 -1.54731E+01 -1.51453E+01 -1.35201E+01 -7.87490E+00 -8.95356E+00 -1.35667E+01
  -6.46164E+00 -8.21059E+00 -6.26015E+00 -9.74411E+00 -8.28244E+00 -5.89663E+00 -1.29825E+01 -9.12456E+00 -1.57543E+01 -5.84295E+00
  -1.02094E+01 -6.82265E+00 -7.08470E+00  2.14373E+00 -5.86687E+00 -6.95311E+00 -5.12230E+00 -7.37789E+00 -8.65948E+00 -4.53398E+00
  -3.82059E+00 -3.90866E+00 -3.69185E-01  4.81589E+00 -2.16653E+00  3.45677E+00  5.68765E+00  5.26881E+00 -2.21636E+00 -1.99649E+00
  -6.71217E+00 -3.82995E+00 -1.92580E+00 -3.47264E+00 -9.75589E-01 -1.98412E+00 -4.71395E+00 -1.15303E-01  5.22857E-03 -5.09790E-01
   3.63541E+00  4.55817E-01  2.05409E+00  1.85337E+00  4.11977E-01  1.85466E+00  5.21194E+00 -9.91969E-01  5.01144E+00  4.41485E+00
  -8.87134E-01  2.88203E+00  3.21808E+00  2.00558E+00  3.42333E+00  4.07613E+00  5.79901E+00  5.77652E+00  5.13166E+00  4.54881E+00
  -2.40567E+00  4.32058E+00  7.72434E+00  1.01258E+01  1.19533E+01  1.34224E+01  2.45889E+01  3.72012E+01  5.25860E+01  6.95747E+01
   6.79129E+01  6.67347E+01  5.79733E+01  5.04717E+01  3.95692E+01  3.23039E+01  2.88081E+01  2.07127E+01  1.50847E+01  1.42218E+01
   8.03712E+00  5.62814E+00  3.08557E+00  5.09849E+00  5.24706E+00  7.11955E+00  2.92708E+00  6.02721E+00  1.33741E+00  2.60832E-01
   6.30020E+00  3.39227E-01 -5.67070E-01 -3.64498E+00  6.66231E-01  3.33953E+00  1.96729E-01  1.12097E+00  2.26777E-02  3.40830E+00
   2.15791E+00  5.01061E+00  2.89948E+00  2.27531E+00  4.79693E+00  2.63522E+00  1.23253E+00  2.87275E+00 -1.19791E+00  5.33784E+00
   8.48107E+00  1.31971E+00  1.09358E-01  8.28552E-01  2.42877E+00  4.41308E+00  5.80939E+00  5.63182E+00  5.68487E+00  4.05657E+00
   1.49033E+00  7.52877E+00  6.16139E+00  8.58132E+00  4.50010E+00  1.12718E+00  4.17455E+00  8.47108E+00  5.85908E+00  5.08655E+00
   4.85362E+00  9.18722E+00  6.08915E+00  9.33557E+00  7.06075E+00  7.58735E+00  9.41565E+00  1.13306E+01  9.71801E+00  1.06538E+01
   9.95577E+00  7.85422E+00  1.19232E+01  1.50902E+01  1.34386E+01  1.33953E+01  9.89301E+00  1.55849E+01  1.14864E+01  1.56975E+01
   1.32264E+01  1.80013E+01  1.61881E+01  2.03833E+01  1.74149E+01  2.13372E+01  2.17189E+01  2.22902E+01  2.47300E+01  3.05709E+01
   2.25138E+01  2.50166E+01  2.22892E+01  2.40715E+01  2.23184E+01  2.17541E+01  2.21916E+01  1.95829E+01  2.13514E+01  2.10010E+01
   1.49953E+01  1.83528E+01  1.80915E+01  2.01553E+01  1.79041E+01  1.94915E+01  1.98548E+01  1.94329E+01  1.69281E+01  2.46470E+01
   2.11128E+01  2.22094E+01  2.06909E+01  2.34251E+01  1.92349E+01  2.15197E+01  1.43729E+01  1.92161E+01  1.50355E+01  1.69182E+01
   9.12615E+00  1.64623E+01  9.31458E+00  1.32747E+01  1.45813E+01  1.69545E+01  1.58942E+01  1.44089E+01  1.44023E+01  1.77057E+01
   1.45318E+01  1.17021E+01  1.17948E+01  1.20518E+01  1.52843E+01  1.94307E+01  1.22055E+01  1.78637E+01  1.46100E+01  1.86793E+01
   2.14332E+01  1.63997E+01  1.57290E+01  1.58068E+01  1.73156E+01  1.47691E+01  1.96178E+01  1.60338E+01  1.83394E+01  1.88468E+01
   1.73608E+01  1.92253E+01  1.70166E+01  1.75937E+01  1.44710E+01  1.99472E+01  7.33532E+00  9.93203E+00  9.94467E+00  1.04578E+01
   9.35077E+00  7.18899E+00  6.02918E+00  6.86568E+00  4.96846E+00  5.31802E+00  5.43415E+00  1.04783E+01  1.04947E+01  7.33244E+00
   9.56588E-01  7.57790E+00  2.56844E+00  2.70962E+00  7.96416E+00  2.17098E+00  1.29988E+00  4.01840E+00  1.96904E+00  7.67184E-01
   1.28272E+00  3.20071E+00  5.62850E+00  4.40130E+00  2.64156E+00  2.56454E-01  3.41194E+00  1.73485E+00  3.24353E+00  3.95929E+00
   1.59340E+00  6.19885E+00  3.40823E+00  3.09215E+00  6.13306E+00  2.70007E+00  4.15338E+00  4.79685E+00  1.28965E+00  3.53770E+00
   2.39005E+00  3.05286E+00 -1.51551E-01  3.77302E+00  4.97604E+00  4.58262E+00  1.50992E+00 -5.66493E+00 -7.19332E-01  1.96334E+00
  -4.11633E-02  5.56560E+00  4.94244E+00  1.19584E+00  1.65033E-01 -5.08389E-01  3.38971E+00  2.62687E+00  1.57806E+00  7.88804E-01
  -1.05045E-01 -6.83089E-01 -3.77840E+00  3.11295E+00  3.04016E+00  5.66235E+00  2.67397E+00  3.84462E+00  4.80103E+00  5.56178E+00
   2.48246E+00  1.65363E+00  3.19231E+00 -1.69495E-01  4.97942E+00  2.75862E+00  1.73893E+00  5.66990E-01
 NY points of the fit to the data follow
  -3.04020E+01 -3.04676E+01 -3.01823E+01 -2.92359E+01 -2.73693E+01 -2.44556E+01 -2.08098E+01 -1.72542E+01 -1.47857E+01 -1.39203E+01
  -1.44687E+01 -1.59049E+01 -1.77149E+01 -1.95237E+01 -2.11186E+01 -2.26079E+01 -2.42070E+01 -2.59211E+01 -2.69968E+01 -2.72253E+01
  -2.71652E+01 -2.70320E+01 -2.69411E+01 -2.68109E+01 -2.65511E+01 -2.59985E+01 -2.50372E+01 -2.37007E+01 -2.21925E+01 -2.08012E+01
  -1.97352E+01 -1.91462E+01 -1.91436E+01 -1.96998E+01 -2.06167E+01 -2.16715E+01 -2.26932E+01 -2.35732E+01 -2.41088E+01 -2.40745E+01
  -2.35198E+01 -2.24246E+01 -2.07866E+01 -1.88306E+01 -1.70013E+01 -1.58198E+01 -1.55361E+01 -1.61220E+01 -1.73147E+01 -1.86965E+01
  -1.99100E+01 -2.07865E+01 -2.13709E+01 -2.17628E+01 -2.19016E+01 -2.16378E+01 -2.09729E+01 -2.02032E+01 -1.96541E+01 -1.94541E+01
  -1.95398E+01 -1.97626E+01 -1.99319E+01 -1.99350E+01 -1.97661E+01 -1.95080E+01 -1.92631E+01 -1.90369E+01 -1.87482E+01 -1.83297E+01
  -1.77654E+01 -1.71113E+01 -1.64693E+01 -1.60145E+01 -1.59258E+01 -1.62233E+01 -1.67636E+01 -1.73558E+01 -1.77667E+01 -1.78249E+01
  -1.73105E+01 -1.62510E+01 -1.47945E+01 -1.31776E+01 -1.16894E+01 -1.06549E+01 -1.03415E+01 -1.06649E+01 -1.13737E+01 -1.22870E+01
  -1.33051E+01 -1.42899E+01 -1.51329E+01 -1.57752E+01 -1.58721E+01 -1.44319E+01 -1.06155E+01 -4.36962E+00  3.86867E+00  1.28663E+01
   2.06805E+01  2.54947E+01  2.65238E+01  2.41908E+01  1.96757E+01  1.42175E+01  8.71335E+00  3.58863E+00 -1.22758E+00 -5.94229E+00
  -1.01721E+01 -1.29455E+01 -1.44227E+01 -1.50416E+01 -1.52634E+01 -1.53676E+01 -1.54171E+01 -1.53664E+01 -1.51789E+01 -1.46615E+01
  -1.30429E+01 -9.65915E+00 -4.26789E+00  2.84402E+00  1.03724E+01  1.63338E+01  1.91695E+01  1.87003E+01  1.58708E+01  1.18709E+01
   7.59529E+00  3.54930E+00 -2.08024E-01 -3.98848E+00 -7.87461E+00 -1.12048E+01 -1.27607E+01 -1.29333E+01 -1.27340E+01 -1.24492E+01
  -1.21928E+01 -1.19916E+01 -1.18117E+01 -1.16418E+01 -1.15199E+01 -1.14556E+01 -1.14499E+01 -1.15006E+01 -1.15753E+01 -1.16405E+01
  -1.16709E+01 -1.16557E+01 -1.16102E+01 -1.15386E+01 -1.14661E+01 -1.14517E+01 -1.15421E+01 -1.17556E+01 -1.20379E+01 -1.22655E+01
  -1.23257E+01 -1.21662E+01 -1.18596E+01 -1.15633E+01 -1.14179E+01 -1.14640E+01 -1.16498E+01 -1.18844E+01 -1.20940E+01 -1.22742E+01
  -1.25173E+01 -1.29040E+01 -1.33737E+01 -1.38124E+01 -1.40669E+01 -1.40717E+01 -1.39201E+01 -1.37289E+01 -1.35874E+01 -1.34978E+01
  -1.34163E+01 -1.33263E+01 -1.32042E+01 -1.30158E+01 -1.27057E+01 -1.22163E+01 -1.15290E+01 -1.06193E+01 -9.58871E+00 -8.65945E+00
  -8.00980E+00 -7.69518E+00 -7.59369E+00 -7.55949E+00 -7.50130E+00 -7.39239E+00 -7.26004E+00 -7.07540E+00 -6.67665E+00 -6.01895E+00
  -5.16659E+00 -4.27292E+00 -3.56400E+00 -3.31821E+00 -3.66835E+00 -4.56562E+00 -5.80647E+00 -7.09899E+00 -8.11826E+00 -8.54632E+00
  -8.22189E+00 -7.19541E+00 -5.63794E+00 -3.84837E+00 -2.28865E+00 -1.45322E+00 -1.56051E+00 -2.51109E+00 -4.00133E+00 -5.68095E+00
  -6.96931E+00 -7.43134E+00 -7.08202E+00 -6.18270E+00 -4.95449E+00 -3.56272E+00 -2.23984E+00 -1.23562E+00 -5.20140E-01  3.91916E-02
   5.37963E-01  9.30074E-01  1.18030E+00  1.44008E+00  1.84168E+00  2.30372E+00  2.66784E+00  2.84884E+00  2.83687E+00  2.68036E+00
   2.45973E+00  2.33841E+00  2.48891E+00  2.90428E+00  3.43149E+00  3.92189E+00  4.37010E+00  4.78033E+00  5.16151E+00  5.59980E+00
   6.16636E+00  6.83221E+00  7.51464E+00  8.64328E+00  1.17397E+01  1.79350E+01  2.76920E+01  4.04178E+01  5.35947E+01  6.35350E+01
   6.75350E+01  6.54846E+01  5.92386E+01  5.10135E+01  4.25059E+01  3.47247E+01  2.77275E+01  2.08026E+01  1.37262E+01  7.74241E+00
   4.84374E+00  3.92514E+00  3.50574E+00  3.27409E+00  3.11259E+00  2.93651E+00  2.74348E+00  2.53907E+00  2.33036E+00  2.13029E+00
   1.94981E+00  1.78818E+00  1.65370E+00  1.56182E+00  1.51314E+00  1.49950E+00  1.51496E+00  1.55557E+00  1.61861E+00  1.70020E+00
   1.79306E+00  1.89784E+00  2.01530E+00  2.14477E+00  2.28667E+00  2.44123E+00  2.60569E+00  2.77663E+00  2.95111E+00  3.12762E+00
   3.30332E+00  3.47540E+00  3.64147E+00  3.79927E+00  3.94756E+00  4.08641E+00  4.21624E+00  4.33834E+00  4.45429E+00  4.56648E+00
   4.67746E+00  4.79052E+00  4.90906E+00  5.03694E+00  5.17740E+00  5.33402E+00  5.50995E+00  5.70834E+00  5.93177E+00  6.18309E+00
   6.46512E+00  6.77889E+00  7.12256E+00  7.49263E+00  7.88327E+00  8.28949E+00  8.70972E+00  9.14680E+00  9.60599E+00  1.00926E+01
   1.06090E+01  1.11565E+01  1.17324E+01  1.23297E+01  1.29395E+01  1.35553E+01  1.41736E+01  1.47894E+01  1.53994E+01  1.60042E+01
   1.66041E+01  1.71970E+01  1.77791E+01  1.83475E+01  1.89028E+01  1.94451E+01  1.99690E+01  2.04698E+01  2.09426E+01  2.13830E+01
   2.17861E+01  2.21472E+01  2.24617E+01  2.27251E+01  2.29335E+01  2.30836E+01  2.31724E+01  2.31980E+01  2.31593E+01  2.30561E+01
   2.28893E+01  2.26609E+01  2.23737E+01  2.20315E+01  2.16390E+01  2.12018E+01  2.07258E+01  2.02179E+01  1.96849E+01  1.91342E+01
   1.85729E+01  1.80085E+01  1.74481E+01  1.68986E+01  1.63665E+01  1.58581E+01  1.53791E+01  1.49352E+01  1.45309E+01  1.41711E+01
   1.38596E+01  1.36001E+01  1.33958E+01  1.32494E+01  1.31630E+01  1.31382E+01  1.31757E+01  1.32753E+01  1.34362E+01  1.36560E+01
   1.39311E+01  1.42565E+01  1.46257E+01  1.50306E+01  1.54613E+01  1.59069E+01  1.63549E+01  1.67920E+01  1.72044E+01  1.75782E+01
   1.78999E+01  1.81571E+01  1.83389E+01  1.84364E+01  1.84429E+01  1.83549E+01  1.81712E+01  1.78938E+01  1.75273E+01  1.70789E+01
   1.65577E+01  1.59746E+01  1.53414E+01  1.46706E+01  1.39745E+01  1.32653E+01  1.25542E+01  1.18512E+01  1.11650E+01  1.05028E+01
   9.87011E+00  9.27121E+00  8.70877E+00  8.18437E+00  7.69832E+00  7.25024E+00  6.83885E+00  6.46260E+00  6.11932E+00  5.80683E+00
   5.52261E+00  5.26438E+00  5.02968E+00  4.81640E+00  4.62233E+00  4.44562E+00  4.28436E+00  4.13707E+00  4.00220E+00  3.87859E+00
   3.76496E+00  3.66040E+00  3.56387E+00  3.47471E+00  3.39211E+00  3.31557E+00  3.24439E+00  3.17820E+00  3.11643E+00  3.05884E+00
   3.00498E+00  2.95466E+00  2.90746E+00  2.86324E+00  2.82169E+00  2.78272E+00  2.74605E+00  2.71160E+00  2.67910E+00  2.64852E+00
   2.61964E+00  2.59247E+00  2.56680E+00  2.54262E+00  2.51972E+00  2.49814E+00  2.47772E+00  2.45849E+00  2.44027E+00  2.42311E+00
   2.40683E+00  2.39150E+00  2.37699E+00  2.36337E+00  2.35045E+00  2.33831E+00  2.32681E+00  2.31603E+00  2.30584E+00  2.29632E+00
   2.28732E+00  2.27890E+00  2.27096E+00  2.26358E+00  2.25666E+00  2.25025E+00  2.24422E+00  2.23867E+00  2.23348E+00  2.22876E+00
   2.22438E+00  2.22042E+00  2.21676E+00  2.21349E+00  2.21053E+00  2.20797E+00  2.20569E+00  2.20377E+00
 NY background values follow
    -3.412E+01   -3.397E+01   -3.381E+01   -3.366E+01   -3.351E+01   -3.336E+01   -3.321E+01   -3.306E+01   -3.291E+01   -3.276E+01
    -3.260E+01   -3.245E+01   -3.230E+01   -3.215E+01   -3.200E+01   -3.185E+01   -3.170E+01   -3.155E+01   -3.140E+01   -3.125E+01
    -3.110E+01   -3.095E+01   -3.080E+01   -3.065E+01   -3.050E+01   -3.035E+01   -3.020E+01   -3.005E+01   -2.990E+01   -2.975E+01
    -2.960E+01   -2.945E+01   -2.930E+01   -2.915E+01   -2.901E+01   -2.886E+01   -2.871E+01   -2.856E+01   -2.842E+01   -2.827E+01
    -2.812E+01   -2.798E+01   -2.783E+01   -2.768E+01   -2.754E+01   -2.739E+01   -2.725E+01   -2.710E+01   -2.696E+01   -2.681E+01
    -2.667E+01   -2.653E+01   -2.638E+01   -2.624E+01   -2.610E+01   -2.596E+01   -2.581E+01   -2.567E+01   -2.553E+01   -2.539E+01
    -2.525E+01   -2.511E+01   -2.497E+01   -2.483E+01   -2.469E+01   -2.455E+01   -2.441E+01   -2.427E+01   -2.414E+01   -2.400E+01
    -2.386E+01   -2.373E+01   -2.359E+01   -2.345E+01   -2.332E+01   -2.318E+01   -2.305E+01   -2.292E+01   -2.278E+01   -2.265E+01
    -2.252E+01   -2.238E+01   -2.225E+01   -2.212E+01   -2.199E+01   -2.186E+01   -2.173E+01   -2.160E+01   -2.147E+01   -2.134E+01
    -2.121E+01   -2.109E+01   -2.096E+01   -2.083E+01   -2.071E+01   -2.058E+01   -2.046E+01   -2.033E+01   -2.021E+01   -2.008E+01
    -1.996E+01   -1.984E+01   -1.971E+01   -1.959E+01   -1.947E+01   -1.935E+01   -1.923E+01   -1.911E+01   -1.899E+01   -1.887E+01
    -1.875E+01   -1.863E+01   -1.851E+01   -1.839E+01   -1.828E+01   -1.816E+01   -1.804E+01   -1.793E+01   -1.781E+01   -1.770E+01
    -1.758E+01   -1.747E+01   -1.735E+01   -1.724E+01   -1.712E+01   -1.701E+01   -1.690E+01   -1.678E+01   -1.667E+01   -1.656E+01
    -1.645E+01   -1.633E+01   -1.622E+01   -1.611E+01   -1.600E+01   -1.589E+01   -1.578E+01   -1.567E+01   -1.556E+01   -1.545E+01
    -1.534E+01   -1.524E+01   -1.513E+01   -1.502E+01   -1.491E+01   -1.480E+01   -1.470E+01   -1.459E+01   -1.448E+01   -1.438E+01
    -1.427E+01   -1.417E+01   -1.406E+01   -1.395E+01   -1.385E+01   -1.374E+01   -1.364E+01   -1.354E+01   -1.343E+01   -1.333E+01
    -1.322E+01   -1.312E+01   -1.302E+01   -1.292E+01   -1.281E+01   -1.271E+01   -1.261E+01   -1.251E+01   -1.241E+01   -1.230E+01
    -1.220E+01   -1.210E+01   -1.200E+01   -1.190E+01   -1.180E+01   -1.170E+01   -1.160E+01   -1.150E+01   -1.140E+01   -1.130E+01
    -1.120E+01   -1.110E+01   -1.101E+01   -1.091E+01   -1.081E+01   -1.071E+01   -1.061E+01   -1.052E+01   -1.042E+01   -1.032E+01
    -1.023E+01   -1.013E+01   -1.003E+01   -9.939E+00   -9.844E+00   -9.749E+00   -9.654E+00   -9.559E+00   -9.465E+00   -9.372E+00
    -9.278E+00   -9.185E+00   -9.092E+00   -9.000E+00   -8.908E+00   -8.816E+00   -8.725E+00   -8.634E+00   -8.544E+00   -8.454E+00
    -8.364E+00   -8.275E+00   -8.186E+00   -8.098E+00   -8.010E+00   -7.923E+00   -7.836E+00   -7.749E+00   -7.663E+00   -7.578E+00
    -7.493E+00   -7.408E+00   -7.324E+00   -7.240E+00   -7.157E+00   -7.075E+00   -6.993E+00   -6.911E+00   -6.831E+00   -6.750E+00
    -6.670E+00   -6.591E+00   -6.512E+00   -6.434E+00   -6.356E+00   -6.279E+00   -6.202E+00   -6.126E+00   -6.051E+00   -5.975E+00
    -5.901E+00   -5.827E+00   -5.753E+00   -5.680E+00   -5.608E+00   -5.536E+00   -5.464E+00   -5.393E+00   -5.323E+00   -5.253E+00
    -5.183E+00   -5.114E+00   -5.046E+00   -4.978E+00   -4.910E+00   -4.843E+00   -4.777E+00   -4.711E+00   -4.645E+00   -4.580E+00
    -4.515E+00   -4.451E+00   -4.388E+00   -4.325E+00   -4.262E+00   -4.200E+00   -4.138E+00   -4.077E+00   -4.017E+00   -3.956E+00
    -3.897E+00   -3.837E+00   -3.779E+00   -3.720E+00   -3.662E+00   -3.605E+00   -3.548E+00   -3.492E+00   -3.436E+00   -3.380E+00
    -3.325E+00   -3.270E+00   -3.216E+00   -3.163E+00   -3.109E+00   -3.056E+00   -3.004E+00   -2.952E+00   -2.901E+00   -2.850E+00
    -2.799E+00   -2.749E+00   -2.699E+00   -2.650E+00   -2.601E+00   -2.553E+00   -2.505E+00   -2.457E+00   -2.410E+00   -2.363E+00
    -2.317E+00   -2.271E+00   -2.226E+00   -2.181E+00   -2.136E+00   -2.092E+00   -2.048E+00   -2.005E+00   -1.962E+00   -1.919E+00
    -1.877E+00   -1.835E+00   -1.794E+00   -1.753E+00   -1.713E+00   -1.672E+00   -1.633E+00   -1.593E+00   -1.554E+00   -1.516E+00
    -1.478E+00   -1.440E+00   -1.403E+00   -1.366E+00   -1.329E+00   -1.293E+00   -1.257E+00   -1.221E+00   -1.186E+00   -1.151E+00
    -1.117E+00   -1.083E+00   -1.049E+00   -1.016E+00   -9.833E-01   -9.508E-01   -9.186E-01   -8.868E-01   -8.554E-01   -8.243E-01
    -7.935E-01   -7.631E-01   -7.331E-01   -7.034E-01   -6.740E-01   -6.450E-01   -6.164E-01   -5.880E-01   -5.601E-01   -5.324E-01
    -5.051E-01   -4.782E-01   -4.515E-01   -4.252E-01   -3.992E-01   -3.736E-01   -3.483E-01   -3.233E-01   -2.986E-01   -2.743E-01
    -2.502E-01   -2.265E-01   -2.031E-01   -1.800E-01   -1.572E-01   -1.348E-01   -1.126E-01   -9.072E-02   -6.915E-02   -4.786E-02
    -2.687E-02   -6.163E-03    1.426E-02    3.441E-02    5.428E-02    7.388E-02    9.321E-02    1.123E-01    1.311E-01    1.496E-01
     1.679E-01    1.859E-01    2.037E-01    2.213E-01    2.386E-01    2.556E-01    2.725E-01    2.891E-01    3.054E-01    3.216E-01
     3.375E-01    3.532E-01    3.687E-01    3.840E-01    3.990E-01    4.139E-01    4.285E-01    4.430E-01    4.573E-01    4.714E-01
     4.852E-01    4.990E-01    5.125E-01    5.258E-01    5.390E-01    5.520E-01    5.648E-01    5.775E-01    5.900E-01    6.024E-01
     6.146E-01    6.266E-01    6.385E-01    6.503E-01    6.619E-01    6.734E-01    6.847E-01    6.959E-01    7.070E-01    7.180E-01
     7.289E-01    7.396E-01    7.502E-01    7.608E-01    7.712E-01    7.815E-01    7.917E-01    8.018E-01    8.119E-01    8.218E-01
     8.317E-01    8.415E-01    8.512E-01    8.608E-01    8.704E-01    8.799E-01    8.893E-01    8.987E-01    9.080E-01    9.173E-01
     9.265E-01    9.357E-01    9.448E-01    9.539E-01    9.630E-01    9.720E-01    9.810E-01    9.900E-01    9.990E-01    1.008E+00
     1.017E+00    1.026E+00    1.035E+00    1.044E+00    1.052E+00    1.061E+00    1.070E+00    1.079E+00    1.088E+00    1.097E+00
     1.106E+00    1.115E+00    1.124E+00    1.133E+00    1.141E+00    1.150E+00    1.159E+00    1.168E+00    1.177E+00    1.186E+00
     1.195E+00    1.204E+00    1.213E+00    1.222E+00    1.230E+00    1.239E+00    1.248E+00    1.257E+00    1.266E+00    1.275E+00
     1.284E+00    1.293E+00    1.302E+00    1.311E+00    1.319E+00    1.328E+00    1.337E+00    1.346E+00    1.355E+00    1.364E+00
     1.373E+00    1.382E+00    1.391E+00    1.400E+00    1.409E+00    1.418E+00    1.427E+00    1.436E+00
 Ala      Conc. = 7.57E+00
