 LCModel (Version 6.3-1L) Copyright: S.W. Provencher.          Ref.: Magn. Reson. Med. 30:672-679 (1993).                
 Slice#1 Row#14 Col#7  PD_24_press_1_raw_act
 36 lines in following concentration table = NCONC+1
    Conc.  %SD /Cr+PCr  Metabolite                                         
   25.682 106%   0.344 Ala                                                 
   11.869 102%   0.159 Asp                                                 
    0.000 999%   0.000 Cr                                                  
   74.721  25%   1.000 PCr                                                 
    8.394  86%   0.112 GABA                                                
    7.437  98%   0.100 Glc                                                 
   85.827  63%   1.149 Gln                                                 
   79.753  74%   1.067 Glu                                                 
    7.125 424% 9.5E-02 GPC                                                 
   27.531 111%   0.368 PCh                                                 
    0.000 999%   0.000 GSH                                                 
   26.300 239%   0.352 Ins                                                 
    0.000 999%   0.000 Lac                                                 
   66.908  29%   0.895 NAA                                                 
    0.000 999%   0.000 NAAG                                                
    2.472  96% 3.3E-02 Scyllo                                              
   18.336  65%   0.245 Tau                                                 
   10.392 162%   0.139 -CrCH2                                              
   34.656  21%   0.464 GPC+PCh                                             
   66.908  29%   0.895 NAA+NAAG                                            
   74.721  25%   1.000 Cr+PCr                                              
  165.580  47%   2.216 Glu+Gln                                             
    0.000 999%   0.000 Lip13a                                              
  105.406  46%   1.411 Lip13b                                              
   28.005  66%   0.375 Lip09                                               
  162.621  33%   2.176 MM09                                                
   16.505  72%   0.221 Lip20                                               
  257.665  35%   3.448 MM20                                                
   43.730  60%   0.585 MM12                                                
  119.612  62%   1.601 MM14                                                
   68.008  76%   0.910 MM17                                                
  105.406  46%   1.411 Lip13a+Lip13b                                       
  268.748  32%   3.597 MM14+Lip13a+Lip13b+MM12                             
  190.626  28%   2.551 MM09+Lip09                                          
  274.170  32%   3.669 MM20+Lip20                                          
   6 lines in following misc. output table
  FWHM = 0.031 ppm    S/N =   2                                            
  Data shift =-0.023 ppm                                                   
  Ph:  26 deg     -31.4 deg/ppm                                            
  alphaB,S = 8.5E+01,   6.4E+00                                            
   14 spline knots.   Ns = 5(1)                                            
   2 inflections.     1 extrema                                            
  498 points on ppm-axis = NY
      4.000000     3.992357     3.984714     3.977070     3.969427     3.961784     3.954141     3.946497     3.938854     3.931211
      3.923568     3.915925     3.908281     3.900638     3.892995     3.885352     3.877708     3.870065     3.862422     3.854779
      3.847136     3.839492     3.831849     3.824206     3.816563     3.808919     3.801276     3.793633     3.785990     3.778347
      3.770703     3.763060     3.755417     3.747774     3.740130     3.732487     3.724844     3.717201     3.709558     3.701914
      3.694271     3.686628     3.678985     3.671341     3.663698     3.656055     3.648412     3.640769     3.633125     3.625482
      3.617839     3.610196     3.602552     3.594909     3.587266     3.579623     3.571980     3.564336     3.556693     3.549050
      3.541407     3.533763     3.526120     3.518477     3.510834     3.503191     3.495547     3.487904     3.480261     3.472618
      3.464974     3.457331     3.449688     3.442045     3.434402     3.426758     3.419115     3.411472     3.403829     3.396185
      3.388542     3.380899     3.373256     3.365613     3.357969     3.350326     3.342683     3.335040     3.327396     3.319753
      3.312110     3.304467     3.296824     3.289180     3.281537     3.273894     3.266251     3.258607     3.250964     3.243321
      3.235678     3.228034     3.220391     3.212748     3.205105     3.197462     3.189818     3.182175     3.174532     3.166889
      3.159245     3.151602     3.143959     3.136316     3.128673     3.121029     3.113386     3.105743     3.098100     3.090456
      3.082813     3.075170     3.067527     3.059884     3.052240     3.044597     3.036954     3.029311     3.021667     3.014024
      3.006381     2.998738     2.991095     2.983451     2.975808     2.968165     2.960522     2.952878     2.945235     2.937592
      2.929949     2.922306     2.914662     2.907019     2.899376     2.891733     2.884089     2.876446     2.868803     2.861160
      2.853517     2.845873     2.838230     2.830587     2.822944     2.815300     2.807657     2.800014     2.792371     2.784728
      2.777084     2.769441     2.761798     2.754155     2.746511     2.738868     2.731225     2.723582     2.715939     2.708295
      2.700652     2.693009     2.685366     2.677722     2.670079     2.662436     2.654793     2.647150     2.639506     2.631863
      2.624220     2.616577     2.608933     2.601290     2.593647     2.586004     2.578361     2.570717     2.563074     2.555431
      2.547788     2.540144     2.532501     2.524858     2.517215     2.509572     2.501928     2.494285     2.486642     2.478999
      2.471355     2.463712     2.456069     2.448426     2.440783     2.433139     2.425496     2.417853     2.410210     2.402566
      2.394923     2.387280     2.379637     2.371994     2.364350     2.356707     2.349064     2.341421     2.333777     2.326134
      2.318491     2.310848     2.303205     2.295561     2.287918     2.280275     2.272632     2.264988     2.257345     2.249702
      2.242059     2.234416     2.226772     2.219129     2.211486     2.203843     2.196199     2.188556     2.180913     2.173270
      2.165627     2.157983     2.150340     2.142697     2.135054     2.127410     2.119767     2.112124     2.104481     2.096838
      2.089194     2.081551     2.073908     2.066265     2.058621     2.050978     2.043335     2.035692     2.028049     2.020405
      2.012762     2.005119     1.997476     1.989833     1.982190     1.974546     1.966903     1.959260     1.951617     1.943974
      1.936331     1.928688     1.921045     1.913402     1.905759     1.898115     1.890472     1.882829     1.875186     1.867543
      1.859900     1.852257     1.844614     1.836971     1.829327     1.821684     1.814041     1.806398     1.798755     1.791112
      1.783469     1.775826     1.768183     1.760540     1.752896     1.745253     1.737610     1.729967     1.722324     1.714681
      1.707038     1.699395     1.691752     1.684108     1.676465     1.668822     1.661179     1.653536     1.645893     1.638250
      1.630607     1.622964     1.615321     1.607677     1.600034     1.592391     1.584748     1.577105     1.569462     1.561819
      1.554176     1.546533     1.538890     1.531246     1.523603     1.515960     1.508317     1.500674     1.493031     1.485388
      1.477745     1.470102     1.462458     1.454815     1.447172     1.439529     1.431886     1.424243     1.416600     1.408957
      1.401314     1.393671     1.386027     1.378384     1.370741     1.363098     1.355455     1.347812     1.340169     1.332526
      1.324883     1.317240     1.309596     1.301953     1.294310     1.286667     1.279024     1.271381     1.263738     1.256095
      1.248452     1.240808     1.233165     1.225522     1.217879     1.210236     1.202593     1.194950     1.187307     1.179664
      1.172021     1.164377     1.156734     1.149091     1.141448     1.133805     1.126162     1.118519     1.110876     1.103233
      1.095590     1.087946     1.080303     1.072660     1.065017     1.057374     1.049731     1.042088     1.034445     1.026802
      1.019158     1.011515     1.003872     0.996229     0.988586     0.980943     0.973300     0.965657     0.958014     0.950371
      0.942727     0.935084     0.927441     0.919798     0.912155     0.904512     0.896869     0.889226     0.881583     0.873940
      0.866296     0.858653     0.851010     0.843367     0.835724     0.828081     0.820438     0.812795     0.805152     0.797508
      0.789865     0.782222     0.774579     0.766936     0.759293     0.751650     0.744007     0.736364     0.728721     0.721077
      0.713434     0.705791     0.698148     0.690505     0.682862     0.675219     0.667576     0.659933     0.652290     0.644646
      0.637003     0.629360     0.621717     0.614074     0.606431     0.598788     0.591145     0.583502     0.575858     0.568215
      0.560572     0.552929     0.545286     0.537643     0.530000     0.522357     0.514714     0.507071     0.499427     0.491784
      0.484141     0.476498     0.468855     0.461212     0.453569     0.445925     0.438282     0.430639     0.422996     0.415353
      0.407710     0.400067     0.392424     0.384780     0.377137     0.369494     0.361851     0.354208     0.346565     0.338922
      0.331278     0.323635     0.315992     0.308349     0.300706     0.293063     0.285420     0.277777     0.270133     0.262490
      0.254847     0.247204     0.239561     0.231918     0.224275     0.216631     0.208988     0.201345
 NY phased data points follow
   2.07485E+00  4.27387E+00  3.56941E+00  2.94650E+00  5.79359E+00  6.59391E+00  3.06865E+00  5.29834E+00  6.03961E+00  7.99647E+00
   8.80018E+00  7.71335E+00  3.88865E+00  6.56133E+00  6.14108E+00  5.04897E+00  1.60911E+00  7.32906E+00  7.74334E+00  5.57304E+00
   6.24927E+00  7.00270E+00  2.74954E+00  4.75567E+00  2.31806E+00  5.77093E+00  6.73224E+00  6.50181E+00  3.60388E+00  5.46915E+00
   3.92618E+00  5.59462E+00  4.83194E+00  5.81239E+00  5.54320E+00  4.51163E+00  5.12647E+00  6.59851E+00  2.39041E+00  6.89876E+00
   5.84211E+00  5.22552E+00  7.15144E+00  7.34026E+00  3.74945E+00  6.29574E+00  4.46560E+00  5.91472E+00  3.58532E+00  4.47237E+00
   6.44979E+00  8.32384E+00  3.95026E+00  3.77828E+00  4.41775E+00  4.68254E+00  4.72909E+00  4.91372E+00  5.28271E+00  5.02375E+00
   7.73582E+00  4.16179E+00  5.74177E+00  6.24800E+00  2.32903E+00  5.53497E+00  6.67244E+00  5.98547E+00  4.56500E+00  6.20943E+00
   4.77445E+00  6.50588E+00  3.72345E+00  4.74897E+00  6.34025E+00  2.93555E+00  2.83103E+00  9.61234E+00  6.63699E+00  4.15501E+00
   4.38547E+00  5.91836E+00 -2.46892E-01  7.21140E+00  4.92981E+00  6.77431E+00  1.20626E+00  6.50249E+00  5.04395E+00  4.78356E+00
   3.73695E+00  3.08161E+00  6.53215E+00  6.81286E+00  3.61301E+00  6.28782E+00  5.67826E+00  3.24666E+00  3.66657E+00  5.97539E+00
   7.22742E+00  6.61516E+00  6.58821E+00  8.30950E+00  8.79193E+00  1.16871E+01  7.94799E+00  5.13290E+00  6.75504E+00  6.87948E+00
   5.62983E+00  6.26388E+00  5.98220E+00  5.52979E+00  6.25227E+00  4.42666E+00  4.54563E+00  5.18906E+00  3.75438E+00  3.55752E+00
   6.62158E+00  3.48851E+00  3.48649E+00  4.05286E+00  2.97123E+00  4.76902E+00  5.37703E+00  7.76007E+00  7.83791E+00  8.17423E+00
   9.38334E+00  6.05538E+00  2.71967E+00  6.28239E+00  4.65911E+00  2.44266E+00  5.30667E+00  2.39023E+00  2.63529E+00  5.63237E+00
   6.86086E+00  5.24284E+00  3.56568E+00  1.58989E+00  2.50723E+00  4.98899E+00  3.83398E+00  2.63196E+00  3.66055E+00  3.36094E+00
   3.57195E+00  3.61307E+00  2.59967E+00  4.31025E+00  4.08317E+00  3.37352E+00  4.03175E+00  3.01276E+00  4.97791E+00  2.82016E+00
   3.58883E+00  6.42539E+00  1.28815E+00  5.55635E+00  5.54426E+00  3.73396E+00  2.95478E+00  5.00131E+00  8.50782E+00  5.73123E+00
   3.64828E+00  5.83697E+00  2.44166E+00  4.93309E+00  4.84231E+00  1.13924E+00  4.29312E+00  3.95720E+00  3.32792E+00  4.14095E+00
   3.77786E+00  3.41394E+00  1.22566E+00  2.45474E+00  1.41919E+00  4.01759E+00  2.54114E+00  6.80025E+00  3.70232E+00  5.35095E+00
   3.04585E+00  3.78511E+00  5.49161E+00  2.27641E+00  4.13424E+00  4.88264E+00  1.70555E+00  1.36903E+00  2.53241E+00  2.73069E+00
   4.18407E+00  4.58611E+00  5.80825E+00  3.60070E+00  3.65497E+00  4.07559E+00  5.12636E+00  4.87644E+00  9.12782E-01  2.62077E+00
   1.48614E+00  2.31373E+00  8.73593E-01  4.33921E+00  6.08687E+00  4.45608E+00  4.67852E+00  4.85525E+00  4.55884E+00  3.88303E+00
   4.06028E+00  2.83587E+00  9.99248E-01  4.18881E+00  3.77718E+00  2.33656E+00  4.35243E+00  4.90251E+00  2.55208E+00  6.50701E+00
   5.33741E-01  3.68649E+00  1.67402E+00  5.12926E+00  4.21318E+00  2.49742E+00  4.96184E+00  4.95167E+00  1.50816E+00  2.12123E+00
   3.94664E+00  4.29131E+00  3.26248E+00  1.54857E+00  5.82046E+00  6.53679E+00  5.50696E+00  3.85403E+00 -1.61755E+00  3.91245E+00
   4.41174E+00  4.02797E+00  6.44209E+00  1.53566E+00  5.61821E+00  2.23907E+00  1.44315E+00  3.78388E+00  1.37109E+00  3.86693E+00
   7.91900E+00  8.93304E+00  4.72247E+00  7.70185E+00  3.08009E+00  2.00083E+00  4.35264E+00  6.19211E+00  2.28183E+00  1.61373E+00
   2.73595E+00  4.66874E+00  3.14671E+00  4.06458E+00  3.17390E+00  4.91264E+00  3.79808E+00  2.89013E+00  2.85099E+00  5.51471E+00
   2.17082E-01  3.01021E+00  1.63575E+00  3.71917E+00  2.20932E+00 -7.66208E-01  5.38108E-01  2.22714E+00  2.28657E+00  3.38112E+00
   4.53049E+00  3.58777E+00  3.18610E+00  4.36842E+00  3.20335E+00  1.05668E+00  4.56567E+00  2.86988E+00  1.99948E+00  2.11868E+00
   2.80273E+00  1.75327E+00  1.22928E+00  3.59346E+00  3.10739E+00 -8.38923E-01  2.86675E+00  4.94957E+00  3.11494E+00  2.47793E+00
   3.66123E+00  2.73706E+00  5.00679E-01  2.07074E+00  4.74172E+00  1.39790E+00  1.91693E+00  4.00811E+00  3.13708E+00  4.47610E+00
   2.69001E+00  5.23688E-01  1.92326E+00  3.89767E+00  2.41198E+00  1.61708E+00  2.25148E+00  2.35861E+00  1.98312E+00  2.43428E+00
   2.17912E+00 -5.38568E-01  2.90369E+00  1.10519E+00  2.21076E+00  2.44891E+00  3.62482E+00  5.60772E+00  3.55033E+00  3.57498E+00
   1.25597E+00  1.24151E-01  1.24366E+00  2.51720E+00  3.94171E-01  5.25334E+00  1.61822E+00  3.03872E+00  2.99294E+00  5.02505E+00
   5.00421E+00  2.37995E+00  4.71964E+00  5.49686E+00  2.87075E+00  2.36958E+00  2.91973E-01  3.77555E+00  2.67072E+00  2.76912E+00
   3.01902E+00  7.66498E-01  2.93013E+00  3.82036E+00  2.65770E+00  3.15858E+00  1.07584E+00  1.97251E+00 -2.92027E+00  2.80324E-01
   4.03648E+00  2.92974E+00  9.05751E-01 -1.04922E+00  3.54186E+00 -1.23000E+00 -1.40086E+00  1.75447E+00  3.99302E+00 -4.28451E-01
  -1.97915E+00  9.59035E-01  1.20081E+00  2.39788E+00  3.30842E+00  4.20590E+00  3.15348E+00  6.19691E-01  1.44747E+00  2.93774E+00
   9.40562E-01  2.08401E+00  4.75022E+00  3.32133E+00  3.44596E+00 -1.32394E-01  2.07564E+00 -3.53635E-01  4.22775E+00  6.06445E+00
  -1.48531E-01  2.32765E+00 -1.07584E+00  4.78348E+00  4.51683E+00  4.60467E+00  3.31427E+00  2.14723E+00  1.82864E+00  6.05133E-01
   6.14516E-01  6.67919E-01  2.92037E+00  4.84105E+00 -9.55597E-01  1.57279E+00  6.98693E-01  2.93727E+00  2.33786E-01  3.11930E+00
   5.72241E-01  3.64085E+00  1.16204E+00  3.54698E-01  4.98235E-01  2.86261E+00  1.25828E+00  1.74369E+00 -9.01820E-01  1.76420E+00
   4.51566E+00 -6.01540E-02  3.02913E+00  1.07620E+00  2.46486E+00 -1.28301E-01 -1.24580E+00  4.19273E-01  1.00864E+00  3.58654E+00
   1.24680E-01  6.76069E-01  2.75597E+00  2.32870E+00 -1.58013E+00 -1.11554E+00  1.83790E+00  2.44642E+00  1.47986E+00  3.14643E+00
  -2.98138E-01  2.66139E+00 -1.65577E+00  8.51058E-02  7.82406E-01  1.97416E+00  2.32972E+00 -3.05732E+00  4.97524E-01  2.01370E+00
   1.83481E+00  2.19419E-01  1.96879E+00  5.47809E-01 -8.32222E-01 -2.05404E-01  2.25191E+00 -2.26360E+00  1.17992E+00  1.60290E+00
   2.17982E+00 -4.52592E-01  2.41235E+00  1.34411E+00  2.54094E-01  1.43177E-01  5.97501E-01 -1.16496E+00  2.20260E+00  1.37140E+00
   9.94461E-01 -4.66474E-01  2.31089E+00 -6.20910E-01  3.25407E-01 -5.43342E-01  5.02336E-01  2.42374E+00  7.56696E-01  5.53507E-01
  -2.29250E-01 -1.33377E+00 -5.37338E-01 -3.26338E+00  7.38481E-01  8.36674E-01 -1.92449E+00 -7.96928E-01
 NY points of the fit to the data follow
   5.51504E+00  5.49649E+00  5.48757E+00  5.48131E+00  5.43664E+00  5.42088E+00  5.54539E+00  5.84882E+00  6.47244E+00  7.27347E+00
   7.79234E+00  7.69717E+00  7.00478E+00  6.14244E+00  5.64581E+00  5.46958E+00  5.35063E+00  5.29985E+00  5.25896E+00  5.22700E+00
   5.23035E+00  5.29865E+00  5.41011E+00  5.52962E+00  5.61427E+00  5.57984E+00  5.36245E+00  4.99223E+00  4.64654E+00  4.51765E+00
   4.69962E+00  5.12968E+00  5.64263E+00  6.01839E+00  6.06419E+00  5.74883E+00  5.26947E+00  4.88660E+00  4.72417E+00  4.78628E+00
   4.97469E+00  5.15254E+00  5.21105E+00  5.16317E+00  5.11200E+00  5.10215E+00  5.15525E+00  5.25518E+00  5.32654E+00  5.30996E+00
   5.18938E+00  5.03760E+00  4.94145E+00  4.91165E+00  4.91398E+00  4.92015E+00  4.91071E+00  4.89870E+00  4.90083E+00  4.91798E+00
   4.94518E+00  4.96194E+00  4.94501E+00  4.89748E+00  4.84350E+00  4.80974E+00  4.80061E+00  4.80343E+00  4.80682E+00  4.80098E+00
   4.78031E+00  4.76591E+00  4.77083E+00  4.78987E+00  4.83373E+00  4.88165E+00  4.90410E+00  4.87835E+00  4.79222E+00  4.67726E+00
   4.59905E+00  4.57701E+00  4.59984E+00  4.65273E+00  4.71440E+00  4.77619E+00  4.81841E+00  4.80853E+00  4.73413E+00  4.62457E+00
   4.54670E+00  4.53914E+00  4.55241E+00  4.54045E+00  4.50395E+00  4.47241E+00  4.46860E+00  4.48357E+00  4.42604E+00  4.42172E+00
   4.71324E+00  5.45701E+00  6.96296E+00  8.88129E+00  1.01375E+01  9.91891E+00  8.30734E+00  6.33895E+00  5.18922E+00  4.75726E+00
   4.49436E+00  4.39764E+00  4.35812E+00  4.34109E+00  4.33095E+00  4.32569E+00  4.32232E+00  4.31954E+00  4.31658E+00  4.31090E+00
   4.30278E+00  4.27370E+00  4.15883E+00  4.14134E+00  4.37869E+00  5.01460E+00  6.26374E+00  7.72379E+00  8.54505E+00  8.22127E+00
   6.90713E+00  5.47166E+00  4.72951E+00  4.41562E+00  4.20710E+00  4.12855E+00  4.09301E+00  4.07352E+00  4.06209E+00  4.05223E+00
   4.04133E+00  4.02463E+00  3.99780E+00  3.97185E+00  3.95876E+00  3.95875E+00  3.95942E+00  3.94505E+00  3.91604E+00  3.88159E+00
   3.85182E+00  3.83244E+00  3.81743E+00  3.80280E+00  3.78931E+00  3.77739E+00  3.76769E+00  3.75376E+00  3.73061E+00  3.69047E+00
   3.62965E+00  3.57192E+00  3.54265E+00  3.55838E+00  3.60956E+00  3.65206E+00  3.65383E+00  3.62432E+00  3.58101E+00  3.54555E+00
   3.52560E+00  3.50743E+00  3.48840E+00  3.46315E+00  3.43191E+00  3.39234E+00  3.35976E+00  3.35354E+00  3.37528E+00  3.40273E+00
   3.40071E+00  3.36262E+00  3.33041E+00  3.33268E+00  3.35628E+00  3.37081E+00  3.35170E+00  3.32959E+00  3.33856E+00  3.38235E+00
   3.43244E+00  3.45027E+00  3.41536E+00  3.35209E+00  3.28187E+00  3.21289E+00  3.15571E+00  3.11875E+00  3.10612E+00  3.13896E+00
   3.24822E+00  3.44048E+00  3.68290E+00  3.88733E+00  4.00107E+00  4.00051E+00  3.83435E+00  3.50945E+00  3.04178E+00  2.49117E+00
   2.08938E+00  2.02614E+00  2.35783E+00  2.95496E+00  3.55496E+00  3.98193E+00  4.23622E+00  4.24689E+00  3.96817E+00  3.53174E+00
   3.11340E+00  2.78176E+00  2.54357E+00  2.54319E+00  2.80728E+00  3.21133E+00  3.55636E+00  3.71153E+00  3.72918E+00  3.69340E+00
   3.61763E+00  3.53600E+00  3.47677E+00  3.44450E+00  3.40688E+00  3.31546E+00  3.21340E+00  3.23243E+00  3.43842E+00  3.74959E+00
   4.02597E+00  4.12394E+00  4.02911E+00  3.80638E+00  3.56385E+00  3.40416E+00  3.37538E+00  3.39807E+00  3.41541E+00  3.47436E+00
   3.55097E+00  3.64316E+00  3.77002E+00  3.90490E+00  3.96170E+00  3.84442E+00  3.67419E+00  3.66898E+00  3.97354E+00  4.87763E+00
   6.20056E+00  7.17994E+00  7.19966E+00  6.21378E+00  4.87010E+00  4.02827E+00  3.66153E+00  3.39328E+00  3.25412E+00  3.15956E+00
   3.06768E+00  2.99020E+00  2.94419E+00  2.93026E+00  2.93587E+00  2.94281E+00  2.93633E+00  2.90962E+00  2.86995E+00  2.82203E+00
   2.76886E+00  2.72038E+00  2.68241E+00  2.65462E+00  2.63649E+00  2.62598E+00  2.62067E+00  2.61819E+00  2.61541E+00  2.61204E+00
   2.60971E+00  2.60925E+00  2.60952E+00  2.60995E+00  2.61177E+00  2.61529E+00  2.61979E+00  2.62551E+00  2.63199E+00  2.63779E+00
   2.64255E+00  2.64576E+00  2.64718E+00  2.64652E+00  2.64352E+00  2.63793E+00  2.62967E+00  2.61893E+00  2.60609E+00  2.59143E+00
   2.57542E+00  2.55860E+00  2.54146E+00  2.52455E+00  2.50851E+00  2.49395E+00  2.48144E+00  2.47147E+00  2.46450E+00  2.46090E+00
   2.46070E+00  2.46233E+00  2.46783E+00  2.51320E+00  2.59931E+00  2.72387E+00  2.86118E+00  2.89869E+00  2.75143E+00  2.45647E+00
   2.11945E+00  1.89824E+00  1.83760E+00  1.83571E+00  1.94557E+00  2.21563E+00  2.54648E+00  2.79516E+00  2.85106E+00  2.74411E+00
   2.63235E+00  2.56428E+00  2.51300E+00  2.48940E+00  2.48892E+00  2.51058E+00  2.55575E+00  2.62562E+00  2.71963E+00  2.83437E+00
   2.96294E+00  3.09507E+00  3.21798E+00  3.31794E+00  3.38235E+00  3.40182E+00  3.37182E+00  3.29354E+00  3.17362E+00  3.02290E+00
   2.85444E+00  2.68135E+00  2.51501E+00  2.36382E+00  2.23277E+00  2.12362E+00  2.03552E+00  1.96597E+00  1.91164E+00  1.86914E+00
   1.83547E+00  1.80822E+00  1.78559E+00  1.76637E+00  1.74984E+00  1.73566E+00  1.72378E+00  1.71429E+00  1.70740E+00  1.70337E+00
   1.70254E+00  1.70529E+00  1.71203E+00  1.72315E+00  1.73900E+00  1.75990E+00  1.78614E+00  1.81793E+00  1.85536E+00  1.89835E+00
   1.94665E+00  1.99980E+00  2.05717E+00  2.11786E+00  2.18077E+00  2.24453E+00  2.30760E+00  2.36831E+00  2.42493E+00  2.47570E+00
   2.51891E+00  2.55300E+00  2.57663E+00  2.58876E+00  2.58874E+00  2.57624E+00  2.55136E+00  2.51453E+00  2.46661E+00  2.40875E+00
   2.34235E+00  2.26897E+00  2.19025E+00  2.10785E+00  2.02339E+00  1.93841E+00  1.85425E+00  1.77204E+00  1.69271E+00  1.61696E+00
   1.54534E+00  1.47815E+00  1.41554E+00  1.35750E+00  1.30388E+00  1.25450E+00  1.20911E+00  1.16740E+00  1.12904E+00  1.09369E+00
   1.06103E+00  1.03076E+00  1.00263E+00  9.76368E-01  9.51740E-01  9.28525E-01  9.06551E-01  8.85672E-01  8.65768E-01  8.46709E-01
   8.28381E-01  8.10687E-01  7.93566E-01  7.76965E-01  7.60833E-01  7.45106E-01  7.29730E-01  7.14667E-01  6.99902E-01  6.85414E-01
   6.71176E-01  6.57150E-01  6.43310E-01  6.29645E-01  6.16158E-01  6.02837E-01  5.89663E-01  5.76606E-01  5.63659E-01  5.50821E-01
   5.38101E-01  5.25484E-01  5.12955E-01  5.00494E-01  4.88106E-01  4.75796E-01  4.63571E-01  4.51413E-01  4.39306E-01  4.27240E-01
   4.15226E-01  4.03272E-01  3.91378E-01  3.79525E-01  3.67702E-01  3.55909E-01  3.44159E-01  3.32458E-01  3.20798E-01  3.09159E-01
   2.97538E-01  2.85940E-01  2.74382E-01  2.62859E-01  2.51364E-01  2.39876E-01  2.28402E-01  2.16949E-01  2.05532E-01  1.94140E-01
   1.82761E-01  1.71383E-01  1.60016E-01  1.48671E-01  1.37356E-01  1.26055E-01  1.14756E-01  1.03453E-01
 NY background values follow
     5.336E+00    5.325E+00    5.315E+00    5.304E+00    5.294E+00    5.283E+00    5.273E+00    5.263E+00    5.252E+00    5.242E+00
     5.231E+00    5.221E+00    5.210E+00    5.200E+00    5.190E+00    5.179E+00    5.169E+00    5.158E+00    5.148E+00    5.137E+00
     5.127E+00    5.116E+00    5.106E+00    5.095E+00    5.085E+00    5.075E+00    5.064E+00    5.054E+00    5.043E+00    5.033E+00
     5.022E+00    5.012E+00    5.001E+00    4.991E+00    4.980E+00    4.970E+00    4.959E+00    4.949E+00    4.938E+00    4.928E+00
     4.917E+00    4.907E+00    4.896E+00    4.886E+00    4.875E+00    4.865E+00    4.854E+00    4.844E+00    4.833E+00    4.823E+00
     4.812E+00    4.802E+00    4.791E+00    4.781E+00    4.770E+00    4.760E+00    4.749E+00    4.739E+00    4.728E+00    4.718E+00
     4.707E+00    4.697E+00    4.686E+00    4.676E+00    4.665E+00    4.655E+00    4.644E+00    4.634E+00    4.623E+00    4.613E+00
     4.602E+00    4.592E+00    4.581E+00    4.571E+00    4.560E+00    4.549E+00    4.539E+00    4.528E+00    4.518E+00    4.507E+00
     4.497E+00    4.486E+00    4.476E+00    4.465E+00    4.455E+00    4.444E+00    4.433E+00    4.423E+00    4.412E+00    4.402E+00
     4.391E+00    4.381E+00    4.370E+00    4.360E+00    4.349E+00    4.338E+00    4.328E+00    4.317E+00    4.307E+00    4.296E+00
     4.286E+00    4.275E+00    4.264E+00    4.254E+00    4.243E+00    4.233E+00    4.222E+00    4.212E+00    4.201E+00    4.190E+00
     4.180E+00    4.169E+00    4.159E+00    4.148E+00    4.137E+00    4.127E+00    4.116E+00    4.106E+00    4.095E+00    4.085E+00
     4.074E+00    4.063E+00    4.053E+00    4.042E+00    4.032E+00    4.021E+00    4.010E+00    4.000E+00    3.989E+00    3.979E+00
     3.968E+00    3.957E+00    3.947E+00    3.936E+00    3.925E+00    3.915E+00    3.904E+00    3.894E+00    3.883E+00    3.872E+00
     3.862E+00    3.851E+00    3.841E+00    3.830E+00    3.819E+00    3.809E+00    3.798E+00    3.787E+00    3.777E+00    3.766E+00
     3.756E+00    3.745E+00    3.734E+00    3.724E+00    3.713E+00    3.702E+00    3.692E+00    3.681E+00    3.671E+00    3.660E+00
     3.649E+00    3.639E+00    3.628E+00    3.617E+00    3.607E+00    3.596E+00    3.585E+00    3.575E+00    3.564E+00    3.553E+00
     3.543E+00    3.532E+00    3.522E+00    3.511E+00    3.500E+00    3.490E+00    3.479E+00    3.468E+00    3.458E+00    3.447E+00
     3.436E+00    3.426E+00    3.415E+00    3.404E+00    3.394E+00    3.383E+00    3.372E+00    3.362E+00    3.351E+00    3.340E+00
     3.330E+00    3.319E+00    3.308E+00    3.298E+00    3.287E+00    3.276E+00    3.266E+00    3.255E+00    3.244E+00    3.234E+00
     3.223E+00    3.212E+00    3.202E+00    3.191E+00    3.180E+00    3.170E+00    3.159E+00    3.148E+00    3.138E+00    3.127E+00
     3.116E+00    3.106E+00    3.095E+00    3.084E+00    3.074E+00    3.063E+00    3.052E+00    3.042E+00    3.031E+00    3.020E+00
     3.009E+00    2.999E+00    2.988E+00    2.977E+00    2.967E+00    2.956E+00    2.945E+00    2.935E+00    2.924E+00    2.913E+00
     2.903E+00    2.892E+00    2.881E+00    2.871E+00    2.860E+00    2.849E+00    2.838E+00    2.828E+00    2.817E+00    2.806E+00
     2.796E+00    2.785E+00    2.774E+00    2.764E+00    2.753E+00    2.742E+00    2.731E+00    2.721E+00    2.710E+00    2.699E+00
     2.689E+00    2.678E+00    2.667E+00    2.657E+00    2.646E+00    2.635E+00    2.624E+00    2.614E+00    2.603E+00    2.592E+00
     2.582E+00    2.571E+00    2.560E+00    2.550E+00    2.539E+00    2.528E+00    2.517E+00    2.507E+00    2.496E+00    2.485E+00
     2.475E+00    2.464E+00    2.453E+00    2.442E+00    2.432E+00    2.421E+00    2.410E+00    2.400E+00    2.389E+00    2.378E+00
     2.367E+00    2.357E+00    2.346E+00    2.335E+00    2.325E+00    2.314E+00    2.303E+00    2.292E+00    2.282E+00    2.271E+00
     2.260E+00    2.250E+00    2.239E+00    2.228E+00    2.217E+00    2.207E+00    2.196E+00    2.185E+00    2.175E+00    2.164E+00
     2.153E+00    2.142E+00    2.132E+00    2.121E+00    2.110E+00    2.100E+00    2.089E+00    2.078E+00    2.067E+00    2.057E+00
     2.046E+00    2.035E+00    2.025E+00    2.014E+00    2.003E+00    1.992E+00    1.982E+00    1.971E+00    1.960E+00    1.949E+00
     1.939E+00    1.928E+00    1.917E+00    1.907E+00    1.896E+00    1.885E+00    1.874E+00    1.864E+00    1.853E+00    1.842E+00
     1.832E+00    1.821E+00    1.810E+00    1.799E+00    1.789E+00    1.778E+00    1.767E+00    1.756E+00    1.746E+00    1.735E+00
     1.724E+00    1.714E+00    1.703E+00    1.692E+00    1.681E+00    1.671E+00    1.660E+00    1.649E+00    1.639E+00    1.628E+00
     1.617E+00    1.606E+00    1.596E+00    1.585E+00    1.574E+00    1.564E+00    1.553E+00    1.542E+00    1.531E+00    1.521E+00
     1.510E+00    1.499E+00    1.488E+00    1.478E+00    1.467E+00    1.456E+00    1.446E+00    1.435E+00    1.424E+00    1.413E+00
     1.403E+00    1.392E+00    1.381E+00    1.371E+00    1.360E+00    1.349E+00    1.338E+00    1.328E+00    1.317E+00    1.306E+00
     1.296E+00    1.285E+00    1.274E+00    1.263E+00    1.253E+00    1.242E+00    1.231E+00    1.221E+00    1.210E+00    1.199E+00
     1.188E+00    1.178E+00    1.167E+00    1.156E+00    1.146E+00    1.135E+00    1.124E+00    1.113E+00    1.103E+00    1.092E+00
     1.081E+00    1.071E+00    1.060E+00    1.049E+00    1.038E+00    1.028E+00    1.017E+00    1.006E+00    9.956E-01    9.849E-01
     9.742E-01    9.635E-01    9.527E-01    9.420E-01    9.313E-01    9.206E-01    9.099E-01    8.992E-01    8.885E-01    8.778E-01
     8.671E-01    8.564E-01    8.457E-01    8.350E-01    8.243E-01    8.136E-01    8.029E-01    7.922E-01    7.815E-01    7.708E-01
     7.601E-01    7.494E-01    7.387E-01    7.280E-01    7.173E-01    7.066E-01    6.959E-01    6.852E-01    6.745E-01    6.638E-01
     6.531E-01    6.424E-01    6.317E-01    6.211E-01    6.104E-01    5.997E-01    5.890E-01    5.783E-01    5.676E-01    5.569E-01
     5.462E-01    5.355E-01    5.248E-01    5.142E-01    5.035E-01    4.928E-01    4.821E-01    4.714E-01    4.607E-01    4.501E-01
     4.394E-01    4.287E-01    4.180E-01    4.073E-01    3.967E-01    3.860E-01    3.753E-01    3.646E-01    3.539E-01    3.433E-01
     3.326E-01    3.219E-01    3.112E-01    3.006E-01    2.899E-01    2.792E-01    2.686E-01    2.579E-01    2.472E-01    2.365E-01
     2.259E-01    2.152E-01    2.045E-01    1.939E-01    1.832E-01    1.725E-01    1.619E-01    1.512E-01    1.406E-01    1.299E-01
     1.192E-01    1.086E-01    9.792E-02    8.726E-02    7.660E-02    6.594E-02    5.529E-02    4.463E-02
 Ala      Conc. = 2.57E+01
