 LCModel (Version 6.3-1L) Copyright: S.W. Provencher.          Ref.: Magn. Reson. Med. 30:672-679 (1993).                
 Slice#1 Row#7 Col#6  PD_24_press_1_raw_act
 36 lines in following concentration table = NCONC+1
    Conc.  %SD /Cr+PCr  Metabolite                                         
    0.000 999%   0.000 Ala                                                 
   51.529 197% 9.2E-02 Asp                                                 
  248.139  49%   0.443 Cr                                                  
  311.489  41%   0.557 PCr                                                 
   67.789  89%   0.121 GABA                                                
   92.785  68%   0.166 Glc                                                 
  353.667  39%   0.632 Gln                                                 
  541.025  29%   0.967 Glu                                                 
  243.424  62%   0.435 GPC                                                 
    0.123 999% 2.2E-04 PCh                                                 
  131.465  40%   0.235 GSH                                                 
  463.650  37%   0.828 Ins                                                 
   48.275 155% 8.6E-02 Lac                                                 
  901.581   8%   1.611 NAA                                                 
   38.865 179% 6.9E-02 NAAG                                                
   30.771  53% 5.5E-02 Scyllo                                              
   79.548 118%   0.142 Tau                                                 
  245.165  35%   0.438 -CrCH2                                              
  243.547   8%   0.435 GPC+PCh                                             
  940.446   7%   1.680 NAA+NAAG                                            
  559.628   9%   1.000 Cr+PCr                                              
  894.692  23%   1.599 Glu+Gln                                             
  806.647 135%   1.441 Lip13a                                              
  754.700 120%   1.349 Lip13b                                              
  228.996  77%   0.409 Lip09                                               
  189.427  80%   0.338 MM09                                                
  278.381  52%   0.497 Lip20                                               
  358.039  65%   0.640 MM20                                                
   57.841  96%   0.103 MM12                                                
  110.089 160%   0.197 MM14                                                
    0.000 999%   0.000 MM17                                                
 1.56E+03  22%   2.790 Lip13a+Lip13b                                       
 1.73E+03  16%   3.090 MM14+Lip13a+Lip13b+MM12                             
  418.423  34%   0.748 MM09+Lip09                                          
  636.420  36%   1.137 MM20+Lip20                                          
   6 lines in following misc. output table
  FWHM = 0.038 ppm    S/N =   6                                            
  Data shift = 0.015 ppm                                                   
  Ph: -40 deg       0.2 deg/ppm                                            
  alphaB,S = 8.5E+01,   1.3E+01                                            
   14 spline knots.   Ns = 5(1)                                            
   2 inflections.     2 extrema                                            
  498 points on ppm-axis = NY
      4.000000     3.992357     3.984714     3.977070     3.969427     3.961784     3.954141     3.946497     3.938854     3.931211
      3.923568     3.915925     3.908281     3.900638     3.892995     3.885352     3.877708     3.870065     3.862422     3.854779
      3.847136     3.839492     3.831849     3.824206     3.816563     3.808919     3.801276     3.793633     3.785990     3.778347
      3.770703     3.763060     3.755417     3.747774     3.740130     3.732487     3.724844     3.717201     3.709558     3.701914
      3.694271     3.686628     3.678985     3.671341     3.663698     3.656055     3.648412     3.640769     3.633125     3.625482
      3.617839     3.610196     3.602552     3.594909     3.587266     3.579623     3.571980     3.564336     3.556693     3.549050
      3.541407     3.533763     3.526120     3.518477     3.510834     3.503191     3.495547     3.487904     3.480261     3.472618
      3.464974     3.457331     3.449688     3.442045     3.434402     3.426758     3.419115     3.411472     3.403829     3.396185
      3.388542     3.380899     3.373256     3.365613     3.357969     3.350326     3.342683     3.335040     3.327396     3.319753
      3.312110     3.304467     3.296824     3.289180     3.281537     3.273894     3.266251     3.258607     3.250964     3.243321
      3.235678     3.228034     3.220391     3.212748     3.205105     3.197462     3.189818     3.182175     3.174532     3.166889
      3.159245     3.151602     3.143959     3.136316     3.128673     3.121029     3.113386     3.105743     3.098100     3.090456
      3.082813     3.075170     3.067527     3.059884     3.052240     3.044597     3.036954     3.029311     3.021667     3.014024
      3.006381     2.998738     2.991095     2.983451     2.975808     2.968165     2.960522     2.952878     2.945235     2.937592
      2.929949     2.922306     2.914662     2.907019     2.899376     2.891733     2.884089     2.876446     2.868803     2.861160
      2.853517     2.845873     2.838230     2.830587     2.822944     2.815300     2.807657     2.800014     2.792371     2.784728
      2.777084     2.769441     2.761798     2.754155     2.746511     2.738868     2.731225     2.723582     2.715939     2.708295
      2.700652     2.693009     2.685366     2.677722     2.670079     2.662436     2.654793     2.647150     2.639506     2.631863
      2.624220     2.616577     2.608933     2.601290     2.593647     2.586004     2.578361     2.570717     2.563074     2.555431
      2.547788     2.540144     2.532501     2.524858     2.517215     2.509572     2.501928     2.494285     2.486642     2.478999
      2.471355     2.463712     2.456069     2.448426     2.440783     2.433139     2.425496     2.417853     2.410210     2.402566
      2.394923     2.387280     2.379637     2.371994     2.364350     2.356707     2.349064     2.341421     2.333777     2.326134
      2.318491     2.310848     2.303205     2.295561     2.287918     2.280275     2.272632     2.264988     2.257345     2.249702
      2.242059     2.234416     2.226772     2.219129     2.211486     2.203843     2.196199     2.188556     2.180913     2.173270
      2.165627     2.157983     2.150340     2.142697     2.135054     2.127410     2.119767     2.112124     2.104481     2.096838
      2.089194     2.081551     2.073908     2.066265     2.058621     2.050978     2.043335     2.035692     2.028049     2.020405
      2.012762     2.005119     1.997476     1.989833     1.982190     1.974546     1.966903     1.959260     1.951617     1.943974
      1.936331     1.928688     1.921045     1.913402     1.905759     1.898115     1.890472     1.882829     1.875186     1.867543
      1.859900     1.852257     1.844614     1.836971     1.829327     1.821684     1.814041     1.806398     1.798755     1.791112
      1.783469     1.775826     1.768183     1.760540     1.752896     1.745253     1.737610     1.729967     1.722324     1.714681
      1.707038     1.699395     1.691752     1.684108     1.676465     1.668822     1.661179     1.653536     1.645893     1.638250
      1.630607     1.622964     1.615321     1.607677     1.600034     1.592391     1.584748     1.577105     1.569462     1.561819
      1.554176     1.546533     1.538890     1.531246     1.523603     1.515960     1.508317     1.500674     1.493031     1.485388
      1.477745     1.470102     1.462458     1.454815     1.447172     1.439529     1.431886     1.424243     1.416600     1.408957
      1.401314     1.393671     1.386027     1.378384     1.370741     1.363098     1.355455     1.347812     1.340169     1.332526
      1.324883     1.317240     1.309596     1.301953     1.294310     1.286667     1.279024     1.271381     1.263738     1.256095
      1.248452     1.240808     1.233165     1.225522     1.217879     1.210236     1.202593     1.194950     1.187307     1.179664
      1.172021     1.164377     1.156734     1.149091     1.141448     1.133805     1.126162     1.118519     1.110876     1.103233
      1.095590     1.087946     1.080303     1.072660     1.065017     1.057374     1.049731     1.042088     1.034445     1.026802
      1.019158     1.011515     1.003872     0.996229     0.988586     0.980943     0.973300     0.965657     0.958014     0.950371
      0.942727     0.935084     0.927441     0.919798     0.912155     0.904512     0.896869     0.889226     0.881583     0.873940
      0.866296     0.858653     0.851010     0.843367     0.835724     0.828081     0.820438     0.812795     0.805152     0.797508
      0.789865     0.782222     0.774579     0.766936     0.759293     0.751650     0.744007     0.736364     0.728721     0.721077
      0.713434     0.705791     0.698148     0.690505     0.682862     0.675219     0.667576     0.659933     0.652290     0.644646
      0.637003     0.629360     0.621717     0.614074     0.606431     0.598788     0.591145     0.583502     0.575858     0.568215
      0.560572     0.552929     0.545286     0.537643     0.530000     0.522357     0.514714     0.507071     0.499427     0.491784
      0.484141     0.476498     0.468855     0.461212     0.453569     0.445925     0.438282     0.430639     0.422996     0.415353
      0.407710     0.400067     0.392424     0.384780     0.377137     0.369494     0.361851     0.354208     0.346565     0.338922
      0.331278     0.323635     0.315992     0.308349     0.300706     0.293063     0.285420     0.277777     0.270133     0.262490
      0.254847     0.247204     0.239561     0.231918     0.224275     0.216631     0.208988     0.201345
 NY phased data points follow
   1.33624E+00 -7.09037E+00 -9.17386E-02 -1.16593E+00 -1.59493E+00 -1.41230E+00 -6.38253E+00 -2.55717E+00  6.91503E-01  4.71019E+00
   1.06629E+01  1.08358E+01  7.52677E+00  7.68592E+00  4.67456E+00  5.47299E-01  2.70766E+00 -5.73130E+00 -2.21569E+00 -4.97683E+00
   2.82735E+00  9.52065E-01 -3.66025E+00  5.15882E+00  3.55694E-01  4.31204E+00 -5.33888E-01  1.68477E+00  8.69597E+00  3.21686E+00
  -6.88215E-01  9.63557E+00  2.94666E+00  2.16761E+00  1.75219E+00  4.78124E-01  2.06095E-01  2.19642E-01  3.04672E+00  5.04255E+00
   3.03642E-01  5.27342E+00 -3.81258E+00  6.75339E+00  1.89124E+00 -3.82007E+00  5.13182E+00  8.19632E+00  1.90063E+00  5.81752E+00
   5.34026E+00  9.07147E+00 -4.23977E+00  5.57106E+00  1.84366E+00  6.23458E+00 -3.34567E+00  3.52831E+00 -6.95707E+00  2.39279E+00
  -2.74022E+00  2.24136E+00 -2.17189E+00 -9.67181E-01 -3.12967E-01 -6.68306E+00 -4.92051E+00 -3.94305E+00 -1.09276E+01  3.31831E+00
  -4.74935E+00  3.47606E+00 -7.71472E-01  2.44124E+00 -2.91658E+00  1.97850E+00  3.56487E-01  1.55688E+00 -1.48096E+00 -5.18585E+00
   3.17784E+00 -2.10113E+00 -5.08826E+00 -1.02295E+00 -8.87456E-01 -7.91681E-01  2.92945E+00  1.29189E+00  1.89964E+00 -3.45437E+00
  -5.38758E-01  2.25594E+00 -3.35629E+00  2.18337E+00  8.18216E+00  8.17124E+00 -4.92405E+00 -5.00184E+00 -5.48582E+00  1.35847E+00
   3.77852E+00  1.82467E+01  2.74222E+01  3.78325E+01  3.55961E+01  2.08967E+01  1.54546E+01  4.84404E+00  9.22301E+00  8.60915E-01
   3.05267E+00 -7.58410E-01 -4.52904E+00  1.80555E-01  8.41982E-01  1.28319E+00 -4.99466E+00  1.73051E+00  7.08505E+00  4.04164E+00
  -5.64693E+00 -9.09981E+00 -1.40680E+01 -3.68405E+00 -1.68761E+00  9.24243E+00  2.33230E+01  3.30985E+01  2.84104E+01  1.85566E+01
   9.48714E+00  1.08201E+01 -7.74798E-01  3.00367E-01 -9.94237E+00  3.52331E+00 -5.36698E-01  1.72587E+00  1.56272E+00  1.58374E-01
   1.67710E+00  1.51288E+00 -2.19517E+00 -4.53441E+00 -2.12474E+00 -6.41099E+00 -4.72084E-01 -3.87960E+00 -4.73263E-01 -6.14816E+00
   1.38492E+00 -1.49654E+00  1.55559E+00  3.86984E+00 -5.60275E+00 -3.66876E-01 -5.51652E-01  6.02658E+00  6.50282E-01  6.36023E+00
  -1.53575E+00 -2.32447E+00 -3.40399E+00  8.31237E-01 -8.46519E-01 -3.21065E+00 -6.14639E+00 -4.15675E+00 -5.56339E+00 -9.24549E+00
  -4.48519E+00 -1.79030E-01 -7.57087E+00 -9.27277E+00 -8.55618E+00 -6.48020E+00 -1.19355E+01 -1.05445E+01 -3.30143E+00  1.88595E-01
  -9.17525E+00 -9.09658E+00 -1.03408E+01 -6.00366E+00 -9.41822E+00 -2.48257E+00 -8.29056E+00 -4.99269E+00 -1.69547E-01 -7.90584E+00
  -7.82241E+00 -1.29768E+00 -2.33994E+00 -6.16375E+00 -4.25053E+00 -6.54418E-01 -8.22794E+00 -8.11099E+00 -5.17271E+00 -6.65580E+00
  -6.34060E+00 -1.18569E+00 -6.12284E+00  8.36499E+00 -1.07891E+00  3.23085E-01  3.11891E+00 -3.79737E+00 -4.66179E+00 -6.31290E+00
  -7.72468E+00 -1.11917E+01 -9.69059E-01 -1.87610E+00  1.53463E+00 -1.47225E+00  7.17601E+00  4.68108E+00  3.53190E+00  6.91521E+00
  -3.00155E+00 -9.44580E+00 -9.50417E+00 -8.96306E-01  2.57399E-01 -3.85978E+00 -6.19563E+00  4.98788E+00  3.55757E-01 -2.78350E-01
   8.42736E-01  1.76537E+00 -1.23319E+00 -3.28376E+00 -4.75455E+00  1.76575E-01 -4.78199E-01 -1.02720E+00  1.73107E+00  5.17590E+00
   3.16255E+00 -3.64196E+00 -7.72064E+00 -6.96340E+00  4.89668E+00  1.00132E-01  6.00384E+00 -5.96799E-01  2.59129E+00  7.32373E+00
   1.04504E+01  1.38496E+00  9.72502E+00  8.39005E+00  5.90652E+00 -3.14610E+00  4.60879E-01  6.40040E-01  2.06619E+01  4.13463E+01
   4.76634E+01  4.59648E+01  3.65722E+01  2.49547E+01  1.15926E+01  9.05185E+00  4.25597E+00  1.58479E+00 -4.03978E+00 -8.66040E-01
  -3.57429E+00 -8.29673E-01 -1.43860E+00  6.24977E+00 -3.50311E+00 -1.00255E+00 -1.96283E+00  2.02439E+00 -3.95038E+00  2.84148E+00
   1.93581E+00  6.02483E+00 -3.14052E+00 -9.34899E+00  5.24857E+00  1.66891E-01 -2.31318E+00 -1.52378E+00 -8.98043E-01 -7.28618E-01
   2.63831E+00  6.25441E+00 -2.24620E+00 -4.26404E+00 -4.50099E+00 -1.03642E+00 -6.49550E+00 -1.99008E-01 -6.60901E+00 -7.21833E+00
   2.05969E+00 -2.99116E+00  3.33633E+00 -2.53069E-01 -1.18503E+00 -6.94794E+00 -1.34208E+01 -2.80111E+00  2.57691E+00  4.61182E+00
   6.85616E-01 -2.72777E+00  1.38959E+00 -4.82868E+00 -7.17869E+00 -7.31210E+00 -1.04892E+00 -3.36216E+00 -3.36829E+00 -8.95696E+00
  -2.02836E+00 -8.86462E+00 -2.30726E+00 -1.55957E+01 -2.36853E+00  4.10130E-01 -1.93577E+00  1.29865E+00 -2.83511E+00 -3.53390E+00
  -4.81108E+00  5.36955E+00 -1.35686E-01  4.57353E+00  6.51528E+00  3.86534E+00 -1.93853E+00  7.83828E+00  5.40209E+00  2.52134E+00
  -1.16790E+00  1.74460E+00  2.80465E+00  5.37053E+00  1.93942E-01  2.88824E+00  4.59530E+00  5.43234E+00  2.05215E+00  8.41538E+00
   3.72007E+00 -1.51495E+00  1.04448E+01  8.07539E+00  1.34265E+01  1.07290E+01  8.33092E+00  1.16576E+01  7.96321E+00  6.27621E+00
   1.18501E+01  7.24284E+00  5.21361E+00  1.33184E+01  1.13791E+01  7.00589E+00  2.87748E+00 -2.14472E+00  7.47637E-01  7.39873E+00
   2.70439E+00  4.38487E+00  4.93953E+00 -1.75910E+00 -4.24185E+00 -1.65424E+00  4.08242E+00  1.62329E+00  5.32306E-01 -6.37670E+00
  -1.83375E+00 -3.14866E+00 -2.16103E+00 -5.82736E+00 -3.50696E+00 -1.92097E+00  1.11087E+00 -4.37237E+00  5.62078E+00  8.59671E+00
   1.27883E+00  3.88839E-01 -1.09379E+00 -2.17881E+00  7.95992E+00 -7.22663E-01 -3.25857E+00  1.60373E+00  2.87938E+00 -4.82155E+00
  -6.02209E-01  1.61844E+00  7.77274E-01  1.58975E+00  2.12032E+00 -1.65564E+00  6.17547E+00  1.17480E+00  2.81773E+00  4.27496E+00
   5.19413E+00  1.75256E+00 -1.90486E-01 -1.37239E+00 -8.28271E-01 -6.03648E+00 -1.01158E+01  1.59369E+00 -8.24062E+00 -7.13493E+00
  -4.51063E+00 -5.46739E+00 -2.78432E+00 -4.96446E-01 -6.73785E+00  1.64100E+00 -4.04036E+00 -2.28803E+00  1.57712E+00  3.33824E+00
   2.79737E+00 -4.46699E-01 -1.35247E+00  3.45799E+00  3.32043E+00 -5.57820E-01  6.86177E+00 -4.99572E-02  7.23721E+00 -3.12580E+00
   2.13391E+00  1.72584E-01  2.15090E+00  1.34513E+00  4.65537E-01 -6.30597E+00 -3.80995E+00 -2.46777E+00 -5.94176E+00  2.06549E+00
   3.01105E+00  5.93958E-01  2.32973E+00  2.24589E+00 -3.28169E+00 -1.30946E+00 -9.33741E-01  8.38867E+00 -1.21198E+00  2.41315E+00
   9.91181E-01  7.17489E+00  3.11821E-01 -2.87647E+00 -3.68262E+00  4.85483E+00  5.09180E+00 -1.89786E+00 -6.39614E+00 -3.64420E-01
  -3.95367E+00 -1.79295E+00 -1.83857E+00 -2.43804E+00 -5.12415E+00 -4.76233E+00 -7.00920E+00 -1.75242E+00 -3.39159E+00 -3.35428E+00
  -4.05368E+00 -1.26733E+00 -1.57775E+00  1.17179E+00 -7.77302E-01 -3.55140E+00  2.18734E+00 -3.80510E+00 -2.02492E+00 -2.54161E+00
  -2.10143E+00 -3.50082E+00 -9.96262E+00 -5.58712E-01 -9.71692E-01 -2.07161E+00 -2.14885E+00 -4.73732E+00
 NY points of the fit to the data follow
  -1.01080E+00 -1.18124E+00 -1.22262E+00 -8.75385E-01 -6.48199E-01 -1.10219E+00 -1.76684E+00 -1.38663E+00  1.47869E+00  6.01404E+00
   1.01320E+01  1.16686E+01  1.02799E+01  7.40544E+00  4.80865E+00  3.04352E+00  1.80695E+00  8.06810E-01  7.69259E-02 -2.08752E-01
  -2.41697E-01 -9.75325E-02 -4.42944E-03  5.26385E-02 -3.07495E-01 -1.15652E+00 -1.63516E+00 -1.33826E+00  9.63951E-02  2.13145E+00
   3.99890E+00  5.15872E+00  5.33259E+00  4.55520E+00  3.08167E+00  1.26874E+00 -1.82169E-01 -8.55173E-01 -1.07640E+00 -9.72635E-01
  -6.74822E-01 -4.18809E-01 -3.54778E-01 -4.45559E-01 -1.17466E-01  1.06709E+00  2.96660E+00  4.68553E+00  5.28237E+00  4.50805E+00
   2.93582E+00  1.30548E+00  5.12111E-02 -6.80819E-01 -1.07452E+00 -1.31070E+00 -1.37382E+00 -1.16721E+00 -5.71509E-01  2.35563E-01
   8.68674E-01  9.68302E-01  4.81879E-01 -2.83263E-01 -9.80817E-01 -1.39003E+00 -1.46664E+00 -1.38281E+00 -1.22022E+00 -9.74482E-01
  -6.83126E-01 -3.86230E-01 -6.67310E-02  2.45226E-01  4.93423E-01  5.79863E-01  4.44644E-01  7.21053E-02 -4.25847E-01 -8.17683E-01
  -1.02198E+00 -1.23181E+00 -1.20739E+00 -5.93074E-01  4.31772E-01  1.27155E+00  1.30067E+00  4.30391E-01 -7.97979E-01 -1.69404E+00
  -1.96072E+00 -1.84474E+00 -1.71783E+00 -1.57331E+00 -1.37876E+00 -1.14294E+00 -1.06151E+00 -1.94685E+00 -4.85341E+00 -4.30204E+00
   3.60190E+00  1.75975E+01  3.10974E+01  3.68847E+01  3.31039E+01  2.35447E+01  1.40239E+01  7.60764E+00  3.57009E+00  4.33702E-01
  -1.10265E+00 -1.46930E+00 -1.57337E+00 -1.60203E+00 -1.59618E+00 -1.55174E+00 -1.53247E+00 -1.57555E+00 -1.65657E+00 -1.75628E+00
  -1.89236E+00 -2.53386E+00 -4.82219E+00 -4.76209E+00  1.22907E+00  1.24245E+01  2.38031E+01  2.92772E+01  2.68774E+01  1.95327E+01
   1.20794E+01  7.12770E+00  4.01628E+00  1.16539E+00 -9.57642E-01 -2.18606E+00 -2.96677E+00 -3.14582E+00 -2.75784E+00 -2.08369E+00
  -1.42030E+00 -1.00988E+00 -9.07945E-01 -9.76350E-01 -1.08988E+00 -1.20307E+00 -1.30204E+00 -1.41090E+00 -1.51065E+00 -1.58574E+00
  -1.65493E+00 -1.74277E+00 -1.83573E+00 -1.90130E+00 -1.90270E+00 -1.79022E+00 -1.53878E+00 -1.43389E+00 -1.69465E+00 -2.32905E+00
  -3.04973E+00 -3.27918E+00 -2.87636E+00 -2.13369E+00 -1.58328E+00 -1.53419E+00 -1.87957E+00 -2.32089E+00 -2.67009E+00 -2.85488E+00
  -2.91320E+00 -2.89487E+00 -2.97917E+00 -3.42244E+00 -4.03190E+00 -4.40697E+00 -4.18139E+00 -3.62440E+00 -3.23647E+00 -3.29439E+00
  -3.60073E+00 -3.73151E+00 -3.49224E+00 -3.33555E+00 -3.57771E+00 -3.98929E+00 -4.07784E+00 -3.47108E+00 -2.28843E+00 -1.01559E+00
  -1.85885E-01  1.70609E-02 -3.19762E-01 -8.40565E-01 -1.49193E+00 -2.12482E+00 -2.67401E+00 -2.95998E+00 -2.81160E+00 -2.20634E+00
  -1.20085E+00  3.27170E-02  1.30741E+00  2.30840E+00  2.74497E+00  2.43761E+00  8.53178E-01 -1.64913E+00 -4.15884E+00 -5.92706E+00
  -6.56533E+00 -6.27664E+00 -4.97010E+00 -2.56886E+00  4.02335E-01  3.03802E+00  4.32403E+00  3.91598E+00  2.30258E+00 -9.57900E-02
  -2.90182E+00 -5.24296E+00 -6.29069E+00 -5.54650E+00 -3.50338E+00 -1.25271E+00  4.68830E-01  1.33528E+00  1.37262E+00  8.18317E-01
   8.18078E-02 -3.80465E-01 -6.14582E-01 -6.96682E-01 -6.27274E-01 -2.68748E-01  4.22345E-01  1.35584E+00  2.16499E+00  2.25847E+00
   1.50457E+00  2.40471E-01 -9.16993E-01 -1.54412E+00 -1.40536E+00 -7.81005E-01 -1.14428E-01  3.61108E-01  6.14035E-01  7.08179E-01
   6.71043E-01  6.66457E-01  1.08028E+00  1.96790E+00  2.44175E+00 -8.79734E-02 -1.70381E+00  4.92063E+00  2.02795E+01  3.83427E+01
   4.91244E+01  4.77214E+01  3.68760E+01  2.39503E+01  1.43893E+01  8.47129E+00  3.92942E+00  9.65445E-01 -8.30015E-02 -6.58063E-01
  -1.07773E+00 -1.28417E+00 -1.24317E+00 -1.04596E+00 -7.98505E-01 -6.11069E-01 -5.40753E-01 -6.03569E-01 -7.56262E-01 -9.59828E-01
  -1.17357E+00 -1.35287E+00 -1.46851E+00 -1.51304E+00 -1.50211E+00 -1.46929E+00 -1.43628E+00 -1.41510E+00 -1.41244E+00 -1.41687E+00
  -1.42135E+00 -1.42810E+00 -1.44045E+00 -1.45465E+00 -1.46744E+00 -1.47965E+00 -1.48991E+00 -1.49694E+00 -1.50185E+00 -1.50284E+00
  -1.49708E+00 -1.48654E+00 -1.47288E+00 -1.45781E+00 -1.44218E+00 -1.42674E+00 -1.41208E+00 -1.39728E+00 -1.38087E+00 -1.36227E+00
  -1.34130E+00 -1.31834E+00 -1.29370E+00 -1.26713E+00 -1.23782E+00 -1.20535E+00 -1.16962E+00 -1.13101E+00 -1.08947E+00 -1.04458E+00
  -9.95723E-01 -9.42768E-01 -8.85798E-01 -8.24994E-01 -7.59963E-01 -6.90127E-01 -6.14900E-01 -5.34221E-01 -4.48088E-01 -3.56268E-01
  -2.57838E-01 -1.51735E-01 -3.68942E-02  8.73670E-02  2.21948E-01  3.68320E-01  5.28841E-01  7.06207E-01  9.03335E-01  1.12314E+00
   1.36838E+00  1.63695E+00  1.93589E+00  2.42654E+00  3.15834E+00  3.96157E+00  4.60696E+00  4.96567E+00  5.15160E+00  5.37223E+00
   5.68561E+00  6.18942E+00  6.94130E+00  7.94672E+00  9.10169E+00  1.01012E+01  1.06572E+01  1.07030E+01  1.03523E+01  9.76101E+00
   9.00790E+00  8.11209E+00  7.15790E+00  6.20958E+00  5.29440E+00  4.43992E+00  3.66621E+00  2.98339E+00  2.39300E+00  1.89033E+00
   1.46690E+00  1.11231E+00  8.15901E-01  5.67929E-01  3.60376E-01  1.86993E-01  4.30122E-02 -7.53925E-02 -1.71232E-01 -2.46749E-01
  -3.03365E-01 -3.42014E-01 -3.63459E-01 -3.68543E-01 -3.58018E-01 -3.32420E-01 -2.92019E-01 -2.37153E-01 -1.68466E-01 -8.69926E-02
   6.07581E-03  1.09478E-01  2.21806E-01  3.41184E-01  4.65170E-01  5.90882E-01  7.15327E-01  8.35521E-01  9.48430E-01  1.05082E+00
   1.13941E+00  1.21118E+00  1.26376E+00  1.29541E+00  1.30498E+00  1.29175E+00  1.25556E+00  1.19710E+00  1.11789E+00  1.02011E+00
   9.06246E-01  7.78918E-01  6.40927E-01  4.95344E-01  3.45359E-01  1.93977E-01  4.37241E-02 -1.03328E-01 -2.45410E-01 -3.80910E-01
  -5.08520E-01 -6.27401E-01 -7.37270E-01 -8.38157E-01 -9.30192E-01 -1.01348E+00 -1.08832E+00 -1.15525E+00 -1.21505E+00 -1.26848E+00
  -1.31608E+00 -1.35825E+00 -1.39550E+00 -1.42844E+00 -1.45779E+00 -1.48399E+00 -1.50734E+00 -1.52798E+00 -1.54624E+00 -1.56256E+00
  -1.57731E+00 -1.59066E+00 -1.60260E+00 -1.61316E+00 -1.62259E+00 -1.63117E+00 -1.63908E+00 -1.64628E+00 -1.65269E+00 -1.65833E+00
  -1.66344E+00 -1.66819E+00 -1.67264E+00 -1.67663E+00 -1.68009E+00 -1.68310E+00 -1.68588E+00 -1.68852E+00 -1.69099E+00 -1.69309E+00
  -1.69483E+00 -1.69633E+00 -1.69778E+00 -1.69917E+00 -1.70039E+00 -1.70129E+00 -1.70195E+00 -1.70251E+00 -1.70313E+00 -1.70369E+00
  -1.70408E+00 -1.70418E+00 -1.70416E+00 -1.70414E+00 -1.70419E+00 -1.70414E+00 -1.70389E+00 -1.70342E+00 -1.70293E+00 -1.70250E+00
  -1.70212E+00 -1.70158E+00 -1.70085E+00 -1.69997E+00 -1.69915E+00 -1.69840E+00 -1.69764E+00 -1.69666E+00 -1.69552E+00 -1.69431E+00
  -1.69321E+00 -1.69214E+00 -1.69098E+00 -1.68957E+00 -1.68805E+00 -1.68652E+00 -1.68509E+00 -1.68361E+00
 NY background values follow
    -2.456E+00   -2.455E+00   -2.453E+00   -2.451E+00   -2.450E+00   -2.448E+00   -2.447E+00   -2.445E+00   -2.443E+00   -2.442E+00
    -2.440E+00   -2.439E+00   -2.437E+00   -2.435E+00   -2.434E+00   -2.432E+00   -2.431E+00   -2.429E+00   -2.427E+00   -2.426E+00
    -2.424E+00   -2.423E+00   -2.421E+00   -2.420E+00   -2.418E+00   -2.416E+00   -2.415E+00   -2.413E+00   -2.412E+00   -2.410E+00
    -2.408E+00   -2.407E+00   -2.405E+00   -2.404E+00   -2.402E+00   -2.400E+00   -2.399E+00   -2.397E+00   -2.396E+00   -2.394E+00
    -2.392E+00   -2.391E+00   -2.389E+00   -2.388E+00   -2.386E+00   -2.384E+00   -2.383E+00   -2.381E+00   -2.380E+00   -2.378E+00
    -2.376E+00   -2.375E+00   -2.373E+00   -2.372E+00   -2.370E+00   -2.369E+00   -2.367E+00   -2.365E+00   -2.364E+00   -2.362E+00
    -2.361E+00   -2.359E+00   -2.357E+00   -2.356E+00   -2.354E+00   -2.353E+00   -2.351E+00   -2.349E+00   -2.348E+00   -2.346E+00
    -2.345E+00   -2.343E+00   -2.341E+00   -2.340E+00   -2.338E+00   -2.337E+00   -2.335E+00   -2.333E+00   -2.332E+00   -2.330E+00
    -2.329E+00   -2.327E+00   -2.325E+00   -2.324E+00   -2.322E+00   -2.321E+00   -2.319E+00   -2.318E+00   -2.316E+00   -2.314E+00
    -2.313E+00   -2.311E+00   -2.310E+00   -2.308E+00   -2.306E+00   -2.305E+00   -2.303E+00   -2.302E+00   -2.300E+00   -2.298E+00
    -2.297E+00   -2.295E+00   -2.294E+00   -2.292E+00   -2.290E+00   -2.289E+00   -2.287E+00   -2.286E+00   -2.284E+00   -2.282E+00
    -2.281E+00   -2.279E+00   -2.278E+00   -2.276E+00   -2.274E+00   -2.273E+00   -2.271E+00   -2.270E+00   -2.268E+00   -2.267E+00
    -2.265E+00   -2.263E+00   -2.262E+00   -2.260E+00   -2.259E+00   -2.257E+00   -2.255E+00   -2.254E+00   -2.252E+00   -2.251E+00
    -2.249E+00   -2.247E+00   -2.246E+00   -2.244E+00   -2.243E+00   -2.241E+00   -2.239E+00   -2.238E+00   -2.236E+00   -2.235E+00
    -2.233E+00   -2.231E+00   -2.230E+00   -2.228E+00   -2.227E+00   -2.225E+00   -2.223E+00   -2.222E+00   -2.220E+00   -2.219E+00
    -2.217E+00   -2.216E+00   -2.214E+00   -2.212E+00   -2.211E+00   -2.209E+00   -2.208E+00   -2.206E+00   -2.204E+00   -2.203E+00
    -2.201E+00   -2.200E+00   -2.198E+00   -2.196E+00   -2.195E+00   -2.193E+00   -2.192E+00   -2.190E+00   -2.188E+00   -2.187E+00
    -2.185E+00   -2.184E+00   -2.182E+00   -2.180E+00   -2.179E+00   -2.177E+00   -2.176E+00   -2.174E+00   -2.172E+00   -2.171E+00
    -2.169E+00   -2.168E+00   -2.166E+00   -2.165E+00   -2.163E+00   -2.161E+00   -2.160E+00   -2.158E+00   -2.157E+00   -2.155E+00
    -2.153E+00   -2.152E+00   -2.150E+00   -2.149E+00   -2.147E+00   -2.145E+00   -2.144E+00   -2.142E+00   -2.141E+00   -2.139E+00
    -2.137E+00   -2.136E+00   -2.134E+00   -2.133E+00   -2.131E+00   -2.129E+00   -2.128E+00   -2.126E+00   -2.125E+00   -2.123E+00
    -2.121E+00   -2.120E+00   -2.118E+00   -2.117E+00   -2.115E+00   -2.113E+00   -2.112E+00   -2.110E+00   -2.109E+00   -2.107E+00
    -2.105E+00   -2.104E+00   -2.102E+00   -2.101E+00   -2.099E+00   -2.098E+00   -2.096E+00   -2.094E+00   -2.093E+00   -2.091E+00
    -2.090E+00   -2.088E+00   -2.086E+00   -2.085E+00   -2.083E+00   -2.082E+00   -2.080E+00   -2.078E+00   -2.077E+00   -2.075E+00
    -2.074E+00   -2.072E+00   -2.070E+00   -2.069E+00   -2.067E+00   -2.066E+00   -2.064E+00   -2.062E+00   -2.061E+00   -2.059E+00
    -2.058E+00   -2.056E+00   -2.054E+00   -2.053E+00   -2.051E+00   -2.050E+00   -2.048E+00   -2.046E+00   -2.045E+00   -2.043E+00
    -2.042E+00   -2.040E+00   -2.038E+00   -2.037E+00   -2.035E+00   -2.034E+00   -2.032E+00   -2.031E+00   -2.029E+00   -2.027E+00
    -2.026E+00   -2.024E+00   -2.023E+00   -2.021E+00   -2.019E+00   -2.018E+00   -2.016E+00   -2.015E+00   -2.013E+00   -2.011E+00
    -2.010E+00   -2.008E+00   -2.007E+00   -2.005E+00   -2.003E+00   -2.002E+00   -2.000E+00   -1.999E+00   -1.997E+00   -1.995E+00
    -1.994E+00   -1.992E+00   -1.991E+00   -1.989E+00   -1.987E+00   -1.986E+00   -1.984E+00   -1.983E+00   -1.981E+00   -1.979E+00
    -1.978E+00   -1.976E+00   -1.975E+00   -1.973E+00   -1.971E+00   -1.970E+00   -1.968E+00   -1.967E+00   -1.965E+00   -1.963E+00
    -1.962E+00   -1.960E+00   -1.959E+00   -1.957E+00   -1.955E+00   -1.954E+00   -1.952E+00   -1.951E+00   -1.949E+00   -1.948E+00
    -1.946E+00   -1.944E+00   -1.943E+00   -1.941E+00   -1.940E+00   -1.938E+00   -1.936E+00   -1.935E+00   -1.933E+00   -1.932E+00
    -1.930E+00   -1.928E+00   -1.927E+00   -1.925E+00   -1.924E+00   -1.922E+00   -1.920E+00   -1.919E+00   -1.917E+00   -1.916E+00
    -1.914E+00   -1.912E+00   -1.911E+00   -1.909E+00   -1.908E+00   -1.906E+00   -1.904E+00   -1.903E+00   -1.901E+00   -1.900E+00
    -1.898E+00   -1.896E+00   -1.895E+00   -1.893E+00   -1.892E+00   -1.890E+00   -1.888E+00   -1.887E+00   -1.885E+00   -1.884E+00
    -1.882E+00   -1.880E+00   -1.879E+00   -1.877E+00   -1.876E+00   -1.874E+00   -1.872E+00   -1.871E+00   -1.869E+00   -1.868E+00
    -1.866E+00   -1.865E+00   -1.863E+00   -1.861E+00   -1.860E+00   -1.858E+00   -1.857E+00   -1.855E+00   -1.853E+00   -1.852E+00
    -1.850E+00   -1.849E+00   -1.847E+00   -1.845E+00   -1.844E+00   -1.842E+00   -1.841E+00   -1.839E+00   -1.837E+00   -1.836E+00
    -1.834E+00   -1.833E+00   -1.831E+00   -1.829E+00   -1.828E+00   -1.826E+00   -1.825E+00   -1.823E+00   -1.821E+00   -1.820E+00
    -1.818E+00   -1.817E+00   -1.815E+00   -1.813E+00   -1.812E+00   -1.810E+00   -1.809E+00   -1.807E+00   -1.805E+00   -1.804E+00
    -1.802E+00   -1.801E+00   -1.799E+00   -1.797E+00   -1.796E+00   -1.794E+00   -1.793E+00   -1.791E+00   -1.789E+00   -1.788E+00
    -1.786E+00   -1.785E+00   -1.783E+00   -1.782E+00   -1.780E+00   -1.778E+00   -1.777E+00   -1.775E+00   -1.774E+00   -1.772E+00
    -1.770E+00   -1.769E+00   -1.767E+00   -1.766E+00   -1.764E+00   -1.762E+00   -1.761E+00   -1.759E+00   -1.758E+00   -1.756E+00
    -1.754E+00   -1.753E+00   -1.751E+00   -1.750E+00   -1.748E+00   -1.746E+00   -1.745E+00   -1.743E+00   -1.742E+00   -1.740E+00
    -1.738E+00   -1.737E+00   -1.735E+00   -1.734E+00   -1.732E+00   -1.730E+00   -1.729E+00   -1.727E+00   -1.726E+00   -1.724E+00
    -1.722E+00   -1.721E+00   -1.719E+00   -1.718E+00   -1.716E+00   -1.714E+00   -1.713E+00   -1.711E+00   -1.710E+00   -1.708E+00
    -1.706E+00   -1.705E+00   -1.703E+00   -1.702E+00   -1.700E+00   -1.699E+00   -1.697E+00   -1.695E+00   -1.694E+00   -1.692E+00
    -1.691E+00   -1.689E+00   -1.687E+00   -1.686E+00   -1.684E+00   -1.683E+00   -1.681E+00   -1.679E+00   -1.678E+00   -1.676E+00
    -1.675E+00   -1.673E+00   -1.671E+00   -1.670E+00   -1.668E+00   -1.667E+00   -1.665E+00   -1.663E+00
 Asp      Conc. = 5.15E+01
