 LCModel (Version 6.3-1L) Copyright: S.W. Provencher.          Ref.: Magn. Reson. Med. 30:672-679 (1993).                
 Slice#1 Row#8 Col#10  PD_24_press_1_raw_act
 36 lines in following concentration table = NCONC+1
    Conc.  %SD /Cr+PCr  Metabolite                                         
  351.557  38%   0.437 Ala                                                 
   71.132 269% 8.8E-02 Asp                                                 
  505.532  41%   0.628 Cr                                                  
  299.123  70%   0.372 PCr                                                 
   80.008 161% 9.9E-02 GABA                                                
   86.763 145%   0.108 Glc                                                 
  647.276  45%   0.804 Gln                                                 
 1.20E+03  28%   1.495 Glu                                                 
  470.986   5%   0.585 GPC                                                 
    0.000 999%   0.000 PCh                                                 
  452.715  18%   0.563 GSH                                                 
 1.65E+03  15%   2.048 Ins                                                 
    0.000 999%   0.000 Lac                                                 
 1.56E+03  10%   1.944 NAA                                                 
  353.373  49%   0.439 NAAG                                                
  134.648  20%   0.167 Scyllo                                              
  132.367 133%   0.165 Tau                                                 
  361.887  28%   0.450 -CrCH2                                              
  470.986   5%   0.585 GPC+PCh                                             
 1.92E+03   4%   2.383 NAA+NAAG                                            
  804.655   7%   1.000 Cr+PCr                                              
 1.85E+03  27%   2.299 Glu+Gln                                             
 1.83E+03  26%   2.278 Lip13a                                              
    0.000 999%   0.000 Lip13b                                              
  304.441  89%   0.378 Lip09                                               
 1.01E+03  27%   1.257 MM09                                                
  165.695 118%   0.206 Lip20                                               
 1.83E+03  19%   2.274 MM20                                                
  290.277  57%   0.361 MM12                                                
  792.333  43%   0.985 MM14                                                
  893.187  20%   1.110 MM17                                                
 1.83E+03  26%   2.278 Lip13a+Lip13b                                       
 2.92E+03  10%   3.623 MM14+Lip13a+Lip13b+MM12                             
 1.32E+03  12%   1.636 MM09+Lip09                                          
 2.00E+03  17%   2.480 MM20+Lip20                                          
   6 lines in following misc. output table
  FWHM = 0.061 ppm    S/N =   8                                            
  Data shift = 0.000 ppm                                                   
  Ph: -44 deg      -5.6 deg/ppm                                            
  alphaB,S = 8.5E+01,   2.0E+02                                            
   14 spline knots.   Ns = 8(1)                                            
   2 inflections.     1 extrema                                            
  498 points on ppm-axis = NY
      4.000000     3.992357     3.984714     3.977070     3.969427     3.961784     3.954141     3.946497     3.938854     3.931211
      3.923568     3.915925     3.908281     3.900638     3.892995     3.885352     3.877708     3.870065     3.862422     3.854779
      3.847136     3.839492     3.831849     3.824206     3.816563     3.808919     3.801276     3.793633     3.785990     3.778347
      3.770703     3.763060     3.755417     3.747774     3.740130     3.732487     3.724844     3.717201     3.709558     3.701914
      3.694271     3.686628     3.678985     3.671341     3.663698     3.656055     3.648412     3.640769     3.633125     3.625482
      3.617839     3.610196     3.602552     3.594909     3.587266     3.579623     3.571980     3.564336     3.556693     3.549050
      3.541407     3.533763     3.526120     3.518477     3.510834     3.503191     3.495547     3.487904     3.480261     3.472618
      3.464974     3.457331     3.449688     3.442045     3.434402     3.426758     3.419115     3.411472     3.403829     3.396185
      3.388542     3.380899     3.373256     3.365613     3.357969     3.350326     3.342683     3.335040     3.327396     3.319753
      3.312110     3.304467     3.296824     3.289180     3.281537     3.273894     3.266251     3.258607     3.250964     3.243321
      3.235678     3.228034     3.220391     3.212748     3.205105     3.197462     3.189818     3.182175     3.174532     3.166889
      3.159245     3.151602     3.143959     3.136316     3.128673     3.121029     3.113386     3.105743     3.098100     3.090456
      3.082813     3.075170     3.067527     3.059884     3.052240     3.044597     3.036954     3.029311     3.021667     3.014024
      3.006381     2.998738     2.991095     2.983451     2.975808     2.968165     2.960522     2.952878     2.945235     2.937592
      2.929949     2.922306     2.914662     2.907019     2.899376     2.891733     2.884089     2.876446     2.868803     2.861160
      2.853517     2.845873     2.838230     2.830587     2.822944     2.815300     2.807657     2.800014     2.792371     2.784728
      2.777084     2.769441     2.761798     2.754155     2.746511     2.738868     2.731225     2.723582     2.715939     2.708295
      2.700652     2.693009     2.685366     2.677722     2.670079     2.662436     2.654793     2.647150     2.639506     2.631863
      2.624220     2.616577     2.608933     2.601290     2.593647     2.586004     2.578361     2.570717     2.563074     2.555431
      2.547788     2.540144     2.532501     2.524858     2.517215     2.509572     2.501928     2.494285     2.486642     2.478999
      2.471355     2.463712     2.456069     2.448426     2.440783     2.433139     2.425496     2.417853     2.410210     2.402566
      2.394923     2.387280     2.379637     2.371994     2.364350     2.356707     2.349064     2.341421     2.333777     2.326134
      2.318491     2.310848     2.303205     2.295561     2.287918     2.280275     2.272632     2.264988     2.257345     2.249702
      2.242059     2.234416     2.226772     2.219129     2.211486     2.203843     2.196199     2.188556     2.180913     2.173270
      2.165627     2.157983     2.150340     2.142697     2.135054     2.127410     2.119767     2.112124     2.104481     2.096838
      2.089194     2.081551     2.073908     2.066265     2.058621     2.050978     2.043335     2.035692     2.028049     2.020405
      2.012762     2.005119     1.997476     1.989833     1.982190     1.974546     1.966903     1.959260     1.951617     1.943974
      1.936331     1.928688     1.921045     1.913402     1.905759     1.898115     1.890472     1.882829     1.875186     1.867543
      1.859900     1.852257     1.844614     1.836971     1.829327     1.821684     1.814041     1.806398     1.798755     1.791112
      1.783469     1.775826     1.768183     1.760540     1.752896     1.745253     1.737610     1.729967     1.722324     1.714681
      1.707038     1.699395     1.691752     1.684108     1.676465     1.668822     1.661179     1.653536     1.645893     1.638250
      1.630607     1.622964     1.615321     1.607677     1.600034     1.592391     1.584748     1.577105     1.569462     1.561819
      1.554176     1.546533     1.538890     1.531246     1.523603     1.515960     1.508317     1.500674     1.493031     1.485388
      1.477745     1.470102     1.462458     1.454815     1.447172     1.439529     1.431886     1.424243     1.416600     1.408957
      1.401314     1.393671     1.386027     1.378384     1.370741     1.363098     1.355455     1.347812     1.340169     1.332526
      1.324883     1.317240     1.309596     1.301953     1.294310     1.286667     1.279024     1.271381     1.263738     1.256095
      1.248452     1.240808     1.233165     1.225522     1.217879     1.210236     1.202593     1.194950     1.187307     1.179664
      1.172021     1.164377     1.156734     1.149091     1.141448     1.133805     1.126162     1.118519     1.110876     1.103233
      1.095590     1.087946     1.080303     1.072660     1.065017     1.057374     1.049731     1.042088     1.034445     1.026802
      1.019158     1.011515     1.003872     0.996229     0.988586     0.980943     0.973300     0.965657     0.958014     0.950371
      0.942727     0.935084     0.927441     0.919798     0.912155     0.904512     0.896869     0.889226     0.881583     0.873940
      0.866296     0.858653     0.851010     0.843367     0.835724     0.828081     0.820438     0.812795     0.805152     0.797508
      0.789865     0.782222     0.774579     0.766936     0.759293     0.751650     0.744007     0.736364     0.728721     0.721077
      0.713434     0.705791     0.698148     0.690505     0.682862     0.675219     0.667576     0.659933     0.652290     0.644646
      0.637003     0.629360     0.621717     0.614074     0.606431     0.598788     0.591145     0.583502     0.575858     0.568215
      0.560572     0.552929     0.545286     0.537643     0.530000     0.522357     0.514714     0.507071     0.499427     0.491784
      0.484141     0.476498     0.468855     0.461212     0.453569     0.445925     0.438282     0.430639     0.422996     0.415353
      0.407710     0.400067     0.392424     0.384780     0.377137     0.369494     0.361851     0.354208     0.346565     0.338922
      0.331278     0.323635     0.315992     0.308349     0.300706     0.293063     0.285420     0.277777     0.270133     0.262490
      0.254847     0.247204     0.239561     0.231918     0.224275     0.216631     0.208988     0.201345
 NY phased data points follow
   2.69225E+00  5.98021E+00  5.61736E+00  3.44521E+00  4.87179E+00  6.09081E+00  5.40771E+00  4.18815E+00  5.45051E+00  6.44457E+00
   1.04901E+01  6.65559E+00  9.05419E+00  1.00678E+01  1.22055E+01  8.11592E+00  7.96874E+00  5.47887E+00  4.39009E-01  5.71533E+00
   1.66860E+00 -4.98333E+00  1.53211E+00  6.70057E+00  9.65168E+00  2.12078E+00  8.91337E+00  8.77101E+00  6.91660E+00  6.17238E+00
   1.32517E+01  5.07914E+00  6.11810E+00  1.01410E+01  7.37554E+00  7.57367E+00  5.04800E+00  6.89950E+00  9.18464E+00  3.87222E+00
   4.28969E+00  9.67402E+00  9.88184E+00  1.14214E+01  6.41861E+00  9.32517E+00  1.24059E+01  5.92394E+00  1.27701E+01  7.29330E+00
   1.11806E+01  9.18536E+00  5.95046E+00  7.60756E+00  6.31594E+00 -4.83234E-02  6.88053E+00  3.05742E+00  4.26844E+00  3.77112E+00
  -4.15585E+00 -4.96709E-01 -1.25297E-01 -2.58152E+00 -1.29663E+00  8.72241E-01 -4.09224E-01  2.20428E+00  2.28006E-01  3.95929E+00
   2.42626E+00  5.63661E+00  3.17308E+00 -1.87983E-02  2.49710E+00 -2.96292E+00  2.79821E+00  3.77034E+00  3.24162E+00 -9.51382E-01
  -4.14970E-01  3.02866E-01  7.97443E+00  3.11628E+00  3.58102E+00  8.38636E+00  1.19898E+00  3.77991E+00  5.04401E+00  4.68626E+00
   2.71806E+00  5.22817E+00  4.12960E+00  3.97554E+00  7.77579E+00  5.05670E+00  8.79875E+00  1.74179E+01  1.14794E+01  1.83237E+01
   2.65319E+01  2.95247E+01  3.39518E+01  3.36994E+01  3.73256E+01  2.90383E+01  2.54195E+01  1.46784E+01  1.15447E+01  3.42545E+00
   2.02553E+00  6.41910E+00  5.78992E-01 -1.25654E+00  3.74657E+00 -4.89436E-01  5.17727E+00  5.25645E+00  5.50797E+00 -9.83108E-01
   6.14774E-01  6.19040E+00  8.53782E+00  7.97088E+00  1.40863E+01  1.94270E+01  1.94845E+01  2.51433E+01  2.27551E+01  2.14059E+01
   1.54717E+01  1.46854E+01  8.17371E+00  5.82897E+00  6.51574E+00  4.18804E+00  4.84217E+00 -5.46766E+00 -1.69027E+00  1.68805E+00
   9.17219E-02  3.82536E+00  2.29051E+00  7.64614E+00  4.72825E-01 -2.78339E-03 -1.79270E+00  8.11556E-01  1.79631E+00 -5.42532E-01
   7.82201E-01 -1.71518E+00 -1.50367E+00 -1.43704E+00 -1.53098E+00 -6.65920E-01 -3.97150E+00  3.67602E+00  2.33570E+00 -2.55046E-01
  -5.15983E+00 -6.37940E+00 -3.18904E+00 -1.30291E+00 -5.60352E+00 -5.96681E+00 -7.75663E+00 -1.27231E+01 -7.91077E+00 -6.17849E+00
  -4.46220E+00 -6.33503E+00 -8.00730E+00 -8.82428E+00 -5.39476E+00 -1.41807E+01 -8.94762E+00 -1.15183E+01 -1.48837E+01 -9.05532E+00
  -4.79877E+00 -9.65651E+00 -5.26368E+00 -4.03579E+00 -4.70626E+00 -8.07066E+00 -5.45465E+00 -6.50177E+00 -9.36055E+00  5.24253E-02
  -7.05025E+00 -6.15511E+00 -2.93856E+00 -2.32145E+00 -7.64359E+00 -7.45115E+00 -1.25327E+01 -5.09344E+00 -7.91419E-02 -4.87301E+00
   1.23919E+00 -3.96973E+00  3.24279E+00 -4.13510E+00  1.06994E+00  1.34506E+00 -3.30363E+00 -4.03903E+00  3.32277E+00 -2.38159E+00
  -1.70008E+00  1.22084E+00  5.80475E-01  4.47147E+00  5.55093E+00  1.44287E+00  4.15987E+00  4.49930E+00 -3.43946E+00  2.45876E+00
   1.86736E+00 -1.41212E+00 -3.81579E+00 -3.65085E+00 -2.65612E+00  2.70844E+00 -7.84652E-01  3.92819E+00  3.85564E+00  4.44259E+00
   5.14086E+00  1.74957E+00  3.33848E+00  3.15586E+00  5.84172E+00  3.03312E+00  3.12396E+00  5.09320E+00  3.76390E+00  1.08806E+00
   5.13089E+00  1.26021E+00  4.63649E+00  5.52849E+00  1.04130E-01  5.38494E+00  4.87813E+00  5.83213E+00  7.93297E+00  8.18793E+00
   9.91777E+00  1.25594E+01  1.69611E+01  2.33335E+01  2.58756E+01  2.68900E+01  3.92381E+01  5.12936E+01  5.80422E+01  6.10865E+01
   5.49337E+01  4.70654E+01  4.56914E+01  3.86036E+01  2.50899E+01  1.71491E+01  1.51130E+01  1.21314E+01  5.62107E+00  4.46252E+00
   4.43156E+00  4.36770E+00  4.71697E+00  9.85213E-01  5.16330E+00  2.51588E+00  2.79935E+00  1.27569E+00  3.37501E+00 -1.83689E+00
   6.58474E+00  1.38647E-01  2.19517E+00  3.06199E-01  3.40465E+00  2.92855E+00  5.81267E+00  2.20282E+00  5.26337E+00  1.27823E-01
   3.88705E-01  6.23621E-01  6.02499E+00  2.13777E+00  7.36234E+00 -3.09886E-02  5.09022E+00  4.87991E+00  5.38741E+00  7.48282E+00
   6.72227E+00  4.31758E+00  6.31160E+00  1.04066E+01  1.22974E+01  2.93264E+00  3.06542E+00  5.12057E+00  2.88817E+00  5.18999E+00
   6.31832E+00  4.63979E+00  4.18444E-01  8.32602E-01  3.12347E+00  5.22471E+00  6.36958E+00  7.43960E+00  3.36296E+00  7.59421E-01
   3.22041E+00 -1.60508E+00  1.69802E+00  4.87932E+00  6.36777E+00  4.03636E+00  4.52900E+00  3.11853E+00  1.17875E+00  4.50208E+00
   6.55661E-01 -5.29254E-01 -4.73426E-01  4.33506E+00  2.65338E+00  2.94888E+00  5.30898E+00  5.11877E+00  4.07744E+00  9.17201E+00
   9.57948E+00  9.92567E+00  9.47586E+00  1.11037E+01  1.13107E+01  9.08477E+00  1.66489E+01  1.33557E+01  1.29504E+01  7.14820E+00
   1.46453E+01  1.52915E+01  9.91256E+00  9.69146E+00  1.23710E+01  1.50692E+01  1.22246E+01  8.57598E+00  8.39437E+00  6.47402E+00
   8.98019E+00  1.05690E+01  1.17568E+01  2.52085E+00  8.65968E+00  8.41818E+00  8.58855E+00  1.14748E+01  6.92535E+00  1.16162E+01
   1.07193E+01  6.86865E+00  3.04526E+00  3.89503E+00  4.13575E+00  6.94835E+00  4.98790E+00 -1.24833E+00  2.14662E+00  4.36906E-01
   9.82945E-01  1.13865E-01 -5.26087E-01  5.00015E+00  4.19197E+00  2.73128E+00 -2.04524E+00  1.76536E+00  5.52881E-01  5.28647E+00
   3.76682E+00  3.96035E+00  6.71597E+00  5.14267E+00  4.55504E+00  9.29009E+00  6.82526E+00  4.98298E+00  8.17729E+00  1.01029E+01
   1.19075E+01  5.54815E+00  1.26761E+01  9.38143E+00  1.22571E+01  5.13165E+00  1.31496E+01  9.73344E+00  7.65336E+00  8.50112E+00
   5.46518E+00  1.01144E+01  6.49051E+00  4.97313E+00  1.19450E+01  4.78452E+00  1.20733E+01  4.21853E+00  7.55955E+00  4.44788E+00
   6.77972E+00  4.78624E+00  6.42947E+00 -4.51228E-01  2.16574E+00  3.02437E+00 -5.76673E-01  2.55592E+00  4.81262E-01  3.92689E+00
  -1.25682E+00  2.03212E+00 -1.03889E+00  2.83081E+00  4.81763E+00  1.82090E+00 -3.32495E+00 -2.08031E+00  9.86354E-01 -1.25605E+00
  -4.75149E+00  6.15254E+00  2.40959E-01 -1.49884E+00  4.86734E-01  1.37907E+00 -5.23196E-01  2.94483E+00 -1.98537E+00  2.87551E+00
  -1.17462E+00 -2.87631E+00  6.75633E-01 -9.44444E-01 -2.98108E+00 -3.97061E+00  1.89566E+00  1.84530E+00  9.83266E-01  3.99012E+00
   2.91791E+00  1.17743E+00  2.95208E+00  1.68970E+00  1.21480E+00  3.06064E+00  3.15531E+00 -4.81182E+00  6.90863E+00  6.25949E+00
  -2.69677E+00  8.79523E-01 -1.51991E+00 -1.09677E+00  2.49592E+00  9.73828E-01 -1.08476E-02 -1.42287E+00 -1.37450E+00  2.64964E+00
  -2.45094E-01 -1.30370E+00 -1.11229E+00 -2.22578E-01  4.75813E+00  1.14244E+00 -1.13218E+00 -3.50961E+00 -4.42411E+00 -3.47006E+00
   1.87241E+00  5.31919E+00  5.00474E-01  7.78281E+00  8.45772E-02 -1.79694E+00  3.07996E+00 -1.39860E-01
 NY points of the fit to the data follow
   2.62491E+00  2.17669E+00  1.94092E+00  2.10605E+00  2.80768E+00  3.82239E+00  4.93854E+00  6.13685E+00  7.45515E+00  8.76891E+00
   9.80438E+00  1.03623E+01  1.03973E+01  9.94175E+00  9.04735E+00  7.81225E+00  6.45632E+00  5.27756E+00  4.40123E+00  3.69725E+00
   3.03742E+00  2.67901E+00  2.92287E+00  3.44412E+00  4.08187E+00  4.93277E+00  6.11089E+00  7.50064E+00  8.83129E+00  9.92494E+00
   1.06544E+01  1.08796E+01  1.05024E+01  9.49857E+00  8.07325E+00  6.57805E+00  5.18815E+00  3.94681E+00  3.01507E+00  2.75637E+00
   3.29379E+00  4.28281E+00  5.52197E+00  6.95007E+00  8.45915E+00  9.75814E+00  1.05213E+01  1.05898E+01  9.95616E+00  8.70231E+00
   7.00146E+00  5.17107E+00  3.60312E+00  2.54844E+00  2.01575E+00  1.87452E+00  2.03692E+00  2.43697E+00  2.91377E+00  3.25856E+00
   3.33971E+00  3.15290E+00  2.74536E+00  2.22565E+00  1.76933E+00  1.49158E+00  1.43025E+00  1.57556E+00  1.88740E+00  2.29797E+00
   2.70541E+00  3.02661E+00  3.21726E+00  3.24965E+00  3.13271E+00  2.89095E+00  2.57267E+00  2.26366E+00  2.10155E+00  2.23066E+00
   2.49637E+00  2.79229E+00  3.16484E+00  3.60709E+00  3.99166E+00  4.16443E+00  4.05649E+00  3.68272E+00  3.13228E+00  2.48682E+00
   1.82934E+00  1.29808E+00  1.01166E+00  1.03905E+00  1.72092E+00  3.97164E+00  7.52471E+00  1.17157E+01  1.64020E+01  2.16787E+01
   2.70965E+01  3.16345E+01  3.43599E+01  3.48033E+01  3.29201E+01  2.89657E+01  2.35237E+01  1.75214E+01  1.19910E+01  7.53820E+00
   4.14973E+00  1.55943E+00 -2.13778E-01 -9.19838E-01 -1.06303E+00 -1.07586E+00 -1.02770E+00 -8.92605E-01 -5.01029E-01  6.20433E-01
   2.67559E+00  5.27090E+00  8.20970E+00  1.15392E+01  1.51286E+01  1.84891E+01  2.09845E+01  2.21331E+01  2.17847E+01  2.00246E+01
   1.70909E+01  1.34487E+01  9.69768E+00  6.35709E+00  3.63301E+00  1.48405E+00 -7.54519E-02 -8.58562E-01 -9.33759E-01 -6.78763E-01
  -3.21151E-01  5.97239E-03  2.20466E-01  3.02550E-01  2.46844E-01  5.88435E-02 -2.17279E-01 -5.42869E-01 -8.78646E-01 -1.18446E+00
  -1.44747E+00 -1.65027E+00 -1.82421E+00 -2.01461E+00 -2.19578E+00 -2.34767E+00 -2.46830E+00 -2.57430E+00 -2.70738E+00 -2.85059E+00
  -2.96965E+00 -3.05304E+00 -3.12383E+00 -3.19960E+00 -3.28991E+00 -3.41700E+00 -3.60366E+00 -3.86734E+00 -4.19846E+00 -4.50182E+00
  -4.73645E+00 -4.94137E+00 -5.15186E+00 -5.37383E+00 -5.53370E+00 -5.60260E+00 -5.61403E+00 -5.60481E+00 -5.59820E+00 -5.59885E+00
  -5.55561E+00 -5.43954E+00 -5.22203E+00 -4.85564E+00 -4.29729E+00 -3.58329E+00 -2.79714E+00 -1.96321E+00 -1.14429E+00 -4.82656E-01
  -1.27776E-01 -9.85198E-02 -3.40299E-01 -7.68598E-01 -1.24632E+00 -1.59400E+00 -1.67817E+00 -1.42457E+00 -8.21192E-01  1.53095E-02
   9.29998E-01  1.71842E+00  2.10313E+00  1.99394E+00  1.41022E+00  3.95961E-01 -8.81260E-01 -2.15435E+00 -3.04536E+00 -3.37442E+00
  -3.12989E+00 -2.31585E+00 -1.02689E+00  4.50994E-01  1.65150E+00  2.24129E+00  2.18777E+00  1.58135E+00  5.15206E-01 -8.06686E-01
  -2.05574E+00 -2.81680E+00 -2.91561E+00 -2.47167E+00 -1.63554E+00 -5.26953E-01  6.94481E-01  1.72306E+00  2.35975E+00  2.71826E+00
   2.97535E+00  3.18912E+00  3.35849E+00  3.56001E+00  3.84715E+00  4.10178E+00  4.23126E+00  4.23683E+00  4.11362E+00  3.85891E+00
   3.54407E+00  3.25537E+00  3.09789E+00  3.15783E+00  3.44421E+00  3.92096E+00  4.52726E+00  5.30482E+00  6.44477E+00  7.88859E+00
   9.51954E+00  1.18475E+01  1.62062E+01  2.21130E+01  2.84659E+01  3.49696E+01  4.16834E+01  4.80291E+01  5.28249E+01  5.50845E+01
   5.44503E+01  5.10894E+01  4.54091E+01  3.80466E+01  3.00128E+01  2.25707E+01  1.65739E+01  1.19513E+01  8.27742E+00  5.59778E+00
   4.29519E+00  3.74998E+00  3.43066E+00  3.21024E+00  3.03991E+00  2.87727E+00  2.69664E+00  2.49866E+00  2.29224E+00  2.09660E+00
   1.93070E+00  1.80824E+00  1.73336E+00  1.70872E+00  1.73912E+00  1.82160E+00  1.94653E+00  2.10598E+00  2.29946E+00  2.52967E+00
   2.79385E+00  3.08347E+00  3.39261E+00  3.71552E+00  4.04202E+00  4.35987E+00  4.65990E+00  4.93475E+00  5.17819E+00  5.38503E+00
   5.54900E+00  5.66431E+00  5.72847E+00  5.73917E+00  5.69404E+00  5.59417E+00  5.44387E+00  5.25054E+00  5.02275E+00  4.76988E+00
   4.50311E+00  4.23430E+00  3.97433E+00  3.73416E+00  3.52406E+00  3.35454E+00  3.23704E+00  3.18699E+00  3.23188E+00  3.43329E+00
   3.79285E+00  4.14912E+00  4.44000E+00  4.67160E+00  4.79750E+00  4.69442E+00  4.25141E+00  3.49980E+00  2.68415E+00  1.94973E+00
   1.37089E+00  1.08289E+00  1.26136E+00  1.96857E+00  3.08086E+00  4.38878E+00  5.71934E+00  6.97252E+00  8.03387E+00  8.76637E+00
   9.19225E+00  9.42694E+00  9.58428E+00  9.71952E+00  9.83276E+00  9.94968E+00  1.01473E+01  1.04029E+01  1.06750E+01  1.09408E+01
   1.11845E+01  1.13937E+01  1.15578E+01  1.16683E+01  1.17183E+01  1.17031E+01  1.16198E+01  1.14680E+01  1.12491E+01  1.09665E+01
   1.06257E+01  1.02335E+01  9.79795E+00  9.32804E+00  8.83294E+00  8.32216E+00  7.80467E+00  7.28911E+00  6.78307E+00  6.29343E+00
   5.82582E+00  5.38505E+00  4.97473E+00  4.59776E+00  4.25603E+00  3.95100E+00  3.68345E+00  3.45404E+00  3.26306E+00  3.11090E+00
   2.99782E+00  2.92442E+00  2.89127E+00  2.89935E+00  2.94957E+00  3.04315E+00  3.18105E+00  3.36431E+00  3.59337E+00  3.86835E+00
   4.18832E+00  4.55153E+00  4.95477E+00  5.39361E+00  5.86188E+00  6.35202E+00  6.85469E+00  7.35940E+00  7.85436E+00  8.32726E+00
   8.76535E+00  9.15637E+00  9.48867E+00  9.75226E+00  9.93886E+00  1.00427E+01  1.00605E+01  9.99194E+00  9.83921E+00  9.60736E+00
   9.30358E+00  8.93710E+00  8.51833E+00  8.05872E+00  7.56981E+00  7.06311E+00  6.54926E+00  6.03808E+00  5.53787E+00  5.05568E+00
   4.59684E+00  4.16542E+00  3.76388E+00  3.39367E+00  3.05494E+00  2.74720E+00  2.46912E+00  2.21907E+00  1.99494E+00  1.79463E+00
   1.61579E+00  1.45629E+00  1.31396E+00  1.18691E+00  1.07325E+00  9.71448E-01  8.79957E-01  7.97593E-01  7.23153E-01  6.55761E-01
   5.94479E-01  5.38662E-01  4.87584E-01  4.40798E-01  3.97746E-01  3.58115E-01  3.21452E-01  2.87536E-01  2.56005E-01  2.26723E-01
   1.99399E-01  1.73941E-01  1.50090E-01  1.27792E-01  1.06835E-01  8.72015E-02  6.87029E-02  5.13327E-02  3.49122E-02  1.94559E-02
   4.81308E-03 -8.98318E-03 -2.20784E-02 -3.44405E-02 -4.62080E-02 -5.73333E-02 -6.79377E-02 -7.79665E-02 -8.75451E-02 -9.66230E-02
  -1.05317E-01 -1.13559E-01 -1.21458E-01 -1.28947E-01 -1.36143E-01 -1.42982E-01 -1.49568E-01 -1.55827E-01 -1.61861E-01 -1.67603E-01
  -1.73161E-01 -1.78465E-01 -1.83611E-01 -1.88521E-01 -1.93293E-01 -1.97863E-01 -2.02330E-01 -2.06622E-01 -2.10831E-01 -2.14880E-01
  -2.18871E-01 -2.22737E-01 -2.26579E-01 -2.30322E-01 -2.34056E-01 -2.37716E-01 -2.41404E-01 -2.45061E-01
 NY background values follow
    -3.136E+00   -3.132E+00   -3.128E+00   -3.124E+00   -3.119E+00   -3.115E+00   -3.111E+00   -3.107E+00   -3.103E+00   -3.099E+00
    -3.095E+00   -3.091E+00   -3.086E+00   -3.082E+00   -3.078E+00   -3.074E+00   -3.070E+00   -3.066E+00   -3.062E+00   -3.057E+00
    -3.053E+00   -3.049E+00   -3.045E+00   -3.041E+00   -3.037E+00   -3.033E+00   -3.028E+00   -3.024E+00   -3.020E+00   -3.016E+00
    -3.012E+00   -3.008E+00   -3.004E+00   -2.999E+00   -2.995E+00   -2.991E+00   -2.987E+00   -2.983E+00   -2.979E+00   -2.974E+00
    -2.970E+00   -2.966E+00   -2.962E+00   -2.958E+00   -2.954E+00   -2.949E+00   -2.945E+00   -2.941E+00   -2.937E+00   -2.933E+00
    -2.929E+00   -2.924E+00   -2.920E+00   -2.916E+00   -2.912E+00   -2.908E+00   -2.904E+00   -2.899E+00   -2.895E+00   -2.891E+00
    -2.887E+00   -2.883E+00   -2.879E+00   -2.874E+00   -2.870E+00   -2.866E+00   -2.862E+00   -2.858E+00   -2.853E+00   -2.849E+00
    -2.845E+00   -2.841E+00   -2.837E+00   -2.832E+00   -2.828E+00   -2.824E+00   -2.820E+00   -2.816E+00   -2.811E+00   -2.807E+00
    -2.803E+00   -2.799E+00   -2.795E+00   -2.790E+00   -2.786E+00   -2.782E+00   -2.778E+00   -2.774E+00   -2.769E+00   -2.765E+00
    -2.761E+00   -2.757E+00   -2.753E+00   -2.748E+00   -2.744E+00   -2.740E+00   -2.736E+00   -2.732E+00   -2.727E+00   -2.723E+00
    -2.719E+00   -2.715E+00   -2.710E+00   -2.706E+00   -2.702E+00   -2.698E+00   -2.694E+00   -2.689E+00   -2.685E+00   -2.681E+00
    -2.677E+00   -2.672E+00   -2.668E+00   -2.664E+00   -2.660E+00   -2.656E+00   -2.651E+00   -2.647E+00   -2.643E+00   -2.639E+00
    -2.634E+00   -2.630E+00   -2.626E+00   -2.622E+00   -2.617E+00   -2.613E+00   -2.609E+00   -2.605E+00   -2.601E+00   -2.596E+00
    -2.592E+00   -2.588E+00   -2.584E+00   -2.579E+00   -2.575E+00   -2.571E+00   -2.567E+00   -2.562E+00   -2.558E+00   -2.554E+00
    -2.550E+00   -2.545E+00   -2.541E+00   -2.537E+00   -2.533E+00   -2.528E+00   -2.524E+00   -2.520E+00   -2.516E+00   -2.511E+00
    -2.507E+00   -2.503E+00   -2.499E+00   -2.494E+00   -2.490E+00   -2.486E+00   -2.482E+00   -2.477E+00   -2.473E+00   -2.469E+00
    -2.464E+00   -2.460E+00   -2.456E+00   -2.452E+00   -2.447E+00   -2.443E+00   -2.439E+00   -2.435E+00   -2.430E+00   -2.426E+00
    -2.422E+00   -2.418E+00   -2.413E+00   -2.409E+00   -2.405E+00   -2.400E+00   -2.396E+00   -2.392E+00   -2.388E+00   -2.383E+00
    -2.379E+00   -2.375E+00   -2.371E+00   -2.366E+00   -2.362E+00   -2.358E+00   -2.353E+00   -2.349E+00   -2.345E+00   -2.341E+00
    -2.336E+00   -2.332E+00   -2.328E+00   -2.323E+00   -2.319E+00   -2.315E+00   -2.311E+00   -2.306E+00   -2.302E+00   -2.298E+00
    -2.293E+00   -2.289E+00   -2.285E+00   -2.281E+00   -2.276E+00   -2.272E+00   -2.268E+00   -2.263E+00   -2.259E+00   -2.255E+00
    -2.251E+00   -2.246E+00   -2.242E+00   -2.238E+00   -2.233E+00   -2.229E+00   -2.225E+00   -2.220E+00   -2.216E+00   -2.212E+00
    -2.208E+00   -2.203E+00   -2.199E+00   -2.195E+00   -2.190E+00   -2.186E+00   -2.182E+00   -2.177E+00   -2.173E+00   -2.169E+00
    -2.165E+00   -2.160E+00   -2.156E+00   -2.152E+00   -2.147E+00   -2.143E+00   -2.139E+00   -2.134E+00   -2.130E+00   -2.126E+00
    -2.121E+00   -2.117E+00   -2.113E+00   -2.109E+00   -2.104E+00   -2.100E+00   -2.096E+00   -2.091E+00   -2.087E+00   -2.083E+00
    -2.078E+00   -2.074E+00   -2.070E+00   -2.065E+00   -2.061E+00   -2.057E+00   -2.052E+00   -2.048E+00   -2.044E+00   -2.039E+00
    -2.035E+00   -2.031E+00   -2.027E+00   -2.022E+00   -2.018E+00   -2.014E+00   -2.009E+00   -2.005E+00   -2.001E+00   -1.996E+00
    -1.992E+00   -1.988E+00   -1.983E+00   -1.979E+00   -1.975E+00   -1.970E+00   -1.966E+00   -1.962E+00   -1.957E+00   -1.953E+00
    -1.949E+00   -1.944E+00   -1.940E+00   -1.936E+00   -1.931E+00   -1.927E+00   -1.923E+00   -1.918E+00   -1.914E+00   -1.910E+00
    -1.905E+00   -1.901E+00   -1.897E+00   -1.892E+00   -1.888E+00   -1.884E+00   -1.879E+00   -1.875E+00   -1.871E+00   -1.866E+00
    -1.862E+00   -1.858E+00   -1.853E+00   -1.849E+00   -1.845E+00   -1.840E+00   -1.836E+00   -1.832E+00   -1.827E+00   -1.823E+00
    -1.819E+00   -1.814E+00   -1.810E+00   -1.806E+00   -1.801E+00   -1.797E+00   -1.793E+00   -1.788E+00   -1.784E+00   -1.780E+00
    -1.775E+00   -1.771E+00   -1.767E+00   -1.762E+00   -1.758E+00   -1.754E+00   -1.749E+00   -1.745E+00   -1.741E+00   -1.736E+00
    -1.732E+00   -1.728E+00   -1.723E+00   -1.719E+00   -1.715E+00   -1.710E+00   -1.706E+00   -1.702E+00   -1.697E+00   -1.693E+00
    -1.689E+00   -1.684E+00   -1.680E+00   -1.676E+00   -1.671E+00   -1.667E+00   -1.663E+00   -1.658E+00   -1.654E+00   -1.650E+00
    -1.645E+00   -1.641E+00   -1.637E+00   -1.632E+00   -1.628E+00   -1.624E+00   -1.619E+00   -1.615E+00   -1.610E+00   -1.606E+00
    -1.602E+00   -1.597E+00   -1.593E+00   -1.589E+00   -1.584E+00   -1.580E+00   -1.576E+00   -1.571E+00   -1.567E+00   -1.563E+00
    -1.558E+00   -1.554E+00   -1.550E+00   -1.545E+00   -1.541E+00   -1.537E+00   -1.532E+00   -1.528E+00   -1.524E+00   -1.519E+00
    -1.515E+00   -1.511E+00   -1.506E+00   -1.502E+00   -1.498E+00   -1.493E+00   -1.489E+00   -1.484E+00   -1.480E+00   -1.476E+00
    -1.471E+00   -1.467E+00   -1.463E+00   -1.458E+00   -1.454E+00   -1.450E+00   -1.445E+00   -1.441E+00   -1.437E+00   -1.432E+00
    -1.428E+00   -1.424E+00   -1.419E+00   -1.415E+00   -1.411E+00   -1.406E+00   -1.402E+00   -1.398E+00   -1.393E+00   -1.389E+00
    -1.385E+00   -1.380E+00   -1.376E+00   -1.372E+00   -1.367E+00   -1.363E+00   -1.359E+00   -1.354E+00   -1.350E+00   -1.345E+00
    -1.341E+00   -1.337E+00   -1.332E+00   -1.328E+00   -1.324E+00   -1.319E+00   -1.315E+00   -1.311E+00   -1.306E+00   -1.302E+00
    -1.298E+00   -1.293E+00   -1.289E+00   -1.285E+00   -1.280E+00   -1.276E+00   -1.272E+00   -1.267E+00   -1.263E+00   -1.259E+00
    -1.254E+00   -1.250E+00   -1.246E+00   -1.241E+00   -1.237E+00   -1.233E+00   -1.228E+00   -1.224E+00   -1.220E+00   -1.215E+00
    -1.211E+00   -1.207E+00   -1.202E+00   -1.198E+00   -1.194E+00   -1.189E+00   -1.185E+00   -1.180E+00   -1.176E+00   -1.172E+00
    -1.167E+00   -1.163E+00   -1.159E+00   -1.154E+00   -1.150E+00   -1.146E+00   -1.141E+00   -1.137E+00   -1.133E+00   -1.128E+00
    -1.124E+00   -1.120E+00   -1.115E+00   -1.111E+00   -1.107E+00   -1.102E+00   -1.098E+00   -1.094E+00   -1.089E+00   -1.085E+00
    -1.081E+00   -1.076E+00   -1.072E+00   -1.068E+00   -1.063E+00   -1.059E+00   -1.055E+00   -1.050E+00   -1.046E+00   -1.042E+00
    -1.037E+00   -1.033E+00   -1.029E+00   -1.024E+00   -1.020E+00   -1.016E+00   -1.012E+00   -1.007E+00
 Ala      Conc. = 3.52E+02
