 LCModel (Version 6.3-1L) Copyright: S.W. Provencher.          Ref.: Magn. Reson. Med. 30:672-679 (1993).                
 Slice#1 Row#12 Col#6  PD_24_press_1_raw_act
 36 lines in following concentration table = NCONC+1
    Conc.  %SD /Cr+PCr  Metabolite                                         
    0.000 999%   0.000 Ala                                                 
    0.000 999%   0.000 Asp                                                 
    0.000 999%   0.000 Cr                                                  
 1.12E+03   5%   1.000 PCr                                                 
    0.000 999%   0.000 GABA                                                
  117.039 117%   0.104 Glc                                                 
    0.000 999%   0.000 Gln                                                 
  653.036  50%   0.582 Glu                                                 
  381.716   6%   0.340 GPC                                                 
    0.000 999%   0.000 PCh                                                 
  281.097  28%   0.250 GSH                                                 
  893.851  30%   0.796 Ins                                                 
  429.215  40%   0.382 Lac                                                 
 2.03E+03   4%   1.806 NAA                                                 
    0.000 999%   0.000 NAAG                                                
  167.939  16%   0.150 Scyllo                                              
  551.152  33%   0.491 Tau                                                 
  538.821  19%   0.480 -CrCH2                                              
  381.716   6%   0.340 GPC+PCh                                             
 2.03E+03   4%   1.806 NAA+NAAG                                            
 1.12E+03   5%   1.000 Cr+PCr                                              
  653.036  50%   0.582 Glu+Gln                                             
 1.13E+03  32%   1.010 Lip13a                                              
    0.000 999%   0.000 Lip13b                                              
    0.000 999%   0.000 Lip09                                               
 1.46E+03  10%   1.300 MM09                                                
  334.206  45%   0.298 Lip20                                               
 3.25E+03  11%   2.896 MM20                                                
  423.820  38%   0.377 MM12                                                
 1.93E+03  20%   1.715 MM14                                                
 1.58E+03  17%   1.407 MM17                                                
 1.13E+03  32%   1.010 Lip13a+Lip13b                                       
 3.48E+03  10%   3.102 MM14+Lip13a+Lip13b+MM12                             
 1.46E+03  10%   1.300 MM09+Lip09                                          
 3.59E+03  10%   3.194 MM20+Lip20                                          
   6 lines in following misc. output table
  FWHM = 0.084 ppm    S/N =  10                                            
  Data shift =-0.008 ppm                                                   
  Ph: -88 deg     -23.4 deg/ppm                                            
  alphaB,S = 2.2E+00,   3.3E+02                                            
   14 spline knots.   Ns =10(1)                                            
  (16) 2 infls.   (15) 1 extrs.                                            
  498 points on ppm-axis = NY
      4.000000     3.992357     3.984714     3.977070     3.969427     3.961784     3.954141     3.946497     3.938854     3.931211
      3.923568     3.915925     3.908281     3.900638     3.892995     3.885352     3.877708     3.870065     3.862422     3.854779
      3.847136     3.839492     3.831849     3.824206     3.816563     3.808919     3.801276     3.793633     3.785990     3.778347
      3.770703     3.763060     3.755417     3.747774     3.740130     3.732487     3.724844     3.717201     3.709558     3.701914
      3.694271     3.686628     3.678985     3.671341     3.663698     3.656055     3.648412     3.640769     3.633125     3.625482
      3.617839     3.610196     3.602552     3.594909     3.587266     3.579623     3.571980     3.564336     3.556693     3.549050
      3.541407     3.533763     3.526120     3.518477     3.510834     3.503191     3.495547     3.487904     3.480261     3.472618
      3.464974     3.457331     3.449688     3.442045     3.434402     3.426758     3.419115     3.411472     3.403829     3.396185
      3.388542     3.380899     3.373256     3.365613     3.357969     3.350326     3.342683     3.335040     3.327396     3.319753
      3.312110     3.304467     3.296824     3.289180     3.281537     3.273894     3.266251     3.258607     3.250964     3.243321
      3.235678     3.228034     3.220391     3.212748     3.205105     3.197462     3.189818     3.182175     3.174532     3.166889
      3.159245     3.151602     3.143959     3.136316     3.128673     3.121029     3.113386     3.105743     3.098100     3.090456
      3.082813     3.075170     3.067527     3.059884     3.052240     3.044597     3.036954     3.029311     3.021667     3.014024
      3.006381     2.998738     2.991095     2.983451     2.975808     2.968165     2.960522     2.952878     2.945235     2.937592
      2.929949     2.922306     2.914662     2.907019     2.899376     2.891733     2.884089     2.876446     2.868803     2.861160
      2.853517     2.845873     2.838230     2.830587     2.822944     2.815300     2.807657     2.800014     2.792371     2.784728
      2.777084     2.769441     2.761798     2.754155     2.746511     2.738868     2.731225     2.723582     2.715939     2.708295
      2.700652     2.693009     2.685366     2.677722     2.670079     2.662436     2.654793     2.647150     2.639506     2.631863
      2.624220     2.616577     2.608933     2.601290     2.593647     2.586004     2.578361     2.570717     2.563074     2.555431
      2.547788     2.540144     2.532501     2.524858     2.517215     2.509572     2.501928     2.494285     2.486642     2.478999
      2.471355     2.463712     2.456069     2.448426     2.440783     2.433139     2.425496     2.417853     2.410210     2.402566
      2.394923     2.387280     2.379637     2.371994     2.364350     2.356707     2.349064     2.341421     2.333777     2.326134
      2.318491     2.310848     2.303205     2.295561     2.287918     2.280275     2.272632     2.264988     2.257345     2.249702
      2.242059     2.234416     2.226772     2.219129     2.211486     2.203843     2.196199     2.188556     2.180913     2.173270
      2.165627     2.157983     2.150340     2.142697     2.135054     2.127410     2.119767     2.112124     2.104481     2.096838
      2.089194     2.081551     2.073908     2.066265     2.058621     2.050978     2.043335     2.035692     2.028049     2.020405
      2.012762     2.005119     1.997476     1.989833     1.982190     1.974546     1.966903     1.959260     1.951617     1.943974
      1.936331     1.928688     1.921045     1.913402     1.905759     1.898115     1.890472     1.882829     1.875186     1.867543
      1.859900     1.852257     1.844614     1.836971     1.829327     1.821684     1.814041     1.806398     1.798755     1.791112
      1.783469     1.775826     1.768183     1.760540     1.752896     1.745253     1.737610     1.729967     1.722324     1.714681
      1.707038     1.699395     1.691752     1.684108     1.676465     1.668822     1.661179     1.653536     1.645893     1.638250
      1.630607     1.622964     1.615321     1.607677     1.600034     1.592391     1.584748     1.577105     1.569462     1.561819
      1.554176     1.546533     1.538890     1.531246     1.523603     1.515960     1.508317     1.500674     1.493031     1.485388
      1.477745     1.470102     1.462458     1.454815     1.447172     1.439529     1.431886     1.424243     1.416600     1.408957
      1.401314     1.393671     1.386027     1.378384     1.370741     1.363098     1.355455     1.347812     1.340169     1.332526
      1.324883     1.317240     1.309596     1.301953     1.294310     1.286667     1.279024     1.271381     1.263738     1.256095
      1.248452     1.240808     1.233165     1.225522     1.217879     1.210236     1.202593     1.194950     1.187307     1.179664
      1.172021     1.164377     1.156734     1.149091     1.141448     1.133805     1.126162     1.118519     1.110876     1.103233
      1.095590     1.087946     1.080303     1.072660     1.065017     1.057374     1.049731     1.042088     1.034445     1.026802
      1.019158     1.011515     1.003872     0.996229     0.988586     0.980943     0.973300     0.965657     0.958014     0.950371
      0.942727     0.935084     0.927441     0.919798     0.912155     0.904512     0.896869     0.889226     0.881583     0.873940
      0.866296     0.858653     0.851010     0.843367     0.835724     0.828081     0.820438     0.812795     0.805152     0.797508
      0.789865     0.782222     0.774579     0.766936     0.759293     0.751650     0.744007     0.736364     0.728721     0.721077
      0.713434     0.705791     0.698148     0.690505     0.682862     0.675219     0.667576     0.659933     0.652290     0.644646
      0.637003     0.629360     0.621717     0.614074     0.606431     0.598788     0.591145     0.583502     0.575858     0.568215
      0.560572     0.552929     0.545286     0.537643     0.530000     0.522357     0.514714     0.507071     0.499427     0.491784
      0.484141     0.476498     0.468855     0.461212     0.453569     0.445925     0.438282     0.430639     0.422996     0.415353
      0.407710     0.400067     0.392424     0.384780     0.377137     0.369494     0.361851     0.354208     0.346565     0.338922
      0.331278     0.323635     0.315992     0.308349     0.300706     0.293063     0.285420     0.277777     0.270133     0.262490
      0.254847     0.247204     0.239561     0.231918     0.224275     0.216631     0.208988     0.201345
 NY phased data points follow
  -2.79319E+01 -2.44071E+01 -2.50225E+01 -2.21523E+01 -1.86898E+01 -1.83537E+01 -1.97497E+01 -1.60837E+01 -1.45457E+01 -8.40535E+00
  -9.97296E+00 -8.19871E+00 -9.34291E+00 -9.18401E+00 -9.27334E+00 -1.78144E+01 -1.63022E+01 -2.05697E+01 -2.13224E+01 -2.38364E+01
  -2.46305E+01 -2.46539E+01 -2.26782E+01 -2.36615E+01 -1.97638E+01 -1.90287E+01 -2.01789E+01 -1.98501E+01 -1.55498E+01 -1.09604E+01
  -1.50336E+01 -1.75017E+01 -1.30674E+01 -1.84461E+01 -1.58926E+01 -1.44967E+01 -1.87486E+01 -1.28372E+01 -1.72369E+01 -1.79816E+01
  -2.16924E+01 -1.23840E+01 -1.49911E+01 -1.24234E+01 -1.28418E+01 -1.31579E+01 -1.55458E+01 -1.26941E+01 -1.35333E+01 -1.55033E+01
  -1.39626E+01 -1.30116E+01 -1.25760E+01 -1.51506E+01 -1.30285E+01 -1.32101E+01 -1.59911E+01 -1.31223E+01 -1.67064E+01 -1.64844E+01
  -1.73054E+01 -1.38598E+01 -2.18808E+01 -1.85101E+01 -1.71249E+01 -1.45339E+01 -1.74044E+01 -1.33878E+01 -1.11997E+01 -1.25910E+01
  -1.57679E+01 -1.44538E+01 -1.25966E+01 -1.34737E+01 -1.40017E+01 -1.62956E+01 -8.61256E+00 -1.54717E+01 -1.24280E+01 -1.18755E+01
  -1.66024E+01 -1.62640E+01 -8.27616E+00 -1.26458E+01 -6.32749E+00 -1.26291E+01 -9.78703E+00 -1.00060E+01 -1.14929E+01 -9.14251E+00
  -7.01383E+00 -7.03938E+00 -9.19155E+00 -7.36283E+00 -6.91063E+00 -6.96389E+00 -7.06496E+00 -3.64425E+00  1.24917E+00  1.11363E+01
   8.37019E+00  1.60799E+01  1.09662E+01  1.27176E+01  7.88800E+00  6.08262E+00  5.55139E+00 -1.83685E-01  1.56377E+00 -6.16648E+00
  -7.69668E+00 -7.08423E+00 -8.59370E+00 -1.15062E+01 -1.41789E+01 -1.41922E+01 -1.02911E+01 -1.29426E+01 -7.70480E+00 -1.04074E+01
  -1.02962E+01 -8.29504E+00 -1.09694E+00  5.72664E+00  1.24901E+01  1.15193E+01  1.50547E+01  1.54149E+01  1.23047E+01  8.61744E+00
   1.36329E+01  1.21996E+01  8.91474E+00  2.78186E+00  2.53302E+00 -4.80349E+00 -3.34605E+00 -7.53201E+00 -9.36999E+00 -1.18060E+01
  -1.20673E+01 -9.17636E+00 -1.27566E+01 -8.89892E+00 -1.04750E+01 -1.14768E+01 -1.00587E+01 -1.33598E+01 -1.09926E+01 -8.49504E+00
  -1.00987E+01 -1.25861E+01 -7.09419E+00 -1.19514E+01 -7.90780E+00 -1.12696E+01 -6.23732E+00 -5.51581E+00 -8.89097E+00 -1.08989E+01
  -2.99519E+00 -7.97538E+00 -8.26890E+00 -1.31246E+01 -1.20956E+01 -1.20593E+01 -7.70949E+00 -9.36238E+00 -1.39390E+01 -1.81696E+01
  -1.50216E+01 -1.66643E+01 -1.50785E+01 -1.21247E+01 -1.51545E+01 -1.43502E+01 -1.60857E+01 -1.57890E+01 -1.88422E+01 -1.41252E+01
  -1.04695E+01 -1.45740E+01 -1.44557E+01 -1.28712E+01 -1.38961E+01 -1.43380E+01 -1.16881E+01 -1.34322E+01 -1.12737E+01 -7.53532E+00
  -1.47692E+01 -1.32004E+01 -8.11619E+00 -1.69668E+01 -1.02129E+01 -8.60579E+00 -6.83539E+00 -8.68467E+00 -1.08815E+01 -9.16850E+00
  -1.14525E+01 -8.86902E+00 -4.20663E+00 -5.83774E+00  1.87380E+00 -4.66616E+00 -6.47558E+00 -4.27534E+00 -1.70286E+00 -4.08955E+00
  -2.14611E+00 -5.70807E+00  7.91732E-01 -2.63971E+00 -2.15851E+00 -2.42636E+00 -1.69230E-02 -2.63452E+00 -2.65926E+00 -5.57982E+00
  -8.90982E+00 -5.11645E+00 -3.54973E+00 -5.29760E+00 -4.04414E+00 -8.99410E-01 -1.18966E-01 -2.89295E+00  4.15966E-01 -2.28190E+00
   7.26320E-02  6.87762E-01 -1.68509E+00 -3.44190E-01  2.23008E+00  9.99724E-01 -1.18365E+00 -5.43896E-01  2.69478E+00 -1.99864E+00
  -7.16023E-01 -2.05924E-01 -8.77112E-01  2.61946E+00  3.87747E+00  1.44513E+00  3.56312E+00  4.21945E+00  5.42898E+00  7.12041E+00
   7.30821E+00  1.00802E+01  9.77638E+00  1.08001E+01  1.86022E+01  2.32036E+01  3.89479E+01  4.53473E+01  5.34079E+01  5.51528E+01
   5.22178E+01  4.79258E+01  4.59965E+01  3.84963E+01  3.82045E+01  3.01334E+01  2.83227E+01  1.97927E+01  1.60288E+01  1.18964E+01
   6.46250E+00  4.86577E+00  3.79658E+00  3.57656E-01  1.33034E+00  1.22892E+00  2.12018E+00  2.57850E+00 -1.17099E-01 -3.43893E-01
  -1.24504E+00  1.79319E+00  3.87382E-01 -1.50598E-01 -1.17310E+00 -2.97743E+00  5.21127E+00 -1.90001E+00  8.30474E-01 -3.13446E+00
  -2.35676E-01 -1.42573E+00  2.63710E-01 -7.72277E-01  9.87127E-01  8.95538E-01 -2.45323E+00  2.50157E+00 -6.22805E-01  3.67507E+00
   2.68225E+00  3.84556E+00  9.24497E-01  3.47231E+00  2.88101E+00  8.95494E+00  4.36115E+00  1.23054E+01  6.19213E+00  8.11704E+00
   4.98445E+00  9.17194E+00  6.64561E+00  9.03002E+00  1.14089E+01  7.57036E+00  6.60150E+00  5.32715E+00  8.47411E+00  4.66715E+00
   9.06552E+00  9.81103E+00  3.29395E+00  6.62407E+00  5.06792E+00  6.47913E+00  7.39593E+00  8.66417E+00  7.15211E+00  1.18968E+01
   7.99984E+00  5.61405E+00  6.27039E+00  6.02886E+00  7.85821E+00  6.11307E+00  9.24651E+00  8.31119E+00  4.93685E+00  1.09457E+01
   1.19093E+01  1.37001E+01  1.23123E+01  9.12134E+00  7.66712E+00  9.62323E+00  9.00856E+00  1.16359E+01  8.99433E+00  5.55677E+00
   7.12219E+00  3.72813E+00  4.04486E+00  7.32941E+00  6.08835E+00  9.86007E+00  5.13413E+00  5.49043E+00  5.71762E+00  8.93867E+00
   6.41160E+00  5.89168E+00  9.99185E+00  4.92613E+00  5.72889E+00  6.27979E+00  3.60704E+00  5.44104E+00  6.42450E+00  5.94625E+00
   2.11809E+00  4.30534E+00  3.35555E-01  2.57560E+00  1.15055E+00 -8.96757E-01  6.94754E+00  2.50569E+00 -1.60870E+00  4.01333E+00
  -1.18443E+00 -9.49572E-01 -2.86943E+00 -1.44555E+00 -2.23896E+00 -5.24231E+00  1.46125E+00 -2.19529E+00 -2.62562E-01 -6.24125E-03
  -2.74902E+00 -1.13049E+00  3.35719E+00 -1.29287E-01  2.98078E-01  4.73126E+00  2.02602E+00  5.37514E+00  5.93968E+00  7.35365E+00
   6.16373E+00  7.65074E+00  9.02115E+00  1.09972E+01  1.00558E+01  9.46676E+00  1.27284E+01  1.10240E+01  1.30840E+01  7.24361E+00
   1.01838E+01  1.12514E+01  1.13522E+01  8.28454E+00  8.29750E+00  7.54304E+00  9.36273E+00  7.61090E+00  6.45772E+00  3.14620E+00
   1.23452E-01 -3.72296E-01  7.30449E+00  8.35382E+00  2.59311E+00  3.10391E+00  3.08501E-01  2.01098E+00  3.82522E+00  1.88743E+00
  -3.51565E+00 -4.83272E-01  3.73858E+00 -7.10253E-01  3.25241E-02  3.11158E+00  1.74465E+00  1.56494E+00  7.26019E-01 -7.81710E+00
  -1.83062E+00  1.65399E+00  4.28031E-01  3.87641E+00 -2.33401E+00  1.48788E+00  7.18358E-01 -1.88610E+00 -8.48006E-01 -8.61700E-02
  -8.70915E-01 -1.22030E-01 -4.76402E+00 -2.14290E+00  2.05700E+00 -2.17579E+00  1.04356E+00 -4.49997E-01 -4.31718E+00 -2.95518E+00
   6.66779E-02  8.65028E-01 -1.83424E+00 -4.16700E-01 -2.13236E-01 -9.33613E-01 -2.86020E+00  3.76835E+00 -3.20168E+00  2.23610E+00
  -3.19596E-01 -3.44373E-01 -1.31521E+00  5.18624E-01 -3.84219E-01  6.61197E-01  2.82749E+00  6.10896E-01  6.61047E-01 -3.05084E+00
  -1.33565E+00  1.21763E+00 -3.92683E-01 -1.82536E+00  5.25491E-01  5.10092E-01 -2.42060E+00 -6.25169E-02 -3.12597E+00 -2.79374E-01
   1.06398E+00  1.12804E+00 -2.34509E+00  2.27233E+00 -9.86963E-01 -3.22509E+00 -7.51112E-01 -8.41573E-02
 NY points of the fit to the data follow
  -2.18053E+01 -2.18289E+01 -2.16076E+01 -2.09449E+01 -1.96698E+01 -1.78384E+01 -1.57560E+01 -1.38081E+01 -1.23198E+01 -1.14610E+01
  -1.12129E+01 -1.13996E+01 -1.18327E+01 -1.24231E+01 -1.31803E+01 -1.40943E+01 -1.51160E+01 -1.61822E+01 -1.72374E+01 -1.82344E+01
  -1.91006E+01 -1.96585E+01 -1.98076E+01 -1.96905E+01 -1.93021E+01 -1.86308E+01 -1.77404E+01 -1.67639E+01 -1.58487E+01 -1.51290E+01
  -1.46746E+01 -1.44760E+01 -1.44729E+01 -1.46207E+01 -1.49042E+01 -1.53009E+01 -1.57602E+01 -1.62122E+01 -1.65838E+01 -1.68084E+01
  -1.68202E+01 -1.65447E+01 -1.59586E+01 -1.51864E+01 -1.44332E+01 -1.38613E+01 -1.35699E+01 -1.35772E+01 -1.38202E+01 -1.41875E+01
  -1.45933E+01 -1.50053E+01 -1.53948E+01 -1.57215E+01 -1.59525E+01 -1.60901E+01 -1.61557E+01 -1.61666E+01 -1.61447E+01 -1.60971E+01
  -1.60351E+01 -1.59675E+01 -1.58907E+01 -1.58006E+01 -1.57084E+01 -1.56192E+01 -1.55202E+01 -1.53989E+01 -1.52317E+01 -1.49951E+01
  -1.46831E+01 -1.43287E+01 -1.40115E+01 -1.38202E+01 -1.38073E+01 -1.39596E+01 -1.41879E+01 -1.43463E+01 -1.43320E+01 -1.40825E+01
  -1.35538E+01 -1.27391E+01 -1.17397E+01 -1.07367E+01 -9.91723E+00 -9.41357E+00 -9.25548E+00 -9.38343E+00 -9.71095E+00 -1.01816E+01
  -1.07573E+01 -1.13551E+01 -1.17188E+01 -1.16013E+01 -1.07562E+01 -8.86155E+00 -5.72635E+00 -1.54218E+00  3.07448E+00  7.28223E+00
   1.02950E+01  1.17682E+01  1.18113E+01  1.08213E+01  9.23285E+00  7.28676E+00  5.02015E+00  2.45763E+00 -2.91112E-01 -3.08047E+00
  -5.73646E+00 -8.10477E+00 -1.00637E+01 -1.14361E+01 -1.21053E+01 -1.23773E+01 -1.24994E+01 -1.23591E+01 -1.17720E+01 -1.05835E+01
  -8.48256E+00 -5.17927E+00 -7.21584E-01  4.33744E+00  9.11736E+00  1.27924E+01  1.49032E+01  1.54451E+01  1.47618E+01  1.33096E+01
   1.13940E+01  9.08952E+00  6.40528E+00  3.45317E+00  4.28185E-01 -2.45231E+00 -4.99623E+00 -7.06508E+00 -8.52112E+00 -9.23686E+00
  -9.44176E+00 -9.53308E+00 -9.60511E+00 -9.66545E+00 -9.71117E+00 -9.74380E+00 -9.77758E+00 -9.83941E+00 -9.93980E+00 -1.00681E+01
  -1.02066E+01 -1.03408E+01 -1.04587E+01 -1.05639E+01 -1.06731E+01 -1.08123E+01 -1.09906E+01 -1.11841E+01 -1.13396E+01 -1.14134E+01
  -1.14037E+01 -1.13539E+01 -1.13283E+01 -1.13761E+01 -1.15084E+01 -1.17027E+01 -1.19278E+01 -1.21653E+01 -1.24089E+01 -1.26746E+01
  -1.29752E+01 -1.32978E+01 -1.36047E+01 -1.38545E+01 -1.40164E+01 -1.40918E+01 -1.41071E+01 -1.40907E+01 -1.40709E+01 -1.40499E+01
  -1.40117E+01 -1.39378E+01 -1.37995E+01 -1.35516E+01 -1.31463E+01 -1.25624E+01 -1.18272E+01 -1.10167E+01 -1.02305E+01 -9.53033E+00
  -8.92526E+00 -8.43072E+00 -8.06442E+00 -7.83386E+00 -7.70522E+00 -7.63171E+00 -7.57427E+00 -7.49404E+00 -7.35892E+00 -7.16008E+00
  -6.91247E+00 -6.65413E+00 -6.44167E+00 -6.32145E+00 -6.31378E+00 -6.40875E+00 -6.57227E+00 -6.76059E+00 -6.91309E+00 -6.95454E+00
  -6.83995E+00 -6.56961E+00 -6.21981E+00 -5.91486E+00 -5.75670E+00 -5.78987E+00 -5.99786E+00 -6.31184E+00 -6.61291E+00 -6.78470E+00
  -6.75296E+00 -6.50596E+00 -6.08997E+00 -5.57443E+00 -5.03770E+00 -4.53532E+00 -4.05799E+00 -3.56210E+00 -3.01053E+00 -2.40920E+00
  -1.76928E+00 -1.10382E+00 -4.54189E-01  1.05750E-01  5.06828E-01  7.38157E-01  8.50478E-01  9.11599E-01  9.94759E-01  1.17865E+00
   1.50968E+00  1.98455E+00  2.55572E+00  3.15453E+00  3.72254E+00  4.23340E+00  4.68804E+00  5.11408E+00  5.55525E+00  6.08410E+00
   6.93601E+00  8.43756E+00  1.08131E+01  1.45304E+01  2.01094E+01  2.75401E+01  3.59445E+01  4.38128E+01  4.96692E+01  5.26419E+01
   5.26773E+01  5.03864E+01  4.66711E+01  4.22305E+01  3.73386E+01  3.20384E+01  2.64554E+01  2.08247E+01  1.54155E+01  1.05057E+01
   6.34183E+00  3.21019E+00  1.39447E+00  6.45332E-01  2.26400E-01 -9.94271E-02 -3.75449E-01 -6.18001E-01 -8.33283E-01 -1.02052E+00
  -1.18145E+00 -1.31720E+00 -1.42779E+00 -1.51225E+00 -1.56781E+00 -1.58912E+00 -1.57187E+00 -1.51464E+00 -1.41654E+00 -1.27638E+00
  -1.09297E+00 -8.65673E-01 -5.94241E-01 -2.78336E-01  8.25689E-02  4.87468E-01  9.33965E-01  1.41818E+00  1.93481E+00  2.47698E+00
   3.03628E+00  3.60300E+00  4.16662E+00  4.71586E+00  5.23947E+00  5.72666E+00  6.16752E+00  6.55338E+00  6.87752E+00  7.13547E+00
   7.32555E+00  7.44875E+00  7.50883E+00  7.51192E+00  7.46647E+00  7.38258E+00  7.27160E+00  7.14524E+00  7.01514E+00  6.89215E+00
   6.78596E+00  6.70456E+00  6.65407E+00  6.63834E+00  6.65907E+00  6.71585E+00  6.80651E+00  6.92736E+00  7.07363E+00  7.23980E+00
   7.42016E+00  7.60930E+00  7.80280E+00  7.99762E+00  8.19304E+00  8.39174E+00  8.60311E+00  8.84962E+00  9.14741E+00  9.49179E+00
   9.88464E+00  1.02948E+01  1.06209E+01  1.07109E+01  1.04345E+01  9.77190E+00  8.81656E+00  7.72532E+00  6.70263E+00  5.95072E+00
   5.58810E+00  5.60623E+00  5.89795E+00  6.32177E+00  6.74763E+00  7.09028E+00  7.32817E+00  7.48920E+00  7.61061E+00  7.68947E+00
   7.65285E+00  7.43422E+00  7.05605E+00  6.55472E+00  5.96605E+00  5.32679E+00  4.68825E+00  4.12359E+00  3.65226E+00  3.23566E+00
   2.85599E+00  2.50720E+00  2.18720E+00  1.89539E+00  1.63188E+00  1.39692E+00  1.19089E+00  1.01416E+00  8.67122E-01  7.50139E-01
   6.63661E-01  6.08193E-01  5.84475E-01  5.93442E-01  6.36357E-01  7.14721E-01  8.30374E-01  9.85387E-01  1.18211E+00  1.42293E+00
   1.71025E+00  2.04610E+00  2.43201E+00  2.86864E+00  3.35552E+00  3.89064E+00  4.47016E+00  5.08812E+00  5.73629E+00  6.40408E+00
   7.07869E+00  7.74529E+00  8.38746E+00  8.98778E+00  9.52863E+00  9.99297E+00  1.03653E+01  1.06323E+01  1.07840E+01  1.08141E+01
   1.07203E+01  1.05050E+01  1.01743E+01  9.73872E+00  9.21163E+00  8.60910E+00  7.94884E+00  7.24920E+00  6.52841E+00  5.80364E+00
   5.09040E+00  4.40202E+00  3.74939E+00  3.14070E+00  2.58161E+00  2.07529E+00  1.62284E+00  1.22352E+00  8.75202E-01  5.74691E-01
   3.18108E-01  1.01145E-01 -8.05804E-02 -2.31405E-01 -3.55404E-01 -4.56388E-01 -5.37758E-01 -6.02556E-01 -6.53373E-01 -6.92462E-01
  -7.21697E-01 -7.42703E-01 -7.56804E-01 -7.65127E-01 -7.68554E-01 -7.67848E-01 -7.63611E-01 -7.56390E-01 -7.46598E-01 -7.34608E-01
  -7.20682E-01 -7.05080E-01 -6.87997E-01 -6.69643E-01 -6.50152E-01 -6.29664E-01 -6.08260E-01 -5.86054E-01 -5.63119E-01 -5.39559E-01
  -5.15414E-01 -4.90749E-01 -4.65584E-01 -4.39987E-01 -4.13988E-01 -3.87647E-01 -3.60966E-01 -3.33979E-01 -3.06688E-01 -2.79141E-01
  -2.51347E-01 -2.23343E-01 -1.95111E-01 -1.66677E-01 -1.38034E-01 -1.09224E-01 -8.02421E-02 -5.11092E-02 -2.18011E-02  7.66292E-03
   3.72891E-02  6.70455E-02  9.69473E-02  1.26985E-01  1.57187E-01  1.87535E-01  2.18038E-01  2.48675E-01  2.79472E-01  3.10430E-01
   3.41581E-01  3.72908E-01  4.04432E-01  4.36147E-01  4.68096E-01  5.00292E-01  5.32780E-01  5.65560E-01
 NY background values follow
    -2.347E+01   -2.339E+01   -2.332E+01   -2.325E+01   -2.318E+01   -2.311E+01   -2.304E+01   -2.297E+01   -2.290E+01   -2.283E+01
    -2.276E+01   -2.269E+01   -2.261E+01   -2.254E+01   -2.247E+01   -2.240E+01   -2.233E+01   -2.226E+01   -2.219E+01   -2.212E+01
    -2.204E+01   -2.197E+01   -2.190E+01   -2.183E+01   -2.176E+01   -2.169E+01   -2.162E+01   -2.154E+01   -2.147E+01   -2.140E+01
    -2.133E+01   -2.126E+01   -2.119E+01   -2.112E+01   -2.104E+01   -2.097E+01   -2.090E+01   -2.083E+01   -2.076E+01   -2.069E+01
    -2.062E+01   -2.054E+01   -2.047E+01   -2.040E+01   -2.033E+01   -2.026E+01   -2.019E+01   -2.012E+01   -2.004E+01   -1.997E+01
    -1.990E+01   -1.983E+01   -1.976E+01   -1.969E+01   -1.962E+01   -1.955E+01   -1.947E+01   -1.940E+01   -1.933E+01   -1.926E+01
    -1.919E+01   -1.912E+01   -1.905E+01   -1.898E+01   -1.891E+01   -1.884E+01   -1.877E+01   -1.869E+01   -1.862E+01   -1.855E+01
    -1.848E+01   -1.841E+01   -1.834E+01   -1.827E+01   -1.820E+01   -1.813E+01   -1.806E+01   -1.799E+01   -1.792E+01   -1.785E+01
    -1.778E+01   -1.771E+01   -1.764E+01   -1.757E+01   -1.750E+01   -1.743E+01   -1.736E+01   -1.729E+01   -1.722E+01   -1.715E+01
    -1.708E+01   -1.702E+01   -1.695E+01   -1.688E+01   -1.681E+01   -1.674E+01   -1.667E+01   -1.660E+01   -1.653E+01   -1.646E+01
    -1.640E+01   -1.633E+01   -1.626E+01   -1.619E+01   -1.612E+01   -1.605E+01   -1.599E+01   -1.592E+01   -1.585E+01   -1.578E+01
    -1.572E+01   -1.565E+01   -1.558E+01   -1.551E+01   -1.545E+01   -1.538E+01   -1.531E+01   -1.525E+01   -1.518E+01   -1.511E+01
    -1.504E+01   -1.498E+01   -1.491E+01   -1.485E+01   -1.478E+01   -1.471E+01   -1.465E+01   -1.458E+01   -1.452E+01   -1.445E+01
    -1.438E+01   -1.432E+01   -1.425E+01   -1.419E+01   -1.412E+01   -1.406E+01   -1.399E+01   -1.393E+01   -1.386E+01   -1.380E+01
    -1.373E+01   -1.367E+01   -1.360E+01   -1.354E+01   -1.348E+01   -1.341E+01   -1.335E+01   -1.328E+01   -1.322E+01   -1.316E+01
    -1.309E+01   -1.303E+01   -1.297E+01   -1.290E+01   -1.284E+01   -1.278E+01   -1.272E+01   -1.265E+01   -1.259E+01   -1.253E+01
    -1.247E+01   -1.240E+01   -1.234E+01   -1.228E+01   -1.222E+01   -1.216E+01   -1.210E+01   -1.203E+01   -1.197E+01   -1.191E+01
    -1.185E+01   -1.179E+01   -1.173E+01   -1.167E+01   -1.161E+01   -1.155E+01   -1.149E+01   -1.143E+01   -1.137E+01   -1.131E+01
    -1.125E+01   -1.119E+01   -1.113E+01   -1.107E+01   -1.101E+01   -1.095E+01   -1.090E+01   -1.084E+01   -1.078E+01   -1.072E+01
    -1.066E+01   -1.060E+01   -1.055E+01   -1.049E+01   -1.043E+01   -1.037E+01   -1.032E+01   -1.026E+01   -1.020E+01   -1.015E+01
    -1.009E+01   -1.003E+01   -9.976E+00   -9.920E+00   -9.864E+00   -9.808E+00   -9.752E+00   -9.696E+00   -9.641E+00   -9.586E+00
    -9.531E+00   -9.476E+00   -9.421E+00   -9.366E+00   -9.312E+00   -9.258E+00   -9.204E+00   -9.150E+00   -9.096E+00   -9.042E+00
    -8.989E+00   -8.936E+00   -8.883E+00   -8.830E+00   -8.777E+00   -8.724E+00   -8.672E+00   -8.620E+00   -8.568E+00   -8.516E+00
    -8.464E+00   -8.413E+00   -8.361E+00   -8.310E+00   -8.259E+00   -8.208E+00   -8.158E+00   -8.107E+00   -8.057E+00   -8.007E+00
    -7.957E+00   -7.907E+00   -7.857E+00   -7.808E+00   -7.758E+00   -7.709E+00   -7.660E+00   -7.611E+00   -7.563E+00   -7.514E+00
    -7.466E+00   -7.418E+00   -7.370E+00   -7.322E+00   -7.274E+00   -7.227E+00   -7.179E+00   -7.132E+00   -7.085E+00   -7.038E+00
    -6.992E+00   -6.945E+00   -6.899E+00   -6.852E+00   -6.806E+00   -6.760E+00   -6.715E+00   -6.669E+00   -6.624E+00   -6.578E+00
    -6.533E+00   -6.488E+00   -6.444E+00   -6.399E+00   -6.354E+00   -6.310E+00   -6.266E+00   -6.222E+00   -6.178E+00   -6.134E+00
    -6.091E+00   -6.047E+00   -6.004E+00   -5.961E+00   -5.918E+00   -5.875E+00   -5.832E+00   -5.790E+00   -5.747E+00   -5.705E+00
    -5.663E+00   -5.621E+00   -5.579E+00   -5.538E+00   -5.496E+00   -5.455E+00   -5.413E+00   -5.372E+00   -5.331E+00   -5.290E+00
    -5.250E+00   -5.209E+00   -5.169E+00   -5.128E+00   -5.088E+00   -5.048E+00   -5.008E+00   -4.968E+00   -4.929E+00   -4.889E+00
    -4.850E+00   -4.811E+00   -4.772E+00   -4.733E+00   -4.694E+00   -4.655E+00   -4.616E+00   -4.578E+00   -4.539E+00   -4.501E+00
    -4.463E+00   -4.425E+00   -4.387E+00   -4.349E+00   -4.312E+00   -4.274E+00   -4.237E+00   -4.199E+00   -4.162E+00   -4.125E+00
    -4.088E+00   -4.051E+00   -4.014E+00   -3.978E+00   -3.941E+00   -3.905E+00   -3.868E+00   -3.832E+00   -3.796E+00   -3.760E+00
    -3.724E+00   -3.688E+00   -3.652E+00   -3.617E+00   -3.581E+00   -3.546E+00   -3.510E+00   -3.475E+00   -3.440E+00   -3.405E+00
    -3.370E+00   -3.335E+00   -3.300E+00   -3.265E+00   -3.230E+00   -3.196E+00   -3.161E+00   -3.127E+00   -3.092E+00   -3.058E+00
    -3.024E+00   -2.989E+00   -2.955E+00   -2.921E+00   -2.887E+00   -2.853E+00   -2.820E+00   -2.786E+00   -2.752E+00   -2.719E+00
    -2.685E+00   -2.652E+00   -2.618E+00   -2.585E+00   -2.551E+00   -2.518E+00   -2.485E+00   -2.452E+00   -2.419E+00   -2.386E+00
    -2.353E+00   -2.320E+00   -2.287E+00   -2.255E+00   -2.222E+00   -2.189E+00   -2.157E+00   -2.124E+00   -2.092E+00   -2.059E+00
    -2.027E+00   -1.994E+00   -1.962E+00   -1.930E+00   -1.898E+00   -1.866E+00   -1.833E+00   -1.801E+00   -1.769E+00   -1.737E+00
    -1.705E+00   -1.674E+00   -1.642E+00   -1.610E+00   -1.578E+00   -1.547E+00   -1.515E+00   -1.483E+00   -1.452E+00   -1.420E+00
    -1.389E+00   -1.357E+00   -1.326E+00   -1.294E+00   -1.263E+00   -1.232E+00   -1.200E+00   -1.169E+00   -1.138E+00   -1.107E+00
    -1.075E+00   -1.044E+00   -1.013E+00   -9.822E-01   -9.512E-01   -9.202E-01   -8.893E-01   -8.584E-01   -8.275E-01   -7.966E-01
    -7.658E-01   -7.350E-01   -7.043E-01   -6.736E-01   -6.429E-01   -6.123E-01   -5.816E-01   -5.511E-01   -5.205E-01   -4.900E-01
    -4.595E-01   -4.290E-01   -3.986E-01   -3.682E-01   -3.378E-01   -3.075E-01   -2.772E-01   -2.469E-01   -2.166E-01   -1.864E-01
    -1.562E-01   -1.260E-01   -9.589E-02   -6.577E-02   -3.569E-02   -5.629E-03    2.440E-02    5.441E-02    8.439E-02    1.143E-01
     1.443E-01    1.742E-01    2.041E-01    2.339E-01    2.638E-01    2.936E-01    3.234E-01    3.532E-01    3.829E-01    4.127E-01
     4.424E-01    4.721E-01    5.017E-01    5.314E-01    5.610E-01    5.907E-01    6.203E-01    6.499E-01    6.794E-01    7.090E-01
     7.385E-01    7.681E-01    7.976E-01    8.271E-01    8.566E-01    8.861E-01    9.155E-01    9.450E-01    9.744E-01    1.004E+00
     1.033E+00    1.063E+00    1.092E+00    1.121E+00    1.151E+00    1.180E+00    1.210E+00    1.239E+00
 PCr      Conc. = 1.12E+03
