 LCModel (Version 6.3-1L) Copyright: S.W. Provencher.          Ref.: Magn. Reson. Med. 30:672-679 (1993).                
 Slice#3 Row#6 Col#10  PD_24_press_1_raw_act
 36 lines in following concentration table = NCONC+1
    Conc.  %SD /Cr+PCr  Metabolite                                         
  295.983  35%   0.147 Ala                                                 
    0.000 999%   0.000 Asp                                                 
  681.230  30%   0.337 Cr                                                  
 1.34E+03  16%   0.663 PCr                                                 
    0.000 999%   0.000 GABA                                                
    0.000 999%   0.000 Glc                                                 
  824.709  25%   0.408 Gln                                                 
 1.85E+03  13%   0.917 Glu                                                 
  753.745   3%   0.373 GPC                                                 
    0.000 999%   0.000 PCh                                                 
  571.221  12%   0.283 GSH                                                 
 1.17E+03  20%   0.578 Ins                                                 
    0.000 999%   0.000 Lac                                                 
 2.59E+03   3%   1.282 NAA                                                 
    0.000 999%   0.000 NAAG                                                
  125.761  20% 6.2E-02 Scyllo                                              
    0.000 999%   0.000 Tau                                                 
    0.000 999%   0.000 -CrCH2                                              
  753.745   3%   0.373 GPC+PCh                                             
 2.59E+03   3%   1.282 NAA+NAAG                                            
 2.02E+03   3%   1.000 Cr+PCr                                              
 2.68E+03  12%   1.326 Glu+Gln                                             
 3.13E+03  28%   1.549 Lip13a                                              
  666.518  23%   0.330 Lip13b                                              
  974.709  40%   0.483 Lip09                                               
 1.20E+03  32%   0.592 MM09                                                
  501.265  52%   0.248 Lip20                                               
 2.84E+03  15%   1.408 MM20                                                
  436.035  72%   0.216 MM12                                                
 1.24E+03  37%   0.616 MM14                                                
 1.21E+03  24%   0.598 MM17                                                
 3.79E+03  22%   1.879 Lip13a+Lip13b                                       
 5.47E+03  10%   2.711 MM14+Lip13a+Lip13b+MM12                             
 2.17E+03  11%   1.075 MM09+Lip09                                          
 3.34E+03  12%   1.657 MM20+Lip20                                          
   6 lines in following misc. output table
  FWHM = 0.061 ppm    S/N =  15                                            
  Data shift = 0.015 ppm                                                   
  Ph:  -8 deg      -1.1 deg/ppm                                            
  alphaB,S = 9.8E-01,   1.9E+02                                            
   14 spline knots.   Ns = 7(1)                                            
  (10) 2 infls.   ( 3) 1 extrs.                                            
  498 points on ppm-axis = NY
      4.000000     3.992357     3.984714     3.977070     3.969427     3.961784     3.954141     3.946497     3.938854     3.931211
      3.923568     3.915925     3.908281     3.900638     3.892995     3.885352     3.877708     3.870065     3.862422     3.854779
      3.847136     3.839492     3.831849     3.824206     3.816563     3.808919     3.801276     3.793633     3.785990     3.778347
      3.770703     3.763060     3.755417     3.747774     3.740130     3.732487     3.724844     3.717201     3.709558     3.701914
      3.694271     3.686628     3.678985     3.671341     3.663698     3.656055     3.648412     3.640769     3.633125     3.625482
      3.617839     3.610196     3.602552     3.594909     3.587266     3.579623     3.571980     3.564336     3.556693     3.549050
      3.541407     3.533763     3.526120     3.518477     3.510834     3.503191     3.495547     3.487904     3.480261     3.472618
      3.464974     3.457331     3.449688     3.442045     3.434402     3.426758     3.419115     3.411472     3.403829     3.396185
      3.388542     3.380899     3.373256     3.365613     3.357969     3.350326     3.342683     3.335040     3.327396     3.319753
      3.312110     3.304467     3.296824     3.289180     3.281537     3.273894     3.266251     3.258607     3.250964     3.243321
      3.235678     3.228034     3.220391     3.212748     3.205105     3.197462     3.189818     3.182175     3.174532     3.166889
      3.159245     3.151602     3.143959     3.136316     3.128673     3.121029     3.113386     3.105743     3.098100     3.090456
      3.082813     3.075170     3.067527     3.059884     3.052240     3.044597     3.036954     3.029311     3.021667     3.014024
      3.006381     2.998738     2.991095     2.983451     2.975808     2.968165     2.960522     2.952878     2.945235     2.937592
      2.929949     2.922306     2.914662     2.907019     2.899376     2.891733     2.884089     2.876446     2.868803     2.861160
      2.853517     2.845873     2.838230     2.830587     2.822944     2.815300     2.807657     2.800014     2.792371     2.784728
      2.777084     2.769441     2.761798     2.754155     2.746511     2.738868     2.731225     2.723582     2.715939     2.708295
      2.700652     2.693009     2.685366     2.677722     2.670079     2.662436     2.654793     2.647150     2.639506     2.631863
      2.624220     2.616577     2.608933     2.601290     2.593647     2.586004     2.578361     2.570717     2.563074     2.555431
      2.547788     2.540144     2.532501     2.524858     2.517215     2.509572     2.501928     2.494285     2.486642     2.478999
      2.471355     2.463712     2.456069     2.448426     2.440783     2.433139     2.425496     2.417853     2.410210     2.402566
      2.394923     2.387280     2.379637     2.371994     2.364350     2.356707     2.349064     2.341421     2.333777     2.326134
      2.318491     2.310848     2.303205     2.295561     2.287918     2.280275     2.272632     2.264988     2.257345     2.249702
      2.242059     2.234416     2.226772     2.219129     2.211486     2.203843     2.196199     2.188556     2.180913     2.173270
      2.165627     2.157983     2.150340     2.142697     2.135054     2.127410     2.119767     2.112124     2.104481     2.096838
      2.089194     2.081551     2.073908     2.066265     2.058621     2.050978     2.043335     2.035692     2.028049     2.020405
      2.012762     2.005119     1.997476     1.989833     1.982190     1.974546     1.966903     1.959260     1.951617     1.943974
      1.936331     1.928688     1.921045     1.913402     1.905759     1.898115     1.890472     1.882829     1.875186     1.867543
      1.859900     1.852257     1.844614     1.836971     1.829327     1.821684     1.814041     1.806398     1.798755     1.791112
      1.783469     1.775826     1.768183     1.760540     1.752896     1.745253     1.737610     1.729967     1.722324     1.714681
      1.707038     1.699395     1.691752     1.684108     1.676465     1.668822     1.661179     1.653536     1.645893     1.638250
      1.630607     1.622964     1.615321     1.607677     1.600034     1.592391     1.584748     1.577105     1.569462     1.561819
      1.554176     1.546533     1.538890     1.531246     1.523603     1.515960     1.508317     1.500674     1.493031     1.485388
      1.477745     1.470102     1.462458     1.454815     1.447172     1.439529     1.431886     1.424243     1.416600     1.408957
      1.401314     1.393671     1.386027     1.378384     1.370741     1.363098     1.355455     1.347812     1.340169     1.332526
      1.324883     1.317240     1.309596     1.301953     1.294310     1.286667     1.279024     1.271381     1.263738     1.256095
      1.248452     1.240808     1.233165     1.225522     1.217879     1.210236     1.202593     1.194950     1.187307     1.179664
      1.172021     1.164377     1.156734     1.149091     1.141448     1.133805     1.126162     1.118519     1.110876     1.103233
      1.095590     1.087946     1.080303     1.072660     1.065017     1.057374     1.049731     1.042088     1.034445     1.026802
      1.019158     1.011515     1.003872     0.996229     0.988586     0.980943     0.973300     0.965657     0.958014     0.950371
      0.942727     0.935084     0.927441     0.919798     0.912155     0.904512     0.896869     0.889226     0.881583     0.873940
      0.866296     0.858653     0.851010     0.843367     0.835724     0.828081     0.820438     0.812795     0.805152     0.797508
      0.789865     0.782222     0.774579     0.766936     0.759293     0.751650     0.744007     0.736364     0.728721     0.721077
      0.713434     0.705791     0.698148     0.690505     0.682862     0.675219     0.667576     0.659933     0.652290     0.644646
      0.637003     0.629360     0.621717     0.614074     0.606431     0.598788     0.591145     0.583502     0.575858     0.568215
      0.560572     0.552929     0.545286     0.537643     0.530000     0.522357     0.514714     0.507071     0.499427     0.491784
      0.484141     0.476498     0.468855     0.461212     0.453569     0.445925     0.438282     0.430639     0.422996     0.415353
      0.407710     0.400067     0.392424     0.384780     0.377137     0.369494     0.361851     0.354208     0.346565     0.338922
      0.331278     0.323635     0.315992     0.308349     0.300706     0.293063     0.285420     0.277777     0.270133     0.262490
      0.254847     0.247204     0.239561     0.231918     0.224275     0.216631     0.208988     0.201345
 NY phased data points follow
   4.28413E+01  4.17636E+01  3.66758E+01  4.27432E+01  4.63557E+01  5.08793E+01  5.61070E+01  6.53370E+01  7.26362E+01  7.95234E+01
   8.05849E+01  8.24312E+01  7.35645E+01  6.88592E+01  6.49203E+01  5.28537E+01  5.10346E+01  4.38657E+01  3.87421E+01  3.87726E+01
   3.47013E+01  3.81609E+01  3.68781E+01  3.94042E+01  3.53593E+01  3.84914E+01  3.45471E+01  4.25227E+01  3.71712E+01  4.18474E+01
   4.17610E+01  4.18903E+01  4.05836E+01  4.12763E+01  3.66322E+01  3.46239E+01  3.48967E+01  3.62894E+01  3.33139E+01  2.89024E+01
   2.94005E+01  3.17563E+01  3.18839E+01  3.24397E+01  3.58164E+01  3.93740E+01  3.69169E+01  4.11867E+01  3.36920E+01  3.92657E+01
   3.13209E+01  3.33566E+01  2.91504E+01  2.60085E+01  2.65826E+01  2.57689E+01  2.81558E+01  2.61555E+01  2.50464E+01  2.39137E+01
   1.88604E+01  1.95947E+01  1.52662E+01  1.49148E+01  1.24691E+01  1.13135E+01  1.14378E+01  1.15809E+01  1.30921E+01  9.04593E+00
   1.16576E+01  1.41274E+01  1.33536E+01  1.19336E+01  1.29136E+01  1.34463E+01  1.34885E+01  1.42264E+01  1.35792E+01  1.13700E+01
   1.47290E+01  1.51860E+01  1.54605E+01  1.62393E+01  1.84277E+01  1.43133E+01  1.58630E+01  1.78685E+01  1.81177E+01  1.79955E+01
   1.38781E+01  1.72837E+01  1.78190E+01  1.32195E+01  1.27508E+01  1.03924E+01  1.16830E+01  1.49500E+01  2.61973E+01  4.27733E+01
   5.53588E+01  6.91932E+01  7.26389E+01  7.30448E+01  6.72939E+01  6.05808E+01  5.36437E+01  4.30076E+01  3.55578E+01  2.20017E+01
   2.09631E+01  1.40126E+01  1.45695E+01  1.62661E+01  1.12677E+01  1.18142E+01  9.75810E+00  1.05450E+01  5.06401E+00  3.00391E+00
   5.49778E+00  7.22374E+00  1.49395E+01  2.50037E+01  4.28081E+01  5.42353E+01  6.41197E+01  6.96092E+01  6.68947E+01  5.79444E+01
   4.96828E+01  4.13391E+01  3.56614E+01  2.47139E+01  1.91900E+01  1.05546E+01  9.33910E+00  5.71799E+00  6.24787E+00  8.31526E+00
   7.03865E+00  3.33678E+00  4.99640E+00  2.02540E+00  3.18300E+00  3.81403E+00  1.93431E+00  3.00591E+00  1.30807E+00  1.19776E+00
  -2.16674E-01  2.29780E+00 -2.40735E+00  2.13794E+00  6.22650E-01 -2.50981E+00  6.76444E-01  1.71682E+00 -4.94721E+00 -2.08773E+00
  -7.00927E+00 -2.86745E+00 -2.00103E+00 -1.75666E+00 -4.40924E+00 -4.97964E+00 -2.58776E+00 -6.95885E+00 -4.92568E+00 -1.25900E+01
  -5.06449E+00 -8.40770E+00 -1.11752E+01 -1.12386E+01 -1.02910E+01 -1.24431E+01 -1.39834E+01 -1.10095E+01 -1.04051E+01 -1.04314E+01
  -1.53880E+01 -8.57237E+00 -1.22581E+01 -1.08618E+01 -8.98595E+00 -1.50854E+01 -1.14482E+01 -1.14130E+01 -1.36203E+01 -6.70563E+00
  -5.38157E+00 -3.30921E+00 -1.83093E+00  1.99363E+00 -2.53441E-01  2.22245E+00 -3.95508E+00 -7.84736E+00 -9.90854E+00 -6.37535E+00
  -5.58578E+00 -6.05031E+00 -5.28051E+00 -1.71517E+00 -1.58907E-01 -5.17412E+00 -9.53161E+00 -1.19341E+01 -1.07172E+01 -1.01527E+01
  -1.15491E+01 -6.42332E+00 -7.19642E-01  1.75149E+00  4.33348E+00  5.81208E+00  6.60465E+00  5.90547E+00 -2.13733E+00 -1.97266E+00
  -1.00732E+01 -1.00670E+01 -5.80094E+00 -8.91954E+00 -3.62497E+00 -7.49165E-01 -8.83575E-01 -1.03217E+00  3.24321E+00  7.27403E-01
  -1.83778E+00  1.60874E+00 -1.17369E-01  2.09294E-02  9.28524E-01  3.13272E+00  6.73891E-01  1.57411E+00 -1.94130E+00 -1.30318E+00
  -3.55773E-01 -2.81704E+00 -4.51847E+00  1.41219E+00 -2.50943E+00  1.58304E+00  4.49052E+00  4.67228E+00  7.19577E+00  6.37187E+00
   3.02090E+00  7.46425E+00  1.00505E+01  6.36669E+00  8.77674E+00  1.56156E+01  3.38239E+01  5.69822E+01  7.56938E+01  9.01074E+01
   8.72366E+01  8.37765E+01  7.04606E+01  5.78850E+01  4.07725E+01  2.92617E+01  2.03668E+01  1.57729E+01  6.94019E+00  9.18279E-01
   2.31078E+00 -3.81431E-02 -3.51441E-01 -1.91534E+00 -3.64866E+00 -5.62449E+00 -4.56144E+00 -2.68011E+00  5.34252E-01 -2.40457E+00
  -4.76753E+00 -4.80031E+00 -2.34054E+00 -6.82906E+00 -8.27991E+00 -6.01336E+00 -3.68440E+00 -2.88937E+00 -3.06728E+00 -5.57131E+00
  -1.07708E+00 -2.21003E+00 -2.32355E+00 -7.13994E+00 -2.35953E+00 -3.80399E+00 -5.00530E+00 -6.55195E+00 -8.09345E-02 -7.84800E-01
  -5.19389E-01 -8.33719E-01  4.23905E-01  2.09490E+00  1.86451E+00  1.08344E-01  5.29944E+00  1.53059E+00  1.19372E+00 -3.13318E+00
   3.29974E+00  6.85887E-01  4.59326E+00  3.08391E+00  4.38750E+00  5.09280E+00  3.42947E+00  7.28432E+00  3.00643E+00  2.41273E+00
   2.39303E+00  4.50803E+00  3.67016E+00  2.32875E+00 -5.93686E-01  3.72586E+00  9.98671E+00  1.59857E+00  7.85470E+00 -1.76648E+00
  -1.68949E+00  1.18504E+00  2.80942E-01  3.28408E+00  1.43518E+00  5.12617E+00  6.28551E+00  7.20871E+00  5.36378E+00  6.99018E+00
   7.88576E+00  6.61368E+00  8.89485E+00  1.17337E+01  1.13563E+01  1.12387E+01  1.26291E+01  1.58639E+01  1.24310E+01  1.79602E+01
   1.73783E+01  1.77075E+01  1.55703E+01  2.04900E+01  2.28006E+01  1.86891E+01  1.31441E+01  1.89532E+01  1.65334E+01  1.87937E+01
   1.50929E+01  1.05748E+01  1.10850E+01  6.49265E+00  1.18492E+01  4.22691E+00  4.40148E+00  9.30683E+00  9.99079E+00  5.09811E+00
   5.18752E+00  3.78438E+00  8.16803E+00  8.72451E+00  8.81268E+00  1.08008E+01  6.44890E+00  6.82143E+00  5.01723E+00  6.52639E+00
   5.98973E+00  4.64129E+00  6.01350E+00  5.28060E+00  9.09289E+00  1.03280E+01  1.01447E+01  6.96191E+00  4.52445E+00  8.76348E+00
   5.53795E+00  6.74233E+00  6.09148E+00  8.35528E+00  5.42844E+00  8.17375E+00  5.23718E+00  1.31479E+01  1.34742E+01  9.32406E+00
   9.17092E+00  1.13006E+01  8.30189E+00  1.65029E+01  1.12655E+01  1.50985E+01  1.24861E+01  1.18487E+01  1.24903E+01  1.57644E+01
   1.31863E+01  1.27985E+01  1.06383E+01  1.00151E+01  7.06765E+00  1.00749E+01  6.23508E+00  9.69142E+00  5.77646E+00  6.94505E+00
   5.78164E+00  7.94520E+00  5.94451E+00  4.50907E+00  4.10501E+00  7.03936E+00  6.74574E+00  2.84400E+00  4.64837E+00  2.22351E+00
   6.17251E+00  5.92243E+00  2.03653E+00  5.44318E+00  5.92202E+00  5.05776E+00  5.49142E+00  2.99473E+00  4.61360E+00  5.83274E+00
   3.22021E+00  6.77846E+00  3.14267E+00  5.31459E+00  4.32386E+00  5.44835E+00  6.01438E+00  6.21776E+00  1.41947E+00  4.19728E+00
   2.39228E+00  7.08318E+00  2.74121E+00  1.32995E+00  6.59777E+00  5.34441E+00  4.33937E+00  2.95532E+00  4.37345E+00  4.38538E+00
   1.27376E+00  3.33082E+00  3.81048E+00  2.94798E+00  1.29949E+00  1.64127E+00  2.85810E+00  3.61932E+00  5.81726E+00 -7.76706E-02
   8.46498E+00  2.03970E-01  5.36126E+00  1.63264E+00  5.74458E+00  2.27571E+00  2.99480E+00  5.86811E+00  1.68722E+00  1.16214E+00
   1.78297E+00  6.07642E+00  6.78009E+00  3.33031E+00  1.35406E+00  3.52776E+00  6.93648E+00  4.80905E+00  2.52081E+00  2.50780E+00
   6.93307E+00  3.73512E+00  1.84542E+00  3.39388E+00  3.28083E+00  4.54546E+00  8.29395E+00  2.63189E+00
 NY points of the fit to the data follow
   3.86493E+01  3.83726E+01  3.86454E+01  3.97692E+01  4.25910E+01  4.79397E+01  5.57323E+01  6.46596E+01  7.26534E+01  7.78101E+01
   7.91995E+01  7.70558E+01  7.24021E+01  6.64592E+01  6.02353E+01  5.43794E+01  4.91581E+01  4.45493E+01  4.06870E+01  3.80734E+01
   3.64973E+01  3.55137E+01  3.45385E+01  3.34433E+01  3.26873E+01  3.29087E+01  3.44213E+01  3.69562E+01  3.98515E+01  4.23427E+01
   4.37823E+01  4.38493E+01  4.26030E+01  4.03846E+01  3.77407E+01  3.51817E+01  3.29761E+01  3.10904E+01  2.96528E+01  2.89467E+01
   2.88332E+01  2.92123E+01  3.01811E+01  3.17156E+01  3.34221E+01  3.47104E+01  3.51987E+01  3.47636E+01  3.35125E+01  3.17883E+01
   2.98474E+01  2.79384E+01  2.62983E+01  2.49899E+01  2.39685E+01  2.33254E+01  2.31767E+01  2.33483E+01  2.34721E+01  2.33097E+01
   2.27900E+01  2.19679E+01  2.09940E+01  2.00436E+01  1.92670E+01  1.87390E+01  1.84468E+01  1.83346E+01  1.83631E+01  1.84527E+01
   1.84977E+01  1.84300E+01  1.82082E+01  1.78546E+01  1.74140E+01  1.69326E+01  1.64600E+01  1.60216E+01  1.56317E+01  1.53050E+01
   1.51551E+01  1.54068E+01  1.61042E+01  1.70292E+01  1.78055E+01  1.81067E+01  1.78087E+01  1.70212E+01  1.59958E+01  1.49830E+01
   1.41465E+01  1.35365E+01  1.31014E+01  1.27360E+01  1.23912E+01  1.23369E+01  1.35328E+01  1.77627E+01  2.67561E+01  4.01999E+01
   5.52616E+01  6.79762E+01  7.51824E+01  7.57730E+01  7.06932E+01  6.20261E+01  5.18983E+01  4.18764E+01  3.28703E+01  2.51114E+01
   1.82883E+01  1.25430E+01  9.23987E+00  8.12093E+00  7.64302E+00  7.35234E+00  7.14653E+00  7.01524E+00  6.99868E+00  7.21026E+00
   8.02458E+00  1.06401E+01  1.70298E+01  2.80208E+01  4.20365E+01  5.56728E+01  6.54460E+01  6.93715E+01  6.75329E+01  6.14175E+01
   5.28918E+01  4.34770E+01  3.41796E+01  2.55749E+01  1.78129E+01  1.09467E+01  6.03001E+00  4.17268E+00  3.92589E+00  4.15093E+00
   4.42452E+00  4.54793E+00  4.51088E+00  4.36602E+00  4.09031E+00  3.69515E+00  3.21899E+00  2.67325E+00  2.09531E+00  1.52952E+00
   1.01055E+00  5.96745E-01  2.77476E-01  4.42067E-02 -1.42996E-01 -4.01643E-01 -8.49142E-01 -1.49013E+00 -2.17472E+00 -2.67272E+00
  -2.84581E+00 -2.75232E+00 -2.59387E+00 -2.58145E+00 -2.82591E+00 -3.30094E+00 -3.90722E+00 -4.53631E+00 -5.10589E+00 -5.64136E+00
  -6.31352E+00 -7.15990E+00 -8.05608E+00 -8.77224E+00 -9.10375E+00 -9.16331E+00 -9.14752E+00 -9.16545E+00 -9.23587E+00 -9.32937E+00
  -9.44538E+00 -9.64299E+00 -9.92061E+00 -1.01223E+01 -1.00217E+01 -9.47760E+00 -8.41768E+00 -6.89139E+00 -5.22979E+00 -3.82595E+00
  -3.00685E+00 -2.81315E+00 -3.14131E+00 -3.83754E+00 -4.67415E+00 -5.38983E+00 -5.79404E+00 -5.66856E+00 -4.90124E+00 -3.59495E+00
  -1.99605E+00 -4.87550E-01  4.71792E-01  4.87310E-01 -6.20908E-01 -2.66049E+00 -5.14484E+00 -7.63484E+00 -9.59027E+00 -1.05085E+01
  -9.99927E+00 -8.02390E+00 -5.00341E+00 -1.67841E+00  1.01366E+00  2.35004E+00  1.94605E+00 -1.80847E-01 -3.57635E+00 -7.35625E+00
  -1.03509E+01 -1.18689E+01 -1.18454E+01 -1.05251E+01 -8.35881E+00 -5.77966E+00 -3.43552E+00 -1.80437E+00 -9.01890E-01 -5.26125E-01
  -4.44802E-01 -5.00057E-01 -4.61544E-01 -1.63274E-02  8.77887E-01  1.87464E+00  2.57321E+00  2.65281E+00  2.04283E+00  9.77866E-01
  -1.71365E-01 -1.01370E+00 -1.22006E+00 -7.63742E-01  8.35986E-02  1.03514E+00  1.94822E+00  2.72835E+00  3.34450E+00  3.88512E+00
   4.44645E+00  5.00644E+00  5.53595E+00  6.68594E+00  1.08702E+01  2.10784E+01  3.75837E+01  5.71240E+01  7.45054E+01  8.52245E+01
   8.73416E+01  8.17909E+01  7.12155E+01  5.84466E+01  4.56152E+01  3.39833E+01  2.39291E+01  1.48966E+01  6.77300E+00  1.72301E+00
   8.32313E-02 -6.54712E-01 -1.10456E+00 -1.39023E+00 -1.61794E+00 -1.87973E+00 -2.17220E+00 -2.49375E+00 -2.82950E+00 -3.15429E+00
  -3.45170E+00 -3.72332E+00 -3.95703E+00 -4.13636E+00 -4.26357E+00 -4.34880E+00 -4.39712E+00 -4.40801E+00 -4.37884E+00 -4.31158E+00
  -4.20984E+00 -4.06749E+00 -3.88092E+00 -3.64964E+00 -3.37441E+00 -3.05659E+00 -2.69826E+00 -2.30358E+00 -1.87758E+00 -1.42529E+00
  -9.53997E-01 -4.73057E-01  7.57792E-03  4.77476E-01  9.26076E-01  1.34343E+00  1.72084E+00  2.05118E+00  2.32912E+00  2.55140E+00
   2.71704E+00  2.82779E+00  2.88852E+00  2.90664E+00  2.89152E+00  2.85466E+00  2.80965E+00  2.77257E+00  2.76294E+00  2.80725E+00
   2.95022E+00  3.26369E+00  3.77865E+00  4.36517E+00  4.77334E+00  4.77596E+00  4.28980E+00  3.39509E+00  2.27330E+00  1.15913E+00
   3.55954E-01  1.37626E-01  6.18333E-01  1.69303E+00  3.09280E+00  4.53594E+00  5.87481E+00  7.00680E+00  7.80135E+00  8.32177E+00
   8.68421E+00  8.99038E+00  9.30074E+00  9.62266E+00  1.00231E+01  1.06793E+01  1.15938E+01  1.27109E+01  1.39757E+01  1.53139E+01
   1.66287E+01  1.78089E+01  1.87433E+01  1.93375E+01  1.95312E+01  1.93085E+01  1.87003E+01  1.77777E+01  1.66379E+01  1.53869E+01
   1.41225E+01  1.29220E+01  1.18359E+01  1.08876E+01  1.00782E+01  9.39339E+00  8.81104E+00  8.30761E+00  7.86218E+00  7.45861E+00
   7.08607E+00  6.73846E+00  6.41350E+00  6.11156E+00  5.83469E+00  5.58579E+00  5.36813E+00  5.18505E+00  5.03978E+00  4.93540E+00
   4.87463E+00  4.85986E+00  4.89307E+00  4.97587E+00  5.10943E+00  5.29440E+00  5.53074E+00  5.81761E+00  6.15330E+00  6.53515E+00
   6.95942E+00  7.42118E+00  7.91419E+00  8.43100E+00  8.96297E+00  9.50049E+00  1.00331E+01  1.05498E+01  1.10393E+01  1.14903E+01
   1.18924E+01  1.22360E+01  1.25127E+01  1.27161E+01  1.28414E+01  1.28861E+01  1.28499E+01  1.27347E+01  1.25444E+01  1.22847E+01
   1.19628E+01  1.15871E+01  1.11669E+01  1.07119E+01  1.02315E+01  9.73528E+00  9.23186E+00  8.72925E+00  8.23450E+00  7.75356E+00
   7.29127E+00  6.85137E+00  6.43661E+00  6.04886E+00  5.68912E+00  5.35770E+00  5.05430E+00  4.77814E+00  4.52817E+00  4.30308E+00
   4.10142E+00  3.92158E+00  3.76193E+00  3.62087E+00  3.49687E+00  3.38848E+00  3.29434E+00  3.21310E+00  3.14357E+00  3.08466E+00
   3.03540E+00  2.99490E+00  2.96235E+00  2.93696E+00  2.91807E+00  2.90509E+00  2.89752E+00  2.89487E+00  2.89668E+00  2.90254E+00
   2.91210E+00  2.92506E+00  2.94117E+00  2.96016E+00  2.98178E+00  3.00580E+00  3.03206E+00  3.06040E+00  3.09069E+00  3.12277E+00
   3.15648E+00  3.19171E+00  3.22837E+00  3.26640E+00  3.30570E+00  3.34616E+00  3.38768E+00  3.43022E+00  3.47373E+00  3.51817E+00
   3.56347E+00  3.60956E+00  3.65638E+00  3.70393E+00  3.75218E+00  3.80109E+00  3.85061E+00  3.90068E+00  3.95128E+00  4.00242E+00
   4.05408E+00  4.10622E+00  4.15880E+00  4.21179E+00  4.26519E+00  4.31900E+00  4.37322E+00  4.42780E+00  4.48270E+00  4.53792E+00
   4.59348E+00  4.64937E+00  4.70557E+00  4.76205E+00  4.81879E+00  4.87578E+00  4.93306E+00  4.99062E+00
 NY background values follow
     3.386E+01    3.357E+01    3.329E+01    3.301E+01    3.273E+01    3.245E+01    3.216E+01    3.188E+01    3.160E+01    3.131E+01
     3.103E+01    3.075E+01    3.047E+01    3.018E+01    2.990E+01    2.962E+01    2.934E+01    2.905E+01    2.877E+01    2.849E+01
     2.821E+01    2.793E+01    2.765E+01    2.736E+01    2.708E+01    2.680E+01    2.652E+01    2.624E+01    2.596E+01    2.568E+01
     2.540E+01    2.512E+01    2.485E+01    2.457E+01    2.429E+01    2.401E+01    2.373E+01    2.346E+01    2.318E+01    2.290E+01
     2.263E+01    2.235E+01    2.208E+01    2.181E+01    2.153E+01    2.126E+01    2.099E+01    2.071E+01    2.044E+01    2.017E+01
     1.990E+01    1.963E+01    1.936E+01    1.909E+01    1.883E+01    1.856E+01    1.829E+01    1.803E+01    1.776E+01    1.750E+01
     1.724E+01    1.697E+01    1.671E+01    1.645E+01    1.619E+01    1.593E+01    1.567E+01    1.542E+01    1.516E+01    1.491E+01
     1.465E+01    1.440E+01    1.414E+01    1.389E+01    1.364E+01    1.339E+01    1.314E+01    1.290E+01    1.265E+01    1.241E+01
     1.216E+01    1.192E+01    1.168E+01    1.144E+01    1.120E+01    1.096E+01    1.072E+01    1.048E+01    1.025E+01    1.002E+01
     9.784E+00    9.554E+00    9.324E+00    9.096E+00    8.869E+00    8.644E+00    8.419E+00    8.196E+00    7.975E+00    7.755E+00
     7.536E+00    7.318E+00    7.102E+00    6.887E+00    6.673E+00    6.461E+00    6.250E+00    6.040E+00    5.832E+00    5.625E+00
     5.420E+00    5.216E+00    5.013E+00    4.811E+00    4.611E+00    4.412E+00    4.215E+00    4.019E+00    3.824E+00    3.631E+00
     3.439E+00    3.249E+00    3.060E+00    2.872E+00    2.686E+00    2.501E+00    2.317E+00    2.135E+00    1.954E+00    1.775E+00
     1.597E+00    1.420E+00    1.245E+00    1.071E+00    8.988E-01    7.279E-01    5.583E-01    3.902E-01    2.235E-01    5.827E-02
    -1.055E-01   -2.679E-01   -4.289E-01   -5.883E-01   -7.464E-01   -9.029E-01   -1.058E+00   -1.212E+00   -1.364E+00   -1.514E+00
    -1.664E+00   -1.811E+00   -1.957E+00   -2.102E+00   -2.245E+00   -2.387E+00   -2.527E+00   -2.666E+00   -2.803E+00   -2.938E+00
    -3.072E+00   -3.205E+00   -3.335E+00   -3.465E+00   -3.592E+00   -3.719E+00   -3.843E+00   -3.966E+00   -4.088E+00   -4.207E+00
    -4.326E+00   -4.442E+00   -4.557E+00   -4.671E+00   -4.782E+00   -4.893E+00   -5.001E+00   -5.108E+00   -5.213E+00   -5.317E+00
    -5.419E+00   -5.519E+00   -5.618E+00   -5.715E+00   -5.810E+00   -5.904E+00   -5.996E+00   -6.086E+00   -6.175E+00   -6.263E+00
    -6.348E+00   -6.433E+00   -6.515E+00   -6.597E+00   -6.676E+00   -6.755E+00   -6.831E+00   -6.907E+00   -6.981E+00   -7.053E+00
    -7.124E+00   -7.194E+00   -7.262E+00   -7.329E+00   -7.394E+00   -7.459E+00   -7.521E+00   -7.583E+00   -7.643E+00   -7.702E+00
    -7.760E+00   -7.816E+00   -7.871E+00   -7.925E+00   -7.977E+00   -8.029E+00   -8.079E+00   -8.128E+00   -8.176E+00   -8.222E+00
    -8.268E+00   -8.312E+00   -8.356E+00   -8.398E+00   -8.439E+00   -8.479E+00   -8.518E+00   -8.556E+00   -8.592E+00   -8.628E+00
    -8.663E+00   -8.696E+00   -8.729E+00   -8.761E+00   -8.791E+00   -8.821E+00   -8.849E+00   -8.876E+00   -8.903E+00   -8.928E+00
    -8.952E+00   -8.976E+00   -8.998E+00   -9.019E+00   -9.039E+00   -9.059E+00   -9.077E+00   -9.094E+00   -9.110E+00   -9.125E+00
    -9.139E+00   -9.152E+00   -9.165E+00   -9.176E+00   -9.186E+00   -9.195E+00   -9.203E+00   -9.210E+00   -9.216E+00   -9.222E+00
    -9.226E+00   -9.229E+00   -9.231E+00   -9.232E+00   -9.232E+00   -9.232E+00   -9.230E+00   -9.227E+00   -9.224E+00   -9.219E+00
    -9.213E+00   -9.207E+00   -9.199E+00   -9.191E+00   -9.181E+00   -9.171E+00   -9.160E+00   -9.147E+00   -9.134E+00   -9.120E+00
    -9.105E+00   -9.089E+00   -9.072E+00   -9.055E+00   -9.036E+00   -9.017E+00   -8.997E+00   -8.975E+00   -8.953E+00   -8.931E+00
    -8.907E+00   -8.883E+00   -8.857E+00   -8.831E+00   -8.804E+00   -8.776E+00   -8.748E+00   -8.719E+00   -8.689E+00   -8.658E+00
    -8.626E+00   -8.594E+00   -8.561E+00   -8.527E+00   -8.492E+00   -8.457E+00   -8.421E+00   -8.384E+00   -8.347E+00   -8.309E+00
    -8.270E+00   -8.230E+00   -8.190E+00   -8.149E+00   -8.108E+00   -8.066E+00   -8.023E+00   -7.980E+00   -7.935E+00   -7.891E+00
    -7.845E+00   -7.800E+00   -7.753E+00   -7.706E+00   -7.658E+00   -7.610E+00   -7.561E+00   -7.512E+00   -7.462E+00   -7.411E+00
    -7.360E+00   -7.308E+00   -7.256E+00   -7.203E+00   -7.150E+00   -7.096E+00   -7.042E+00   -6.988E+00   -6.932E+00   -6.877E+00
    -6.820E+00   -6.764E+00   -6.707E+00   -6.649E+00   -6.591E+00   -6.533E+00   -6.474E+00   -6.415E+00   -6.355E+00   -6.295E+00
    -6.234E+00   -6.173E+00   -6.112E+00   -6.050E+00   -5.988E+00   -5.926E+00   -5.863E+00   -5.800E+00   -5.736E+00   -5.672E+00
    -5.608E+00   -5.544E+00   -5.479E+00   -5.414E+00   -5.348E+00   -5.283E+00   -5.217E+00   -5.150E+00   -5.084E+00   -5.017E+00
    -4.950E+00   -4.882E+00   -4.815E+00   -4.747E+00   -4.678E+00   -4.610E+00   -4.541E+00   -4.473E+00   -4.403E+00   -4.334E+00
    -4.264E+00   -4.195E+00   -4.125E+00   -4.055E+00   -3.984E+00   -3.914E+00   -3.843E+00   -3.772E+00   -3.701E+00   -3.630E+00
    -3.558E+00   -3.487E+00   -3.415E+00   -3.343E+00   -3.271E+00   -3.199E+00   -3.127E+00   -3.055E+00   -2.982E+00   -2.910E+00
    -2.837E+00   -2.764E+00   -2.691E+00   -2.618E+00   -2.545E+00   -2.472E+00   -2.399E+00   -2.326E+00   -2.252E+00   -2.179E+00
    -2.106E+00   -2.032E+00   -1.959E+00   -1.885E+00   -1.812E+00   -1.738E+00   -1.665E+00   -1.591E+00   -1.518E+00   -1.444E+00
    -1.370E+00   -1.297E+00   -1.223E+00   -1.149E+00   -1.076E+00   -1.002E+00   -9.288E-01   -8.552E-01   -7.817E-01   -7.083E-01
    -6.349E-01   -5.615E-01   -4.882E-01   -4.149E-01   -3.417E-01   -2.685E-01   -1.955E-01   -1.224E-01   -4.951E-02    2.335E-02
     9.613E-02    1.688E-01    2.414E-01    3.139E-01    3.863E-01    4.586E-01    5.308E-01    6.028E-01    6.748E-01    7.466E-01
     8.183E-01    8.899E-01    9.613E-01    1.033E+00    1.104E+00    1.175E+00    1.246E+00    1.316E+00    1.387E+00    1.458E+00
     1.528E+00    1.598E+00    1.669E+00    1.739E+00    1.809E+00    1.879E+00    1.948E+00    2.018E+00    2.088E+00    2.157E+00
     2.227E+00    2.296E+00    2.366E+00    2.435E+00    2.504E+00    2.573E+00    2.642E+00    2.711E+00    2.780E+00    2.849E+00
     2.918E+00    2.987E+00    3.056E+00    3.125E+00    3.194E+00    3.263E+00    3.331E+00    3.400E+00    3.469E+00    3.538E+00
     3.607E+00    3.675E+00    3.744E+00    3.813E+00    3.882E+00    3.951E+00    4.019E+00    4.088E+00
 Ala      Conc. = 2.96E+02
