 LCModel (Version 6.3-1L) Copyright: S.W. Provencher.          Ref.: Magn. Reson. Med. 30:672-679 (1993).                
 Slice#1 Row#5 Col#9  PD_24_press_2_raw_act
 36 lines in following concentration table = NCONC+1
    Conc.  %SD /Cr+PCr  Metabolite                                         
    0.000 999%   0.000 Ala                                                 
    0.000 999%   0.000 Asp                                                 
 1.16E+03  10%   1.000 Cr                                                  
    0.000 999%   0.000 PCr                                                 
  278.888  74%   0.241 GABA                                                
    0.000 999%   0.000 Glc                                                 
    0.000 999%   0.000 Gln                                                 
 2.17E+03  34%   1.880 Glu                                                 
  663.532   7%   0.574 GPC                                                 
    0.000 999%   0.000 PCh                                                 
  437.036  36%   0.378 GSH                                                 
 1.77E+03  28%   1.531 Ins                                                 
  216.657 172%   0.187 Lac                                                 
 2.04E+03  16%   1.762 NAA                                                 
  816.001  42%   0.706 NAAG                                                
  188.322  26%   0.163 Scyllo                                              
  134.912 217%   0.117 Tau                                                 
   43.295 451% 3.7E-02 -CrCH2                                              
  663.532   7%   0.574 GPC+PCh                                             
 2.85E+03   7%   2.467 NAA+NAAG                                            
 1.16E+03  10%   1.000 Cr+PCr                                              
 2.17E+03  34%   1.880 Glu+Gln                                             
    0.000 999%   0.000 Lip13a                                              
  250.114  98%   0.216 Lip13b                                              
    0.000 999%   0.000 Lip09                                               
 2.09E+03  12%   1.805 MM09                                                
   60.593 141% 5.2E-02 Lip20                                               
 5.68E+03  10%   4.913 MM20                                                
  555.371  35%   0.480 MM12                                                
 2.31E+03  18%   2.000 MM14                                                
 1.33E+03  22%   1.147 MM17                                                
  250.114  98%   0.216 Lip13a+Lip13b                                       
 3.12E+03  13%   2.697 MM14+Lip13a+Lip13b+MM12                             
 2.09E+03  12%   1.805 MM09+Lip09                                          
 5.74E+03   9%   4.965 MM20+Lip20                                          
   6 lines in following misc. output table
  FWHM = 0.069 ppm    S/N =   7                                            
  Data shift = 0.031 ppm                                                   
  Ph: -24 deg       1.5 deg/ppm                                            
  alphaB,S = 8.5E+01,   1.5E+02                                            
   14 spline knots.   Ns =10(1)                                            
   4 inflections.     1 extrema                                            
  498 points on ppm-axis = NY
      4.000000     3.992357     3.984714     3.977070     3.969427     3.961784     3.954141     3.946497     3.938854     3.931211
      3.923568     3.915925     3.908281     3.900638     3.892995     3.885352     3.877708     3.870065     3.862422     3.854779
      3.847136     3.839492     3.831849     3.824206     3.816563     3.808919     3.801276     3.793633     3.785990     3.778347
      3.770703     3.763060     3.755417     3.747774     3.740130     3.732487     3.724844     3.717201     3.709558     3.701914
      3.694271     3.686628     3.678985     3.671341     3.663698     3.656055     3.648412     3.640769     3.633125     3.625482
      3.617839     3.610196     3.602552     3.594909     3.587266     3.579623     3.571980     3.564336     3.556693     3.549050
      3.541407     3.533763     3.526120     3.518477     3.510834     3.503191     3.495547     3.487904     3.480261     3.472618
      3.464974     3.457331     3.449688     3.442045     3.434402     3.426758     3.419115     3.411472     3.403829     3.396185
      3.388542     3.380899     3.373256     3.365613     3.357969     3.350326     3.342683     3.335040     3.327396     3.319753
      3.312110     3.304467     3.296824     3.289180     3.281537     3.273894     3.266251     3.258607     3.250964     3.243321
      3.235678     3.228034     3.220391     3.212748     3.205105     3.197462     3.189818     3.182175     3.174532     3.166889
      3.159245     3.151602     3.143959     3.136316     3.128673     3.121029     3.113386     3.105743     3.098100     3.090456
      3.082813     3.075170     3.067527     3.059884     3.052240     3.044597     3.036954     3.029311     3.021667     3.014024
      3.006381     2.998738     2.991095     2.983451     2.975808     2.968165     2.960522     2.952878     2.945235     2.937592
      2.929949     2.922306     2.914662     2.907019     2.899376     2.891733     2.884089     2.876446     2.868803     2.861160
      2.853517     2.845873     2.838230     2.830587     2.822944     2.815300     2.807657     2.800014     2.792371     2.784728
      2.777084     2.769441     2.761798     2.754155     2.746511     2.738868     2.731225     2.723582     2.715939     2.708295
      2.700652     2.693009     2.685366     2.677722     2.670079     2.662436     2.654793     2.647150     2.639506     2.631863
      2.624220     2.616577     2.608933     2.601290     2.593647     2.586004     2.578361     2.570717     2.563074     2.555431
      2.547788     2.540144     2.532501     2.524858     2.517215     2.509572     2.501928     2.494285     2.486642     2.478999
      2.471355     2.463712     2.456069     2.448426     2.440783     2.433139     2.425496     2.417853     2.410210     2.402566
      2.394923     2.387280     2.379637     2.371994     2.364350     2.356707     2.349064     2.341421     2.333777     2.326134
      2.318491     2.310848     2.303205     2.295561     2.287918     2.280275     2.272632     2.264988     2.257345     2.249702
      2.242059     2.234416     2.226772     2.219129     2.211486     2.203843     2.196199     2.188556     2.180913     2.173270
      2.165627     2.157983     2.150340     2.142697     2.135054     2.127410     2.119767     2.112124     2.104481     2.096838
      2.089194     2.081551     2.073908     2.066265     2.058621     2.050978     2.043335     2.035692     2.028049     2.020405
      2.012762     2.005119     1.997476     1.989833     1.982190     1.974546     1.966903     1.959260     1.951617     1.943974
      1.936331     1.928688     1.921045     1.913402     1.905759     1.898115     1.890472     1.882829     1.875186     1.867543
      1.859900     1.852257     1.844614     1.836971     1.829327     1.821684     1.814041     1.806398     1.798755     1.791112
      1.783469     1.775826     1.768183     1.760540     1.752896     1.745253     1.737610     1.729967     1.722324     1.714681
      1.707038     1.699395     1.691752     1.684108     1.676465     1.668822     1.661179     1.653536     1.645893     1.638250
      1.630607     1.622964     1.615321     1.607677     1.600034     1.592391     1.584748     1.577105     1.569462     1.561819
      1.554176     1.546533     1.538890     1.531246     1.523603     1.515960     1.508317     1.500674     1.493031     1.485388
      1.477745     1.470102     1.462458     1.454815     1.447172     1.439529     1.431886     1.424243     1.416600     1.408957
      1.401314     1.393671     1.386027     1.378384     1.370741     1.363098     1.355455     1.347812     1.340169     1.332526
      1.324883     1.317240     1.309596     1.301953     1.294310     1.286667     1.279024     1.271381     1.263738     1.256095
      1.248452     1.240808     1.233165     1.225522     1.217879     1.210236     1.202593     1.194950     1.187307     1.179664
      1.172021     1.164377     1.156734     1.149091     1.141448     1.133805     1.126162     1.118519     1.110876     1.103233
      1.095590     1.087946     1.080303     1.072660     1.065017     1.057374     1.049731     1.042088     1.034445     1.026802
      1.019158     1.011515     1.003872     0.996229     0.988586     0.980943     0.973300     0.965657     0.958014     0.950371
      0.942727     0.935084     0.927441     0.919798     0.912155     0.904512     0.896869     0.889226     0.881583     0.873940
      0.866296     0.858653     0.851010     0.843367     0.835724     0.828081     0.820438     0.812795     0.805152     0.797508
      0.789865     0.782222     0.774579     0.766936     0.759293     0.751650     0.744007     0.736364     0.728721     0.721077
      0.713434     0.705791     0.698148     0.690505     0.682862     0.675219     0.667576     0.659933     0.652290     0.644646
      0.637003     0.629360     0.621717     0.614074     0.606431     0.598788     0.591145     0.583502     0.575858     0.568215
      0.560572     0.552929     0.545286     0.537643     0.530000     0.522357     0.514714     0.507071     0.499427     0.491784
      0.484141     0.476498     0.468855     0.461212     0.453569     0.445925     0.438282     0.430639     0.422996     0.415353
      0.407710     0.400067     0.392424     0.384780     0.377137     0.369494     0.361851     0.354208     0.346565     0.338922
      0.331278     0.323635     0.315992     0.308349     0.300706     0.293063     0.285420     0.277777     0.270133     0.262490
      0.254847     0.247204     0.239561     0.231918     0.224275     0.216631     0.208988     0.201345
 NY phased data points follow
   1.84681E+01  1.83518E+01  2.42009E+01  2.08656E+01  2.13495E+01  2.13963E+01  1.67319E+01  2.36951E+01  3.26372E+01  3.24592E+01
   3.18508E+01  2.58996E+01  2.29349E+01  2.65683E+01  3.32660E+01  1.94861E+01  1.80398E+01  1.13990E+01  1.06365E+01  1.70933E+01
   1.75270E+01  8.23421E+00  1.31574E+01  1.26970E+01  1.14878E+01  1.74920E+01  1.18897E+01  1.21134E+01  1.28051E+01  2.02347E+01
   2.14034E+01  1.18032E+01  2.02809E+01  1.66950E+01  2.03842E+01  1.47250E+01  8.58876E+00  1.86922E+01  1.78931E+01  1.53056E+01
   1.94221E+01  1.38550E+01  1.82429E+01  1.98848E+01  1.97345E+01  1.75024E+01  2.82916E+01  2.51895E+01  1.44741E+01  1.57506E+01
   2.31527E+01  6.90897E+00  1.81408E+01  4.02642E+00  1.09984E+01  1.53744E+01  1.51320E+01  1.73348E+01  1.20364E+01  1.08690E+01
  -2.39317E+00  1.02713E+01  7.79611E+00  7.27817E+00  9.72685E+00  5.97461E+00  1.87538E+01  6.11311E+00  6.39272E+00  9.22783E-01
  -1.88768E+00  8.77854E+00  1.32442E+01  1.51540E+01  4.77052E+00 -1.36382E+00 -3.08061E-01  9.21556E+00  9.75679E+00  9.08840E+00
   5.29105E+00  1.39734E+01  5.00446E+00  1.74251E+01  6.25795E+00  1.39827E+01  1.85002E+01  2.26674E+01  1.37231E+01  9.11056E+00
   1.49202E+01  2.31575E+01  1.92969E+01  2.54755E+01  2.16717E+01  3.07059E+01  2.81950E+01  3.06921E+01  3.65265E+01  3.75669E+01
   4.27828E+01  4.58802E+01  4.73812E+01  5.02619E+01  4.21581E+01  3.81412E+01  3.70376E+01  2.93541E+01  6.33407E+00  1.32318E+01
   1.31649E+01  6.97696E+00  6.28119E+00  4.28693E+00  1.08424E+01  1.62466E+01  1.65359E+01  1.46973E+01  2.23187E+01  1.96279E+01
   1.19690E+01  1.43672E+01  2.17593E+01  3.31268E+01  2.95151E+01  3.90713E+01  3.74616E+01  3.93326E+01  3.07667E+01  2.51856E+01
   2.70405E+01  1.52303E+01  1.12184E+01  1.56634E+01  1.14068E+01  6.25273E+00  6.07738E+00  4.12332E+00  9.77467E+00  1.51184E+01
   9.69131E+00  6.85112E+00  9.70158E+00  9.30052E+00  5.18063E+00  5.09583E+00  1.53501E+01 -1.24785E+00  2.26399E+00  1.13335E+01
   1.54263E+01  1.28381E+01  3.73002E+00  7.73986E+00  3.98408E+00  7.53362E+00  3.85626E+00 -4.11915E-01  6.99876E+00  9.64754E+00
  -8.78230E-01 -9.13413E-01 -2.42933E+00  3.03681E+00 -5.01139E+00  1.00634E+00  2.17415E+00 -3.46331E-01  5.51858E+00 -5.39849E+00
  -5.74617E+00 -1.10607E+01 -1.37035E+01 -1.06310E+01 -8.04289E+00 -5.93980E+00 -8.07534E+00 -1.50555E+01 -4.78495E+00 -2.01898E+00
  -4.64869E+00 -4.30859E+00 -4.77664E+00 -7.63874E+00 -1.68394E+00 -4.99022E+00 -7.16345E+00 -7.72985E+00 -2.64728E+00 -4.34406E+00
   9.78732E+00  6.45296E-01 -2.04422E+00 -6.83245E+00 -8.96524E+00 -2.34058E+00  4.83420E+00 -4.48686E+00 -1.17263E+01 -7.61964E+00
  -2.07993E+00 -6.65902E+00  8.39016E+00 -3.09081E+00 -3.08754E+00  5.50723E+00  9.26860E-02 -3.07734E+00  1.03784E+01  1.10769E+01
   1.09215E+01  8.79614E+00  7.19926E+00  1.20741E+01  1.03371E+01  9.37942E+00  7.56398E+00  5.81927E+00  1.09965E+01 -2.43970E+00
  -7.94717E+00 -5.25158E+00  1.08630E+01  1.08210E+00  2.39146E+00  7.26118E+00  7.80230E+00  1.63442E+01  2.02535E+00  1.30728E+01
   5.05451E+00  6.14861E+00  1.31135E+01  1.06498E+01  1.01862E+01  8.02600E-01  1.52411E+01  2.17770E+01  1.37611E+01  1.78379E+01
   1.64573E+01  1.56629E+01  2.22786E+01  2.97202E+01  3.04383E+01  2.94044E+01  3.07845E+01  3.50077E+01  3.61185E+01  4.48240E+01
   5.23897E+01  5.02917E+01  4.68088E+01  5.12539E+01  6.12596E+01  7.02683E+01  7.77827E+01  8.46092E+01  8.61210E+01  8.66698E+01
   8.58581E+01  7.24304E+01  5.98627E+01  4.96030E+01  3.09478E+01  3.08203E+01  2.60684E+01  1.88046E+01  2.19565E+01  9.37582E+00
   1.17696E+01  1.13884E+01  1.57675E+01  1.91191E+01  1.40758E+01  2.77699E+00  1.36028E+01  7.32015E+00  1.27715E+01  1.08059E+01
  -2.79252E+00  4.46385E+00  8.04550E-01 -4.62167E+00  8.00922E+00  5.34650E+00 -5.54448E+00  1.96787E+00  6.42274E+00  1.12292E+01
  -1.00083E+00  3.96044E+00  3.46993E+00  1.88639E+00  1.19818E+01  3.08132E+00  8.53056E+00  2.92099E+00 -4.04278E+00  1.30931E+01
   9.90877E+00 -7.98699E-01  1.07733E+01  1.05871E+01  7.28850E+00  1.10305E+01  1.09462E+01  1.60445E+01  8.09886E+00  1.02730E+01
   1.02137E+00  8.60835E+00  3.87209E+00 -5.43354E+00 -2.78251E+00 -6.42811E+00 -1.00426E+00 -1.00911E+01 -5.41605E+00 -4.67952E+00
  -9.36487E+00 -3.69096E+00 -5.97030E+00 -1.22475E+00 -3.08656E+00 -2.87290E+00  2.02514E+00 -2.04261E-01  1.55062E+01  9.44127E+00
   7.93240E+00  2.03339E+01  9.76223E+00  9.90498E+00  1.43749E+01  7.55287E+00  1.36057E+01  1.26203E+01  8.93160E+00  8.97643E+00
   1.30002E+01  1.45853E+01  1.99895E+01  8.93435E+00  8.19042E+00  8.97357E+00  1.01929E+01  1.36303E+01  1.65257E+00  5.50555E+00
   6.85731E+00  2.36600E+00  1.13934E+01  8.89215E+00 -1.70249E-01  5.92664E+00  4.51118E+00  6.76473E+00  3.86196E+00  8.54224E+00
  -1.30208E+00 -8.38639E-01 -3.09751E+00  1.34419E+00  2.15640E+00  6.15907E+00  4.60699E+00 -5.32271E+00  4.13476E+00  5.27887E+00
  -7.21912E+00 -1.17696E+01  6.04457E+00 -3.23007E+00 -1.15984E+01 -5.87942E+00 -4.16660E+00 -6.31401E+00 -5.95172E+00 -5.78244E+00
  -4.53280E+00 -1.30848E+01 -4.37588E+00 -2.30374E+00 -3.95873E+00 -1.15387E+01  1.54087E+00  1.64253E+00  6.40418E-01 -5.69719E+00
   6.99769E+00 -4.74679E+00 -6.05592E+00  2.91704E+00 -8.61584E-01 -3.85448E+00  1.47514E+01  1.27177E+01  1.45363E+00  1.24213E+01
   6.96872E+00  1.22663E+01  5.69199E+00  4.59550E+00  1.48520E+01  1.96046E+01  9.52536E+00  1.86711E+01  4.16916E+00 -1.56595E+00
   9.86094E+00  1.14860E+01  1.32419E+01 -1.65366E+00  6.09422E+00  6.37334E+00 -1.04048E+01 -6.82222E+00  3.83858E+00 -1.74825E+00
  -5.67935E+00 -1.45550E+01 -1.62114E+01 -7.87347E+00 -5.86154E+00 -1.45377E+01 -1.08497E+01 -3.61190E+00 -9.72321E+00 -8.86254E-01
   2.46948E+00 -2.60574E+00 -7.26424E+00 -7.10841E+00 -1.12874E-01 -7.05752E+00 -1.35025E+01 -3.27327E+00 -1.24293E+01 -1.22873E+01
  -1.30509E+01 -9.90987E+00 -1.27872E+01 -1.45986E+01 -1.17843E+01 -5.85793E+00 -1.90237E+00 -8.08645E+00 -1.90227E+01 -7.87346E+00
  -5.50185E+00 -4.45996E+00 -1.42084E+01 -1.73919E+01 -9.78768E+00 -1.36345E+01 -8.25412E+00 -1.03698E+01 -1.08659E+01 -5.24121E+00
  -1.17369E+00 -1.63247E+00 -6.12600E+00 -7.30035E+00 -3.09120E+00 -2.07638E+00 -2.77749E+00 -1.76453E+01 -1.80740E+01 -2.26714E+00
  -4.83047E+00 -4.29712E+00 -9.01009E+00 -9.89742E+00 -1.07774E+00  5.78099E-02 -5.89816E+00 -6.80028E+00 -1.95827E+00 -1.52415E+01
  -1.10744E+01 -2.63022E+00 -7.20090E+00 -3.93743E+00 -4.54137E+00 -7.79505E+00  2.57218E+00 -1.06534E+01 -8.12719E+00 -6.16977E+00
  -9.07538E+00 -8.89280E+00 -6.67733E+00 -8.49445E+00  1.10367E+00 -8.17453E+00 -4.08349E+00 -1.45364E+00
 NY points of the fit to the data follow
   1.40876E+01  1.56442E+01  1.74349E+01  1.88890E+01  2.02128E+01  2.18050E+01  2.38377E+01  2.62007E+01  2.85097E+01  3.02482E+01
   3.09497E+01  3.03625E+01  2.86035E+01  2.60624E+01  2.31142E+01  2.01612E+01  1.76769E+01  1.58426E+01  1.44177E+01  1.33385E+01
   1.28525E+01  1.27523E+01  1.28284E+01  1.31854E+01  1.37352E+01  1.43571E+01  1.50178E+01  1.58506E+01  1.68793E+01  1.78962E+01
   1.86672E+01  1.89769E+01  1.87924E+01  1.81084E+01  1.68679E+01  1.53446E+01  1.40933E+01  1.35579E+01  1.37190E+01  1.41862E+01
   1.46532E+01  1.51403E+01  1.58274E+01  1.67142E+01  1.76796E+01  1.85324E+01  1.90051E+01  1.88226E+01  1.79126E+01  1.65357E+01
   1.49585E+01  1.33719E+01  1.19849E+01  1.09473E+01  1.03672E+01  1.02015E+01  1.02804E+01  1.04734E+01  1.06642E+01  1.07861E+01
   1.07282E+01  1.04642E+01  1.00910E+01  9.65858E+00  9.24391E+00  8.97741E+00  8.95138E+00  9.13164E+00  9.42118E+00  9.70679E+00
   9.89780E+00  9.97637E+00  9.95256E+00  9.83926E+00  9.66369E+00  9.47471E+00  9.46452E+00  9.84661E+00  1.02008E+01  1.03330E+01
   1.04157E+01  1.06630E+01  1.11485E+01  1.18041E+01  1.24619E+01  1.28900E+01  1.29469E+01  1.25552E+01  1.18024E+01  1.09369E+01
   1.02190E+01  1.01256E+01  1.22349E+01  1.68525E+01  2.12438E+01  2.44397E+01  2.71933E+01  3.05648E+01  3.51387E+01  4.06752E+01
   4.60884E+01  5.00151E+01  5.12553E+01  4.92334E+01  4.43387E+01  3.76066E+01  3.01317E+01  2.29965E+01  1.72697E+01  1.34417E+01
   1.11019E+01  9.51262E+00  8.17554E+00  6.99873E+00  6.40636E+00  6.75204E+00  8.43655E+00  1.15916E+01  1.45994E+01  1.68955E+01
   1.89915E+01  2.15505E+01  2.48669E+01  2.87703E+01  3.26416E+01  3.55337E+01  3.66446E+01  3.56280E+01  3.27320E+01  2.86479E+01
   2.40671E+01  1.95747E+01  1.57765E+01  1.29429E+01  1.08864E+01  9.25486E+00  7.86136E+00  6.74016E+00  6.13957E+00  6.13362E+00
   6.33092E+00  6.49080E+00  6.49834E+00  6.31173E+00  5.93557E+00  5.43804E+00  4.93917E+00  4.49405E+00  4.11483E+00  3.78194E+00
   3.39411E+00  2.88487E+00  2.36914E+00  1.95982E+00  1.71802E+00  1.61272E+00  1.47316E+00  1.21852E+00  8.77489E-01  5.03293E-01
   1.33352E-01 -1.68758E-01 -3.70439E-01 -5.30047E-01 -7.27508E-01 -1.04893E+00 -1.54893E+00 -2.07770E+00 -2.47446E+00 -2.73833E+00
  -2.93736E+00 -3.15977E+00 -3.39735E+00 -3.62272E+00 -3.75124E+00 -3.78706E+00 -3.78333E+00 -3.76737E+00 -3.65052E+00 -3.38506E+00
  -2.98728E+00 -2.49418E+00 -1.93703E+00 -1.34298E+00 -7.14729E-01  8.57229E-03  8.74819E-01  1.80566E+00  2.59752E+00  3.27297E+00
   3.87134E+00  4.27655E+00  4.37960E+00  4.23393E+00  3.98916E+00  3.73477E+00  3.56943E+00  3.49536E+00  3.56046E+00  3.73396E+00
   3.90039E+00  4.03938E+00  4.09843E+00  4.00084E+00  3.84278E+00  3.73835E+00  3.88941E+00  3.93404E+00  3.70588E+00  3.44382E+00
   3.42803E+00  3.73637E+00  4.14116E+00  4.55027E+00  5.05480E+00  5.41688E+00  5.12935E+00  4.05189E+00  2.41671E+00  6.71342E-01
  -6.61875E-01 -1.19635E+00 -6.59551E-01  9.61224E-01  3.23307E+00  5.62354E+00  7.75887E+00  9.42127E+00  1.05512E+01  1.11367E+01
   1.13827E+01  1.16518E+01  1.21526E+01  1.28294E+01  1.36308E+01  1.44869E+01  1.52717E+01  1.58072E+01  1.60937E+01  1.62835E+01
   1.65611E+01  1.71370E+01  1.81960E+01  1.97893E+01  2.17763E+01  2.41588E+01  2.73798E+01  3.07184E+01  3.33285E+01  3.60607E+01
   4.14319E+01  4.86663E+01  5.54058E+01  6.12376E+01  6.66989E+01  7.20426E+01  7.70289E+01  8.10387E+01  8.32168E+01  8.26478E+01
   7.86855E+01  7.15305E+01  6.22812E+01  5.21517E+01  4.20290E+01  3.28069E+01  2.53717E+01  2.00081E+01  1.63222E+01  1.35120E+01
   1.10391E+01  8.94945E+00  7.68929E+00  7.03212E+00  6.51306E+00  5.99019E+00  5.43425E+00  4.83191E+00  4.20712E+00  3.62260E+00
   3.12858E+00  2.75036E+00  2.50323E+00  2.37917E+00  2.34906E+00  2.39656E+00  2.51741E+00  2.70714E+00  2.96340E+00  3.27886E+00
   3.65259E+00  4.08152E+00  4.54899E+00  5.03001E+00  5.50078E+00  5.94134E+00  6.33452E+00  6.66721E+00  6.93492E+00  7.13226E+00
   7.24998E+00  7.27817E+00  7.20851E+00  7.03680E+00  6.76660E+00  6.40462E+00  5.96144E+00  5.45417E+00  4.90315E+00  4.32928E+00
   3.75212E+00  3.18899E+00  2.65787E+00  2.17562E+00  1.75638E+00  1.41235E+00  1.15311E+00  9.85824E-01  9.15549E-01  9.45398E-01
   1.07654E+00  1.30836E+00  1.63854E+00  2.06313E+00  2.57646E+00  3.17097E+00  3.83703E+00  4.56298E+00  5.33524E+00  6.13851E+00
   6.95602E+00  7.76997E+00  8.56219E+00  9.31533E+00  1.00146E+01  1.06514E+01  1.12337E+01  1.17888E+01  1.22004E+01  1.23418E+01
   1.22675E+01  1.20600E+01  1.17495E+01  1.13105E+01  1.07113E+01  1.00478E+01  9.33020E+00  8.48458E+00  7.53764E+00  6.61402E+00
   5.85175E+00  5.34296E+00  5.11928E+00  5.13802E+00  5.27049E+00  5.34274E+00  5.22026E+00  4.85913E+00  4.28834E+00  3.56967E+00
   2.75693E+00  1.92266E+00  1.15114E+00  4.77715E-01 -1.02271E-01 -6.07519E-01 -1.04865E+00 -1.40578E+00 -1.68210E+00 -1.90165E+00
  -2.08002E+00 -2.22740E+00 -2.35038E+00 -2.45261E+00 -2.53540E+00 -2.59826E+00 -2.63937E+00 -2.65592E+00 -2.64442E+00 -2.60071E+00
  -2.52013E+00 -2.39759E+00 -2.22779E+00 -2.00522E+00 -1.72443E+00 -1.38008E+00 -9.67378E-01 -4.82360E-01  7.75612E-02  7.13182E-01
   1.42301E+00  2.20285E+00  3.04530E+00  3.93946E+00  4.87076E+00  5.82107E+00  6.76907E+00  7.69082E+00  8.56059E+00  9.35192E+00
   1.00388E+01  1.05973E+01  1.10064E+01  1.12497E+01  1.13161E+01  1.12007E+01  1.09047E+01  1.04358E+01  9.80778E+00  9.03920E+00
   8.15269E+00  7.17355E+00  6.12842E+00  5.04394E+00  3.94555E+00  2.85642E+00  1.79664E+00  7.82758E-01 -1.72480E-01 -1.06005E+00
  -1.87450E+00 -2.61355E+00 -3.27764E+00 -3.86936E+00 -4.39288E+00 -4.85341E+00 -5.25684E+00 -5.60931E+00 -5.91694E+00 -6.18554E+00
  -6.42050E+00 -6.62665E+00 -6.80832E+00 -6.96929E+00 -7.11282E+00 -7.24165E+00 -7.35809E+00 -7.46406E+00 -7.56119E+00 -7.65082E+00
  -7.73410E+00 -7.81192E+00 -7.88503E+00 -7.95406E+00 -8.01957E+00 -8.08200E+00 -8.14176E+00 -8.19912E+00 -8.25436E+00 -8.30770E+00
  -8.35938E+00 -8.40957E+00 -8.45842E+00 -8.50604E+00 -8.55254E+00 -8.59802E+00 -8.64261E+00 -8.68638E+00 -8.72940E+00 -8.77170E+00
  -8.81335E+00 -8.85441E+00 -8.89496E+00 -8.93501E+00 -8.97460E+00 -9.01373E+00 -9.05246E+00 -9.09083E+00 -9.12887E+00 -9.16658E+00
  -9.20398E+00 -9.24107E+00 -9.27790E+00 -9.31448E+00 -9.35084E+00 -9.38695E+00 -9.42284E+00 -9.45851E+00 -9.49399E+00 -9.52930E+00
  -9.56444E+00 -9.59939E+00 -9.63415E+00 -9.66875E+00 -9.70320E+00 -9.73750E+00 -9.77164E+00 -9.80561E+00 -9.83940E+00 -9.87304E+00
  -9.90654E+00 -9.93987E+00 -9.97301E+00 -1.00059E+01 -1.00387E+01 -1.00712E+01 -1.01035E+01 -1.01355E+01
 NY background values follow
     6.134E+00    6.101E+00    6.069E+00    6.036E+00    6.003E+00    5.971E+00    5.938E+00    5.905E+00    5.873E+00    5.840E+00
     5.807E+00    5.775E+00    5.742E+00    5.709E+00    5.677E+00    5.644E+00    5.611E+00    5.579E+00    5.546E+00    5.513E+00
     5.481E+00    5.448E+00    5.415E+00    5.383E+00    5.350E+00    5.317E+00    5.285E+00    5.252E+00    5.219E+00    5.187E+00
     5.154E+00    5.121E+00    5.089E+00    5.056E+00    5.023E+00    4.991E+00    4.958E+00    4.925E+00    4.893E+00    4.860E+00
     4.827E+00    4.795E+00    4.762E+00    4.729E+00    4.697E+00    4.664E+00    4.631E+00    4.599E+00    4.566E+00    4.533E+00
     4.501E+00    4.468E+00    4.435E+00    4.403E+00    4.370E+00    4.338E+00    4.305E+00    4.272E+00    4.240E+00    4.207E+00
     4.174E+00    4.142E+00    4.109E+00    4.076E+00    4.044E+00    4.011E+00    3.978E+00    3.946E+00    3.913E+00    3.880E+00
     3.848E+00    3.815E+00    3.782E+00    3.750E+00    3.717E+00    3.684E+00    3.652E+00    3.619E+00    3.586E+00    3.554E+00
     3.521E+00    3.488E+00    3.456E+00    3.423E+00    3.390E+00    3.358E+00    3.325E+00    3.292E+00    3.260E+00    3.227E+00
     3.194E+00    3.162E+00    3.129E+00    3.096E+00    3.064E+00    3.031E+00    2.998E+00    2.966E+00    2.933E+00    2.900E+00
     2.868E+00    2.835E+00    2.802E+00    2.770E+00    2.737E+00    2.704E+00    2.672E+00    2.639E+00    2.606E+00    2.574E+00
     2.541E+00    2.508E+00    2.476E+00    2.443E+00    2.410E+00    2.378E+00    2.345E+00    2.312E+00    2.280E+00    2.247E+00
     2.214E+00    2.182E+00    2.149E+00    2.116E+00    2.084E+00    2.051E+00    2.018E+00    1.986E+00    1.953E+00    1.920E+00
     1.888E+00    1.855E+00    1.822E+00    1.790E+00    1.757E+00    1.724E+00    1.692E+00    1.659E+00    1.626E+00    1.594E+00
     1.561E+00    1.528E+00    1.496E+00    1.463E+00    1.430E+00    1.398E+00    1.365E+00    1.332E+00    1.300E+00    1.267E+00
     1.234E+00    1.202E+00    1.169E+00    1.136E+00    1.104E+00    1.071E+00    1.038E+00    1.006E+00    9.730E-01    9.403E-01
     9.076E-01    8.750E-01    8.423E-01    8.096E-01    7.770E-01    7.443E-01    7.116E-01    6.789E-01    6.463E-01    6.136E-01
     5.809E-01    5.483E-01    5.156E-01    4.829E-01    4.503E-01    4.176E-01    3.849E-01    3.523E-01    3.196E-01    2.869E-01
     2.543E-01    2.216E-01    1.889E-01    1.563E-01    1.236E-01    9.092E-02    5.825E-02    2.558E-02   -7.089E-03   -3.976E-02
    -7.243E-02   -1.051E-01   -1.378E-01   -1.704E-01   -2.031E-01   -2.358E-01   -2.684E-01   -3.011E-01   -3.338E-01   -3.664E-01
    -3.991E-01   -4.318E-01   -4.645E-01   -4.971E-01   -5.298E-01   -5.625E-01   -5.951E-01   -6.278E-01   -6.605E-01   -6.931E-01
    -7.258E-01   -7.585E-01   -7.911E-01   -8.238E-01   -8.565E-01   -8.891E-01   -9.218E-01   -9.545E-01   -9.871E-01   -1.020E+00
    -1.052E+00   -1.085E+00   -1.118E+00   -1.150E+00   -1.183E+00   -1.216E+00   -1.248E+00   -1.281E+00   -1.314E+00   -1.347E+00
    -1.379E+00   -1.412E+00   -1.445E+00   -1.477E+00   -1.510E+00   -1.543E+00   -1.575E+00   -1.608E+00   -1.641E+00   -1.673E+00
    -1.706E+00   -1.739E+00   -1.771E+00   -1.804E+00   -1.837E+00   -1.869E+00   -1.902E+00   -1.935E+00   -1.967E+00   -2.000E+00
    -2.033E+00   -2.065E+00   -2.098E+00   -2.131E+00   -2.163E+00   -2.196E+00   -2.229E+00   -2.261E+00   -2.294E+00   -2.327E+00
    -2.359E+00   -2.392E+00   -2.425E+00   -2.457E+00   -2.490E+00   -2.523E+00   -2.555E+00   -2.588E+00   -2.621E+00   -2.653E+00
    -2.686E+00   -2.719E+00   -2.751E+00   -2.784E+00   -2.817E+00   -2.849E+00   -2.882E+00   -2.915E+00   -2.947E+00   -2.980E+00
    -3.013E+00   -3.045E+00   -3.078E+00   -3.111E+00   -3.143E+00   -3.176E+00   -3.209E+00   -3.241E+00   -3.274E+00   -3.307E+00
    -3.339E+00   -3.372E+00   -3.405E+00   -3.437E+00   -3.470E+00   -3.503E+00   -3.535E+00   -3.568E+00   -3.601E+00   -3.633E+00
    -3.666E+00   -3.699E+00   -3.731E+00   -3.764E+00   -3.797E+00   -3.829E+00   -3.862E+00   -3.895E+00   -3.927E+00   -3.960E+00
    -3.993E+00   -4.025E+00   -4.058E+00   -4.091E+00   -4.123E+00   -4.156E+00   -4.189E+00   -4.221E+00   -4.254E+00   -4.287E+00
    -4.319E+00   -4.352E+00   -4.385E+00   -4.417E+00   -4.450E+00   -4.483E+00   -4.515E+00   -4.548E+00   -4.581E+00   -4.613E+00
    -4.646E+00   -4.679E+00   -4.711E+00   -4.744E+00   -4.777E+00   -4.809E+00   -4.842E+00   -4.875E+00   -4.907E+00   -4.940E+00
    -4.973E+00   -5.005E+00   -5.038E+00   -5.071E+00   -5.103E+00   -5.136E+00   -5.169E+00   -5.201E+00   -5.234E+00   -5.267E+00
    -5.299E+00   -5.332E+00   -5.365E+00   -5.397E+00   -5.430E+00   -5.463E+00   -5.495E+00   -5.528E+00   -5.561E+00   -5.593E+00
    -5.626E+00   -5.659E+00   -5.691E+00   -5.724E+00   -5.757E+00   -5.789E+00   -5.822E+00   -5.855E+00   -5.887E+00   -5.920E+00
    -5.953E+00   -5.985E+00   -6.018E+00   -6.051E+00   -6.083E+00   -6.116E+00   -6.149E+00   -6.181E+00   -6.214E+00   -6.247E+00
    -6.279E+00   -6.312E+00   -6.345E+00   -6.377E+00   -6.410E+00   -6.443E+00   -6.475E+00   -6.508E+00   -6.541E+00   -6.573E+00
    -6.606E+00   -6.639E+00   -6.671E+00   -6.704E+00   -6.737E+00   -6.769E+00   -6.802E+00   -6.835E+00   -6.867E+00   -6.900E+00
    -6.933E+00   -6.965E+00   -6.998E+00   -7.031E+00   -7.063E+00   -7.096E+00   -7.129E+00   -7.161E+00   -7.194E+00   -7.227E+00
    -7.259E+00   -7.292E+00   -7.325E+00   -7.357E+00   -7.390E+00   -7.423E+00   -7.455E+00   -7.488E+00   -7.521E+00   -7.553E+00
    -7.586E+00   -7.619E+00   -7.651E+00   -7.684E+00   -7.717E+00   -7.749E+00   -7.782E+00   -7.815E+00   -7.847E+00   -7.880E+00
    -7.913E+00   -7.945E+00   -7.978E+00   -8.011E+00   -8.043E+00   -8.076E+00   -8.109E+00   -8.141E+00   -8.174E+00   -8.207E+00
    -8.239E+00   -8.272E+00   -8.305E+00   -8.337E+00   -8.370E+00   -8.403E+00   -8.435E+00   -8.468E+00   -8.501E+00   -8.533E+00
    -8.566E+00   -8.599E+00   -8.631E+00   -8.664E+00   -8.697E+00   -8.729E+00   -8.762E+00   -8.795E+00   -8.827E+00   -8.860E+00
    -8.893E+00   -8.925E+00   -8.958E+00   -8.991E+00   -9.023E+00   -9.056E+00   -9.089E+00   -9.122E+00   -9.154E+00   -9.187E+00
    -9.220E+00   -9.252E+00   -9.285E+00   -9.318E+00   -9.350E+00   -9.383E+00   -9.416E+00   -9.448E+00   -9.481E+00   -9.514E+00
    -9.546E+00   -9.579E+00   -9.612E+00   -9.644E+00   -9.677E+00   -9.710E+00   -9.742E+00   -9.775E+00   -9.808E+00   -9.840E+00
    -9.873E+00   -9.906E+00   -9.938E+00   -9.971E+00   -1.000E+01   -1.004E+01   -1.007E+01   -1.010E+01
 Cr       Conc. = 1.16E+03
