 LCModel (Version 6.3-1L) Copyright: S.W. Provencher.          Ref.: Magn. Reson. Med. 30:672-679 (1993).                
 Slice#1 Row#5 Col#3  PD_24_press_2_raw_act
 36 lines in following concentration table = NCONC+1
    Conc.  %SD /Cr+PCr  Metabolite                                         
  986.784  36%   0.500 Ala                                                 
    0.000 999%   0.000 Asp                                                 
 1.54E+03  32%   0.779 Cr                                                  
  437.209 117%   0.221 PCr                                                 
  140.102 208% 7.1E-02 GABA                                                
  233.610 119%   0.118 Glc                                                 
 1.59E+03  59%   0.804 Gln                                                 
 2.28E+03  47%   1.152 Glu                                                 
  926.759   6%   0.469 GPC                                                 
    0.000 999%   0.000 PCh                                                 
 1.15E+03  18%   0.582 GSH                                                 
 3.69E+03  16%   1.869 Ins                                                 
    0.000 999%   0.000 Lac                                                 
 3.73E+03   5%   1.891 NAA                                                 
    0.000 999%   0.000 NAAG                                                
  263.731  23%   0.134 Scyllo                                              
  988.160  40%   0.500 Tau                                                 
  434.034  58%   0.220 -CrCH2                                              
  926.759   6%   0.469 GPC+PCh                                             
 3.73E+03   5%   1.891 NAA+NAAG                                            
 1.98E+03   7%   1.000 Cr+PCr                                              
 3.86E+03  46%   1.956 Glu+Gln                                             
    0.000 999%   0.000 Lip13a                                              
    0.000 999%   0.000 Lip13b                                              
 2.09E-03 999% 1.1E-06 Lip09                                               
 2.94E+03  11%   1.486 MM09                                                
 1.85E-02 999% 9.4E-06 Lip20                                               
 7.11E+03  10%   3.602 MM20                                                
  126.482 215% 6.4E-02 MM12                                                
 1.81E+03  14%   0.915 MM14                                                
    0.000 999%   0.000 MM17                                                
    0.000 999%   0.000 Lip13a+Lip13b                                       
 1.93E+03  20%   0.979 MM14+Lip13a+Lip13b+MM12                             
 2.94E+03  11%   1.486 MM09+Lip09                                          
 7.11E+03  10%   3.602 MM20+Lip20                                          
   6 lines in following misc. output table
  FWHM = 0.084 ppm    S/N =   8                                            
  Data shift =-0.023 ppm                                                   
  Ph: -15 deg      -1.4 deg/ppm                                            
  alphaB,S = 3.1E+00,   1.1E+02                                            
   14 spline knots.   Ns =10(1)                                            
  (18) 4 infls.   (19) 1 extrs.                                            
  498 points on ppm-axis = NY
      4.000000     3.992357     3.984714     3.977070     3.969427     3.961784     3.954141     3.946497     3.938854     3.931211
      3.923568     3.915925     3.908281     3.900638     3.892995     3.885352     3.877708     3.870065     3.862422     3.854779
      3.847136     3.839492     3.831849     3.824206     3.816563     3.808919     3.801276     3.793633     3.785990     3.778347
      3.770703     3.763060     3.755417     3.747774     3.740130     3.732487     3.724844     3.717201     3.709558     3.701914
      3.694271     3.686628     3.678985     3.671341     3.663698     3.656055     3.648412     3.640769     3.633125     3.625482
      3.617839     3.610196     3.602552     3.594909     3.587266     3.579623     3.571980     3.564336     3.556693     3.549050
      3.541407     3.533763     3.526120     3.518477     3.510834     3.503191     3.495547     3.487904     3.480261     3.472618
      3.464974     3.457331     3.449688     3.442045     3.434402     3.426758     3.419115     3.411472     3.403829     3.396185
      3.388542     3.380899     3.373256     3.365613     3.357969     3.350326     3.342683     3.335040     3.327396     3.319753
      3.312110     3.304467     3.296824     3.289180     3.281537     3.273894     3.266251     3.258607     3.250964     3.243321
      3.235678     3.228034     3.220391     3.212748     3.205105     3.197462     3.189818     3.182175     3.174532     3.166889
      3.159245     3.151602     3.143959     3.136316     3.128673     3.121029     3.113386     3.105743     3.098100     3.090456
      3.082813     3.075170     3.067527     3.059884     3.052240     3.044597     3.036954     3.029311     3.021667     3.014024
      3.006381     2.998738     2.991095     2.983451     2.975808     2.968165     2.960522     2.952878     2.945235     2.937592
      2.929949     2.922306     2.914662     2.907019     2.899376     2.891733     2.884089     2.876446     2.868803     2.861160
      2.853517     2.845873     2.838230     2.830587     2.822944     2.815300     2.807657     2.800014     2.792371     2.784728
      2.777084     2.769441     2.761798     2.754155     2.746511     2.738868     2.731225     2.723582     2.715939     2.708295
      2.700652     2.693009     2.685366     2.677722     2.670079     2.662436     2.654793     2.647150     2.639506     2.631863
      2.624220     2.616577     2.608933     2.601290     2.593647     2.586004     2.578361     2.570717     2.563074     2.555431
      2.547788     2.540144     2.532501     2.524858     2.517215     2.509572     2.501928     2.494285     2.486642     2.478999
      2.471355     2.463712     2.456069     2.448426     2.440783     2.433139     2.425496     2.417853     2.410210     2.402566
      2.394923     2.387280     2.379637     2.371994     2.364350     2.356707     2.349064     2.341421     2.333777     2.326134
      2.318491     2.310848     2.303205     2.295561     2.287918     2.280275     2.272632     2.264988     2.257345     2.249702
      2.242059     2.234416     2.226772     2.219129     2.211486     2.203843     2.196199     2.188556     2.180913     2.173270
      2.165627     2.157983     2.150340     2.142697     2.135054     2.127410     2.119767     2.112124     2.104481     2.096838
      2.089194     2.081551     2.073908     2.066265     2.058621     2.050978     2.043335     2.035692     2.028049     2.020405
      2.012762     2.005119     1.997476     1.989833     1.982190     1.974546     1.966903     1.959260     1.951617     1.943974
      1.936331     1.928688     1.921045     1.913402     1.905759     1.898115     1.890472     1.882829     1.875186     1.867543
      1.859900     1.852257     1.844614     1.836971     1.829327     1.821684     1.814041     1.806398     1.798755     1.791112
      1.783469     1.775826     1.768183     1.760540     1.752896     1.745253     1.737610     1.729967     1.722324     1.714681
      1.707038     1.699395     1.691752     1.684108     1.676465     1.668822     1.661179     1.653536     1.645893     1.638250
      1.630607     1.622964     1.615321     1.607677     1.600034     1.592391     1.584748     1.577105     1.569462     1.561819
      1.554176     1.546533     1.538890     1.531246     1.523603     1.515960     1.508317     1.500674     1.493031     1.485388
      1.477745     1.470102     1.462458     1.454815     1.447172     1.439529     1.431886     1.424243     1.416600     1.408957
      1.401314     1.393671     1.386027     1.378384     1.370741     1.363098     1.355455     1.347812     1.340169     1.332526
      1.324883     1.317240     1.309596     1.301953     1.294310     1.286667     1.279024     1.271381     1.263738     1.256095
      1.248452     1.240808     1.233165     1.225522     1.217879     1.210236     1.202593     1.194950     1.187307     1.179664
      1.172021     1.164377     1.156734     1.149091     1.141448     1.133805     1.126162     1.118519     1.110876     1.103233
      1.095590     1.087946     1.080303     1.072660     1.065017     1.057374     1.049731     1.042088     1.034445     1.026802
      1.019158     1.011515     1.003872     0.996229     0.988586     0.980943     0.973300     0.965657     0.958014     0.950371
      0.942727     0.935084     0.927441     0.919798     0.912155     0.904512     0.896869     0.889226     0.881583     0.873940
      0.866296     0.858653     0.851010     0.843367     0.835724     0.828081     0.820438     0.812795     0.805152     0.797508
      0.789865     0.782222     0.774579     0.766936     0.759293     0.751650     0.744007     0.736364     0.728721     0.721077
      0.713434     0.705791     0.698148     0.690505     0.682862     0.675219     0.667576     0.659933     0.652290     0.644646
      0.637003     0.629360     0.621717     0.614074     0.606431     0.598788     0.591145     0.583502     0.575858     0.568215
      0.560572     0.552929     0.545286     0.537643     0.530000     0.522357     0.514714     0.507071     0.499427     0.491784
      0.484141     0.476498     0.468855     0.461212     0.453569     0.445925     0.438282     0.430639     0.422996     0.415353
      0.407710     0.400067     0.392424     0.384780     0.377137     0.369494     0.361851     0.354208     0.346565     0.338922
      0.331278     0.323635     0.315992     0.308349     0.300706     0.293063     0.285420     0.277777     0.270133     0.262490
      0.254847     0.247204     0.239561     0.231918     0.224275     0.216631     0.208988     0.201345
 NY phased data points follow
   1.69792E+01 -2.85039E+00  1.01548E+01  1.16754E+00  1.92976E+01  6.84822E+00  2.11945E+01  1.53269E+01  1.62041E+01  2.10988E+01
   2.48536E+01  1.62839E+01  3.64352E+01  2.41206E+01  1.97859E+01  1.21530E+01  2.98549E+01  1.82934E+01  1.80110E+01  7.53375E+00
   5.04662E+00  5.13357E+00  1.41465E+01  1.78357E+01  1.52004E+01  1.39967E+01  4.27777E+00  2.02325E+01  1.94596E+01  1.46345E+01
   1.61531E+01  1.93992E+01  1.29934E+01  1.63205E+01  1.45940E+01  1.12762E+01  1.69702E+01  7.85689E+00  1.00099E+01  5.76858E+00
   1.11617E+01  9.15108E+00  1.20919E+01  2.38068E+01  1.71523E+01  2.78748E+01  5.76392E+00  1.28495E+01  1.73644E+01  8.77327E+00
   9.06723E+00  8.67871E+00  9.21253E+00  3.74306E+00  1.42515E+01  8.11012E+00  1.37311E+01  1.42213E+01  4.63652E+00  5.78617E+00
   1.36491E+01  1.91830E+00  1.15211E+01  6.49262E+00  9.05915E+00  9.75982E-01  5.93780E+00 -3.77210E+00  4.31596E+00  4.19214E+00
   1.01386E+01  5.36652E+00  4.24499E+00 -1.51947E+00  5.00058E+00  5.40962E+00  1.08343E+01  1.38738E+00  1.06782E+00  1.13423E+01
   6.50921E+00  1.01877E+00  1.19446E+01  5.94780E+00  4.50371E+00  1.42580E+01  6.33822E+00  3.74396E+00  3.97802E+00  3.08096E+00
   7.94589E+00  1.02307E+01  3.23701E+00  4.41030E+00  7.49612E+00  2.23326E+01  1.89634E+01  2.26311E+01  2.25156E+01  3.51477E+01
   4.30163E+01  4.17973E+01  5.34330E+01  5.40225E+01  5.50806E+01  4.49499E+01  5.21807E+01  3.89551E+01  3.16116E+01  2.56325E+01
   3.33404E+01  4.42517E+00  3.40079E+00  4.94037E+00  9.91742E+00  6.80198E+00  5.27217E+00  9.97341E+00  5.82315E+00 -2.76483E-01
   6.09658E+00  1.32601E+01  1.41196E+01  2.19837E+01  2.84788E+01  3.66356E+01  3.65575E+01  3.32823E+01  3.99551E+01  4.58162E+01
   4.31759E+01  3.43173E+01  3.27190E+01  2.81432E+01  1.55155E+01  8.07920E+00  1.04865E+01  5.34950E+00  4.77385E-01  3.58136E+00
  -2.07685E-01 -2.18931E+00  5.34573E-01 -7.07994E+00  1.91099E+00 -6.88809E+00 -7.47394E-01 -9.30831E+00 -5.27973E+00 -7.55123E+00
  -6.81665E+00 -2.11541E+00  4.50581E+00  7.48600E-01 -9.50525E+00 -7.05222E+00 -4.43707E+00 -1.93836E+00 -1.13796E+01  1.52764E+00
  -1.99813E+00 -6.13974E+00 -1.69895E-01 -8.28961E+00 -1.44725E+01 -1.05202E+01 -1.26012E+01 -1.93439E+01 -1.42419E+01 -9.33352E+00
  -2.25097E+01 -1.56732E+01 -2.48678E+01 -3.03810E+01 -2.20718E+01 -2.46433E+01 -1.85276E+01 -2.04159E+01 -2.06545E+01 -3.03969E+01
  -1.62452E+01 -2.26061E+01 -1.64847E+01 -1.68823E+01 -2.08128E+01 -1.75499E+01 -1.77510E+01 -7.62991E+00 -1.00707E+01 -7.34281E+00
  -9.95567E+00 -3.75851E+00 -9.99266E+00 -6.60237E+00 -6.20624E+00  2.10861E+00 -1.02484E+01 -6.33496E+00 -9.75943E+00 -1.52135E+01
  -2.20212E+00 -1.14232E+01 -6.54310E+00 -1.04024E+01 -1.47688E-01  9.29346E-01 -4.77756E+00 -5.41961E+00 -1.75618E+00 -9.49214E+00
  -1.82116E+00 -8.62217E+00  6.31499E+00  1.28117E+00 -2.25675E+00  8.05749E+00  6.08228E+00 -6.38865E+00  8.77858E+00 -7.38532E+00
  -5.80215E+00 -4.33059E+00 -1.59672E+00  7.95242E-01  2.13934E+00  4.89103E+00  2.10916E+00 -1.78756E+00  8.98294E+00  8.02109E+00
   9.35754E+00  9.45614E+00  1.55586E+01  2.11606E+01  1.19057E+01  1.29632E+01  1.86751E+01  9.26179E+00  1.91742E+01  1.23138E+01
   1.88419E+01  1.22497E+01  6.52866E+00  1.07612E+01  1.50824E+01  1.58120E+01  4.93223E+00  7.41261E+00  1.88676E+01  1.95930E+01
   2.17456E+01  3.58298E+01  3.08481E+01  3.73467E+01  4.86028E+01  5.91489E+01  7.08139E+01  7.35156E+01  9.37559E+01  9.08134E+01
   9.23497E+01  9.65053E+01  1.00716E+02  9.53998E+01  7.64782E+01  5.43672E+01  3.96673E+01  3.11427E+01  2.39801E+01  2.18856E+01
   1.06379E+01  6.53249E+00  1.77861E+01  1.03237E+01  1.32815E+01  1.60247E+01  7.59595E+00 -1.67324E-01  1.82499E+00 -1.54041E+01
   2.54577E+00  3.53351E+00  3.65323E+00 -4.92214E+00 -6.58124E+00 -8.52139E+00 -1.07025E+01 -3.35742E+00 -8.28535E+00 -6.60224E+00
  -9.60384E+00 -8.60950E-01 -7.90738E+00 -1.23487E+01 -4.02572E-01 -2.93339E+00 -6.16850E+00 -1.20109E+01 -1.90161E+01 -1.09960E+01
  -1.46842E+01 -2.90314E+01 -1.85804E+01 -1.19092E+01 -1.86957E+01 -2.00843E+01 -2.17920E+01 -1.16002E+01 -2.53585E+01 -2.15335E+01
  -2.44970E+01 -2.30042E+01 -2.12910E+01 -6.10409E+00 -1.04138E+01  4.21952E-01 -2.83210E+00 -8.92003E+00  6.67326E+00  7.73505E+00
   1.41741E+01  7.80321E+00  4.99893E+00  8.94528E+00  5.78096E+00  9.22841E+00  1.12094E+01  7.78077E+00  1.42335E-01  6.35332E+00
  -4.29773E+00 -6.09896E-01  1.04172E+01 -4.73257E+00  2.86359E+00 -1.02639E+00  2.90195E+00  5.53940E+00  4.72500E+00  2.61748E+00
   5.78399E-01  6.67132E+00  1.00141E+01  9.39750E+00  4.48099E+00  2.22958E+00 -1.12608E-01 -1.10677E+01 -5.52815E+00 -9.38484E+00
  -1.13735E+01 -1.85776E+00 -8.55402E+00 -1.50051E+01 -1.65857E+01 -1.56466E+01 -1.86185E+01 -1.01389E+01 -9.33753E+00 -8.60918E+00
  -1.29416E+01 -1.09134E+01 -7.11116E+00 -1.04961E+01 -1.65783E+01 -5.44501E+00 -6.69760E+00 -9.97771E+00 -5.52171E+00 -1.21228E+01
  -1.24646E+01 -5.13880E+00 -4.59584E+00 -2.60848E+00 -8.25168E+00 -7.61025E+00  3.23538E+00 -2.14267E+00  7.92123E-01 -8.72124E+00
  -1.02876E+00 -3.75452E+00  2.00237E+00  6.43292E-01 -2.48987E+00  4.92296E+00  1.01946E+00 -2.68011E+00 -3.82836E-02  1.60217E+01
   1.35320E-01 -3.03295E-01 -1.00303E+00  6.23505E+00  3.62027E+00  3.78940E+00  3.39122E+00  9.12809E+00  5.59334E+00  1.28051E+01
   3.94057E-01  1.55739E+00  1.48594E+01  1.75801E+01  1.82137E+01  1.54493E+01  8.24421E+00  8.80240E+00  1.16165E+01  1.60908E+01
   1.34915E+01  2.45027E+01  1.50429E+01  1.11764E+01  3.37595E+00  4.19824E+00  5.43260E+00  1.25337E+01  3.01737E+00  2.18506E+00
   2.83568E+00  7.61471E+00  2.52475E+00  1.41480E+01 -2.54489E+00 -7.36147E+00  1.00849E+00  6.84885E+00 -2.88052E+00 -8.94779E+00
  -3.94131E-01 -1.07539E+01  1.20649E-01 -3.16543E+00 -9.42384E+00 -6.30170E+00 -8.94869E+00 -6.33693E+00 -6.92062E-01 -5.45463E+00
  -8.34806E+00 -5.78480E+00  5.36985E+00 -2.99471E+00 -9.27536E+00 -3.71721E+00  1.19877E+00 -6.89563E+00 -1.26421E+01  3.70618E+00
   2.26044E+00 -1.25635E+01 -8.44943E+00 -1.19910E+00 -8.21662E+00  5.84320E-01 -4.77995E+00 -1.10772E+01 -9.85380E+00 -1.48747E+01
  -1.20364E+00 -4.30510E+00  4.88430E+00 -2.37787E+00 -9.22563E+00 -4.61250E+00 -1.01292E+00 -3.37618E+00  7.87305E-01 -4.01198E-01
  -2.71067E+00 -6.43074E+00 -3.80154E+00 -2.38583E+00 -1.72759E+00 -5.25066E+00 -7.38181E+00 -3.98294E+00 -1.34150E+00  4.67192E-01
  -1.95414E-01  1.14084E+00  3.24578E+00 -9.24893E+00 -8.51952E+00 -7.79821E+00 -4.36547E-01 -8.31314E+00 -6.27205E+00 -3.48860E+00
  -8.58488E+00  5.69186E+00 -9.25100E-01  1.08908E-01  1.83628E+00  2.11142E+00 -1.03642E+01  2.09310E+00
 NY points of the fit to the data follow
   6.94928E+00  6.24257E+00  6.57127E+00  7.58103E+00  9.04218E+00  1.09998E+01  1.33082E+01  1.60739E+01  1.91484E+01  2.19719E+01
   2.40937E+01  2.53959E+01  2.60675E+01  2.61272E+01  2.52587E+01  2.32477E+01  2.02287E+01  1.67515E+01  1.35165E+01  1.10693E+01
   9.84617E+00  9.41276E+00  9.06072E+00  8.73413E+00  9.43720E+00  1.11604E+01  1.32439E+01  1.53353E+01  1.71372E+01  1.85998E+01
   1.98626E+01  2.07384E+01  2.08213E+01  1.98142E+01  1.77853E+01  1.51015E+01  1.23771E+01  1.04408E+01  9.56583E+00  9.31596E+00
   9.19005E+00  9.38935E+00  1.06335E+01  1.24053E+01  1.41207E+01  1.54521E+01  1.63136E+01  1.66105E+01  1.62981E+01  1.53977E+01
   1.37008E+01  1.12850E+01  8.79050E+00  6.69036E+00  5.28131E+00  4.69067E+00  4.71105E+00  4.75496E+00  4.56194E+00  4.59600E+00
   4.94376E+00  5.26654E+00  5.38132E+00  5.24716E+00  4.89241E+00  4.54544E+00  4.43121E+00  4.62746E+00  5.11038E+00  5.66056E+00
   6.06129E+00  6.36169E+00  6.61150E+00  6.78854E+00  6.79744E+00  6.61719E+00  6.44754E+00  6.33140E+00  6.07181E+00  5.68724E+00
   5.32969E+00  5.27714E+00  5.45990E+00  5.71317E+00  5.90896E+00  5.85716E+00  5.53943E+00  5.10643E+00  4.60973E+00  3.90614E+00
   2.99754E+00  2.21172E+00  2.11424E+00  3.76299E+00  7.35539E+00  1.16150E+01  1.60009E+01  2.08896E+01  2.70869E+01  3.44926E+01
   4.17535E+01  4.76027E+01  5.14510E+01  5.35957E+01  5.43659E+01  5.31308E+01  4.89144E+01  4.16476E+01  3.27408E+01  2.40787E+01
   1.68810E+01  1.14989E+01  7.57960E+00  4.08365E+00  2.76203E-01 -2.26000E+00 -2.45488E+00 -1.29213E+00  1.26337E+00  4.62878E+00
   8.32125E+00  1.24691E+01  1.74022E+01  2.31618E+01  2.92084E+01  3.45742E+01  3.85568E+01  4.10853E+01  4.23504E+01  4.21226E+01
   3.97672E+01  3.49590E+01  2.83167E+01  2.12295E+01  1.49403E+01  9.87822E+00  5.96745E+00  2.74337E+00 -3.77293E-01 -2.92606E+00
  -3.78870E+00 -3.59740E+00 -3.22727E+00 -3.03209E+00 -3.18833E+00 -3.58046E+00 -4.02101E+00 -4.52417E+00 -5.04606E+00 -5.55792E+00
  -6.12231E+00 -6.75910E+00 -7.41542E+00 -7.99988E+00 -8.41296E+00 -8.70732E+00 -8.99499E+00 -9.31573E+00 -9.61925E+00 -9.85987E+00
  -1.00471E+01 -1.02373E+01 -1.04813E+01 -1.07564E+01 -1.09960E+01 -1.11853E+01 -1.14491E+01 -1.18879E+01 -1.24412E+01 -1.30577E+01
  -1.36829E+01 -1.42541E+01 -1.47062E+01 -1.50732E+01 -1.53541E+01 -1.56298E+01 -1.59379E+01 -1.61770E+01 -1.62587E+01 -1.61010E+01
  -1.57331E+01 -1.52837E+01 -1.48168E+01 -1.42637E+01 -1.35109E+01 -1.24850E+01 -1.12419E+01 -9.97270E+00 -8.92654E+00 -8.04995E+00
  -7.19211E+00 -6.39868E+00 -5.81059E+00 -5.60233E+00 -5.67989E+00 -5.78797E+00 -5.68839E+00 -5.30184E+00 -4.63907E+00 -3.88135E+00
  -3.19228E+00 -2.53971E+00 -1.97527E+00 -1.74819E+00 -1.96834E+00 -2.57942E+00 -3.40635E+00 -4.34373E+00 -5.19645E+00 -5.75761E+00
  -5.99254E+00 -5.73567E+00 -5.04474E+00 -4.05301E+00 -2.87767E+00 -1.76974E+00 -1.01085E+00 -7.39421E-01 -1.01064E+00 -1.73129E+00
  -2.42581E+00 -2.82665E+00 -3.08204E+00 -2.93235E+00 -2.10070E+00 -8.12200E-01  5.97440E-01  2.00922E+00  3.53010E+00  4.82736E+00
   5.78437E+00  6.55734E+00  7.33784E+00  8.15107E+00  8.89279E+00  9.55899E+00  1.02392E+01  1.08748E+01  1.13786E+01  1.17630E+01
   1.20248E+01  1.22695E+01  1.26296E+01  1.30861E+01  1.36119E+01  1.43605E+01  1.54694E+01  1.68544E+01  1.82413E+01  2.00133E+01
   2.38709E+01  2.98973E+01  3.63352E+01  4.30259E+01  5.07612E+01  5.98737E+01  6.99728E+01  7.97482E+01  8.75631E+01  9.25940E+01
   9.53653E+01  9.61471E+01  9.38263E+01  8.70318E+01  7.57205E+01  6.19362E+01  4.85737E+01  3.73296E+01  2.85722E+01  2.19496E+01
   1.58347E+01  9.06382E+00  4.28681E+00  2.54186E+00  1.59019E+00  8.48098E-01  2.29184E-01 -3.69033E-01 -9.96349E-01 -1.62205E+00
  -2.22887E+00 -2.80476E+00 -3.33652E+00 -3.81826E+00 -4.26273E+00 -4.66087E+00 -5.00032E+00 -5.29295E+00 -5.54976E+00 -5.77541E+00
  -5.97551E+00 -6.15147E+00 -6.30887E+00 -6.45417E+00 -6.58486E+00 -6.69975E+00 -6.80129E+00 -6.88902E+00 -6.95959E+00 -7.01222E+00
  -7.04988E+00 -7.07175E+00 -7.07499E+00 -7.05912E+00 -7.02296E+00 -6.96213E+00 -6.87347E+00 -6.75216E+00 -6.59245E+00 -6.38724E+00
  -6.12862E+00 -5.80707E+00 -5.41190E+00 -4.93035E+00 -4.34615E+00 -3.63314E+00 -2.73962E+00 -1.56208E+00 -1.99637E-01  1.07204E+00
   2.24818E+00  3.40511E+00  4.50705E+00  5.37102E+00  5.74476E+00  5.60831E+00  5.25798E+00  4.77630E+00  4.09482E+00  3.14393E+00
   2.04264E+00  1.12656E+00  7.69394E-01  1.10793E+00  1.94035E+00  3.01628E+00  4.21669E+00  5.30627E+00  6.02969E+00  6.41060E+00
   6.32876E+00  5.57407E+00  4.44231E+00  3.19781E+00  2.03320E+00  9.62178E-01 -2.68654E-01 -1.63212E+00 -2.68832E+00 -3.49075E+00
  -4.13425E+00 -4.65776E+00 -5.08309E+00 -5.42541E+00 -5.69716E+00 -5.90868E+00 -6.06929E+00 -6.18701E+00 -6.26923E+00 -6.32222E+00
  -6.35157E+00 -6.36169E+00 -6.35643E+00 -6.33869E+00 -6.31099E+00 -6.27498E+00 -6.23191E+00 -6.18221E+00 -6.12615E+00 -6.06339E+00
  -5.99352E+00 -5.91546E+00 -5.82801E+00 -5.72937E+00 -5.61777E+00 -5.49090E+00 -5.34643E+00 -5.18136E+00 -4.99256E+00 -4.77631E+00
  -4.52887E+00 -4.24595E+00 -3.92321E+00 -3.55574E+00 -3.13874E+00 -2.66725E+00 -2.13686E+00 -1.54339E+00 -8.83699E-01 -1.55444E-01
   6.41880E-01  1.50705E+00  2.43622E+00  3.42316E+00  4.45855E+00  5.53032E+00  6.62307E+00  7.71879E+00  8.79675E+00  9.83472E+00
   1.08092E+01  1.16967E+01  1.24744E+01  1.31216E+01  1.36204E+01  1.39568E+01  1.41215E+01  1.41103E+01  1.39241E+01  1.35693E+01
   1.30569E+01  1.24026E+01  1.16252E+01  1.07464E+01  9.78892E+00  8.77611E+00  7.73072E+00  6.67429E+00  5.62604E+00  4.60278E+00
   3.61814E+00  2.68308E+00  1.80535E+00  9.90247E-01  2.40263E-01 -4.43995E-01 -1.06392E+00 -1.62194E+00 -2.12167E+00 -2.56712E+00
  -2.96296E+00 -3.31375E+00 -3.62424E+00 -3.89866E+00 -4.14119E+00 -4.35547E+00 -4.54508E+00 -4.71298E+00 -4.86198E+00 -4.99428E+00
  -5.11203E+00 -5.21691E+00 -5.31063E+00 -5.39443E+00 -5.46957E+00 -5.53688E+00 -5.59733E+00 -5.65157E+00 -5.70043E+00 -5.74434E+00
  -5.78390E+00 -5.81936E+00 -5.85125E+00 -5.87980E+00 -5.90549E+00 -5.92841E+00 -5.94890E+00 -5.96700E+00 -5.98307E+00 -5.99718E+00
  -6.00962E+00 -6.02038E+00 -6.02966E+00 -6.03745E+00 -6.04401E+00 -6.04934E+00 -6.05365E+00 -6.05684E+00 -6.05910E+00 -6.06036E+00
  -6.06087E+00 -6.06056E+00 -6.05959E+00 -6.05784E+00 -6.05547E+00 -6.05242E+00 -6.04890E+00 -6.04482E+00 -6.04029E+00 -6.03520E+00
  -6.02970E+00 -6.02373E+00 -6.01749E+00 -6.01083E+00 -6.00387E+00 -5.99650E+00 -5.98887E+00 -5.98093E+00 -5.97283E+00 -5.96443E+00
  -5.95582E+00 -5.94692E+00 -5.93788E+00 -5.92864E+00 -5.91933E+00 -5.90978E+00 -5.90012E+00 -5.89025E+00
 NY background values follow
    -8.385E+00   -8.392E+00   -8.399E+00   -8.407E+00   -8.414E+00   -8.421E+00   -8.428E+00   -8.436E+00   -8.443E+00   -8.450E+00
    -8.457E+00   -8.464E+00   -8.472E+00   -8.479E+00   -8.486E+00   -8.493E+00   -8.500E+00   -8.508E+00   -8.515E+00   -8.522E+00
    -8.529E+00   -8.537E+00   -8.544E+00   -8.551E+00   -8.558E+00   -8.565E+00   -8.573E+00   -8.580E+00   -8.587E+00   -8.594E+00
    -8.601E+00   -8.608E+00   -8.616E+00   -8.623E+00   -8.630E+00   -8.637E+00   -8.644E+00   -8.652E+00   -8.659E+00   -8.666E+00
    -8.673E+00   -8.680E+00   -8.688E+00   -8.695E+00   -8.702E+00   -8.709E+00   -8.716E+00   -8.723E+00   -8.731E+00   -8.738E+00
    -8.745E+00   -8.752E+00   -8.759E+00   -8.766E+00   -8.774E+00   -8.781E+00   -8.788E+00   -8.795E+00   -8.802E+00   -8.809E+00
    -8.816E+00   -8.824E+00   -8.831E+00   -8.838E+00   -8.845E+00   -8.852E+00   -8.859E+00   -8.866E+00   -8.874E+00   -8.881E+00
    -8.888E+00   -8.895E+00   -8.902E+00   -8.909E+00   -8.916E+00   -8.923E+00   -8.930E+00   -8.937E+00   -8.945E+00   -8.952E+00
    -8.959E+00   -8.966E+00   -8.973E+00   -8.980E+00   -8.987E+00   -8.994E+00   -9.001E+00   -9.008E+00   -9.015E+00   -9.022E+00
    -9.029E+00   -9.036E+00   -9.043E+00   -9.050E+00   -9.057E+00   -9.064E+00   -9.071E+00   -9.078E+00   -9.085E+00   -9.092E+00
    -9.099E+00   -9.106E+00   -9.113E+00   -9.120E+00   -9.127E+00   -9.134E+00   -9.141E+00   -9.148E+00   -9.154E+00   -9.161E+00
    -9.168E+00   -9.175E+00   -9.182E+00   -9.189E+00   -9.196E+00   -9.202E+00   -9.209E+00   -9.216E+00   -9.223E+00   -9.229E+00
    -9.236E+00   -9.243E+00   -9.249E+00   -9.256E+00   -9.263E+00   -9.269E+00   -9.276E+00   -9.283E+00   -9.289E+00   -9.296E+00
    -9.302E+00   -9.309E+00   -9.315E+00   -9.322E+00   -9.328E+00   -9.335E+00   -9.341E+00   -9.347E+00   -9.354E+00   -9.360E+00
    -9.367E+00   -9.373E+00   -9.379E+00   -9.385E+00   -9.392E+00   -9.398E+00   -9.404E+00   -9.410E+00   -9.416E+00   -9.422E+00
    -9.428E+00   -9.434E+00   -9.440E+00   -9.446E+00   -9.452E+00   -9.458E+00   -9.464E+00   -9.469E+00   -9.475E+00   -9.481E+00
    -9.487E+00   -9.492E+00   -9.498E+00   -9.503E+00   -9.509E+00   -9.514E+00   -9.520E+00   -9.525E+00   -9.530E+00   -9.535E+00
    -9.541E+00   -9.546E+00   -9.551E+00   -9.556E+00   -9.561E+00   -9.566E+00   -9.571E+00   -9.575E+00   -9.580E+00   -9.585E+00
    -9.590E+00   -9.594E+00   -9.599E+00   -9.603E+00   -9.607E+00   -9.612E+00   -9.616E+00   -9.620E+00   -9.624E+00   -9.629E+00
    -9.633E+00   -9.637E+00   -9.640E+00   -9.644E+00   -9.648E+00   -9.652E+00   -9.655E+00   -9.659E+00   -9.662E+00   -9.666E+00
    -9.669E+00   -9.673E+00   -9.676E+00   -9.679E+00   -9.682E+00   -9.685E+00   -9.688E+00   -9.691E+00   -9.694E+00   -9.697E+00
    -9.699E+00   -9.702E+00   -9.705E+00   -9.707E+00   -9.709E+00   -9.712E+00   -9.714E+00   -9.716E+00   -9.718E+00   -9.721E+00
    -9.723E+00   -9.725E+00   -9.726E+00   -9.728E+00   -9.730E+00   -9.732E+00   -9.733E+00   -9.735E+00   -9.736E+00   -9.737E+00
    -9.739E+00   -9.740E+00   -9.741E+00   -9.742E+00   -9.743E+00   -9.744E+00   -9.745E+00   -9.746E+00   -9.746E+00   -9.747E+00
    -9.747E+00   -9.748E+00   -9.748E+00   -9.748E+00   -9.749E+00   -9.749E+00   -9.749E+00   -9.749E+00   -9.748E+00   -9.748E+00
    -9.748E+00   -9.747E+00   -9.747E+00   -9.746E+00   -9.745E+00   -9.745E+00   -9.744E+00   -9.743E+00   -9.742E+00   -9.741E+00
    -9.739E+00   -9.738E+00   -9.736E+00   -9.735E+00   -9.733E+00   -9.731E+00   -9.730E+00   -9.728E+00   -9.726E+00   -9.723E+00
    -9.721E+00   -9.719E+00   -9.716E+00   -9.714E+00   -9.711E+00   -9.708E+00   -9.706E+00   -9.703E+00   -9.699E+00   -9.696E+00
    -9.693E+00   -9.690E+00   -9.686E+00   -9.682E+00   -9.679E+00   -9.675E+00   -9.671E+00   -9.667E+00   -9.663E+00   -9.658E+00
    -9.654E+00   -9.650E+00   -9.645E+00   -9.640E+00   -9.635E+00   -9.630E+00   -9.625E+00   -9.620E+00   -9.615E+00   -9.609E+00
    -9.604E+00   -9.598E+00   -9.592E+00   -9.587E+00   -9.580E+00   -9.574E+00   -9.568E+00   -9.562E+00   -9.555E+00   -9.549E+00
    -9.542E+00   -9.535E+00   -9.528E+00   -9.521E+00   -9.514E+00   -9.506E+00   -9.499E+00   -9.491E+00   -9.484E+00   -9.476E+00
    -9.468E+00   -9.460E+00   -9.451E+00   -9.443E+00   -9.435E+00   -9.426E+00   -9.417E+00   -9.409E+00   -9.400E+00   -9.391E+00
    -9.381E+00   -9.372E+00   -9.363E+00   -9.353E+00   -9.343E+00   -9.334E+00   -9.324E+00   -9.314E+00   -9.304E+00   -9.294E+00
    -9.283E+00   -9.273E+00   -9.262E+00   -9.252E+00   -9.241E+00   -9.230E+00   -9.219E+00   -9.208E+00   -9.197E+00   -9.185E+00
    -9.174E+00   -9.162E+00   -9.151E+00   -9.139E+00   -9.127E+00   -9.115E+00   -9.103E+00   -9.091E+00   -9.079E+00   -9.066E+00
    -9.054E+00   -9.041E+00   -9.028E+00   -9.016E+00   -9.003E+00   -8.990E+00   -8.977E+00   -8.964E+00   -8.950E+00   -8.937E+00
    -8.924E+00   -8.910E+00   -8.896E+00   -8.883E+00   -8.869E+00   -8.855E+00   -8.841E+00   -8.827E+00   -8.813E+00   -8.799E+00
    -8.784E+00   -8.770E+00   -8.755E+00   -8.741E+00   -8.726E+00   -8.711E+00   -8.696E+00   -8.682E+00   -8.667E+00   -8.652E+00
    -8.636E+00   -8.621E+00   -8.606E+00   -8.591E+00   -8.575E+00   -8.560E+00   -8.544E+00   -8.529E+00   -8.513E+00   -8.497E+00
    -8.481E+00   -8.465E+00   -8.449E+00   -8.433E+00   -8.417E+00   -8.401E+00   -8.385E+00   -8.369E+00   -8.352E+00   -8.336E+00
    -8.320E+00   -8.303E+00   -8.287E+00   -8.270E+00   -8.253E+00   -8.237E+00   -8.220E+00   -8.203E+00   -8.186E+00   -8.169E+00
    -8.152E+00   -8.135E+00   -8.118E+00   -8.101E+00   -8.084E+00   -8.067E+00   -8.050E+00   -8.032E+00   -8.015E+00   -7.998E+00
    -7.980E+00   -7.963E+00   -7.945E+00   -7.928E+00   -7.910E+00   -7.893E+00   -7.875E+00   -7.857E+00   -7.840E+00   -7.822E+00
    -7.804E+00   -7.786E+00   -7.769E+00   -7.751E+00   -7.733E+00   -7.715E+00   -7.697E+00   -7.679E+00   -7.661E+00   -7.643E+00
    -7.625E+00   -7.607E+00   -7.589E+00   -7.571E+00   -7.553E+00   -7.535E+00   -7.516E+00   -7.498E+00   -7.480E+00   -7.462E+00
    -7.444E+00   -7.425E+00   -7.407E+00   -7.389E+00   -7.371E+00   -7.352E+00   -7.334E+00   -7.316E+00   -7.297E+00   -7.279E+00
    -7.261E+00   -7.242E+00   -7.224E+00   -7.205E+00   -7.187E+00   -7.169E+00   -7.150E+00   -7.132E+00   -7.113E+00   -7.095E+00
    -7.076E+00   -7.058E+00   -7.039E+00   -7.021E+00   -7.003E+00   -6.984E+00   -6.966E+00   -6.947E+00   -6.929E+00   -6.910E+00
    -6.892E+00   -6.873E+00   -6.855E+00   -6.836E+00   -6.818E+00   -6.799E+00   -6.781E+00   -6.762E+00
 Ala      Conc. = 9.87E+02
