 LCModel (Version 6.3-1L) Copyright: S.W. Provencher.          Ref.: Magn. Reson. Med. 30:672-679 (1993).                
 Slice#1 Row#4 Col#9  PD_24_press_2_raw_act
 36 lines in following concentration table = NCONC+1
    Conc.  %SD /Cr+PCr  Metabolite                                         
 1.56E+03  75%   0.940 Ala                                                 
    0.000 999%   0.000 Asp                                                 
 1.66E+03  10%   1.000 Cr                                                  
    0.000 999%   0.000 PCr                                                 
  328.927  91%   0.199 GABA                                                
   82.970 352% 5.0E-02 Glc                                                 
 3.30E+03  47%   1.994 Gln                                                 
 1.35E+03 140%   0.814 Glu                                                 
  953.249   7%   0.576 GPC                                                 
    0.000 999%   0.000 PCh                                                 
 1.04E+03  28%   0.630 GSH                                                 
 3.45E+03  20%   2.082 Ins                                                 
 2.54E+03  49%   1.536 Lac                                                 
 3.40E+03   8%   2.054 NAA                                                 
    0.000 999%   0.000 NAAG                                                
  247.638  28%   0.150 Scyllo                                              
  147.591 280% 8.9E-02 Tau                                                 
    0.000 999%   0.000 -CrCH2                                              
  953.249   7%   0.576 GPC+PCh                                             
 3.40E+03   8%   2.054 NAA+NAAG                                            
 1.66E+03  10%   1.000 Cr+PCr                                              
 4.65E+03  63%   2.808 Glu+Gln                                             
 3.25E+03  34%   1.962 Lip13a                                              
    0.000 999%   0.000 Lip13b                                              
  420.579 130%   0.254 Lip09                                               
 2.06E+03  28%   1.243 MM09                                                
  846.331  44%   0.511 Lip20                                               
 4.68E+03  19%   2.827 MM20                                                
  582.967  63%   0.352 MM12                                                
 2.10E+03  41%   1.267 MM14                                                
 1.61E+03  27%   0.972 MM17                                                
 3.25E+03  34%   1.962 Lip13a+Lip13b                                       
 5.93E+03  18%   3.582 MM14+Lip13a+Lip13b+MM12                             
 2.48E+03  13%   1.497 MM09+Lip09                                          
 5.53E+03  15%   3.338 MM20+Lip20                                          
   6 lines in following misc. output table
  FWHM = 0.138 ppm    S/N =   5                                            
  Data shift = 0.015 ppm                                                   
  Ph: -40 deg      -7.7 deg/ppm                                            
  alphaB,S = 8.5E+01,   2.0E+02                                            
   14 spline knots.   Ns = 8(2)                                            
   2 inflections.     1 extrema                                            
  498 points on ppm-axis = NY
      4.000000     3.992357     3.984714     3.977070     3.969427     3.961784     3.954141     3.946497     3.938854     3.931211
      3.923568     3.915925     3.908281     3.900638     3.892995     3.885352     3.877708     3.870065     3.862422     3.854779
      3.847136     3.839492     3.831849     3.824206     3.816563     3.808919     3.801276     3.793633     3.785990     3.778347
      3.770703     3.763060     3.755417     3.747774     3.740130     3.732487     3.724844     3.717201     3.709558     3.701914
      3.694271     3.686628     3.678985     3.671341     3.663698     3.656055     3.648412     3.640769     3.633125     3.625482
      3.617839     3.610196     3.602552     3.594909     3.587266     3.579623     3.571980     3.564336     3.556693     3.549050
      3.541407     3.533763     3.526120     3.518477     3.510834     3.503191     3.495547     3.487904     3.480261     3.472618
      3.464974     3.457331     3.449688     3.442045     3.434402     3.426758     3.419115     3.411472     3.403829     3.396185
      3.388542     3.380899     3.373256     3.365613     3.357969     3.350326     3.342683     3.335040     3.327396     3.319753
      3.312110     3.304467     3.296824     3.289180     3.281537     3.273894     3.266251     3.258607     3.250964     3.243321
      3.235678     3.228034     3.220391     3.212748     3.205105     3.197462     3.189818     3.182175     3.174532     3.166889
      3.159245     3.151602     3.143959     3.136316     3.128673     3.121029     3.113386     3.105743     3.098100     3.090456
      3.082813     3.075170     3.067527     3.059884     3.052240     3.044597     3.036954     3.029311     3.021667     3.014024
      3.006381     2.998738     2.991095     2.983451     2.975808     2.968165     2.960522     2.952878     2.945235     2.937592
      2.929949     2.922306     2.914662     2.907019     2.899376     2.891733     2.884089     2.876446     2.868803     2.861160
      2.853517     2.845873     2.838230     2.830587     2.822944     2.815300     2.807657     2.800014     2.792371     2.784728
      2.777084     2.769441     2.761798     2.754155     2.746511     2.738868     2.731225     2.723582     2.715939     2.708295
      2.700652     2.693009     2.685366     2.677722     2.670079     2.662436     2.654793     2.647150     2.639506     2.631863
      2.624220     2.616577     2.608933     2.601290     2.593647     2.586004     2.578361     2.570717     2.563074     2.555431
      2.547788     2.540144     2.532501     2.524858     2.517215     2.509572     2.501928     2.494285     2.486642     2.478999
      2.471355     2.463712     2.456069     2.448426     2.440783     2.433139     2.425496     2.417853     2.410210     2.402566
      2.394923     2.387280     2.379637     2.371994     2.364350     2.356707     2.349064     2.341421     2.333777     2.326134
      2.318491     2.310848     2.303205     2.295561     2.287918     2.280275     2.272632     2.264988     2.257345     2.249702
      2.242059     2.234416     2.226772     2.219129     2.211486     2.203843     2.196199     2.188556     2.180913     2.173270
      2.165627     2.157983     2.150340     2.142697     2.135054     2.127410     2.119767     2.112124     2.104481     2.096838
      2.089194     2.081551     2.073908     2.066265     2.058621     2.050978     2.043335     2.035692     2.028049     2.020405
      2.012762     2.005119     1.997476     1.989833     1.982190     1.974546     1.966903     1.959260     1.951617     1.943974
      1.936331     1.928688     1.921045     1.913402     1.905759     1.898115     1.890472     1.882829     1.875186     1.867543
      1.859900     1.852257     1.844614     1.836971     1.829327     1.821684     1.814041     1.806398     1.798755     1.791112
      1.783469     1.775826     1.768183     1.760540     1.752896     1.745253     1.737610     1.729967     1.722324     1.714681
      1.707038     1.699395     1.691752     1.684108     1.676465     1.668822     1.661179     1.653536     1.645893     1.638250
      1.630607     1.622964     1.615321     1.607677     1.600034     1.592391     1.584748     1.577105     1.569462     1.561819
      1.554176     1.546533     1.538890     1.531246     1.523603     1.515960     1.508317     1.500674     1.493031     1.485388
      1.477745     1.470102     1.462458     1.454815     1.447172     1.439529     1.431886     1.424243     1.416600     1.408957
      1.401314     1.393671     1.386027     1.378384     1.370741     1.363098     1.355455     1.347812     1.340169     1.332526
      1.324883     1.317240     1.309596     1.301953     1.294310     1.286667     1.279024     1.271381     1.263738     1.256095
      1.248452     1.240808     1.233165     1.225522     1.217879     1.210236     1.202593     1.194950     1.187307     1.179664
      1.172021     1.164377     1.156734     1.149091     1.141448     1.133805     1.126162     1.118519     1.110876     1.103233
      1.095590     1.087946     1.080303     1.072660     1.065017     1.057374     1.049731     1.042088     1.034445     1.026802
      1.019158     1.011515     1.003872     0.996229     0.988586     0.980943     0.973300     0.965657     0.958014     0.950371
      0.942727     0.935084     0.927441     0.919798     0.912155     0.904512     0.896869     0.889226     0.881583     0.873940
      0.866296     0.858653     0.851010     0.843367     0.835724     0.828081     0.820438     0.812795     0.805152     0.797508
      0.789865     0.782222     0.774579     0.766936     0.759293     0.751650     0.744007     0.736364     0.728721     0.721077
      0.713434     0.705791     0.698148     0.690505     0.682862     0.675219     0.667576     0.659933     0.652290     0.644646
      0.637003     0.629360     0.621717     0.614074     0.606431     0.598788     0.591145     0.583502     0.575858     0.568215
      0.560572     0.552929     0.545286     0.537643     0.530000     0.522357     0.514714     0.507071     0.499427     0.491784
      0.484141     0.476498     0.468855     0.461212     0.453569     0.445925     0.438282     0.430639     0.422996     0.415353
      0.407710     0.400067     0.392424     0.384780     0.377137     0.369494     0.361851     0.354208     0.346565     0.338922
      0.331278     0.323635     0.315992     0.308349     0.300706     0.293063     0.285420     0.277777     0.270133     0.262490
      0.254847     0.247204     0.239561     0.231918     0.224275     0.216631     0.208988     0.201345
 NY phased data points follow
   2.49410E+01  8.68378E+00  9.68234E+00  1.29551E+01  2.69625E+01  1.11366E+01  3.36845E+01  1.10080E+01  2.63940E+01  2.97429E+01
   2.72547E+01  1.60187E+01  2.80611E+01  2.89240E+01  3.09722E+01  2.54882E+01  3.72469E+01  2.40028E+01  1.94944E+01  1.03548E+01
   1.96688E+01  1.64828E+01  9.52738E+00  1.62719E+01  1.63158E+01  1.14436E+01  1.85661E+01  1.52202E+01  1.81277E+01  1.46609E+01
   2.93970E+01  2.56669E+01  1.85611E+01  1.42823E+01  3.31993E+01  1.24041E+01  2.29899E+01  1.81929E+01  3.10183E+01  2.48677E+01
   1.52533E+01  1.52428E+01  2.13218E+01  2.31584E+01  3.06981E+01  2.13409E+01  2.83393E+01  1.79696E+01  3.29023E+01  1.59191E+01
   1.77942E+00  2.19122E+01  2.05253E+01  7.81793E+00  1.97611E+01  4.50886E+00  2.49424E+01  8.05666E+00  2.91511E+01  1.56003E+00
   8.92295E+00  2.73185E+00  1.10287E+01  1.26283E+01  9.48096E+00  5.85139E+00  1.85777E+01  1.17842E+01  6.63127E+00  8.61354E+00
   6.12832E+00  2.44592E+00  1.39451E+01  3.20954E+00  1.36814E+01  2.97592E+00  6.02310E+00  8.17152E+00  9.00965E+00  7.60593E+00
   1.20424E+01  1.15759E+01  1.78636E+01  8.30597E+00  1.33060E+01  1.14787E+01  1.05317E+01  1.67757E+01  2.20258E+01  1.31735E+01
   7.48753E+00  1.60568E+01  3.75568E+01  2.68274E+01  2.60155E+01  2.64490E+01  3.66033E+01  3.35284E+01  3.31384E+01  3.80804E+01
   2.83171E+01  3.42990E+01  4.02809E+01  3.66384E+01  3.99200E+01  3.76022E+01  4.75667E+01  4.58094E+01  4.12837E+01  2.99553E+01
   2.25721E+01  2.30174E+01  2.25896E+01  1.35820E+01  8.07246E+00  7.16101E+00  1.87334E+01  2.86250E+01  2.60170E+01  1.94790E+01
   3.64904E+01  2.57028E+01  2.92682E+01  1.35307E+01  2.44940E+01  2.56306E+01  2.75864E+01  3.52578E+01  3.13920E+01  3.84808E+01
   3.35528E+01  3.21406E+01  3.09096E+01  2.06897E+01  2.29745E+01  1.75540E+01  1.55528E+01  1.80100E+01  5.18303E+00  7.04273E+00
   1.83278E+01  4.44058E+00  1.34952E+01  1.83789E+01  2.35730E+01  1.47127E+01  4.72501E+00  2.28167E+01  1.35133E+01  1.73634E+00
   1.35402E+01  8.76028E+00  1.53687E+01  1.16587E+01  1.38998E+01  7.93949E+00  1.12622E+01  3.62667E+00  1.06917E+01  4.27298E+00
   1.13597E+01 -9.38067E-01  4.38681E+00  7.31579E+00  1.51157E+01 -1.04406E+01  4.28364E-01  9.59430E+00  5.83036E+00 -2.03493E+00
  -1.91585E+00 -6.12863E+00 -4.89257E+00 -1.35951E+01 -7.68295E+00  5.10193E+00 -5.55558E+00  5.87700E-01 -1.51886E+00 -7.30287E+00
  -2.78819E-01 -6.55962E+00 -1.64203E+01 -5.78465E+00 -4.84628E+00 -5.94777E+00 -5.24652E+00 -1.20536E+01 -8.13620E+00 -5.66286E+00
  -1.15419E+01  8.86947E-01  1.06991E+00 -2.41561E+00 -5.05778E+00 -3.09356E+00 -7.96395E-01  3.14982E+00  5.63916E+00  1.51713E+00
  -7.98354E+00 -2.95072E+00  6.17831E+00 -5.09876E+00  5.24770E+00 -2.79993E+00  6.20150E+00  5.91418E+00  1.12135E+00  4.59838E+00
   1.51494E+01  1.12759E+01  6.49515E+00  2.51304E+00  1.83592E+01  2.90911E+00  1.29472E+01  7.35505E+00  1.10795E+01  2.26176E+01
   2.01511E+01  1.55407E+00  3.36729E+00  2.41538E+00  9.29038E+00  5.18186E+00  4.58109E+00  1.73648E+00  1.23502E+01  1.70024E+01
   1.51369E+01  1.38140E+01  1.33954E+01  1.87263E+01  2.48519E+01  1.26632E+01  1.66405E+01  1.45001E+01  2.13580E+01  1.18301E+01
   1.80391E+01  2.06565E+01  1.74463E+01  2.52888E+01  2.05337E+01  3.08326E+01  1.89635E+01  3.74997E+01  3.28133E+01  5.12051E+01
   5.65139E+01  5.68976E+01  6.15938E+01  6.43944E+01  7.14137E+01  6.63977E+01  6.92788E+01  6.91530E+01  6.71046E+01  5.10961E+01
   6.05991E+01  7.75396E+01  7.36846E+01  7.61771E+01  7.23408E+01  4.65514E+01  3.55645E+01  4.17642E+01  3.18589E+01  1.44756E+01
   1.94068E+01  1.20516E+01  6.53484E+00  1.12278E+01  2.43011E+01  1.86409E+01  1.96614E+01  1.05285E+01  2.76122E+01  1.59068E+00
   1.81303E+01  8.89587E-01  1.09711E+01  8.32595E+00  3.63193E+00  3.09699E+00  5.76969E+00 -4.31404E+00  2.03276E+00  2.61328E+00
   7.10637E+00  1.11861E+01  1.56474E+01  3.06493E+00  2.52038E+00  1.49335E+01  1.62027E+01  9.46246E+00  8.51755E+00  6.15701E+00
   1.26554E+01  2.80200E+01  1.22743E+01  1.44971E+01  2.21566E+01  1.16272E+01  2.35668E+01  2.03361E+01  3.16532E+01  3.35198E+01
   2.18027E+01  2.77549E+01  1.98507E+01  1.85928E+01  1.21909E+01  1.67192E+01  2.17745E+01  1.44291E+01  1.83038E+01  9.94816E+00
   1.50351E+01  1.03047E+01  8.11372E+00  1.04975E+01  1.29353E+01  1.16376E+01  1.12190E+01  1.08705E+01  2.29998E+01  2.24687E+01
   1.80781E+01  2.06963E+01  2.20019E+01  2.26934E+01  2.58781E+01  2.40532E+01  2.06356E+01  3.36439E+01  3.42268E+01  3.04261E+01
   2.75527E+01  2.73449E+01  3.16139E+01  3.26192E+01  3.97644E+01  3.41322E+01  2.87710E+01  2.69689E+01  3.57172E+01  2.62733E+01
   3.45479E+01  2.14755E+01  2.84199E+01  2.39600E+01  3.01290E+01  2.15006E+01  2.22676E+01  3.25332E+01  2.05378E+01  2.27684E+01
   2.47254E+01  3.14871E+01  3.41600E+01  1.89859E+01  2.05824E+01  2.16709E+01  2.18977E+01  2.49340E+01  2.16139E+01  1.59084E+01
   2.64455E+01  1.44191E+01  1.06192E+01  1.51609E+01  1.78030E+01  3.91743E-01  7.71289E+00  1.54393E+01 -2.79658E-02  1.17306E+01
   1.10378E+01  5.66468E+00  9.50499E+00  1.12430E+00  1.41894E+01 -3.24494E+00  1.10932E+01  1.44756E+01  1.73757E+01  2.11382E+01
   8.38615E+00 -6.80192E+00  4.90503E+00  5.34745E-01  1.53835E+01  1.39528E+01  1.14176E+01  2.01259E+01  1.79461E+01  1.30607E+01
   1.39019E+01  1.67062E+01  2.41550E+01  1.92785E+01  6.89154E+00  9.77473E+00  2.76835E+01  1.67196E+01  5.37477E+00  2.46737E+01
   1.07694E+01  1.25985E+01  1.42904E+01  1.84159E+01  2.13759E+01  1.69041E+01  1.62705E+01  9.69413E+00  1.44939E+01  1.23015E+01
   1.41684E+01  5.48142E+00  7.62814E+00  1.01663E+01  4.71485E+00  1.58728E+01  1.36120E+01  1.13691E+01 -5.83183E-02  1.98072E+00
   1.61196E+01  8.82432E+00  1.06599E+01  3.64624E+00  1.06227E+01  1.75947E+01  1.20196E+01  1.21632E+00  6.79094E+00  7.08710E+00
   1.04336E+01  1.25887E+01 -2.40203E+00  7.84342E-01  3.94873E+00 -8.04318E+00  3.45263E+00 -2.77855E+00  3.72530E+00 -7.08277E+00
  -4.54248E+00  5.55042E+00  9.91975E-01 -1.48195E-01  1.05309E+00  5.60855E+00  4.13973E+00 -4.94167E+00 -4.19560E+00  7.63928E-01
   1.66740E+00 -4.81274E+00 -4.93876E+00 -3.59627E-01 -2.71747E+00 -5.86731E+00 -7.91132E+00 -1.50383E+00  5.52162E+00 -4.97556E+00
  -6.01187E-01  9.20889E+00  2.65338E+00  2.81500E+00 -8.47311E+00  4.73148E+00  3.10778E+00  3.71539E+00 -1.72937E-01 -2.28384E+00
   4.13185E+00 -7.76635E-01  1.04941E+01 -6.32940E+00  9.92455E-01 -3.18479E+00 -1.02996E+00  2.25562E+00  1.30551E+01  3.71593E+00
   2.81108E+00  8.37637E-01  5.66896E+00 -8.05309E-01  7.79625E+00 -1.19644E+00  1.13864E+00  1.17385E+00
 NY points of the fit to the data follow
   1.66392E+01  1.57395E+01  1.83062E+01  1.70029E+01  2.01543E+01  1.85467E+01  2.20798E+01  2.02300E+01  2.38974E+01  2.18873E+01
   2.53864E+01  2.28549E+01  2.59531E+01  2.30222E+01  2.59464E+01  2.22662E+01  2.48526E+01  2.09942E+01  2.31843E+01  1.96079E+01
   2.16376E+01  1.87022E+01  2.07819E+01  1.85386E+01  2.08152E+01  1.86898E+01  2.10369E+01  1.86270E+01  2.08619E+01  1.81561E+01
   2.05193E+01  1.84373E+01  2.14098E+01  1.97285E+01  2.22803E+01  2.08500E+01  2.23787E+01  2.10599E+01  2.15177E+01  2.02163E+01
   2.01870E+01  1.89711E+01  1.91109E+01  1.82403E+01  1.89145E+01  1.84680E+01  1.92768E+01  1.89007E+01  1.93810E+01  1.88375E+01
   1.89334E+01  1.78659E+01  1.74531E+01  1.59946E+01  1.52574E+01  1.36835E+01  1.31408E+01  1.18788E+01  1.18541E+01  1.10793E+01
   1.16481E+01  1.10494E+01  1.18428E+01  1.10330E+01  1.16130E+01  1.04739E+01  1.08232E+01  9.77899E+00  1.01720E+01  9.46757E+00
   1.03046E+01  9.75479E+00  1.08607E+01  1.01823E+01  1.14501E+01  1.04190E+01  1.15852E+01  1.01523E+01  1.10962E+01  9.47062E+00
   1.03759E+01  8.74850E+00  9.66856E+00  8.04755E+00  8.97805E+00  7.39500E+00  8.69954E+00  9.33224E+00  1.14194E+01  1.32876E+01
   1.57334E+01  1.85885E+01  2.13002E+01  2.44123E+01  2.71625E+01  2.98037E+01  3.23848E+01  3.41704E+01  3.64779E+01  3.73966E+01
   3.93833E+01  3.95852E+01  4.12188E+01  4.06866E+01  4.18329E+01  3.98086E+01  4.01244E+01  3.56570E+01  3.46411E+01  2.84137E+01
   2.66017E+01  2.15478E+01  2.07385E+01  1.75984E+01  1.84723E+01  1.75059E+01  2.03091E+01  2.02470E+01  2.42337E+01  2.31128E+01
   2.73802E+01  2.49399E+01  2.93186E+01  2.67966E+01  3.14234E+01  2.83734E+01  3.30680E+01  2.94979E+01  3.40464E+01  2.96010E+01
   3.33823E+01  2.78089E+01  3.01227E+01  2.40321E+01  2.47676E+01  1.92588E+01  1.89768E+01  1.48525E+01  1.43065E+01  1.18572E+01
   1.16551E+01  1.03763E+01  1.05311E+01  9.51341E+00  9.54141E+00  8.48360E+00  8.26521E+00  7.57412E+00  7.45747E+00  6.71660E+00
   6.48381E+00  5.80791E+00  5.56248E+00  5.08947E+00  4.87884E+00  4.46941E+00  4.23596E+00  3.81067E+00  3.49511E+00  3.04128E+00
   2.59545E+00  2.17277E+00  1.71618E+00  1.33866E+00  8.52377E-01  4.79463E-01  8.84703E-03 -3.51152E-01 -7.76256E-01 -1.24864E+00
  -1.61186E+00 -2.28397E+00 -2.42304E+00 -3.18081E+00 -2.96267E+00 -3.65401E+00 -2.99856E+00 -3.53400E+00 -2.58548E+00 -3.00513E+00
  -1.96292E+00 -2.52895E+00 -1.60998E+00 -2.20967E+00 -1.44433E+00 -1.84547E+00 -1.09030E+00 -1.04748E+00 -1.95671E-01  4.35009E-01
   1.42209E+00  2.39264E+00  3.25595E+00  3.99425E+00  3.96337E+00  4.17613E+00  3.56805E+00  3.32276E+00  2.60814E+00  2.33958E+00
   2.23189E+00  2.09276E+00  2.86005E+00  2.77424E+00  4.14455E+00  3.56349E+00  4.84874E+00  3.45977E+00  4.54277E+00  2.61946E+00
   3.70174E+00  1.92190E+00  3.56868E+00  2.52210E+00  4.97322E+00  4.58654E+00  7.39087E+00  7.26763E+00  9.62339E+00  9.33451E+00
   1.05245E+01  1.01666E+01  1.05032E+01  1.03904E+01  1.04553E+01  1.10137E+01  1.13834E+01  1.20709E+01  1.26832E+01  1.30603E+01
   1.35130E+01  1.32850E+01  1.37799E+01  1.30482E+01  1.37152E+01  1.29434E+01  1.40806E+01  1.34840E+01  1.51666E+01  1.47586E+01
   1.68542E+01  1.64175E+01  1.87185E+01  1.87830E+01  2.38512E+01  2.49413E+01  3.14177E+01  3.34314E+01  4.08050E+01  4.34859E+01
   5.05784E+01  5.32625E+01  5.91089E+01  6.11934E+01  6.53210E+01  6.63797E+01  6.88287E+01  6.88902E+01  7.01887E+01  6.94596E+01
   6.96492E+01  6.81166E+01  6.61787E+01  6.33291E+01  5.82570E+01  5.41841E+01  4.67845E+01  4.22277E+01  3.47034E+01  3.06452E+01
   2.48137E+01  2.19442E+01  1.86541E+01  1.69646E+01  1.53669E+01  1.42269E+01  1.26978E+01  1.16267E+01  1.00237E+01  9.24893E+00
   8.74124E+00  8.30146E+00  7.91954E+00  7.60104E+00  7.34119E+00  7.16776E+00  7.06886E+00  7.08041E+00  7.17133E+00  7.37470E+00
   7.65507E+00  8.05496E+00  8.52719E+00  9.12840E+00  9.79930E+00  1.05913E+01  1.14434E+01  1.23920E+01  1.33676E+01  1.43927E+01
   1.53989E+01  1.63887E+01  1.73068E+01  1.81422E+01  1.88581E+01  1.94458E+01  1.98891E+01  2.01929E+01  2.03708E+01  2.04682E+01
   2.05860E+01  2.08484E+01  2.06210E+01  2.06486E+01  2.00629E+01  1.98087E+01  1.88385E+01  1.81338E+01  1.67782E+01  1.60871E+01
   1.51240E+01  1.45586E+01  1.42477E+01  1.39429E+01  1.44639E+01  1.43618E+01  1.56032E+01  1.54996E+01  1.72137E+01  1.69395E+01
   1.92078E+01  1.93019E+01  2.21132E+01  2.18805E+01  2.52819E+01  2.47531E+01  2.85550E+01  2.71290E+01  3.06858E+01  2.86952E+01
   3.20698E+01  2.92723E+01  3.21935E+01  2.88917E+01  3.17470E+01  2.83416E+01  3.14165E+01  2.80095E+01  3.11118E+01  2.71088E+01
   3.00992E+01  2.55390E+01  2.83146E+01  2.41127E+01  2.68598E+01  2.41295E+01  2.72087E+01  2.57274E+01  2.86529E+01  2.74561E+01
   2.93888E+01  2.75322E+01  2.79786E+01  2.53543E+01  2.46353E+01  2.20694E+01  2.09050E+01  1.92308E+01  1.81128E+01  1.68805E+01
   1.60061E+01  1.49064E+01  1.40729E+01  1.29710E+01  1.20768E+01  1.13507E+01  1.07355E+01  1.02115E+01  9.76934E+00  9.40370E+00
   9.11100E+00  8.88876E+00  8.73517E+00  8.64895E+00  8.62925E+00  8.67558E+00  8.78765E+00  8.96521E+00  9.20794E+00  9.51523E+00
   9.88598E+00  1.03183E+01  1.08093E+01  1.13549E+01  1.19493E+01  1.25852E+01  1.32533E+01  1.39428E+01  1.46406E+01  1.53324E+01
   1.60026E+01  1.66347E+01  1.72119E+01  1.77177E+01  1.81369E+01  1.84558E+01  1.86630E+01  1.87503E+01  1.87126E+01  1.85485E+01
   1.82602E+01  1.78536E+01  1.73378E+01  1.67248E+01  1.60287E+01  1.52654E+01  1.44513E+01  1.36033E+01  1.27375E+01  1.18692E+01
   1.10121E+01  1.01778E+01  9.37621E+00  8.61481E+00  7.89918E+00  7.23285E+00  6.61763E+00  6.05380E+00  5.54041E+00  5.07552E+00
   4.65651E+00  4.28021E+00  3.94326E+00  3.64210E+00  3.37330E+00  3.13346E+00  2.91944E+00  2.72828E+00  2.55733E+00  2.40419E+00
   2.26672E+00  2.14303E+00  2.03145E+00  1.93054E+00  1.83902E+00  1.75582E+00  1.67996E+00  1.61064E+00  1.54711E+00  1.48876E+00
   1.43504E+00  1.38550E+00  1.33970E+00  1.29728E+00  1.25793E+00  1.22135E+00  1.18732E+00  1.15560E+00  1.12601E+00  1.09835E+00
   1.07249E+00  1.04826E+00  1.02558E+00  1.00430E+00  9.84346E-01  9.65598E-01  9.48002E-01  9.31462E-01  9.15944E-01  9.01359E-01
   8.87669E-01  8.74805E-01  8.62741E-01  8.51433E-01  8.40857E-01  8.30968E-01  8.21746E-01  8.13156E-01  8.05196E-01  7.97841E-01
   7.91089E-01  7.84912E-01  7.79311E-01  7.74279E-01  7.69830E-01  7.65966E-01  7.62696E-01  7.60027E-01  7.57983E-01  7.56596E-01
   7.55911E-01  7.55967E-01  7.56818E-01  7.58534E-01  7.61211E-01  7.64977E-01  7.69984E-01  7.76423E-01
 NY background values follow
     1.332E+00    1.333E+00    1.333E+00    1.333E+00    1.333E+00    1.334E+00    1.334E+00    1.334E+00    1.334E+00    1.335E+00
     1.335E+00    1.335E+00    1.336E+00    1.336E+00    1.336E+00    1.336E+00    1.337E+00    1.337E+00    1.337E+00    1.337E+00
     1.338E+00    1.338E+00    1.338E+00    1.338E+00    1.339E+00    1.339E+00    1.339E+00    1.339E+00    1.340E+00    1.340E+00
     1.340E+00    1.340E+00    1.341E+00    1.341E+00    1.341E+00    1.341E+00    1.342E+00    1.342E+00    1.342E+00    1.342E+00
     1.342E+00    1.343E+00    1.343E+00    1.343E+00    1.343E+00    1.344E+00    1.344E+00    1.344E+00    1.344E+00    1.345E+00
     1.345E+00    1.345E+00    1.345E+00    1.346E+00    1.346E+00    1.346E+00    1.346E+00    1.346E+00    1.347E+00    1.347E+00
     1.347E+00    1.347E+00    1.348E+00    1.348E+00    1.348E+00    1.348E+00    1.349E+00    1.349E+00    1.349E+00    1.349E+00
     1.349E+00    1.350E+00    1.350E+00    1.350E+00    1.350E+00    1.351E+00    1.351E+00    1.351E+00    1.351E+00    1.351E+00
     1.352E+00    1.352E+00    1.352E+00    1.352E+00    1.352E+00    1.353E+00    1.353E+00    1.353E+00    1.353E+00    1.354E+00
     1.354E+00    1.354E+00    1.354E+00    1.354E+00    1.355E+00    1.355E+00    1.355E+00    1.355E+00    1.355E+00    1.356E+00
     1.356E+00    1.356E+00    1.356E+00    1.356E+00    1.357E+00    1.357E+00    1.357E+00    1.357E+00    1.357E+00    1.358E+00
     1.358E+00    1.358E+00    1.358E+00    1.358E+00    1.359E+00    1.359E+00    1.359E+00    1.359E+00    1.359E+00    1.360E+00
     1.360E+00    1.360E+00    1.360E+00    1.360E+00    1.361E+00    1.361E+00    1.361E+00    1.361E+00    1.361E+00    1.362E+00
     1.362E+00    1.362E+00    1.362E+00    1.362E+00    1.362E+00    1.363E+00    1.363E+00    1.363E+00    1.363E+00    1.363E+00
     1.364E+00    1.364E+00    1.364E+00    1.364E+00    1.364E+00    1.364E+00    1.365E+00    1.365E+00    1.365E+00    1.365E+00
     1.365E+00    1.365E+00    1.366E+00    1.366E+00    1.366E+00    1.366E+00    1.366E+00    1.367E+00    1.367E+00    1.367E+00
     1.367E+00    1.367E+00    1.367E+00    1.368E+00    1.368E+00    1.368E+00    1.368E+00    1.368E+00    1.368E+00    1.369E+00
     1.369E+00    1.369E+00    1.369E+00    1.369E+00    1.369E+00    1.369E+00    1.370E+00    1.370E+00    1.370E+00    1.370E+00
     1.370E+00    1.370E+00    1.371E+00    1.371E+00    1.371E+00    1.371E+00    1.371E+00    1.371E+00    1.372E+00    1.372E+00
     1.372E+00    1.372E+00    1.372E+00    1.372E+00    1.372E+00    1.373E+00    1.373E+00    1.373E+00    1.373E+00    1.373E+00
     1.373E+00    1.373E+00    1.374E+00    1.374E+00    1.374E+00    1.374E+00    1.374E+00    1.374E+00    1.374E+00    1.375E+00
     1.375E+00    1.375E+00    1.375E+00    1.375E+00    1.375E+00    1.375E+00    1.376E+00    1.376E+00    1.376E+00    1.376E+00
     1.376E+00    1.376E+00    1.376E+00    1.377E+00    1.377E+00    1.377E+00    1.377E+00    1.377E+00    1.377E+00    1.377E+00
     1.377E+00    1.378E+00    1.378E+00    1.378E+00    1.378E+00    1.378E+00    1.378E+00    1.378E+00    1.378E+00    1.379E+00
     1.379E+00    1.379E+00    1.379E+00    1.379E+00    1.379E+00    1.379E+00    1.379E+00    1.379E+00    1.380E+00    1.380E+00
     1.380E+00    1.380E+00    1.380E+00    1.380E+00    1.380E+00    1.380E+00    1.381E+00    1.381E+00    1.381E+00    1.381E+00
     1.381E+00    1.381E+00    1.381E+00    1.381E+00    1.381E+00    1.382E+00    1.382E+00    1.382E+00    1.382E+00    1.382E+00
     1.382E+00    1.382E+00    1.382E+00    1.382E+00    1.382E+00    1.383E+00    1.383E+00    1.383E+00    1.383E+00    1.383E+00
     1.383E+00    1.383E+00    1.383E+00    1.383E+00    1.383E+00    1.384E+00    1.384E+00    1.384E+00    1.384E+00    1.384E+00
     1.384E+00    1.384E+00    1.384E+00    1.384E+00    1.384E+00    1.384E+00    1.385E+00    1.385E+00    1.385E+00    1.385E+00
     1.385E+00    1.385E+00    1.385E+00    1.385E+00    1.385E+00    1.385E+00    1.385E+00    1.385E+00    1.386E+00    1.386E+00
     1.386E+00    1.386E+00    1.386E+00    1.386E+00    1.386E+00    1.386E+00    1.386E+00    1.386E+00    1.386E+00    1.386E+00
     1.387E+00    1.387E+00    1.387E+00    1.387E+00    1.387E+00    1.387E+00    1.387E+00    1.387E+00    1.387E+00    1.387E+00
     1.387E+00    1.387E+00    1.387E+00    1.387E+00    1.387E+00    1.388E+00    1.388E+00    1.388E+00    1.388E+00    1.388E+00
     1.388E+00    1.388E+00    1.388E+00    1.388E+00    1.388E+00    1.388E+00    1.388E+00    1.388E+00    1.388E+00    1.388E+00
     1.388E+00    1.389E+00    1.389E+00    1.389E+00    1.389E+00    1.389E+00    1.389E+00    1.389E+00    1.389E+00    1.389E+00
     1.389E+00    1.389E+00    1.389E+00    1.389E+00    1.389E+00    1.389E+00    1.389E+00    1.389E+00    1.389E+00    1.389E+00
     1.389E+00    1.390E+00    1.390E+00    1.390E+00    1.390E+00    1.390E+00    1.390E+00    1.390E+00    1.390E+00    1.390E+00
     1.390E+00    1.390E+00    1.390E+00    1.390E+00    1.390E+00    1.390E+00    1.390E+00    1.390E+00    1.390E+00    1.390E+00
     1.390E+00    1.390E+00    1.390E+00    1.390E+00    1.390E+00    1.390E+00    1.390E+00    1.390E+00    1.390E+00    1.391E+00
     1.391E+00    1.391E+00    1.391E+00    1.391E+00    1.391E+00    1.391E+00    1.391E+00    1.391E+00    1.391E+00    1.391E+00
     1.391E+00    1.391E+00    1.391E+00    1.391E+00    1.391E+00    1.391E+00    1.391E+00    1.391E+00    1.391E+00    1.391E+00
     1.391E+00    1.391E+00    1.391E+00    1.391E+00    1.391E+00    1.391E+00    1.391E+00    1.391E+00    1.391E+00    1.391E+00
     1.391E+00    1.391E+00    1.391E+00    1.391E+00    1.391E+00    1.391E+00    1.391E+00    1.391E+00    1.391E+00    1.391E+00
     1.391E+00    1.391E+00    1.391E+00    1.391E+00    1.391E+00    1.391E+00    1.391E+00    1.391E+00    1.391E+00    1.391E+00
     1.391E+00    1.391E+00    1.391E+00    1.391E+00    1.391E+00    1.391E+00    1.391E+00    1.391E+00    1.391E+00    1.391E+00
     1.391E+00    1.391E+00    1.391E+00    1.391E+00    1.391E+00    1.391E+00    1.391E+00    1.391E+00    1.391E+00    1.391E+00
     1.391E+00    1.391E+00    1.391E+00    1.391E+00    1.391E+00    1.391E+00    1.391E+00    1.391E+00    1.391E+00    1.391E+00
     1.391E+00    1.391E+00    1.391E+00    1.391E+00    1.391E+00    1.390E+00    1.390E+00    1.390E+00    1.390E+00    1.390E+00
     1.390E+00    1.390E+00    1.390E+00    1.390E+00    1.390E+00    1.390E+00    1.390E+00    1.390E+00
 Ala      Conc. = 1.56E+03
