 LCModel (Version 6.3-1L) Copyright: S.W. Provencher.          Ref.: Magn. Reson. Med. 30:672-679 (1993).                
 Slice#2 Row#5 Col#7  PD_24_press_2_raw_act
 36 lines in following concentration table = NCONC+1
    Conc.  %SD /Cr+PCr  Metabolite                                         
   62.514 316% 4.8E-02 Ala                                                 
    0.000 999%   0.000 Asp                                                 
   85.606 445% 6.6E-02 Cr                                                  
 1.22E+03  33%   0.934 PCr                                                 
  183.321  99%   0.140 GABA                                                
  228.426  82%   0.175 Glc                                                 
  580.839  68%   0.444 Gln                                                 
 1.49E+03  30%   1.144 Glu                                                 
  710.755   7%   0.544 GPC                                                 
    0.000 999%   0.000 PCh                                                 
  462.087  32%   0.354 GSH                                                 
 1.80E+03  28%   1.380 Ins                                                 
  164.263 129%   0.126 Lac                                                 
 2.13E+03   8%   1.632 NAA                                                 
  391.347  44%   0.299 NAAG                                                
  127.042  37% 9.7E-02 Scyllo                                              
  731.117  39%   0.559 Tau                                                 
  744.151  31%   0.569 -CrCH2                                              
  710.755   7%   0.544 GPC+PCh                                             
 2.52E+03   7%   1.932 NAA+NAAG                                            
 1.31E+03  10%   1.000 Cr+PCr                                              
 2.08E+03  28%   1.588 Glu+Gln                                             
 5.59E+03  27%   4.280 Lip13a                                              
    0.000 999%   0.000 Lip13b                                              
 1.17E+03  59%   0.896 Lip09                                               
  810.703  81%   0.620 MM09                                                
  997.074  49%   0.763 Lip20                                               
 2.11E+03  46%   1.615 MM20                                                
  247.880 132%   0.190 MM12                                                
 1.11E+03  82%   0.848 MM14                                                
  704.808  77%   0.539 MM17                                                
 5.59E+03  27%   4.280 Lip13a+Lip13b                                       
 6.95E+03  20%   5.318 MM14+Lip13a+Lip13b+MM12                             
 1.98E+03  28%   1.516 MM09+Lip09                                          
 3.11E+03  30%   2.378 MM20+Lip20                                          
   6 lines in following misc. output table
  FWHM = 0.031 ppm    S/N =   6                                            
  Data shift = 0.015 ppm                                                   
  Ph: -50 deg     -12.0 deg/ppm                                            
  alphaB,S = 1.1E+00,   1.2E+01                                            
   14 spline knots.   Ns = 5(1)                                            
  ( 9) 2 infls.   ( 9) 1 extrs.                                            
  498 points on ppm-axis = NY
      4.000000     3.992357     3.984714     3.977070     3.969427     3.961784     3.954141     3.946497     3.938854     3.931211
      3.923568     3.915925     3.908281     3.900638     3.892995     3.885352     3.877708     3.870065     3.862422     3.854779
      3.847136     3.839492     3.831849     3.824206     3.816563     3.808919     3.801276     3.793633     3.785990     3.778347
      3.770703     3.763060     3.755417     3.747774     3.740130     3.732487     3.724844     3.717201     3.709558     3.701914
      3.694271     3.686628     3.678985     3.671341     3.663698     3.656055     3.648412     3.640769     3.633125     3.625482
      3.617839     3.610196     3.602552     3.594909     3.587266     3.579623     3.571980     3.564336     3.556693     3.549050
      3.541407     3.533763     3.526120     3.518477     3.510834     3.503191     3.495547     3.487904     3.480261     3.472618
      3.464974     3.457331     3.449688     3.442045     3.434402     3.426758     3.419115     3.411472     3.403829     3.396185
      3.388542     3.380899     3.373256     3.365613     3.357969     3.350326     3.342683     3.335040     3.327396     3.319753
      3.312110     3.304467     3.296824     3.289180     3.281537     3.273894     3.266251     3.258607     3.250964     3.243321
      3.235678     3.228034     3.220391     3.212748     3.205105     3.197462     3.189818     3.182175     3.174532     3.166889
      3.159245     3.151602     3.143959     3.136316     3.128673     3.121029     3.113386     3.105743     3.098100     3.090456
      3.082813     3.075170     3.067527     3.059884     3.052240     3.044597     3.036954     3.029311     3.021667     3.014024
      3.006381     2.998738     2.991095     2.983451     2.975808     2.968165     2.960522     2.952878     2.945235     2.937592
      2.929949     2.922306     2.914662     2.907019     2.899376     2.891733     2.884089     2.876446     2.868803     2.861160
      2.853517     2.845873     2.838230     2.830587     2.822944     2.815300     2.807657     2.800014     2.792371     2.784728
      2.777084     2.769441     2.761798     2.754155     2.746511     2.738868     2.731225     2.723582     2.715939     2.708295
      2.700652     2.693009     2.685366     2.677722     2.670079     2.662436     2.654793     2.647150     2.639506     2.631863
      2.624220     2.616577     2.608933     2.601290     2.593647     2.586004     2.578361     2.570717     2.563074     2.555431
      2.547788     2.540144     2.532501     2.524858     2.517215     2.509572     2.501928     2.494285     2.486642     2.478999
      2.471355     2.463712     2.456069     2.448426     2.440783     2.433139     2.425496     2.417853     2.410210     2.402566
      2.394923     2.387280     2.379637     2.371994     2.364350     2.356707     2.349064     2.341421     2.333777     2.326134
      2.318491     2.310848     2.303205     2.295561     2.287918     2.280275     2.272632     2.264988     2.257345     2.249702
      2.242059     2.234416     2.226772     2.219129     2.211486     2.203843     2.196199     2.188556     2.180913     2.173270
      2.165627     2.157983     2.150340     2.142697     2.135054     2.127410     2.119767     2.112124     2.104481     2.096838
      2.089194     2.081551     2.073908     2.066265     2.058621     2.050978     2.043335     2.035692     2.028049     2.020405
      2.012762     2.005119     1.997476     1.989833     1.982190     1.974546     1.966903     1.959260     1.951617     1.943974
      1.936331     1.928688     1.921045     1.913402     1.905759     1.898115     1.890472     1.882829     1.875186     1.867543
      1.859900     1.852257     1.844614     1.836971     1.829327     1.821684     1.814041     1.806398     1.798755     1.791112
      1.783469     1.775826     1.768183     1.760540     1.752896     1.745253     1.737610     1.729967     1.722324     1.714681
      1.707038     1.699395     1.691752     1.684108     1.676465     1.668822     1.661179     1.653536     1.645893     1.638250
      1.630607     1.622964     1.615321     1.607677     1.600034     1.592391     1.584748     1.577105     1.569462     1.561819
      1.554176     1.546533     1.538890     1.531246     1.523603     1.515960     1.508317     1.500674     1.493031     1.485388
      1.477745     1.470102     1.462458     1.454815     1.447172     1.439529     1.431886     1.424243     1.416600     1.408957
      1.401314     1.393671     1.386027     1.378384     1.370741     1.363098     1.355455     1.347812     1.340169     1.332526
      1.324883     1.317240     1.309596     1.301953     1.294310     1.286667     1.279024     1.271381     1.263738     1.256095
      1.248452     1.240808     1.233165     1.225522     1.217879     1.210236     1.202593     1.194950     1.187307     1.179664
      1.172021     1.164377     1.156734     1.149091     1.141448     1.133805     1.126162     1.118519     1.110876     1.103233
      1.095590     1.087946     1.080303     1.072660     1.065017     1.057374     1.049731     1.042088     1.034445     1.026802
      1.019158     1.011515     1.003872     0.996229     0.988586     0.980943     0.973300     0.965657     0.958014     0.950371
      0.942727     0.935084     0.927441     0.919798     0.912155     0.904512     0.896869     0.889226     0.881583     0.873940
      0.866296     0.858653     0.851010     0.843367     0.835724     0.828081     0.820438     0.812795     0.805152     0.797508
      0.789865     0.782222     0.774579     0.766936     0.759293     0.751650     0.744007     0.736364     0.728721     0.721077
      0.713434     0.705791     0.698148     0.690505     0.682862     0.675219     0.667576     0.659933     0.652290     0.644646
      0.637003     0.629360     0.621717     0.614074     0.606431     0.598788     0.591145     0.583502     0.575858     0.568215
      0.560572     0.552929     0.545286     0.537643     0.530000     0.522357     0.514714     0.507071     0.499427     0.491784
      0.484141     0.476498     0.468855     0.461212     0.453569     0.445925     0.438282     0.430639     0.422996     0.415353
      0.407710     0.400067     0.392424     0.384780     0.377137     0.369494     0.361851     0.354208     0.346565     0.338922
      0.331278     0.323635     0.315992     0.308349     0.300706     0.293063     0.285420     0.277777     0.270133     0.262490
      0.254847     0.247204     0.239561     0.231918     0.224275     0.216631     0.208988     0.201345
 NY phased data points follow
  -1.87936E+02 -1.81533E+02 -1.89730E+02 -1.78092E+02 -1.64816E+02 -1.62662E+02 -1.68295E+02 -1.40008E+02 -1.36498E+02 -1.32653E+02
  -1.14674E+02 -1.22742E+02 -1.24549E+02 -1.24217E+02 -1.52118E+02 -1.40041E+02 -1.42363E+02 -1.32458E+02 -1.38255E+02 -1.31546E+02
  -1.34498E+02 -1.36151E+02 -1.30440E+02 -1.14380E+02 -1.37528E+02 -1.35642E+02 -1.09415E+02 -1.20381E+02 -1.11107E+02 -1.20484E+02
  -1.11486E+02 -1.01300E+02 -1.13205E+02 -1.08502E+02 -1.05802E+02 -1.10420E+02 -1.05189E+02 -9.93326E+01 -9.72826E+01 -1.02352E+02
  -1.12455E+02 -9.53762E+01 -1.07272E+02 -8.73840E+01 -8.66781E+01 -9.39745E+01 -8.39883E+01 -7.97494E+01 -8.46708E+01 -8.35772E+01
  -8.20299E+01 -7.38854E+01 -9.04151E+01 -7.93709E+01 -7.16067E+01 -8.41880E+01 -8.26266E+01 -7.98621E+01 -8.68842E+01 -8.24399E+01
  -8.41758E+01 -6.86014E+01 -9.19082E+01 -8.70021E+01 -8.95176E+01 -6.62193E+01 -8.41529E+01 -8.39899E+01 -9.85855E+01 -8.62376E+01
  -7.40521E+01 -6.20603E+01 -6.36354E+01 -7.40524E+01 -6.91033E+01 -5.87551E+01 -6.24571E+01 -6.72370E+01 -6.92444E+01 -5.59279E+01
  -7.71703E+01 -5.98647E+01 -6.03439E+01 -5.84374E+01 -5.37762E+01 -5.39021E+01 -5.80578E+01 -5.92412E+01 -6.05570E+01 -5.08047E+01
  -4.79130E+01 -5.67506E+01 -6.12313E+01 -4.74651E+01 -4.23433E+01 -4.62301E+01 -5.11170E+01 -4.45321E+01 -4.20013E+01 -2.01695E+01
  -9.37856E+00 -4.03579E+00  2.76896E+01  4.64364E+01  1.70363E+01  1.05625E+01 -1.87511E+01 -3.01870E+01 -3.07492E+01 -3.06863E+01
  -3.92192E+01 -3.88798E+01 -5.85272E+01 -4.75523E+01 -4.20718E+01 -3.77674E+01 -5.09438E+01 -5.54591E+01 -3.77289E+01 -5.13514E+01
  -5.31231E+01 -4.33735E+01 -3.75563E+01 -5.18742E+01 -2.70193E+01 -2.51979E+00  7.40711E+00  2.98585E+01  1.95497E+01 -9.33242E-01
  -1.37886E+01 -9.13963E+00 -2.65449E+01 -2.49350E+01 -2.79575E+01 -3.99505E+01 -4.48110E+01 -3.06344E+01 -3.34505E+01 -3.70789E+01
  -4.06844E+01 -2.64400E+01 -2.54137E+01 -3.13223E+01 -2.69146E+01 -3.20279E+01 -3.12521E+01 -2.93664E+01 -2.36680E+01 -2.06862E+01
  -4.24804E+01 -2.80877E+01 -2.78502E+01 -1.80705E+01 -2.79344E+01 -1.89541E+01 -2.47825E+01 -3.30372E+01 -3.60842E+01 -2.69566E+01
  -3.20138E+01 -3.06377E+01 -3.48411E+01 -2.63796E+01 -2.83971E+01 -3.90034E+00 -2.26574E+01 -2.33270E+01 -2.12756E+01 -4.43631E+01
  -4.61325E+01 -3.36090E+01 -4.22410E+01 -3.27889E+01 -3.77120E+01 -1.81697E+01 -3.17018E+01 -4.30783E+01 -2.99503E+01 -2.83295E+01
  -2.27806E+01 -5.11877E+01 -4.20968E+01 -3.42938E+01 -3.76912E+01 -2.27422E+01 -3.41071E+01 -2.77791E+01 -2.98376E+01 -2.30077E+01
  -7.28037E+00 -7.05696E-01 -1.44179E+01 -2.05307E+01 -3.16043E+01 -2.22770E+01 -2.39916E+01 -3.28756E+01 -2.42341E+01 -1.66694E+01
  -3.43627E+01 -1.71177E+01 -1.44018E+01 -1.17106E+01 -1.15404E+01 -1.53195E+01 -2.12168E+01 -8.63889E+00 -7.82757E+00 -2.55741E+01
  -2.66760E+01 -1.12673E+01 -1.27864E+01  5.49721E-01 -6.32991E+00  1.27323E+01  4.42111E+00  2.40116E+01  3.96832E+00 -9.63243E+00
  -1.17552E+01 -2.35776E+01 -1.44474E+01 -7.35201E+00 -5.26520E+00  6.83722E-01 -1.12034E+00 -3.19155E+00 -1.74126E+01 -3.71911E+00
  -1.61924E+01  1.12757E+01  4.18031E+00 -2.36324E+00 -9.35882E+00 -4.31649E-01  4.10903E+00 -4.62325E+00  2.22476E+00 -6.22126E+00
   1.88754E+00  8.22333E+00 -1.84905E+00 -1.44660E+01  7.44254E-01  9.97741E+00  1.03874E+01  2.70648E+01 -1.91887E+00  3.05039E+00
   1.31341E+01  2.35533E+01  1.40591E+01  1.98618E+01  2.20156E+01  4.27690E+01  3.61813E+01  3.77857E+01  4.43442E+01  9.33542E+01
   9.22646E+01  1.15223E+02  9.60638E+01  6.66470E+01  4.36672E+01  8.33461E+00  1.38389E+01  7.94837E+00  1.21329E+01  7.61672E+00
   7.53077E+00  8.95765E+00  7.56745E+00  1.46300E+01  2.64651E+00  7.18515E+00 -4.30805E+00  4.03105E-01 -4.90069E-01  1.84619E+00
   1.50768E+01  1.61756E+01  1.05664E+01 -5.51078E-01 -1.98260E+00 -2.22255E+00  1.30047E+00 -3.52931E+00  7.95082E+00  1.39367E+01
   1.54606E+00  6.31626E+00  6.74017E+00  1.85530E+01  7.18718E+00  1.62206E+01  1.55010E+01  1.42420E+01  8.96837E+00  1.46376E+01
   1.11607E+00  5.60736E+00  1.03282E+01  4.01444E+00  2.31133E+01  1.69230E+01  1.28356E+01  1.37297E+01  1.70645E+01  1.56878E+01
   1.11497E+01 -9.69877E+00  1.13383E+01  1.16904E+01  1.20930E+01  3.80601E+00  9.66018E-01  1.01503E+01  7.12759E+00  1.44334E+01
   3.57573E+00  4.39881E+00  1.70713E+01 -5.87459E+00  1.13304E+01  2.25463E+01  1.69416E+01  1.16503E+01  1.25222E+01  2.23241E+01
   1.43982E+01  1.80400E+01  1.55592E+01  1.56559E+01  3.27589E+01  4.19590E+01  2.10850E+01  2.78217E+01  3.23229E+01  3.13824E+01
   1.70540E+01  2.14808E+01  3.83648E+01  3.07170E+01  5.17298E+01  3.22640E+01  4.22624E+01  1.86129E+01  2.03456E+01  3.50261E+01
   2.60607E+01  4.02943E+01  3.88961E+01  3.95407E+01  3.94168E+01  3.61980E+01  3.48941E+01  3.42602E+01  3.85951E+01  4.94123E+01
   3.42393E+01  2.58747E+01  2.37234E+01  4.40302E+01  3.31356E+01  2.50492E+01  4.01980E+01  4.55447E+01  2.41225E+01  3.09151E+01
   2.97331E+01  2.72724E+01  2.02071E+01  2.10328E+01  2.42879E+01  2.97164E+01  1.63405E+01  1.55595E+01  2.62728E+01  2.40040E+01
   2.39950E+01  2.35054E+01  1.84634E+01  3.24315E+01  2.24723E+01  1.08194E+01  2.60600E+01  1.43783E+01  1.58610E+01  3.53113E+01
   2.82254E+01  1.83529E+01  3.78548E+01  1.81079E+01 -5.52047E+00  2.76346E+01  1.07638E+01  1.79729E+01  2.03214E+01  4.20483E+00
   3.26277E+01  3.11143E+01  3.83043E+01  3.04714E+01  3.26453E+01  2.37018E+01  4.97387E+01  3.19839E+01  8.18528E+00  3.72913E+01
   1.80844E+01  2.24991E+01  3.65238E+01  3.45593E+01  3.08498E+01  2.89780E+01  2.59264E+01  1.35714E+01  3.22460E+01  2.23758E+01
   3.18522E+01  2.12503E+01  2.75505E+01  2.78455E+01  3.53238E+01  3.05552E+01  3.92648E+01  2.90472E+01  2.02262E+01  2.48087E+01
   2.90273E+01  2.07014E+01  3.63543E+01  1.50906E+01  2.91411E+01  1.07502E+01  1.45801E+01  3.64245E+01  2.42649E+01  1.63777E+01
   2.91062E+01  3.32278E+01  2.63179E+01  1.57229E+01  2.18276E+01  2.00816E+01  1.78114E+01  2.28758E+01  1.00806E+01  1.71905E+01
   2.25981E+01  2.39212E+01  2.29905E+01  9.95980E+00  1.49788E+01  2.38444E+01  2.14799E+01  1.03885E+01  2.14298E+01  1.55318E+01
   3.85458E+00  3.11633E+01  1.77425E+01  3.41682E+01  2.31231E+01  2.48988E+01  2.55569E+01  1.97994E+01  3.19204E+01  4.23466E+01
   3.24394E+01  8.35354E+00  7.92947E+00  2.26808E+01  1.82579E+01  1.49751E+01  2.45567E+01  2.40647E+01  9.10584E+00  1.78462E+01
   2.77733E+01  2.84599E+01  2.77104E+01  1.82307E+01  1.28414E+01  2.07713E+01  1.14166E+01  2.94475E+01  2.80904E+01  2.32399E+01
   2.36689E+01  3.99034E+01  2.75238E+01  3.71435E+01  2.50968E+01  3.32944E+01  2.70369E+01  2.23114E+01
 NY points of the fit to the data follow
  -1.58958E+02 -1.57945E+02 -1.56717E+02 -1.55637E+02 -1.53926E+02 -1.51978E+02 -1.50411E+02 -1.46041E+02 -1.38361E+02 -1.28290E+02
  -1.21129E+02 -1.22207E+02 -1.26076E+02 -1.31295E+02 -1.34169E+02 -1.33493E+02 -1.34323E+02 -1.33970E+02 -1.33418E+02 -1.32638E+02
  -1.31542E+02 -1.30365E+02 -1.29259E+02 -1.28372E+02 -1.27360E+02 -1.25799E+02 -1.24207E+02 -1.21212E+02 -1.16503E+02 -1.10762E+02
  -1.05674E+02 -1.03797E+02 -1.03549E+02 -1.04588E+02 -1.06604E+02 -1.07973E+02 -1.10089E+02 -1.10986E+02 -1.10764E+02 -1.10239E+02
  -1.08908E+02 -1.07044E+02 -1.04341E+02 -1.01104E+02 -9.74611E+01 -9.22683E+01 -8.63893E+01 -8.20897E+01 -8.14769E+01 -8.47474E+01
  -8.94214E+01 -9.30995E+01 -9.48942E+01 -9.51232E+01 -9.44452E+01 -9.29725E+01 -9.10463E+01 -8.86468E+01 -8.58966E+01 -8.29896E+01
  -8.09567E+01 -8.04001E+01 -8.10328E+01 -8.22300E+01 -8.25981E+01 -8.20468E+01 -8.07896E+01 -7.90169E+01 -7.75706E+01 -7.60859E+01
  -7.45718E+01 -7.27828E+01 -7.06870E+01 -6.88546E+01 -6.69705E+01 -6.57713E+01 -6.59594E+01 -6.72834E+01 -6.89460E+01 -6.99330E+01
  -6.93453E+01 -6.72429E+01 -6.47987E+01 -6.21574E+01 -5.93373E+01 -5.71438E+01 -5.64721E+01 -5.80251E+01 -6.07627E+01 -6.23579E+01
  -6.24071E+01 -6.11420E+01 -6.01097E+01 -5.98277E+01 -5.91742E+01 -5.78212E+01 -5.53880E+01 -5.11843E+01 -4.38705E+01 -3.40012E+01
  -1.71526E+01  7.21535E+00  3.03789E+01  4.07837E+01  2.88038E+01  5.35052E+00 -1.62937E+01 -3.19333E+01 -3.72832E+01 -4.25527E+01
  -4.60264E+01 -4.67575E+01 -4.68694E+01 -4.65725E+01 -4.62830E+01 -4.59262E+01 -4.55251E+01 -4.51415E+01 -4.48079E+01 -4.43956E+01
  -4.37446E+01 -4.24080E+01 -3.89811E+01 -3.32790E+01 -2.38106E+01 -8.20266E+00  9.36296E+00  2.16561E+01  2.01971E+01  6.32875E+00
  -8.63427E+00 -2.06002E+01 -2.64794E+01 -2.95491E+01 -3.43678E+01 -3.71659E+01 -3.85299E+01 -3.85647E+01 -3.72567E+01 -3.49887E+01
  -3.28888E+01 -3.12496E+01 -3.04590E+01 -3.05268E+01 -3.07427E+01 -3.09779E+01 -3.10446E+01 -3.08967E+01 -3.07563E+01 -3.05882E+01
  -3.04802E+01 -3.04045E+01 -3.03628E+01 -3.02662E+01 -2.99980E+01 -2.95099E+01 -2.88811E+01 -2.83670E+01 -2.81834E+01 -2.85705E+01
  -2.93019E+01 -2.98275E+01 -2.96083E+01 -2.84279E+01 -2.71281E+01 -2.64263E+01 -2.67515E+01 -2.77663E+01 -2.84529E+01 -2.87747E+01
  -2.86366E+01 -2.82991E+01 -2.82954E+01 -2.84916E+01 -2.90696E+01 -2.96823E+01 -2.96885E+01 -2.88809E+01 -2.75340E+01 -2.67275E+01
  -2.67760E+01 -2.70742E+01 -2.71437E+01 -2.64117E+01 -2.56752E+01 -2.53043E+01 -2.47359E+01 -2.34309E+01 -2.09065E+01 -1.77528E+01
  -1.53618E+01 -1.42696E+01 -1.46306E+01 -1.60854E+01 -1.75466E+01 -1.87645E+01 -1.94118E+01 -1.91813E+01 -1.81373E+01 -1.63375E+01
  -1.41376E+01 -1.20101E+01 -1.00480E+01 -8.59556E+00 -7.86366E+00 -8.64968E+00 -1.08720E+01 -1.40436E+01 -1.75887E+01 -2.00812E+01
  -2.08732E+01 -1.92262E+01 -1.58484E+01 -1.16486E+01 -6.40836E+00 -2.07260E+00  5.62609E-02 -1.33613E+00 -5.77336E+00 -1.07083E+01
  -1.51848E+01 -1.82525E+01 -1.90160E+01 -1.68636E+01 -1.17888E+01 -6.39096E+00 -2.70021E+00 -9.84160E-01 -9.18654E-01 -1.74912E+00
  -2.79559E+00 -3.69684E+00 -3.21757E+00 -1.62155E+00  1.47578E-01  1.80544E+00  2.96254E+00  3.69712E+00  3.55637E+00  2.47385E+00
   1.05664E+00 -4.32404E-01 -1.11401E+00 -6.26145E-01  1.22175E+00  3.73770E+00  5.78685E+00  7.04627E+00  7.33655E+00  7.42727E+00
   7.81018E+00  9.30685E+00  1.19695E+01  1.67919E+01  2.32166E+01  3.05284E+01  3.85025E+01  4.53816E+01  5.98118E+01  8.23632E+01
   1.03346E+02  1.10166E+02  9.18043E+01  6.45200E+01  4.06003E+01  2.38979E+01  1.81891E+01  1.11485E+01  7.14459E+00  5.71943E+00
   4.98573E+00  4.62612E+00  4.78315E+00  5.19544E+00  5.64667E+00  5.86138E+00  5.79870E+00  5.48957E+00  5.08782E+00  4.73355E+00
   4.45198E+00  4.28823E+00  4.29567E+00  4.44408E+00  4.67084E+00  4.94587E+00  5.19917E+00  5.44020E+00  5.67604E+00  5.92555E+00
   6.22028E+00  6.58102E+00  6.96543E+00  7.33016E+00  7.66230E+00  7.97905E+00  8.27030E+00  8.55612E+00  8.82742E+00  9.09184E+00
   9.37087E+00  9.64843E+00  9.90272E+00  1.01265E+01  1.03028E+01  1.04485E+01  1.05609E+01  1.06494E+01  1.07216E+01  1.07864E+01
   1.08461E+01  1.09108E+01  1.09847E+01  1.10772E+01  1.11920E+01  1.13375E+01  1.15164E+01  1.17364E+01  1.19998E+01  1.23137E+01
   1.26815E+01  1.31172E+01  1.36348E+01  1.42130E+01  1.48649E+01  1.55407E+01  1.60821E+01  1.63932E+01  1.64737E+01  1.65873E+01
   1.69648E+01  1.75761E+01  1.84316E+01  1.94916E+01  2.07811E+01  2.22596E+01  2.36117E+01  2.46750E+01  2.55785E+01  2.64242E+01
   2.73676E+01  2.84595E+01  2.96505E+01  3.09322E+01  3.23365E+01  3.36875E+01  3.45460E+01  3.46340E+01  3.39448E+01  3.32265E+01
   3.30806E+01  3.33770E+01  3.42813E+01  3.55511E+01  3.71409E+01  3.87583E+01  3.95181E+01  3.93982E+01  3.87709E+01  3.78576E+01
   3.70817E+01  3.61881E+01  3.52108E+01  3.42448E+01  3.32582E+01  3.22505E+01  3.12286E+01  3.02074E+01  2.91984E+01  2.82169E+01
   2.72718E+01  2.63751E+01  2.55327E+01  2.47535E+01  2.40405E+01  2.33990E+01  2.28286E+01  2.23321E+01  2.19072E+01  2.15557E+01
   2.12745E+01  2.10645E+01  2.09219E+01  2.08472E+01  2.08373E+01  2.08934E+01  2.10125E+01  2.11954E+01  2.14386E+01  2.17426E+01
   2.21037E+01  2.25215E+01  2.29904E+01  2.35075E+01  2.40647E+01  2.46569E+01  2.52735E+01  2.59066E+01  2.65428E+01  2.71714E+01
   2.77775E+01  2.83498E+01  2.88734E+01  2.93380E+01  2.97302E+01  3.00423E+01  3.02651E+01  3.03960E+01  3.04308E+01  3.03720E+01
   3.02208E+01  2.99847E+01  2.96700E+01  2.92884E+01  2.88492E+01  2.83659E+01  2.78486E+01  2.73113E+01  2.67634E+01  2.62176E+01
   2.56810E+01  2.51633E+01  2.46689E+01  2.42047E+01  2.37725E+01  2.33766E+01  2.30161E+01  2.26927E+01  2.24040E+01  2.21505E+01
   2.19289E+01  2.17389E+01  2.15762E+01  2.14403E+01  2.13271E+01  2.12362E+01  2.11637E+01  2.11094E+01  2.10695E+01  2.10441E+01
   2.10298E+01  2.10274E+01  2.10338E+01  2.10496E+01  2.10720E+01  2.11018E+01  2.11368E+01  2.11783E+01  2.12237E+01  2.12742E+01
   2.13276E+01  2.13852E+01  2.14453E+01  2.15092E+01  2.15748E+01  2.16436E+01  2.17136E+01  2.17864E+01  2.18603E+01  2.19369E+01
   2.20141E+01  2.20936E+01  2.21734E+01  2.22554E+01  2.23379E+01  2.24224E+01  2.25070E+01  2.25934E+01  2.26797E+01  2.27680E+01
   2.28563E+01  2.29463E+01  2.30361E+01  2.31274E+01  2.32187E+01  2.33116E+01  2.34044E+01  2.34987E+01  2.35926E+01  2.36879E+01
   2.37831E+01  2.38799E+01  2.39764E+01  2.40743E+01  2.41718E+01  2.42707E+01  2.43695E+01  2.44698E+01  2.45698E+01  2.46711E+01
   2.47720E+01  2.48745E+01  2.49768E+01  2.50806E+01  2.51841E+01  2.52889E+01  2.53935E+01  2.54997E+01
 NY background values follow
    -1.631E+02   -1.618E+02   -1.606E+02   -1.593E+02   -1.580E+02   -1.568E+02   -1.555E+02   -1.542E+02   -1.530E+02   -1.517E+02
    -1.504E+02   -1.492E+02   -1.479E+02   -1.467E+02   -1.454E+02   -1.441E+02   -1.429E+02   -1.416E+02   -1.404E+02   -1.391E+02
    -1.379E+02   -1.366E+02   -1.354E+02   -1.342E+02   -1.329E+02   -1.317E+02   -1.305E+02   -1.293E+02   -1.280E+02   -1.268E+02
    -1.256E+02   -1.244E+02   -1.232E+02   -1.220E+02   -1.208E+02   -1.196E+02   -1.184E+02   -1.173E+02   -1.161E+02   -1.149E+02
    -1.138E+02   -1.126E+02   -1.115E+02   -1.103E+02   -1.092E+02   -1.081E+02   -1.070E+02   -1.059E+02   -1.048E+02   -1.037E+02
    -1.026E+02   -1.015E+02   -1.004E+02   -9.934E+01   -9.828E+01   -9.722E+01   -9.618E+01   -9.514E+01   -9.411E+01   -9.309E+01
    -9.207E+01   -9.106E+01   -9.006E+01   -8.907E+01   -8.809E+01   -8.711E+01   -8.614E+01   -8.518E+01   -8.423E+01   -8.328E+01
    -8.235E+01   -8.142E+01   -8.050E+01   -7.959E+01   -7.868E+01   -7.779E+01   -7.690E+01   -7.602E+01   -7.515E+01   -7.429E+01
    -7.344E+01   -7.260E+01   -7.176E+01   -7.094E+01   -7.012E+01   -6.931E+01   -6.851E+01   -6.772E+01   -6.694E+01   -6.616E+01
    -6.540E+01   -6.464E+01   -6.390E+01   -6.316E+01   -6.243E+01   -6.171E+01   -6.100E+01   -6.030E+01   -5.961E+01   -5.892E+01
    -5.824E+01   -5.758E+01   -5.692E+01   -5.626E+01   -5.562E+01   -5.499E+01   -5.436E+01   -5.374E+01   -5.313E+01   -5.252E+01
    -5.193E+01   -5.134E+01   -5.075E+01   -5.018E+01   -4.961E+01   -4.905E+01   -4.850E+01   -4.795E+01   -4.742E+01   -4.688E+01
    -4.636E+01   -4.584E+01   -4.533E+01   -4.482E+01   -4.433E+01   -4.383E+01   -4.335E+01   -4.287E+01   -4.240E+01   -4.193E+01
    -4.147E+01   -4.101E+01   -4.056E+01   -4.012E+01   -3.968E+01   -3.925E+01   -3.882E+01   -3.840E+01   -3.798E+01   -3.757E+01
    -3.717E+01   -3.677E+01   -3.637E+01   -3.598E+01   -3.559E+01   -3.521E+01   -3.484E+01   -3.446E+01   -3.409E+01   -3.373E+01
    -3.337E+01   -3.301E+01   -3.266E+01   -3.231E+01   -3.196E+01   -3.162E+01   -3.128E+01   -3.095E+01   -3.061E+01   -3.028E+01
    -2.996E+01   -2.963E+01   -2.931E+01   -2.899E+01   -2.868E+01   -2.836E+01   -2.805E+01   -2.774E+01   -2.743E+01   -2.713E+01
    -2.682E+01   -2.652E+01   -2.622E+01   -2.592E+01   -2.562E+01   -2.533E+01   -2.503E+01   -2.474E+01   -2.444E+01   -2.415E+01
    -2.386E+01   -2.356E+01   -2.327E+01   -2.298E+01   -2.269E+01   -2.240E+01   -2.211E+01   -2.182E+01   -2.153E+01   -2.125E+01
    -2.096E+01   -2.067E+01   -2.039E+01   -2.010E+01   -1.982E+01   -1.954E+01   -1.925E+01   -1.897E+01   -1.869E+01   -1.841E+01
    -1.813E+01   -1.786E+01   -1.758E+01   -1.730E+01   -1.703E+01   -1.675E+01   -1.648E+01   -1.621E+01   -1.594E+01   -1.567E+01
    -1.540E+01   -1.514E+01   -1.487E+01   -1.461E+01   -1.434E+01   -1.408E+01   -1.382E+01   -1.356E+01   -1.330E+01   -1.305E+01
    -1.279E+01   -1.254E+01   -1.229E+01   -1.204E+01   -1.179E+01   -1.154E+01   -1.129E+01   -1.105E+01   -1.081E+01   -1.057E+01
    -1.033E+01   -1.009E+01   -9.853E+00   -9.619E+00   -9.386E+00   -9.154E+00   -8.925E+00   -8.696E+00   -8.470E+00   -8.245E+00
    -8.021E+00   -7.799E+00   -7.579E+00   -7.360E+00   -7.142E+00   -6.926E+00   -6.712E+00   -6.499E+00   -6.288E+00   -6.079E+00
    -5.871E+00   -5.664E+00   -5.459E+00   -5.255E+00   -5.053E+00   -4.853E+00   -4.654E+00   -4.456E+00   -4.260E+00   -4.065E+00
    -3.872E+00   -3.681E+00   -3.491E+00   -3.302E+00   -3.115E+00   -2.929E+00   -2.745E+00   -2.562E+00   -2.381E+00   -2.201E+00
    -2.023E+00   -1.846E+00   -1.671E+00   -1.497E+00   -1.324E+00   -1.153E+00   -9.830E-01   -8.145E-01   -6.473E-01   -4.814E-01
    -3.168E-01   -1.535E-01    8.572E-03    1.694E-01    3.291E-01    4.876E-01    6.449E-01    8.011E-01    9.562E-01    1.110E+00
     1.263E+00    1.415E+00    1.566E+00    1.715E+00    1.864E+00    2.012E+00    2.159E+00    2.305E+00    2.450E+00    2.594E+00
     2.737E+00    2.880E+00    3.021E+00    3.162E+00    3.302E+00    3.441E+00    3.580E+00    3.718E+00    3.855E+00    3.991E+00
     4.127E+00    4.262E+00    4.396E+00    4.530E+00    4.663E+00    4.796E+00    4.928E+00    5.060E+00    5.191E+00    5.322E+00
     5.452E+00    5.581E+00    5.711E+00    5.839E+00    5.968E+00    6.095E+00    6.223E+00    6.350E+00    6.476E+00    6.602E+00
     6.728E+00    6.853E+00    6.978E+00    7.103E+00    7.227E+00    7.350E+00    7.474E+00    7.597E+00    7.719E+00    7.842E+00
     7.964E+00    8.085E+00    8.207E+00    8.328E+00    8.448E+00    8.569E+00    8.689E+00    8.809E+00    8.928E+00    9.048E+00
     9.167E+00    9.286E+00    9.404E+00    9.522E+00    9.641E+00    9.758E+00    9.876E+00    9.994E+00    1.011E+01    1.023E+01
     1.034E+01    1.046E+01    1.058E+01    1.069E+01    1.081E+01    1.093E+01    1.104E+01    1.116E+01    1.127E+01    1.139E+01
     1.150E+01    1.162E+01    1.174E+01    1.185E+01    1.196E+01    1.208E+01    1.219E+01    1.231E+01    1.242E+01    1.254E+01
     1.265E+01    1.276E+01    1.288E+01    1.299E+01    1.310E+01    1.322E+01    1.333E+01    1.344E+01    1.355E+01    1.367E+01
     1.378E+01    1.389E+01    1.400E+01    1.412E+01    1.423E+01    1.434E+01    1.445E+01    1.456E+01    1.467E+01    1.478E+01
     1.490E+01    1.501E+01    1.512E+01    1.523E+01    1.534E+01    1.545E+01    1.556E+01    1.567E+01    1.578E+01    1.589E+01
     1.600E+01    1.611E+01    1.622E+01    1.633E+01    1.644E+01    1.655E+01    1.665E+01    1.676E+01    1.687E+01    1.698E+01
     1.709E+01    1.720E+01    1.731E+01    1.741E+01    1.752E+01    1.763E+01    1.774E+01    1.785E+01    1.795E+01    1.806E+01
     1.817E+01    1.828E+01    1.838E+01    1.849E+01    1.860E+01    1.870E+01    1.881E+01    1.892E+01    1.902E+01    1.913E+01
     1.924E+01    1.934E+01    1.945E+01    1.955E+01    1.966E+01    1.976E+01    1.987E+01    1.998E+01    2.008E+01    2.019E+01
     2.029E+01    2.040E+01    2.050E+01    2.061E+01    2.071E+01    2.082E+01    2.092E+01    2.103E+01    2.113E+01    2.124E+01
     2.134E+01    2.144E+01    2.155E+01    2.165E+01    2.176E+01    2.186E+01    2.197E+01    2.207E+01    2.218E+01    2.228E+01
     2.239E+01    2.249E+01    2.260E+01    2.270E+01    2.281E+01    2.291E+01    2.302E+01    2.312E+01    2.323E+01    2.333E+01
     2.344E+01    2.355E+01    2.365E+01    2.376E+01    2.387E+01    2.397E+01    2.408E+01    2.419E+01    2.430E+01    2.440E+01
     2.451E+01    2.462E+01    2.473E+01    2.484E+01    2.495E+01    2.506E+01    2.517E+01    2.528E+01
 Ala      Conc. = 6.25E+01
