 LCModel (Version 6.3-1L) Copyright: S.W. Provencher.          Ref.: Magn. Reson. Med. 30:672-679 (1993).                
 Slice#1 Row#1 Col#6  PD_24_press_2_raw_act
 36 lines in following concentration table = NCONC+1
    Conc.  %SD /Cr+PCr  Metabolite                                         
  294.165  79%   1.043 Ala                                                 
   28.575 236%   0.101 Asp                                                 
  282.007  36%   1.000 Cr                                                  
    0.000 999%   0.000 PCr                                                 
   12.614 321% 4.5E-02 GABA                                                
   17.241 236% 6.1E-02 Glc                                                 
  445.226 105%   1.579 Gln                                                 
  492.192 102%   1.745 Glu                                                 
  125.798  32%   0.446 GPC                                                 
    0.000 999%   0.000 PCh                                                 
  281.466  55%   0.998 GSH                                                 
    0.000 999%   0.000 Ins                                                 
  129.382 192%   0.459 Lac                                                 
    0.000 999%   0.000 NAA                                                 
    0.000 999%   0.000 NAAG                                                
    7.959 167% 2.8E-02 Scyllo                                              
   19.981 335% 7.1E-02 Tau                                                 
    0.000 999%   0.000 -CrCH2                                              
  125.798  32%   0.446 GPC+PCh                                             
    0.000 999%   0.000 NAA+NAAG                                            
  282.007  36%   1.000 Cr+PCr                                              
  937.418  74%   3.324 Glu+Gln                                             
 2.78E+03  24%   9.848 Lip13a                                              
    0.000 999%   0.000 Lip13b                                              
  741.546  24%   2.630 Lip09                                               
  107.769 109%   0.382 MM09                                                
  416.596  24%   1.477 Lip20                                               
    0.000 999%   0.000 MM20                                                
   28.645 212%   0.102 MM12                                                
  506.451  45%   1.796 MM14                                                
  177.236  83%   0.628 MM17                                                
 2.78E+03  24%   9.848 Lip13a+Lip13b                                       
 3.31E+03  20%  11.746 MM14+Lip13a+Lip13b+MM12                             
  849.315  22%   3.012 MM09+Lip09                                          
  416.596  24%   1.477 MM20+Lip20                                          
   6 lines in following misc. output table
  FWHM = 0.054 ppm    S/N =   1                                            
  Data shift = 0.054 ppm                                                   
  Ph: -56 deg     -35.9 deg/ppm                                            
  alphaB,S = 8.5E+01,   2.6E+01                                            
   14 spline knots.   Ns = 5(1)                                            
   2 inflections.     1 extrema                                            
  498 points on ppm-axis = NY
      4.000000     3.992357     3.984714     3.977070     3.969427     3.961784     3.954141     3.946497     3.938854     3.931211
      3.923568     3.915925     3.908281     3.900638     3.892995     3.885352     3.877708     3.870065     3.862422     3.854779
      3.847136     3.839492     3.831849     3.824206     3.816563     3.808919     3.801276     3.793633     3.785990     3.778347
      3.770703     3.763060     3.755417     3.747774     3.740130     3.732487     3.724844     3.717201     3.709558     3.701914
      3.694271     3.686628     3.678985     3.671341     3.663698     3.656055     3.648412     3.640769     3.633125     3.625482
      3.617839     3.610196     3.602552     3.594909     3.587266     3.579623     3.571980     3.564336     3.556693     3.549050
      3.541407     3.533763     3.526120     3.518477     3.510834     3.503191     3.495547     3.487904     3.480261     3.472618
      3.464974     3.457331     3.449688     3.442045     3.434402     3.426758     3.419115     3.411472     3.403829     3.396185
      3.388542     3.380899     3.373256     3.365613     3.357969     3.350326     3.342683     3.335040     3.327396     3.319753
      3.312110     3.304467     3.296824     3.289180     3.281537     3.273894     3.266251     3.258607     3.250964     3.243321
      3.235678     3.228034     3.220391     3.212748     3.205105     3.197462     3.189818     3.182175     3.174532     3.166889
      3.159245     3.151602     3.143959     3.136316     3.128673     3.121029     3.113386     3.105743     3.098100     3.090456
      3.082813     3.075170     3.067527     3.059884     3.052240     3.044597     3.036954     3.029311     3.021667     3.014024
      3.006381     2.998738     2.991095     2.983451     2.975808     2.968165     2.960522     2.952878     2.945235     2.937592
      2.929949     2.922306     2.914662     2.907019     2.899376     2.891733     2.884089     2.876446     2.868803     2.861160
      2.853517     2.845873     2.838230     2.830587     2.822944     2.815300     2.807657     2.800014     2.792371     2.784728
      2.777084     2.769441     2.761798     2.754155     2.746511     2.738868     2.731225     2.723582     2.715939     2.708295
      2.700652     2.693009     2.685366     2.677722     2.670079     2.662436     2.654793     2.647150     2.639506     2.631863
      2.624220     2.616577     2.608933     2.601290     2.593647     2.586004     2.578361     2.570717     2.563074     2.555431
      2.547788     2.540144     2.532501     2.524858     2.517215     2.509572     2.501928     2.494285     2.486642     2.478999
      2.471355     2.463712     2.456069     2.448426     2.440783     2.433139     2.425496     2.417853     2.410210     2.402566
      2.394923     2.387280     2.379637     2.371994     2.364350     2.356707     2.349064     2.341421     2.333777     2.326134
      2.318491     2.310848     2.303205     2.295561     2.287918     2.280275     2.272632     2.264988     2.257345     2.249702
      2.242059     2.234416     2.226772     2.219129     2.211486     2.203843     2.196199     2.188556     2.180913     2.173270
      2.165627     2.157983     2.150340     2.142697     2.135054     2.127410     2.119767     2.112124     2.104481     2.096838
      2.089194     2.081551     2.073908     2.066265     2.058621     2.050978     2.043335     2.035692     2.028049     2.020405
      2.012762     2.005119     1.997476     1.989833     1.982190     1.974546     1.966903     1.959260     1.951617     1.943974
      1.936331     1.928688     1.921045     1.913402     1.905759     1.898115     1.890472     1.882829     1.875186     1.867543
      1.859900     1.852257     1.844614     1.836971     1.829327     1.821684     1.814041     1.806398     1.798755     1.791112
      1.783469     1.775826     1.768183     1.760540     1.752896     1.745253     1.737610     1.729967     1.722324     1.714681
      1.707038     1.699395     1.691752     1.684108     1.676465     1.668822     1.661179     1.653536     1.645893     1.638250
      1.630607     1.622964     1.615321     1.607677     1.600034     1.592391     1.584748     1.577105     1.569462     1.561819
      1.554176     1.546533     1.538890     1.531246     1.523603     1.515960     1.508317     1.500674     1.493031     1.485388
      1.477745     1.470102     1.462458     1.454815     1.447172     1.439529     1.431886     1.424243     1.416600     1.408957
      1.401314     1.393671     1.386027     1.378384     1.370741     1.363098     1.355455     1.347812     1.340169     1.332526
      1.324883     1.317240     1.309596     1.301953     1.294310     1.286667     1.279024     1.271381     1.263738     1.256095
      1.248452     1.240808     1.233165     1.225522     1.217879     1.210236     1.202593     1.194950     1.187307     1.179664
      1.172021     1.164377     1.156734     1.149091     1.141448     1.133805     1.126162     1.118519     1.110876     1.103233
      1.095590     1.087946     1.080303     1.072660     1.065017     1.057374     1.049731     1.042088     1.034445     1.026802
      1.019158     1.011515     1.003872     0.996229     0.988586     0.980943     0.973300     0.965657     0.958014     0.950371
      0.942727     0.935084     0.927441     0.919798     0.912155     0.904512     0.896869     0.889226     0.881583     0.873940
      0.866296     0.858653     0.851010     0.843367     0.835724     0.828081     0.820438     0.812795     0.805152     0.797508
      0.789865     0.782222     0.774579     0.766936     0.759293     0.751650     0.744007     0.736364     0.728721     0.721077
      0.713434     0.705791     0.698148     0.690505     0.682862     0.675219     0.667576     0.659933     0.652290     0.644646
      0.637003     0.629360     0.621717     0.614074     0.606431     0.598788     0.591145     0.583502     0.575858     0.568215
      0.560572     0.552929     0.545286     0.537643     0.530000     0.522357     0.514714     0.507071     0.499427     0.491784
      0.484141     0.476498     0.468855     0.461212     0.453569     0.445925     0.438282     0.430639     0.422996     0.415353
      0.407710     0.400067     0.392424     0.384780     0.377137     0.369494     0.361851     0.354208     0.346565     0.338922
      0.331278     0.323635     0.315992     0.308349     0.300706     0.293063     0.285420     0.277777     0.270133     0.262490
      0.254847     0.247204     0.239561     0.231918     0.224275     0.216631     0.208988     0.201345
 NY phased data points follow
  -5.39491E+00 -1.42300E+01 -1.79293E+01  2.04132E+00  2.13395E+01  7.93704E+00  3.23157E+00 -8.32738E+00  2.35456E+00  4.48255E+00
   2.88742E+00  1.52413E+01  1.04082E+01  2.26456E-02  1.30260E+01  1.60844E+01  7.21736E+00  1.10297E+01  1.06571E+01 -1.13809E+00
   2.59948E+00  8.15380E+00 -5.73513E+00  9.57106E+00  3.96807E+00  2.83668E+00  4.80006E+00 -4.47568E+00  7.05402E+00  1.00775E+01
   2.93815E-01  1.21772E+01 -4.04118E+00  6.33597E+00  1.80508E+01  1.72617E+01 -6.51318E+00 -6.81159E+00  1.99202E+00  1.02717E+01
  -5.70925E+00  1.90896E+00 -7.33243E+00  5.63713E+00  7.12204E+00 -3.50442E+00  2.29939E-01  1.88141E+00 -5.02122E+00  8.17363E+00
  -9.91729E+00  8.31924E+00 -6.55357E+00  1.64766E+00 -6.42145E-01  1.55926E-01 -7.23143E+00 -4.92417E+00  8.99169E-01 -8.18344E+00
   5.31075E+00  1.64800E+00  6.41311E+00 -8.75805E+00  5.11788E+00 -5.18609E+00  2.72679E-01  5.26589E-01 -1.30491E+00 -1.21791E+01
  -1.52316E+01  3.43659E+00 -2.03920E+00  1.27089E+01  1.01377E+01 -3.93558E+00  1.01305E+01 -2.24211E+00 -1.62728E+01 -2.18082E+01
  -3.57463E+00  1.16428E+01  4.83046E+00  7.52318E-01  8.90645E-01 -6.73124E+00  3.17608E+00 -2.33942E+00  1.25655E+01  5.76754E+00
  -8.20386E+00  2.58997E+00 -1.65216E+00  8.66457E-01 -8.23864E-01 -3.05120E+00 -6.72613E+00 -4.39365E+00 -7.98589E+00 -1.55514E+01
   7.23658E-01 -3.79641E+00  1.55706E+01  1.82629E+00  1.96033E+01  1.15156E+01  1.26065E+01  1.45014E+01  9.65383E+00  3.42743E+00
   6.06080E+00 -6.30299E+00 -4.81769E+00  5.98787E+00 -3.28100E+00  6.51427E+00  8.59108E-02 -8.12288E+00 -6.10868E+00 -7.82295E+00
  -3.04901E+00 -1.26157E+01 -3.79030E+00  1.10085E+00 -2.14341E+00 -6.25598E+00  8.36148E+00  6.45414E+00  9.72127E+00  1.18334E+01
   5.12361E+00  9.54662E+00  6.78656E+00 -5.33607E+00  7.40035E+00 -1.45004E+01  9.12717E-02  1.59485E+01  3.41766E+00  8.94146E+00
   9.79274E+00  8.79016E+00  6.05668E+00  8.15363E-02  1.55836E+00  1.00035E+01  3.39769E+00  3.42780E-01  9.64516E+00  6.86004E+00
  -9.30478E+00  5.01077E+00  4.21788E-01 -8.45811E+00  1.49899E+01  8.04848E+00  1.79751E+01  1.07669E+01  2.91717E+00 -2.95616E-01
   2.70151E+00 -1.07000E+01  5.69565E+00  1.55501E+01  9.41219E+00 -7.07383E+00  2.65103E+00 -2.68507E+00  7.85391E+00  7.95067E+00
   1.36379E+01 -1.11833E+01 -1.23124E+01  8.28854E+00 -8.49220E+00 -7.06070E-02 -3.63379E+00  1.01907E+01  5.80154E+00  7.04842E+00
   9.93322E-01  2.62467E+00  1.79914E+00  3.25510E+00  1.71383E+01  4.15677E+00  1.24400E+01  1.09523E+01  1.03915E+00  4.01351E+00
   5.28716E+00 -9.16450E+00  1.64483E+01 -2.78174E-01 -1.79398E+00  2.97432E+00 -1.36263E+01 -1.38135E+00  4.30057E+00  1.03378E+01
   6.29452E+00  5.97598E-02  7.02380E+00 -3.84710E+00  8.87300E+00  5.10889E+00  1.02621E+01 -3.86898E+00  2.74995E+00  1.24685E+01
   1.17601E+01 -7.64453E+00  6.55774E+00  4.59038E+00  1.00806E+01  2.45256E+01  8.13219E+00 -4.17800E+00 -1.03037E+01  1.46647E+01
  -1.59937E+00 -8.70017E-02 -6.42747E+00  3.84050E+00 -6.46898E+00  4.45958E-01 -7.57709E+00  3.95087E+00  4.29726E+00  1.17832E+01
   1.92020E+00 -3.75098E+00 -8.43133E+00 -7.33185E+00 -8.47924E+00 -3.90227E+00  8.41345E+00 -1.11517E+01  1.72000E+00 -1.27115E+01
  -3.74814E+00  3.86894E+00  2.73665E+00 -8.67812E+00 -5.93291E-01 -1.28812E+01 -5.79849E+00 -1.51897E+01 -1.44909E+01 -2.29179E+01
  -1.48462E+01 -1.26890E+01 -1.57481E+01 -1.65079E+01 -1.66050E+01 -1.80547E+01  8.62611E+00  8.61153E-01 -7.24398E+00 -1.42456E+01
  -3.26948E+00  5.20632E+00  1.68194E+01 -3.20792E-01 -5.79368E+00 -5.62210E+00 -5.03964E+00 -1.10071E+01 -3.95965E+00  7.85549E+00
   2.95843E+00 -1.23654E+01 -2.11670E+00 -1.32518E+01 -1.09915E+01 -4.38398E+00 -6.26787E+00 -1.72605E+01 -1.59758E+01 -9.86662E+00
   7.10744E+00 -1.83991E+01 -1.89152E+00  4.30323E+00 -1.11461E+01  3.10242E+00  7.59716E+00 -3.88520E+00  2.75155E-01  3.70350E+00
  -1.14266E+01 -5.86887E+00 -1.71355E+01 -5.01750E+00  2.88618E-01 -7.78595E+00 -6.90172E+00 -1.19711E+01 -3.61630E-02  5.83633E-01
  -1.45865E+00 -3.84563E+00  3.68196E+00 -8.87338E+00  1.09802E+01 -4.53149E+00  5.60045E-01  1.08001E+01  2.41831E+01 -5.06022E-02
   1.02679E+01  1.65404E+01  2.87912E+01  2.50917E+01  1.36021E+01  1.33539E+01  1.29847E+01  1.12843E+01  1.18464E+01  2.15817E+01
   2.63539E+00  2.05072E+01  2.20335E+00  1.03538E+01  1.76170E+01  1.06503E+01  2.05729E+01  8.73713E+00  1.02758E+01  6.57994E+00
   1.71031E+01  1.44788E+01  1.22285E+01  1.35057E+01  1.39497E+01  1.51066E+01  8.52218E+00  1.07063E+01  1.71188E+01  7.43272E+00
   2.79557E+01  2.01843E+01  1.00707E+01  2.37567E+01  1.43031E+01  1.45748E+01  1.01726E+01  1.89344E+01  7.89660E+00  1.97467E+01
   2.36643E+01  1.41126E+00  2.81774E+01  1.12158E+01  6.20327E+00  4.27287E+00  1.42136E+01  3.83375E+00  1.84039E+00  1.15603E+01
   1.59766E+01  4.42080E+00  1.35543E+01  6.68436E+00  9.90393E+00  6.97385E+00  1.05324E+01 -5.00032E+00  2.06076E+01 -1.04114E+00
   4.24564E+00  1.15256E+01  9.32667E+00  7.87313E-01 -1.13148E+01  6.86424E+00  1.64480E+01 -1.87589E+00  4.54331E+00 -9.44787E+00
   1.47405E+01 -1.35920E+01  2.11092E+01  1.24081E+00 -1.97963E+00 -1.51594E+01 -1.16482E+00  1.77041E+01 -4.20982E+00  6.49313E+00
   1.41095E+01 -8.46955E+00  4.61380E+00 -6.71344E+00  1.94316E+00  9.98065E+00  1.81959E+01  7.12105E+00  6.11008E-01  1.04769E+01
   6.71294E+00  9.93580E+00  3.81853E-01  7.79018E+00  1.71059E+00  4.69514E+00  1.18485E+00  1.61788E+01  8.00547E+00  5.32117E+00
  -4.56951E+00  1.06505E+01  3.19014E+00 -1.42758E+00 -4.51595E+00  8.07001E+00  6.64984E+00 -1.34305E-02  5.06159E+00  1.06146E+01
   1.02521E+01 -1.96496E+00  6.69900E+00  1.63305E+01  1.91497E+01  1.31134E+01 -8.25993E+00  1.58209E+01  1.53057E+01  3.29753E+00
   5.84259E+00  1.07683E+01 -1.70834E+00  2.43489E+00  7.54938E+00  7.53574E-01 -1.04269E+01  1.19503E+01  2.01483E+00  5.22302E+00
  -3.37353E+00  5.84546E+00  2.86307E+00  1.86178E+01  5.02023E+00 -3.38039E-01  6.33871E+00  4.26680E-01 -2.32635E+00  4.75342E+00
   5.31445E+00  1.89051E+01  3.82321E+00  6.01885E+00  6.72773E+00 -1.30594E+01 -1.34775E+01 -1.62062E+00  1.92736E+00  3.93887E+00
   6.51574E-01 -1.49719E+01 -8.36790E+00 -1.38967E+00  6.08473E+00 -5.69892E-01 -4.08686E+00 -7.80663E+00  9.53185E+00  1.80026E+01
  -7.96611E+00 -2.93876E+00 -9.04832E+00 -3.42780E+00 -5.26869E+00  5.10164E+00 -3.31752E+00  2.45183E+00  9.49672E+00  3.58501E-02
   8.14145E+00  1.38278E+00 -3.98309E+00  2.58460E+00  2.74735E+00 -1.21147E+01  9.75240E+00  1.53334E+00  4.49739E+00 -3.13527E+00
  -2.56188E+00  9.34093E+00  4.74554E+00  3.39866E+00  1.12199E+01 -7.28995E-01  3.28599E+00  7.18763E-01
 NY points of the fit to the data follow
  -7.80097E-01 -7.35759E-01 -6.30276E-01 -4.60145E-01 -2.48085E-01 -1.48253E-02  3.24525E-01  9.45537E-01  1.96714E+00  3.31611E+00
   4.71980E+00  5.86216E+00  6.59369E+00  6.93400E+00  6.84729E+00  6.08979E+00  4.48899E+00  2.48731E+00  1.16515E+00  8.88428E-01
   9.66626E-01  1.12376E+00  1.28001E+00  1.35057E+00  1.24028E+00  9.93436E-01  9.13618E-01  1.29658E+00  2.19683E+00  3.42372E+00
   4.75150E+00  6.09580E+00  7.42007E+00  8.16916E+00  7.59598E+00  5.59181E+00  3.04491E+00  1.20167E+00  6.12737E-02 -5.94736E-01
  -6.67383E-01 -2.19703E-01  4.16833E-01  8.96302E-01  1.05138E+00  9.06984E-01  7.27732E-01  6.46414E-01  5.36290E-01  4.27761E-01
   3.85445E-01  3.67903E-01  3.18909E-01  2.99366E-01  3.07554E-01  2.39973E-01  8.79904E-02 -5.54378E-02 -1.53322E-01 -2.27154E-01
  -2.93512E-01 -3.54147E-01 -3.92871E-01 -4.08605E-01 -4.15617E-01 -4.23058E-01 -4.32767E-01 -4.42548E-01 -4.51962E-01 -4.62529E-01
  -4.72549E-01 -4.76698E-01 -4.68432E-01 -4.44465E-01 -4.10877E-01 -3.80991E-01 -3.58670E-01 -3.51046E-01 -3.58042E-01 -3.76432E-01
  -4.05610E-01 -4.29063E-01 -4.06227E-01 -3.18736E-01 -1.92136E-01 -6.22479E-02  3.95050E-02  9.88231E-02  1.20000E-01  1.03384E-01
   2.62566E-02 -1.20080E-01 -2.82109E-01 -3.67020E-01 -3.71087E-01 -3.37319E-01 -2.64983E-01 -1.05403E-01  3.60095E-01  1.50242E+00
   3.51710E+00  6.17745E+00  8.88464E+00  1.10295E+01  1.23709E+01  1.29415E+01  1.25821E+01  1.07444E+01  7.23835E+00  3.22906E+00
   8.30568E-01  1.97874E-01  1.36851E-02 -6.72672E-02 -1.05056E-01 -1.16341E-01 -1.18167E-01 -1.21147E-01 -1.27068E-01 -1.28136E-01
  -1.04837E-01 -1.15872E-02  3.10480E-01  1.13926E+00  2.64624E+00  4.69310E+00  6.83666E+00  8.59533E+00  9.78593E+00  1.04451E+01
   1.04639E+01  9.41572E+00  7.04904E+00  4.06438E+00  1.99829E+00  1.12676E+00  5.36676E-01  8.54412E-03 -4.49298E-01 -6.99430E-01
  -5.17355E-01  1.15898E-01  8.67890E-01  1.48013E+00  1.83078E+00  1.84238E+00  1.58954E+00  1.24207E+00  9.22856E-01  7.48118E-01
   6.35806E-01  5.40454E-01  4.53662E-01  3.76266E-01  3.08295E-01  2.60896E-01  2.50631E-01  2.63137E-01  2.85482E-01  3.16149E-01
   3.43378E-01  3.42924E-01  3.03275E-01  2.54099E-01  2.22853E-01  2.08841E-01  2.03409E-01  1.98584E-01  1.99030E-01  2.10553E-01
   2.31963E-01  2.50713E-01  2.50011E-01  2.21582E-01  1.75141E-01  1.18460E-01  5.13063E-02 -2.92894E-02 -1.22649E-01 -2.14159E-01
  -2.85714E-01 -3.40809E-01 -4.01881E-01 -4.80862E-01 -5.63963E-01 -6.17144E-01 -5.96683E-01 -4.66360E-01 -2.17700E-01  1.21790E-01
   4.86607E-01  7.84802E-01  8.73912E-01  6.71984E-01  1.72558E-01 -5.78169E-01 -1.40353E+00 -1.99965E+00 -2.11731E+00 -1.70301E+00
  -8.75915E-01  2.10532E-01  1.44171E+00  2.52002E+00  3.07047E+00  2.86265E+00  2.00774E+00  7.40139E-01 -5.91624E-01 -1.65245E+00
  -2.28361E+00 -2.38645E+00 -1.80708E+00 -5.77569E-01  1.10537E+00  2.89939E+00  4.15342E+00  4.32789E+00  3.68065E+00  2.53750E+00
   1.02395E+00 -5.06590E-01 -1.53407E+00 -1.72537E+00 -1.37678E+00 -6.66971E-01  3.66569E-01  1.54413E+00  2.44247E+00  2.67039E+00
   2.34581E+00  1.87391E+00  1.43953E+00  1.07637E+00  9.13028E-01  1.05447E+00  1.51362E+00  2.09858E+00  2.45913E+00  2.44365E+00
   2.21194E+00  1.83275E+00  1.20493E+00  3.60806E-01 -2.76654E-01 -5.02546E-01 -4.87300E-01 -2.50308E-01  2.93901E-01  9.17319E-01
   1.28993E+00  1.48043E+00  1.59518E+00  1.68597E+00  1.74822E+00  1.78803E+00  1.74742E+00  1.61580E+00  1.46332E+00  1.34068E+00
   1.29544E+00  1.34866E+00  1.51725E+00  1.75341E+00  1.95482E+00  2.01042E+00  1.91573E+00  1.74997E+00  1.56299E+00  1.38110E+00
   1.25397E+00  1.20968E+00  1.19493E+00  1.19588E+00  1.23501E+00  1.29975E+00  1.37169E+00  1.42483E+00  1.42950E+00  1.37873E+00
   1.30809E+00  1.24967E+00  1.20717E+00  1.18185E+00  1.17808E+00  1.19631E+00  1.23078E+00  1.26972E+00  1.30747E+00  1.34743E+00
   1.39004E+00  1.43531E+00  1.48569E+00  1.54365E+00  1.60859E+00  1.67846E+00  1.75395E+00  1.83593E+00  1.92254E+00  2.01255E+00
   2.10590E+00  2.20153E+00  2.29832E+00  2.39510E+00  2.49100E+00  2.58543E+00  2.67805E+00  2.76861E+00  2.85722E+00  2.94480E+00
   3.03318E+00  3.12405E+00  3.21940E+00  3.32183E+00  3.43421E+00  3.56000E+00  3.70332E+00  3.86918E+00  4.06400E+00  4.29689E+00
   4.58283E+00  4.95210E+00  5.46704E+00  6.16396E+00  6.94724E+00  7.59416E+00  7.87131E+00  7.67895E+00  7.08057E+00  6.15939E+00
   4.94024E+00  3.54760E+00  2.44422E+00  2.36173E+00  3.67669E+00  5.68214E+00  7.61137E+00  9.43390E+00  1.11600E+01  1.25545E+01
   1.31827E+01  1.29216E+01  1.24650E+01  1.24851E+01  1.27821E+01  1.31226E+01  1.33420E+01  1.33537E+01  1.31591E+01  1.27871E+01
   1.22555E+01  1.16142E+01  1.10362E+01  1.08206E+01  1.11544E+01  1.17725E+01  1.23010E+01  1.27174E+01  1.30159E+01  1.30726E+01
   1.27173E+01  1.19756E+01  1.12054E+01  1.05916E+01  1.00478E+01  9.53396E+00  9.03891E+00  8.56007E+00  8.09815E+00  7.65511E+00
   7.23322E+00  6.83459E+00  6.46099E+00  6.11379E+00  5.79399E+00  5.50221E+00  5.23876E+00  5.00361E+00  4.79653E+00  4.61718E+00
   4.46513E+00  4.33996E+00  4.24122E+00  4.16851E+00  4.12146E+00  4.09974E+00  4.10307E+00  4.13111E+00  4.18347E+00  4.25961E+00
   4.35876E+00  4.47989E+00  4.62160E+00  4.78205E+00  4.95891E+00  5.14932E+00  5.34986E+00  5.55661E+00  5.76515E+00  5.97070E+00
   6.16819E+00  6.35246E+00  6.51841E+00  6.66120E+00  6.77642E+00  6.86031E+00  6.90990E+00  6.92317E+00  6.89906E+00  6.83760E+00
   6.73984E+00  6.60781E+00  6.44441E+00  6.25327E+00  6.03856E+00  5.80481E+00  5.55672E+00  5.29902E+00  5.03621E+00  4.77250E+00
   4.51166E+00  4.25694E+00  4.01106E+00  3.77617E+00  3.55387E+00  3.34522E+00  3.15083E+00  2.97088E+00  2.80525E+00  2.65353E+00
   2.51512E+00  2.38925E+00  2.27506E+00  2.17165E+00  2.07813E+00  1.99360E+00  1.91720E+00  1.84812E+00  1.78560E+00  1.72895E+00
   1.67757E+00  1.63089E+00  1.58841E+00  1.54968E+00  1.51429E+00  1.48191E+00  1.45224E+00  1.42500E+00  1.39994E+00  1.37685E+00
   1.35553E+00  1.33584E+00  1.31763E+00  1.30077E+00  1.28513E+00  1.27060E+00  1.25711E+00  1.24458E+00  1.23293E+00  1.22209E+00
   1.21199E+00  1.20257E+00  1.19380E+00  1.18563E+00  1.17803E+00  1.17094E+00  1.16433E+00  1.15817E+00  1.15245E+00  1.14713E+00
   1.14219E+00  1.13759E+00  1.13331E+00  1.12935E+00  1.12569E+00  1.12233E+00  1.11922E+00  1.11635E+00  1.11372E+00  1.11132E+00
   1.10914E+00  1.10717E+00  1.10539E+00  1.10377E+00  1.10233E+00  1.10108E+00  1.09999E+00  1.09906E+00  1.09825E+00  1.09758E+00
   1.09706E+00  1.09668E+00  1.09643E+00  1.09630E+00  1.09626E+00  1.09634E+00  1.09655E+00  1.09688E+00
 NY background values follow
    -9.444E-01   -9.407E-01   -9.370E-01   -9.333E-01   -9.296E-01   -9.259E-01   -9.223E-01   -9.186E-01   -9.149E-01   -9.112E-01
    -9.075E-01   -9.038E-01   -9.001E-01   -8.964E-01   -8.927E-01   -8.890E-01   -8.853E-01   -8.817E-01   -8.780E-01   -8.743E-01
    -8.706E-01   -8.669E-01   -8.632E-01   -8.595E-01   -8.558E-01   -8.521E-01   -8.484E-01   -8.447E-01   -8.411E-01   -8.374E-01
    -8.337E-01   -8.300E-01   -8.263E-01   -8.226E-01   -8.189E-01   -8.152E-01   -8.115E-01   -8.078E-01   -8.041E-01   -8.005E-01
    -7.968E-01   -7.931E-01   -7.894E-01   -7.857E-01   -7.820E-01   -7.783E-01   -7.746E-01   -7.709E-01   -7.672E-01   -7.635E-01
    -7.599E-01   -7.562E-01   -7.525E-01   -7.488E-01   -7.451E-01   -7.414E-01   -7.377E-01   -7.340E-01   -7.303E-01   -7.266E-01
    -7.229E-01   -7.192E-01   -7.156E-01   -7.119E-01   -7.082E-01   -7.045E-01   -7.008E-01   -6.971E-01   -6.934E-01   -6.897E-01
    -6.860E-01   -6.823E-01   -6.786E-01   -6.750E-01   -6.713E-01   -6.676E-01   -6.639E-01   -6.602E-01   -6.565E-01   -6.528E-01
    -6.491E-01   -6.454E-01   -6.417E-01   -6.380E-01   -6.344E-01   -6.307E-01   -6.270E-01   -6.233E-01   -6.196E-01   -6.159E-01
    -6.122E-01   -6.085E-01   -6.048E-01   -6.011E-01   -5.974E-01   -5.938E-01   -5.901E-01   -5.864E-01   -5.827E-01   -5.790E-01
    -5.753E-01   -5.716E-01   -5.679E-01   -5.642E-01   -5.605E-01   -5.568E-01   -5.532E-01   -5.495E-01   -5.458E-01   -5.421E-01
    -5.384E-01   -5.347E-01   -5.310E-01   -5.273E-01   -5.236E-01   -5.199E-01   -5.162E-01   -5.125E-01   -5.089E-01   -5.052E-01
    -5.015E-01   -4.978E-01   -4.941E-01   -4.904E-01   -4.867E-01   -4.830E-01   -4.793E-01   -4.756E-01   -4.719E-01   -4.683E-01
    -4.646E-01   -4.609E-01   -4.572E-01   -4.535E-01   -4.498E-01   -4.461E-01   -4.424E-01   -4.387E-01   -4.350E-01   -4.313E-01
    -4.277E-01   -4.240E-01   -4.203E-01   -4.166E-01   -4.129E-01   -4.092E-01   -4.055E-01   -4.018E-01   -3.981E-01   -3.944E-01
    -3.907E-01   -3.870E-01   -3.834E-01   -3.797E-01   -3.760E-01   -3.723E-01   -3.686E-01   -3.649E-01   -3.612E-01   -3.575E-01
    -3.538E-01   -3.501E-01   -3.464E-01   -3.428E-01   -3.391E-01   -3.354E-01   -3.317E-01   -3.280E-01   -3.243E-01   -3.206E-01
    -3.169E-01   -3.132E-01   -3.095E-01   -3.058E-01   -3.021E-01   -2.985E-01   -2.948E-01   -2.911E-01   -2.874E-01   -2.837E-01
    -2.800E-01   -2.763E-01   -2.726E-01   -2.689E-01   -2.652E-01   -2.615E-01   -2.578E-01   -2.542E-01   -2.505E-01   -2.468E-01
    -2.431E-01   -2.394E-01   -2.357E-01   -2.320E-01   -2.283E-01   -2.246E-01   -2.209E-01   -2.172E-01   -2.136E-01   -2.099E-01
    -2.062E-01   -2.025E-01   -1.988E-01   -1.951E-01   -1.914E-01   -1.877E-01   -1.840E-01   -1.803E-01   -1.766E-01   -1.729E-01
    -1.693E-01   -1.656E-01   -1.619E-01   -1.582E-01   -1.545E-01   -1.508E-01   -1.471E-01   -1.434E-01   -1.397E-01   -1.360E-01
    -1.323E-01   -1.286E-01   -1.250E-01   -1.213E-01   -1.176E-01   -1.139E-01   -1.102E-01   -1.065E-01   -1.028E-01   -9.911E-02
    -9.542E-02   -9.173E-02   -8.804E-02   -8.435E-02   -8.065E-02   -7.696E-02   -7.327E-02   -6.958E-02   -6.589E-02   -6.219E-02
    -5.850E-02   -5.481E-02   -5.112E-02   -4.743E-02   -4.374E-02   -4.004E-02   -3.635E-02   -3.266E-02   -2.897E-02   -2.528E-02
    -2.158E-02   -1.789E-02   -1.420E-02   -1.051E-02   -6.815E-03   -3.123E-03    5.694E-04    4.262E-03    7.954E-03    1.165E-02
     1.534E-02    1.903E-02    2.272E-02    2.641E-02    3.011E-02    3.380E-02    3.749E-02    4.118E-02    4.488E-02    4.857E-02
     5.226E-02    5.595E-02    5.965E-02    6.334E-02    6.703E-02    7.072E-02    7.442E-02    7.811E-02    8.180E-02    8.549E-02
     8.919E-02    9.288E-02    9.657E-02    1.003E-01    1.040E-01    1.076E-01    1.113E-01    1.150E-01    1.187E-01    1.224E-01
     1.261E-01    1.298E-01    1.335E-01    1.372E-01    1.409E-01    1.446E-01    1.483E-01    1.520E-01    1.557E-01    1.593E-01
     1.630E-01    1.667E-01    1.704E-01    1.741E-01    1.778E-01    1.815E-01    1.852E-01    1.889E-01    1.926E-01    1.963E-01
     2.000E-01    2.037E-01    2.074E-01    2.110E-01    2.147E-01    2.184E-01    2.221E-01    2.258E-01    2.295E-01    2.332E-01
     2.369E-01    2.406E-01    2.443E-01    2.480E-01    2.517E-01    2.554E-01    2.591E-01    2.627E-01    2.664E-01    2.701E-01
     2.738E-01    2.775E-01    2.812E-01    2.849E-01    2.886E-01    2.923E-01    2.960E-01    2.997E-01    3.034E-01    3.071E-01
     3.108E-01    3.144E-01    3.181E-01    3.218E-01    3.255E-01    3.292E-01    3.329E-01    3.366E-01    3.403E-01    3.440E-01
     3.477E-01    3.514E-01    3.551E-01    3.588E-01    3.625E-01    3.662E-01    3.698E-01    3.735E-01    3.772E-01    3.809E-01
     3.846E-01    3.883E-01    3.920E-01    3.957E-01    3.994E-01    4.031E-01    4.068E-01    4.105E-01    4.142E-01    4.179E-01
     4.215E-01    4.252E-01    4.289E-01    4.326E-01    4.363E-01    4.400E-01    4.437E-01    4.474E-01    4.511E-01    4.548E-01
     4.585E-01    4.622E-01    4.659E-01    4.696E-01    4.733E-01    4.769E-01    4.806E-01    4.843E-01    4.880E-01    4.917E-01
     4.954E-01    4.991E-01    5.028E-01    5.065E-01    5.102E-01    5.139E-01    5.176E-01    5.213E-01    5.250E-01    5.286E-01
     5.323E-01    5.360E-01    5.397E-01    5.434E-01    5.471E-01    5.508E-01    5.545E-01    5.582E-01    5.619E-01    5.656E-01
     5.693E-01    5.730E-01    5.767E-01    5.804E-01    5.840E-01    5.877E-01    5.914E-01    5.951E-01    5.988E-01    6.025E-01
     6.062E-01    6.099E-01    6.136E-01    6.173E-01    6.210E-01    6.247E-01    6.284E-01    6.321E-01    6.358E-01    6.394E-01
     6.431E-01    6.468E-01    6.505E-01    6.542E-01    6.579E-01    6.616E-01    6.653E-01    6.690E-01    6.727E-01    6.764E-01
     6.801E-01    6.838E-01    6.875E-01    6.912E-01    6.948E-01    6.985E-01    7.022E-01    7.059E-01    7.096E-01    7.133E-01
     7.170E-01    7.207E-01    7.244E-01    7.281E-01    7.318E-01    7.355E-01    7.392E-01    7.429E-01    7.465E-01    7.502E-01
     7.539E-01    7.576E-01    7.613E-01    7.650E-01    7.687E-01    7.724E-01    7.761E-01    7.798E-01    7.835E-01    7.872E-01
     7.909E-01    7.946E-01    7.983E-01    8.019E-01    8.056E-01    8.093E-01    8.130E-01    8.167E-01    8.204E-01    8.241E-01
     8.278E-01    8.315E-01    8.352E-01    8.389E-01    8.426E-01    8.463E-01    8.500E-01    8.537E-01    8.573E-01    8.610E-01
     8.647E-01    8.684E-01    8.721E-01    8.758E-01    8.795E-01    8.832E-01    8.869E-01    8.906E-01
 Ala      Conc. = 2.94E+02
