 LCModel (Version 6.3-1L) Copyright: S.W. Provencher.          Ref.: Magn. Reson. Med. 30:672-679 (1993).                
 Slice#3 Row#10 Col#9  PD_24_press_2_raw_act
 36 lines in following concentration table = NCONC+1
    Conc.  %SD /Cr+PCr  Metabolite                                         
    2.161 999% 2.7E-03 Ala                                                 
    0.000 999%   0.000 Asp                                                 
    0.000 999%   0.000 Cr                                                  
  807.581   5%   1.000 PCr                                                 
   35.670 219% 4.4E-02 GABA                                                
  113.139  69%   0.140 Glc                                                 
  376.072  36%   0.466 Gln                                                 
  958.593  17%   1.187 Glu                                                 
  231.009   6%   0.286 GPC                                                 
    0.000 999%   0.000 PCh                                                 
  198.568  23%   0.246 GSH                                                 
  682.224  22%   0.845 Ins                                                 
  206.537  36%   0.256 Lac                                                 
 1.28E+03   4%   1.582 NAA                                                 
    0.000 999%   0.000 NAAG                                                
   39.229  40% 4.9E-02 Scyllo                                              
  152.084  72%   0.188 Tau                                                 
  155.059  40%   0.192 -CrCH2                                              
  231.009   6%   0.286 GPC+PCh                                             
 1.28E+03   4%   1.582 NAA+NAAG                                            
  807.581   5%   1.000 Cr+PCr                                              
 1.33E+03  16%   1.653 Glu+Gln                                             
  995.324  36%   1.232 Lip13a                                              
   22.664 722% 2.8E-02 Lip13b                                              
    0.000 999%   0.000 Lip09                                               
  841.600  15%   1.042 MM09                                                
  218.329  45%   0.270 Lip20                                               
 2.14E+03  11%   2.648 MM20                                                
  265.095  31%   0.328 MM12                                                
 1.46E+03  16%   1.814 MM14                                                
  699.367  24%   0.866 MM17                                                
 1.02E+03  26%   1.261 Lip13a+Lip13b                                       
 2.75E+03  10%   3.403 MM14+Lip13a+Lip13b+MM12                             
  841.600  15%   1.042 MM09+Lip09                                          
 2.36E+03  10%   2.919 MM20+Lip20                                          
   6 lines in following misc. output table
  FWHM = 0.046 ppm    S/N =  11                                            
  Data shift = 0.031 ppm                                                   
  Ph: -51 deg     -13.5 deg/ppm                                            
  alphaB,S = 1.5E+00,   3.0E+01                                            
   14 spline knots.   Ns = 6(1)                                            
  (10) 4 infls.   ( 9) 1 extrs.                                            
  498 points on ppm-axis = NY
      4.000000     3.992357     3.984714     3.977070     3.969427     3.961784     3.954141     3.946497     3.938854     3.931211
      3.923568     3.915925     3.908281     3.900638     3.892995     3.885352     3.877708     3.870065     3.862422     3.854779
      3.847136     3.839492     3.831849     3.824206     3.816563     3.808919     3.801276     3.793633     3.785990     3.778347
      3.770703     3.763060     3.755417     3.747774     3.740130     3.732487     3.724844     3.717201     3.709558     3.701914
      3.694271     3.686628     3.678985     3.671341     3.663698     3.656055     3.648412     3.640769     3.633125     3.625482
      3.617839     3.610196     3.602552     3.594909     3.587266     3.579623     3.571980     3.564336     3.556693     3.549050
      3.541407     3.533763     3.526120     3.518477     3.510834     3.503191     3.495547     3.487904     3.480261     3.472618
      3.464974     3.457331     3.449688     3.442045     3.434402     3.426758     3.419115     3.411472     3.403829     3.396185
      3.388542     3.380899     3.373256     3.365613     3.357969     3.350326     3.342683     3.335040     3.327396     3.319753
      3.312110     3.304467     3.296824     3.289180     3.281537     3.273894     3.266251     3.258607     3.250964     3.243321
      3.235678     3.228034     3.220391     3.212748     3.205105     3.197462     3.189818     3.182175     3.174532     3.166889
      3.159245     3.151602     3.143959     3.136316     3.128673     3.121029     3.113386     3.105743     3.098100     3.090456
      3.082813     3.075170     3.067527     3.059884     3.052240     3.044597     3.036954     3.029311     3.021667     3.014024
      3.006381     2.998738     2.991095     2.983451     2.975808     2.968165     2.960522     2.952878     2.945235     2.937592
      2.929949     2.922306     2.914662     2.907019     2.899376     2.891733     2.884089     2.876446     2.868803     2.861160
      2.853517     2.845873     2.838230     2.830587     2.822944     2.815300     2.807657     2.800014     2.792371     2.784728
      2.777084     2.769441     2.761798     2.754155     2.746511     2.738868     2.731225     2.723582     2.715939     2.708295
      2.700652     2.693009     2.685366     2.677722     2.670079     2.662436     2.654793     2.647150     2.639506     2.631863
      2.624220     2.616577     2.608933     2.601290     2.593647     2.586004     2.578361     2.570717     2.563074     2.555431
      2.547788     2.540144     2.532501     2.524858     2.517215     2.509572     2.501928     2.494285     2.486642     2.478999
      2.471355     2.463712     2.456069     2.448426     2.440783     2.433139     2.425496     2.417853     2.410210     2.402566
      2.394923     2.387280     2.379637     2.371994     2.364350     2.356707     2.349064     2.341421     2.333777     2.326134
      2.318491     2.310848     2.303205     2.295561     2.287918     2.280275     2.272632     2.264988     2.257345     2.249702
      2.242059     2.234416     2.226772     2.219129     2.211486     2.203843     2.196199     2.188556     2.180913     2.173270
      2.165627     2.157983     2.150340     2.142697     2.135054     2.127410     2.119767     2.112124     2.104481     2.096838
      2.089194     2.081551     2.073908     2.066265     2.058621     2.050978     2.043335     2.035692     2.028049     2.020405
      2.012762     2.005119     1.997476     1.989833     1.982190     1.974546     1.966903     1.959260     1.951617     1.943974
      1.936331     1.928688     1.921045     1.913402     1.905759     1.898115     1.890472     1.882829     1.875186     1.867543
      1.859900     1.852257     1.844614     1.836971     1.829327     1.821684     1.814041     1.806398     1.798755     1.791112
      1.783469     1.775826     1.768183     1.760540     1.752896     1.745253     1.737610     1.729967     1.722324     1.714681
      1.707038     1.699395     1.691752     1.684108     1.676465     1.668822     1.661179     1.653536     1.645893     1.638250
      1.630607     1.622964     1.615321     1.607677     1.600034     1.592391     1.584748     1.577105     1.569462     1.561819
      1.554176     1.546533     1.538890     1.531246     1.523603     1.515960     1.508317     1.500674     1.493031     1.485388
      1.477745     1.470102     1.462458     1.454815     1.447172     1.439529     1.431886     1.424243     1.416600     1.408957
      1.401314     1.393671     1.386027     1.378384     1.370741     1.363098     1.355455     1.347812     1.340169     1.332526
      1.324883     1.317240     1.309596     1.301953     1.294310     1.286667     1.279024     1.271381     1.263738     1.256095
      1.248452     1.240808     1.233165     1.225522     1.217879     1.210236     1.202593     1.194950     1.187307     1.179664
      1.172021     1.164377     1.156734     1.149091     1.141448     1.133805     1.126162     1.118519     1.110876     1.103233
      1.095590     1.087946     1.080303     1.072660     1.065017     1.057374     1.049731     1.042088     1.034445     1.026802
      1.019158     1.011515     1.003872     0.996229     0.988586     0.980943     0.973300     0.965657     0.958014     0.950371
      0.942727     0.935084     0.927441     0.919798     0.912155     0.904512     0.896869     0.889226     0.881583     0.873940
      0.866296     0.858653     0.851010     0.843367     0.835724     0.828081     0.820438     0.812795     0.805152     0.797508
      0.789865     0.782222     0.774579     0.766936     0.759293     0.751650     0.744007     0.736364     0.728721     0.721077
      0.713434     0.705791     0.698148     0.690505     0.682862     0.675219     0.667576     0.659933     0.652290     0.644646
      0.637003     0.629360     0.621717     0.614074     0.606431     0.598788     0.591145     0.583502     0.575858     0.568215
      0.560572     0.552929     0.545286     0.537643     0.530000     0.522357     0.514714     0.507071     0.499427     0.491784
      0.484141     0.476498     0.468855     0.461212     0.453569     0.445925     0.438282     0.430639     0.422996     0.415353
      0.407710     0.400067     0.392424     0.384780     0.377137     0.369494     0.361851     0.354208     0.346565     0.338922
      0.331278     0.323635     0.315992     0.308349     0.300706     0.293063     0.285420     0.277777     0.270133     0.262490
      0.254847     0.247204     0.239561     0.231918     0.224275     0.216631     0.208988     0.201345
 NY phased data points follow
  -2.11262E+01 -2.03733E+01 -1.94797E+01 -1.91696E+01 -1.26802E+01 -1.19714E+01 -7.55367E+00 -7.11938E+00 -1.16948E+00 -1.68598E-01
  -1.34499E+00 -1.29288E+00 -5.45237E+00 -1.36600E+01 -9.54165E+00 -1.49886E+01 -1.08007E+01 -1.61591E+01 -1.63833E+01 -1.66476E+01
  -1.55426E+01 -1.73786E+01 -1.24616E+01 -1.64402E+01 -1.31457E+01 -1.70910E+01 -1.13543E+01 -1.40231E+01 -7.49194E+00 -1.22359E+01
  -8.63166E+00 -9.61489E+00 -1.05398E+01 -1.13414E+01 -1.08862E+01 -1.50874E+01 -1.25703E+01 -1.68587E+01 -1.04960E+01 -1.46923E+01
  -1.22514E+01 -1.24243E+01 -9.30424E+00 -1.28928E+01 -1.12598E+01 -6.74003E+00 -6.97575E+00 -7.36222E+00 -6.70075E+00 -1.15190E+01
  -9.26792E+00 -1.18726E+01 -1.24517E+01 -8.67849E+00 -7.64515E+00 -1.27692E+01 -6.94287E+00 -7.90334E+00 -8.30473E+00 -1.05547E+01
  -1.18578E+01 -1.09944E+01 -9.61021E+00 -1.37034E+01 -1.36632E+01 -1.59892E+01 -1.19706E+01 -1.35446E+01 -1.35330E+01 -1.80228E+01
  -1.42450E+01 -1.19802E+01 -9.46975E+00 -1.33924E+01 -1.13217E+01 -1.24379E+01 -9.87666E+00 -1.14007E+01 -8.10843E+00 -1.09870E+01
  -9.17697E+00 -1.35498E+01 -9.08807E+00 -1.13070E+01 -1.19110E+01 -1.13915E+01 -1.28348E+01 -1.03554E+01 -9.19610E+00 -9.83542E+00
  -9.84137E+00 -1.34044E+01 -1.19190E+01 -1.20584E+01 -7.01946E+00 -1.13814E+01 -6.71875E+00 -1.14545E+01 -5.22568E+00 -1.69149E+00
   1.79080E+00  7.42002E+00  9.65550E+00  1.40490E+01  7.96984E+00  6.44824E+00 -1.10938E+00 -5.59726E-01  9.15641E-01 -2.26917E+00
  -5.78645E+00 -7.97833E+00 -8.16529E+00 -8.74804E+00 -8.29786E+00 -1.21655E+01 -7.34621E+00 -9.01300E+00 -1.05324E+01 -1.48702E+01
  -7.71224E+00 -9.60396E+00 -2.93139E+00 -2.80272E-02  9.58951E+00  1.38962E+01  1.78757E+01  1.99530E+01  2.02607E+01  1.41389E+01
   9.73434E+00  2.62214E+00  1.14312E+00 -5.34153E+00 -4.92727E-01 -6.41597E+00 -6.38606E+00 -8.07154E+00 -8.95688E+00 -1.01599E+01
  -5.78602E+00 -9.28506E+00 -4.06076E+00 -8.19942E+00 -6.26726E+00 -6.56882E+00 -8.44231E+00 -1.13289E+01 -7.70905E+00 -9.64788E+00
  -6.74354E+00 -1.07457E+01 -8.10083E+00 -7.60052E+00 -1.02339E+01 -9.45803E+00 -9.08343E+00 -7.43490E+00 -6.05194E+00 -1.00754E+01
  -8.04730E+00 -1.03540E+01 -9.99159E+00 -8.33147E+00 -6.54507E+00 -4.97061E+00 -3.75435E+00 -8.32757E+00 -7.84702E+00 -9.59044E+00
  -8.74398E+00 -1.09984E+01 -1.01773E+01 -1.43269E+01 -1.25158E+01 -1.39246E+01 -1.57606E+01 -1.18787E+01 -1.33137E+01 -1.28233E+01
  -1.15720E+01 -1.39425E+01 -9.88132E+00 -9.34800E+00 -1.31590E+01 -1.10842E+01 -1.23739E+01 -1.11078E+01 -1.21119E+01 -7.24780E+00
  -4.48741E+00 -6.38898E+00 -2.37942E+00 -3.00864E+00 -2.58664E+00 -4.21542E+00 -3.63114E+00 -7.65951E+00 -4.11729E+00 -7.21423E+00
  -4.89921E+00 -5.78476E+00 -3.32805E+00 -4.30898E+00 -8.66735E-01 -2.32205E+00 -5.22555E+00 -5.26846E+00 -1.14982E+01 -7.05119E+00
  -7.29782E+00 -5.62237E+00 -1.39579E-01  1.87980E-01  1.24653E+00  3.47895E-01  6.97731E+00  3.16144E+00 -1.47795E-01 -2.77071E+00
  -5.70699E+00 -4.20310E+00 -3.79711E+00 -5.03129E+00 -4.88176E-01  1.09966E+00  2.65774E+00  1.32720E+00  3.30899E+00  2.12419E+00
   1.36547E+00  4.52067E+00  3.03524E+00  2.40530E+00  6.92707E+00  4.39017E+00  3.88228E+00  2.55838E+00  3.64000E+00  4.24019E+00
   7.83656E-01 -1.83217E+00  3.17836E+00  2.68008E+00  4.29105E+00  1.03888E+00  4.79960E+00  5.42726E+00  7.96194E+00  4.52128E+00
   5.76319E+00  4.65067E+00  3.66917E+00  2.22969E+00  6.08718E+00  6.90697E+00  1.48912E+01  2.45798E+01  3.30968E+01  4.54392E+01
   4.67890E+01  5.10822E+01  4.00911E+01  3.27386E+01  2.58535E+01  1.97903E+01  1.46564E+01  1.12534E+01  7.41499E+00  5.98911E+00
   5.68461E+00  2.02085E+00  5.02583E+00  9.80515E-01  3.53188E+00 -2.11003E+00  1.03862E+00  2.22970E+00  3.35112E+00 -8.15422E-01
   3.40843E+00  1.15065E+00  2.54896E+00  2.70201E+00 -8.77782E-01 -5.62173E-01  4.22081E+00 -1.00098E+00 -1.33426E+00  2.63080E+00
   7.34069E-01  5.90237E-01  1.64742E+00  5.95071E-01  1.32521E+00  2.82645E+00  3.37302E+00 -3.86494E-01 -7.99305E-01  2.91890E+00
  -1.44671E+00  2.79129E+00 -1.33677E+00  7.21472E-01 -1.69887E-01 -8.45803E-01  1.42203E+00  1.01788E+00  6.66314E-02  3.19685E+00
   8.19643E+00  6.26690E+00  5.39362E+00  5.59826E+00  6.74524E+00  6.84794E+00  6.36857E+00  6.08235E+00  9.02733E+00  8.60564E+00
   7.35605E+00  8.11011E+00  8.01539E+00  9.78857E+00  7.45715E+00  7.66187E+00  6.16043E+00  7.18611E+00  5.76893E+00  4.88791E+00
   7.86030E+00  1.18079E+01  9.33342E+00  1.10424E+01  9.08742E+00  8.52052E+00  6.80577E+00  6.26068E+00  1.01355E+01  1.00761E+01
   9.99024E+00  6.86484E+00  8.56154E+00  1.10787E+01  9.53275E+00  7.89455E+00  8.34111E+00  8.36038E+00  6.28182E+00  5.81793E+00
   5.58340E+00  4.19320E+00  6.75042E+00  4.06870E+00  5.05662E+00  5.34626E+00  5.85217E+00  9.58696E+00  9.33446E+00  7.14804E+00
   5.88293E+00  7.06323E+00  8.64355E+00  3.31962E+00  3.04419E+00  5.02828E+00  2.70492E+00  2.68972E+00  2.16719E+00  6.36667E+00
   3.61238E+00  1.78610E+00  2.27591E+00  5.10628E+00  3.98396E+00  4.18674E+00  8.42610E-01  5.09896E+00  2.00013E+00  4.49184E+00
   2.90194E+00 -2.24352E+00  7.17181E-01  2.31242E+00  3.70833E+00  1.36867E+00  3.64850E-01  3.74519E+00 -6.45819E-01  2.57951E+00
   9.64819E-01  8.09043E-01  1.33263E+00  4.39882E+00  6.10479E+00  6.38611E-01  5.18165E-01  1.07170E+00 -2.21944E-01  4.79461E+00
   4.21734E+00  2.93631E+00  2.55837E+00  4.77765E+00  3.39579E+00  2.65189E+00  5.64184E+00  6.20729E+00  3.51244E+00  4.45081E+00
   6.02331E+00  2.54002E+00  5.98787E+00  2.30832E+00  1.15692E+00  4.77203E+00  1.96744E+00  1.44582E+00  1.22745E+00 -2.43232E-01
   7.41264E-01 -5.12417E-01  4.00865E+00  1.56800E+00  3.13116E-01  1.35956E+00  4.19761E-01  9.93552E-01  1.49643E+00 -1.25451E-01
  -1.42894E+00 -1.88171E+00  1.93927E+00  2.66962E+00 -2.72941E+00 -3.23331E-01  2.92990E+00  1.80895E+00  4.53986E+00 -4.60055E-01
  -8.66235E-01  1.07389E-01  2.67205E-01 -7.98119E-01 -2.33584E-02 -7.51544E-01  6.08192E-01 -9.67948E-01  2.50638E+00 -9.03241E-01
  -1.41788E+00 -1.36865E+00  7.79669E-01  8.25854E-01 -8.41561E-01  4.99018E-01  1.92873E-01  1.43715E+00  1.37158E+00  7.94845E-01
   1.09778E+00 -8.27894E-01 -1.87648E-01 -1.56282E+00 -2.08014E+00 -1.60999E+00 -5.27733E-01  7.10343E-01  1.88646E+00 -1.44259E-01
   1.71818E+00  2.27529E+00 -5.46496E-01 -1.42219E+00  1.01245E+00 -2.17117E+00  2.50492E-01 -2.02205E+00 -2.61780E+00 -1.16856E-01
  -1.39375E+00 -2.43138E-01 -3.62041E-01  3.44328E+00  1.15734E+00  1.70726E+00  1.50439E-02  1.37035E+00 -2.73526E+00  2.32960E+00
   2.35708E-01 -1.58700E+00  1.45303E-01 -1.95700E-01  1.29296E+00 -1.29669E+00  1.47689E+00 -1.66256E+00
 NY points of the fit to the data follow
  -1.74673E+01 -1.74938E+01 -1.74140E+01 -1.71036E+01 -1.54833E+01 -1.22678E+01 -8.54198E+00 -4.95491E+00 -2.09287E+00 -5.97805E-01
  -1.14929E+00 -3.58863E+00 -6.50579E+00 -8.74953E+00 -9.98244E+00 -1.08943E+01 -1.25248E+01 -1.39915E+01 -1.43724E+01 -1.44794E+01
  -1.44776E+01 -1.44109E+01 -1.43756E+01 -1.45700E+01 -1.48316E+01 -1.46195E+01 -1.40377E+01 -1.30673E+01 -1.17427E+01 -1.01701E+01
  -8.73604E+00 -8.08845E+00 -8.31100E+00 -9.17892E+00 -1.03776E+01 -1.14541E+01 -1.25998E+01 -1.36872E+01 -1.40698E+01 -1.40952E+01
  -1.39572E+01 -1.36307E+01 -1.28398E+01 -1.15813E+01 -1.02727E+01 -9.08838E+00 -8.21146E+00 -8.01679E+00 -8.56166E+00 -9.70749E+00
  -1.09872E+01 -1.18585E+01 -1.22876E+01 -1.26531E+01 -1.30141E+01 -1.30611E+01 -1.26940E+01 -1.21785E+01 -1.17198E+01 -1.14075E+01
  -1.13550E+01 -1.15810E+01 -1.19812E+01 -1.23816E+01 -1.25453E+01 -1.25194E+01 -1.24302E+01 -1.22351E+01 -1.20208E+01 -1.17905E+01
  -1.15085E+01 -1.11407E+01 -1.07815E+01 -1.05519E+01 -1.04829E+01 -1.05197E+01 -1.07057E+01 -1.09520E+01 -1.12432E+01 -1.14857E+01
  -1.15302E+01 -1.13427E+01 -1.10220E+01 -1.07903E+01 -1.06609E+01 -1.06680E+01 -1.08167E+01 -1.10785E+01 -1.14376E+01 -1.17318E+01
  -1.18315E+01 -1.17271E+01 -1.16254E+01 -1.16839E+01 -1.17452E+01 -1.15857E+01 -1.12930E+01 -1.04288E+01 -7.37309E+00 -2.56474E+00
   2.68398E+00  7.55592E+00  1.10641E+01  1.22813E+01  1.02953E+01  6.06138E+00  1.65215E+00 -1.34749E+00 -2.98802E+00 -4.66954E+00
  -7.39414E+00 -9.04554E+00 -9.46475E+00 -9.57695E+00 -9.60176E+00 -9.62336E+00 -9.61416E+00 -9.57606E+00 -9.51237E+00 -9.38823E+00
  -9.12515E+00 -8.23912E+00 -4.65524E+00  1.36757E+00  8.00087E+00  1.41789E+01  1.87341E+01  2.05820E+01  1.84878E+01  1.34702E+01
   8.05869E+00  4.15796E+00  1.88461E+00 -4.18891E-01 -4.30560E+00 -7.10159E+00 -7.93555E+00 -8.05454E+00 -7.82538E+00 -7.47108E+00
  -7.21003E+00 -7.05868E+00 -6.97915E+00 -7.01888E+00 -7.10077E+00 -7.17010E+00 -7.26676E+00 -7.36873E+00 -7.49863E+00 -7.63234E+00
  -7.73032E+00 -7.79826E+00 -7.83164E+00 -7.82767E+00 -7.78955E+00 -7.72984E+00 -7.72565E+00 -7.86612E+00 -8.10051E+00 -8.35604E+00
  -8.50932E+00 -8.47545E+00 -8.31499E+00 -8.05836E+00 -7.82362E+00 -7.75698E+00 -7.94636E+00 -8.30998E+00 -8.58213E+00 -8.68675E+00
  -8.78161E+00 -8.96169E+00 -9.34678E+00 -9.73110E+00 -9.88646E+00 -9.89348E+00 -9.80196E+00 -9.67346E+00 -9.45424E+00 -9.25229E+00
  -9.19958E+00 -9.26562E+00 -9.34562E+00 -9.32091E+00 -9.10338E+00 -8.85078E+00 -8.46651E+00 -7.80022E+00 -6.86725E+00 -5.87038E+00
  -5.21051E+00 -5.00114E+00 -5.13722E+00 -5.43514E+00 -5.65913E+00 -5.73297E+00 -5.74375E+00 -5.55023E+00 -5.17124E+00 -4.56938E+00
  -3.72746E+00 -2.82887E+00 -2.14119E+00 -1.79520E+00 -1.94954E+00 -2.81569E+00 -4.13048E+00 -5.52471E+00 -6.71604E+00 -7.35296E+00
  -7.15323E+00 -5.88355E+00 -3.98449E+00 -2.02143E+00 -3.69834E-01  6.44422E-01  7.82574E-01 -3.02436E-01 -2.65041E+00 -5.09406E+00
  -6.64288E+00 -7.23169E+00 -7.06077E+00 -6.19296E+00 -4.39070E+00 -2.29407E+00 -8.23874E-01 -1.19628E-01  2.08398E-01  5.69259E-01
   8.19847E-01  7.24995E-01  7.00642E-01  1.08451E+00  1.61559E+00  2.12741E+00  2.57686E+00  2.91669E+00  2.95725E+00  2.66335E+00
   2.20019E+00  1.90234E+00  1.94532E+00  2.33409E+00  2.90646E+00  3.57992E+00  4.16005E+00  4.46867E+00  4.62467E+00  4.86305E+00
   5.28989E+00  5.70442E+00  6.14402E+00  6.63332E+00  7.25891E+00  9.26581E+00  1.57330E+01  2.50620E+01  3.47612E+01  4.32687E+01
   4.86175E+01  4.90274E+01  4.30931E+01  3.36482E+01  2.47434E+01  1.89103E+01  1.54161E+01  1.13471E+01  5.54846E+00  2.58543E+00
   1.72108E+00  1.31083E+00  1.14070E+00  1.11695E+00  1.07499E+00  9.91453E-01  8.43138E-01  6.50629E-01  4.49372E-01  2.68274E-01
   8.77164E-02 -8.46488E-02 -2.10027E-01 -2.90820E-01 -3.43718E-01 -3.75451E-01 -3.91864E-01 -3.91284E-01 -3.72641E-01 -3.47447E-01
  -3.09080E-01 -2.53921E-01 -1.83931E-01 -9.76134E-02  9.46225E-03  1.40783E-01  2.94238E-01  4.68524E-01  6.66087E-01  8.86756E-01
   1.12828E+00  1.39110E+00  1.67265E+00  1.97033E+00  2.28069E+00  2.60052E+00  2.92667E+00  3.25628E+00  3.58581E+00  3.91152E+00
   4.22914E+00  4.53627E+00  4.83100E+00  5.11173E+00  5.37737E+00  5.62783E+00  5.86356E+00  6.08608E+00  6.29702E+00  6.49846E+00
   6.69222E+00  6.88059E+00  7.06574E+00  7.24626E+00  7.41913E+00  7.58314E+00  7.73625E+00  7.87673E+00  8.00272E+00  8.11475E+00
   8.21558E+00  8.30605E+00  8.38182E+00  8.43906E+00  8.47660E+00  8.49812E+00  8.50326E+00  8.49270E+00  8.47563E+00  8.46749E+00
   8.49118E+00  8.59094E+00  8.87917E+00  9.27609E+00  9.44222E+00  9.27897E+00  8.74931E+00  7.84155E+00  6.59369E+00  5.20752E+00
   4.28151E+00  4.14956E+00  4.60754E+00  5.31135E+00  6.00737E+00  6.77562E+00  7.49341E+00  7.67142E+00  7.41560E+00  7.01867E+00
   6.70397E+00  6.45073E+00  5.98734E+00  5.40644E+00  4.97142E+00  4.61491E+00  4.29575E+00  4.00101E+00  3.72545E+00  3.46717E+00
   3.22544E+00  3.00064E+00  2.79323E+00  2.60413E+00  2.43391E+00  2.28338E+00  2.15303E+00  2.04359E+00  1.95538E+00  1.88886E+00
   1.84407E+00  1.82123E+00  1.82025E+00  1.84129E+00  1.88414E+00  1.94869E+00  2.03440E+00  2.14082E+00  2.26706E+00  2.41226E+00
   2.57488E+00  2.75325E+00  2.94495E+00  3.14737E+00  3.35724E+00  3.57104E+00  3.78456E+00  3.99342E+00  4.19277E+00  4.37793E+00
   4.54405E+00  4.68674E+00  4.80172E+00  4.88554E+00  4.93524E+00  4.94904E+00  4.92588E+00  4.86598E+00  4.77025E+00  4.64083E+00
   4.48050E+00  4.29309E+00  4.08269E+00  3.85404E+00  3.61174E+00  3.36069E+00  3.10537E+00  2.85021E+00  2.59895E+00  2.35499E+00
   2.12089E+00  1.89894E+00  1.69057E+00  1.49698E+00  1.31854E+00  1.15548E+00  1.00739E+00  8.73877E-01  7.54117E-01  6.47382E-01
   5.52570E-01  4.68779E-01  3.94869E-01  3.30009E-01  2.73171E-01  2.23620E-01  1.80406E-01  1.42909E-01  1.10356E-01  8.23189E-02
   5.81758E-02  3.75882E-02  2.00052E-02  5.18988E-03 -7.27735E-03 -1.75142E-02 -2.58741E-02 -3.24556E-02 -3.75865E-02 -4.13008E-02
  -4.38405E-02 -4.51799E-02 -4.55534E-02 -4.49548E-02 -4.36074E-02 -4.14514E-02 -3.86542E-02 -3.51422E-02 -3.11093E-02 -2.65017E-02
  -2.14883E-02 -1.59633E-02 -1.00631E-02 -3.69713E-03  2.96089E-03  9.99131E-03  1.72553E-02  2.48766E-02  3.27248E-02  4.08961E-02
   4.92330E-02  5.78372E-02  6.65904E-02  7.56226E-02  8.48047E-02  9.42304E-02  1.03753E-01  1.13489E-01  1.23327E-01  1.33400E-01
   1.43574E-01  1.53947E-01  1.64385E-01  1.75018E-01  1.85743E-01  1.96686E-01  2.07712E-01  2.18926E-01  2.30206E-01  2.41694E-01
   2.53288E-01  2.65111E-01  2.77031E-01  2.89165E-01  3.01411E-01  3.13920E-01  3.26596E-01  3.39564E-01
 NY background values follow
    -1.839E+01   -1.832E+01   -1.826E+01   -1.820E+01   -1.813E+01   -1.807E+01   -1.800E+01   -1.794E+01   -1.788E+01   -1.781E+01
    -1.775E+01   -1.769E+01   -1.762E+01   -1.756E+01   -1.749E+01   -1.743E+01   -1.737E+01   -1.730E+01   -1.724E+01   -1.717E+01
    -1.711E+01   -1.705E+01   -1.698E+01   -1.692E+01   -1.686E+01   -1.679E+01   -1.673E+01   -1.666E+01   -1.660E+01   -1.654E+01
    -1.647E+01   -1.641E+01   -1.634E+01   -1.628E+01   -1.622E+01   -1.615E+01   -1.609E+01   -1.603E+01   -1.596E+01   -1.590E+01
    -1.584E+01   -1.577E+01   -1.571E+01   -1.565E+01   -1.558E+01   -1.552E+01   -1.546E+01   -1.539E+01   -1.533E+01   -1.527E+01
    -1.520E+01   -1.514E+01   -1.508E+01   -1.501E+01   -1.495E+01   -1.489E+01   -1.482E+01   -1.476E+01   -1.470E+01   -1.464E+01
    -1.457E+01   -1.451E+01   -1.445E+01   -1.439E+01   -1.432E+01   -1.426E+01   -1.420E+01   -1.414E+01   -1.407E+01   -1.401E+01
    -1.395E+01   -1.389E+01   -1.383E+01   -1.376E+01   -1.370E+01   -1.364E+01   -1.358E+01   -1.352E+01   -1.345E+01   -1.339E+01
    -1.333E+01   -1.327E+01   -1.321E+01   -1.315E+01   -1.309E+01   -1.302E+01   -1.296E+01   -1.290E+01   -1.284E+01   -1.278E+01
    -1.272E+01   -1.266E+01   -1.260E+01   -1.254E+01   -1.248E+01   -1.242E+01   -1.236E+01   -1.230E+01   -1.224E+01   -1.218E+01
    -1.212E+01   -1.206E+01   -1.200E+01   -1.194E+01   -1.188E+01   -1.182E+01   -1.176E+01   -1.170E+01   -1.164E+01   -1.158E+01
    -1.152E+01   -1.146E+01   -1.140E+01   -1.134E+01   -1.128E+01   -1.122E+01   -1.116E+01   -1.110E+01   -1.104E+01   -1.099E+01
    -1.093E+01   -1.087E+01   -1.081E+01   -1.075E+01   -1.069E+01   -1.063E+01   -1.058E+01   -1.052E+01   -1.046E+01   -1.040E+01
    -1.034E+01   -1.029E+01   -1.023E+01   -1.017E+01   -1.011E+01   -1.005E+01   -9.996E+00   -9.938E+00   -9.880E+00   -9.822E+00
    -9.765E+00   -9.707E+00   -9.650E+00   -9.593E+00   -9.535E+00   -9.478E+00   -9.421E+00   -9.364E+00   -9.307E+00   -9.250E+00
    -9.193E+00   -9.136E+00   -9.079E+00   -9.022E+00   -8.966E+00   -8.909E+00   -8.852E+00   -8.796E+00   -8.740E+00   -8.683E+00
    -8.627E+00   -8.571E+00   -8.515E+00   -8.458E+00   -8.402E+00   -8.346E+00   -8.291E+00   -8.235E+00   -8.179E+00   -8.123E+00
    -8.068E+00   -8.012E+00   -7.957E+00   -7.901E+00   -7.846E+00   -7.791E+00   -7.736E+00   -7.680E+00   -7.625E+00   -7.570E+00
    -7.515E+00   -7.461E+00   -7.406E+00   -7.351E+00   -7.297E+00   -7.242E+00   -7.188E+00   -7.133E+00   -7.079E+00   -7.025E+00
    -6.971E+00   -6.917E+00   -6.863E+00   -6.810E+00   -6.756E+00   -6.703E+00   -6.650E+00   -6.596E+00   -6.543E+00   -6.491E+00
    -6.438E+00   -6.385E+00   -6.333E+00   -6.281E+00   -6.228E+00   -6.177E+00   -6.125E+00   -6.073E+00   -6.022E+00   -5.971E+00
    -5.920E+00   -5.869E+00   -5.818E+00   -5.768E+00   -5.717E+00   -5.667E+00   -5.618E+00   -5.568E+00   -5.519E+00   -5.469E+00
    -5.420E+00   -5.372E+00   -5.323E+00   -5.275E+00   -5.227E+00   -5.179E+00   -5.132E+00   -5.084E+00   -5.037E+00   -4.991E+00
    -4.944E+00   -4.898E+00   -4.852E+00   -4.806E+00   -4.761E+00   -4.716E+00   -4.671E+00   -4.626E+00   -4.582E+00   -4.537E+00
    -4.493E+00   -4.450E+00   -4.406E+00   -4.363E+00   -4.320E+00   -4.278E+00   -4.235E+00   -4.193E+00   -4.152E+00   -4.110E+00
    -4.069E+00   -4.028E+00   -3.987E+00   -3.947E+00   -3.906E+00   -3.866E+00   -3.827E+00   -3.787E+00   -3.748E+00   -3.709E+00
    -3.671E+00   -3.632E+00   -3.594E+00   -3.557E+00   -3.519E+00   -3.482E+00   -3.445E+00   -3.408E+00   -3.372E+00   -3.336E+00
    -3.300E+00   -3.264E+00   -3.229E+00   -3.194E+00   -3.159E+00   -3.124E+00   -3.090E+00   -3.056E+00   -3.023E+00   -2.989E+00
    -2.956E+00   -2.923E+00   -2.891E+00   -2.858E+00   -2.826E+00   -2.794E+00   -2.763E+00   -2.731E+00   -2.700E+00   -2.670E+00
    -2.639E+00   -2.609E+00   -2.579E+00   -2.549E+00   -2.519E+00   -2.490E+00   -2.461E+00   -2.432E+00   -2.404E+00   -2.376E+00
    -2.347E+00   -2.320E+00   -2.292E+00   -2.265E+00   -2.238E+00   -2.211E+00   -2.184E+00   -2.158E+00   -2.132E+00   -2.106E+00
    -2.080E+00   -2.055E+00   -2.030E+00   -2.005E+00   -1.980E+00   -1.956E+00   -1.931E+00   -1.907E+00   -1.884E+00   -1.860E+00
    -1.837E+00   -1.813E+00   -1.791E+00   -1.768E+00   -1.745E+00   -1.723E+00   -1.701E+00   -1.679E+00   -1.657E+00   -1.636E+00
    -1.615E+00   -1.593E+00   -1.573E+00   -1.552E+00   -1.531E+00   -1.511E+00   -1.491E+00   -1.471E+00   -1.451E+00   -1.431E+00
    -1.412E+00   -1.393E+00   -1.374E+00   -1.355E+00   -1.336E+00   -1.317E+00   -1.299E+00   -1.281E+00   -1.263E+00   -1.245E+00
    -1.227E+00   -1.209E+00   -1.192E+00   -1.174E+00   -1.157E+00   -1.140E+00   -1.123E+00   -1.106E+00   -1.090E+00   -1.073E+00
    -1.057E+00   -1.041E+00   -1.025E+00   -1.009E+00   -9.927E-01   -9.770E-01   -9.613E-01   -9.458E-01   -9.304E-01   -9.151E-01
    -8.999E-01   -8.849E-01   -8.699E-01   -8.551E-01   -8.403E-01   -8.256E-01   -8.111E-01   -7.966E-01   -7.822E-01   -7.679E-01
    -7.537E-01   -7.396E-01   -7.256E-01   -7.116E-01   -6.977E-01   -6.839E-01   -6.702E-01   -6.566E-01   -6.430E-01   -6.295E-01
    -6.160E-01   -6.026E-01   -5.893E-01   -5.760E-01   -5.628E-01   -5.497E-01   -5.366E-01   -5.235E-01   -5.105E-01   -4.976E-01
    -4.846E-01   -4.718E-01   -4.589E-01   -4.461E-01   -4.334E-01   -4.206E-01   -4.079E-01   -3.953E-01   -3.826E-01   -3.700E-01
    -3.574E-01   -3.448E-01   -3.323E-01   -3.197E-01   -3.073E-01   -2.948E-01   -2.823E-01   -2.699E-01   -2.575E-01   -2.451E-01
    -2.328E-01   -2.205E-01   -2.081E-01   -1.959E-01   -1.836E-01   -1.714E-01   -1.591E-01   -1.470E-01   -1.348E-01   -1.226E-01
    -1.105E-01   -9.838E-02   -8.629E-02   -7.422E-02   -6.217E-02   -5.014E-02   -3.813E-02   -2.614E-02   -1.416E-02   -2.209E-03
     9.727E-03    2.164E-02    3.354E-02    4.543E-02    5.729E-02    6.914E-02    8.097E-02    9.278E-02    1.046E-01    1.164E-01
     1.281E-01    1.399E-01    1.516E-01    1.633E-01    1.750E-01    1.867E-01    1.984E-01    2.100E-01    2.217E-01    2.333E-01
     2.449E-01    2.566E-01    2.681E-01    2.797E-01    2.913E-01    3.029E-01    3.144E-01    3.259E-01    3.375E-01    3.490E-01
     3.605E-01    3.720E-01    3.835E-01    3.950E-01    4.064E-01    4.179E-01    4.294E-01    4.408E-01    4.522E-01    4.637E-01
     4.751E-01    4.865E-01    4.980E-01    5.094E-01    5.208E-01    5.322E-01    5.436E-01    5.550E-01    5.664E-01    5.777E-01
     5.891E-01    6.005E-01    6.119E-01    6.233E-01    6.346E-01    6.460E-01    6.574E-01    6.687E-01
 Ala      Conc. = 2.16E+00
