 LCModel (Version 6.3-1L) Copyright: S.W. Provencher.          Ref.: Magn. Reson. Med. 30:672-679 (1993).                
 Slice#1 Row#6 Col#2  PD_24_press_2_raw_act
 36 lines in following concentration table = NCONC+1
    Conc.  %SD /Cr+PCr  Metabolite                                         
    0.000 999%   0.000 Ala                                                 
    0.000 999%   0.000 Asp                                                 
 2.03E+03   7%   1.000 Cr                                                  
    0.000 999%   0.000 PCr                                                 
  151.568 175% 7.5E-02 GABA                                                
   47.480 534% 2.3E-02 Glc                                                 
 3.21E+03  34%   1.581 Gln                                                 
 3.77E+03  32%   1.857 Glu                                                 
  958.518   6%   0.472 GPC                                                 
    0.000 999%   0.000 PCh                                                 
 1.03E+03  22%   0.507 GSH                                                 
 3.40E+03  21%   1.677 Ins                                                 
    0.000 999%   0.000 Lac                                                 
 2.22E+03  17%   1.092 NAA                                                 
 2.10E+03  18%   1.037 NAAG                                                
  233.262  25%   0.115 Scyllo                                              
  302.246 121%   0.149 Tau                                                 
  329.442  76%   0.162 -CrCH2                                              
  958.518   6%   0.472 GPC+PCh                                             
 4.32E+03   5%   2.129 NAA+NAAG                                            
 2.03E+03   7%   1.000 Cr+PCr                                              
 6.98E+03  29%   3.438 Glu+Gln                                             
 4.66E+03  16%   2.297 Lip13a                                              
    0.000 999%   0.000 Lip13b                                              
    0.000 999%   0.000 Lip09                                               
 3.43E+03  11%   1.689 MM09                                                
 1.64E+03  24%   0.809 Lip20                                               
 6.93E+03  11%   3.416 MM20                                                
 1.14E+03  26%   0.563 MM12                                                
 5.95E+03   5%   2.929 MM14                                                
    0.000 999%   0.000 MM17                                                
 4.66E+03  16%   2.297 Lip13a+Lip13b                                       
 1.18E+04   5%   5.789 MM14+Lip13a+Lip13b+MM12                             
 3.43E+03  11%   1.689 MM09+Lip09                                          
 8.58E+03   8%   4.225 MM20+Lip20                                          
   6 lines in following misc. output table
  FWHM = 0.092 ppm    S/N =   9                                            
  Data shift =-0.038 ppm                                                   
  Ph:   0 deg       7.9 deg/ppm                                            
  alphaB,S = 9.0E-01,   9.0E+01                                            
   14 spline knots.   Ns = 6(2)                                            
  ( 7) 2 infls.   ( 1) 1 extrs.                                            
  498 points on ppm-axis = NY
      4.000000     3.992357     3.984714     3.977070     3.969427     3.961784     3.954141     3.946497     3.938854     3.931211
      3.923568     3.915925     3.908281     3.900638     3.892995     3.885352     3.877708     3.870065     3.862422     3.854779
      3.847136     3.839492     3.831849     3.824206     3.816563     3.808919     3.801276     3.793633     3.785990     3.778347
      3.770703     3.763060     3.755417     3.747774     3.740130     3.732487     3.724844     3.717201     3.709558     3.701914
      3.694271     3.686628     3.678985     3.671341     3.663698     3.656055     3.648412     3.640769     3.633125     3.625482
      3.617839     3.610196     3.602552     3.594909     3.587266     3.579623     3.571980     3.564336     3.556693     3.549050
      3.541407     3.533763     3.526120     3.518477     3.510834     3.503191     3.495547     3.487904     3.480261     3.472618
      3.464974     3.457331     3.449688     3.442045     3.434402     3.426758     3.419115     3.411472     3.403829     3.396185
      3.388542     3.380899     3.373256     3.365613     3.357969     3.350326     3.342683     3.335040     3.327396     3.319753
      3.312110     3.304467     3.296824     3.289180     3.281537     3.273894     3.266251     3.258607     3.250964     3.243321
      3.235678     3.228034     3.220391     3.212748     3.205105     3.197462     3.189818     3.182175     3.174532     3.166889
      3.159245     3.151602     3.143959     3.136316     3.128673     3.121029     3.113386     3.105743     3.098100     3.090456
      3.082813     3.075170     3.067527     3.059884     3.052240     3.044597     3.036954     3.029311     3.021667     3.014024
      3.006381     2.998738     2.991095     2.983451     2.975808     2.968165     2.960522     2.952878     2.945235     2.937592
      2.929949     2.922306     2.914662     2.907019     2.899376     2.891733     2.884089     2.876446     2.868803     2.861160
      2.853517     2.845873     2.838230     2.830587     2.822944     2.815300     2.807657     2.800014     2.792371     2.784728
      2.777084     2.769441     2.761798     2.754155     2.746511     2.738868     2.731225     2.723582     2.715939     2.708295
      2.700652     2.693009     2.685366     2.677722     2.670079     2.662436     2.654793     2.647150     2.639506     2.631863
      2.624220     2.616577     2.608933     2.601290     2.593647     2.586004     2.578361     2.570717     2.563074     2.555431
      2.547788     2.540144     2.532501     2.524858     2.517215     2.509572     2.501928     2.494285     2.486642     2.478999
      2.471355     2.463712     2.456069     2.448426     2.440783     2.433139     2.425496     2.417853     2.410210     2.402566
      2.394923     2.387280     2.379637     2.371994     2.364350     2.356707     2.349064     2.341421     2.333777     2.326134
      2.318491     2.310848     2.303205     2.295561     2.287918     2.280275     2.272632     2.264988     2.257345     2.249702
      2.242059     2.234416     2.226772     2.219129     2.211486     2.203843     2.196199     2.188556     2.180913     2.173270
      2.165627     2.157983     2.150340     2.142697     2.135054     2.127410     2.119767     2.112124     2.104481     2.096838
      2.089194     2.081551     2.073908     2.066265     2.058621     2.050978     2.043335     2.035692     2.028049     2.020405
      2.012762     2.005119     1.997476     1.989833     1.982190     1.974546     1.966903     1.959260     1.951617     1.943974
      1.936331     1.928688     1.921045     1.913402     1.905759     1.898115     1.890472     1.882829     1.875186     1.867543
      1.859900     1.852257     1.844614     1.836971     1.829327     1.821684     1.814041     1.806398     1.798755     1.791112
      1.783469     1.775826     1.768183     1.760540     1.752896     1.745253     1.737610     1.729967     1.722324     1.714681
      1.707038     1.699395     1.691752     1.684108     1.676465     1.668822     1.661179     1.653536     1.645893     1.638250
      1.630607     1.622964     1.615321     1.607677     1.600034     1.592391     1.584748     1.577105     1.569462     1.561819
      1.554176     1.546533     1.538890     1.531246     1.523603     1.515960     1.508317     1.500674     1.493031     1.485388
      1.477745     1.470102     1.462458     1.454815     1.447172     1.439529     1.431886     1.424243     1.416600     1.408957
      1.401314     1.393671     1.386027     1.378384     1.370741     1.363098     1.355455     1.347812     1.340169     1.332526
      1.324883     1.317240     1.309596     1.301953     1.294310     1.286667     1.279024     1.271381     1.263738     1.256095
      1.248452     1.240808     1.233165     1.225522     1.217879     1.210236     1.202593     1.194950     1.187307     1.179664
      1.172021     1.164377     1.156734     1.149091     1.141448     1.133805     1.126162     1.118519     1.110876     1.103233
      1.095590     1.087946     1.080303     1.072660     1.065017     1.057374     1.049731     1.042088     1.034445     1.026802
      1.019158     1.011515     1.003872     0.996229     0.988586     0.980943     0.973300     0.965657     0.958014     0.950371
      0.942727     0.935084     0.927441     0.919798     0.912155     0.904512     0.896869     0.889226     0.881583     0.873940
      0.866296     0.858653     0.851010     0.843367     0.835724     0.828081     0.820438     0.812795     0.805152     0.797508
      0.789865     0.782222     0.774579     0.766936     0.759293     0.751650     0.744007     0.736364     0.728721     0.721077
      0.713434     0.705791     0.698148     0.690505     0.682862     0.675219     0.667576     0.659933     0.652290     0.644646
      0.637003     0.629360     0.621717     0.614074     0.606431     0.598788     0.591145     0.583502     0.575858     0.568215
      0.560572     0.552929     0.545286     0.537643     0.530000     0.522357     0.514714     0.507071     0.499427     0.491784
      0.484141     0.476498     0.468855     0.461212     0.453569     0.445925     0.438282     0.430639     0.422996     0.415353
      0.407710     0.400067     0.392424     0.384780     0.377137     0.369494     0.361851     0.354208     0.346565     0.338922
      0.331278     0.323635     0.315992     0.308349     0.300706     0.293063     0.285420     0.277777     0.270133     0.262490
      0.254847     0.247204     0.239561     0.231918     0.224275     0.216631     0.208988     0.201345
 NY phased data points follow
  -2.66542E+00  6.04691E+00 -4.68191E+00  3.22895E+00  6.92691E+00  1.43739E+01  9.01967E+00  1.05506E+01  1.27802E+01  1.96819E+01
   2.86689E+01  2.81270E+01  2.48230E+01  2.83483E+01  2.40034E+01  3.55975E+01  3.10619E+01  2.13270E+01  1.38116E+01  3.30300E+01
   1.27327E+01  1.92350E+01  1.11895E+01  1.24067E+01  9.75254E+00  1.18233E+01  1.44923E+01  1.31266E+01  8.81045E+00  1.83491E+01
   1.90140E+01  2.14270E+01  1.21323E+01  1.55374E+01  8.99307E+00  1.98734E+01  1.65598E+01  1.70273E+01  8.23496E+00  1.22885E+01
   1.19937E+01  1.44701E+01  1.37881E+01  1.33790E+01  2.01811E+01  1.94332E+01  1.47270E+01  2.06725E+01  2.23299E+01  1.61884E+01
   1.22571E+01  2.23659E+01  2.19662E+01  1.14383E+01  1.69493E+01  6.14907E+00  1.50051E+01  1.44704E+01  1.40210E+01  6.19852E+00
   5.79590E+00  7.28761E+00 -3.19767E+00  6.01262E-01  6.23914E+00  8.95669E+00 -1.48977E+00 -9.92844E-01 -3.80764E+00  6.53344E-01
   5.27054E+00 -1.00884E+01 -4.50624E+00  4.98332E-01 -1.02577E+01 -6.81032E-01  3.28663E+00 -1.18859E-01 -1.64459E+00  1.07204E+01
  -1.11943E+01 -2.74905E+00  2.90832E+00  1.32470E+00 -8.13490E+00  9.99724E+00  6.06310E-01 -7.47235E-01  5.59842E+00 -5.20560E+00
  -1.43717E+00  5.71606E+00  1.58326E+00  7.17734E+00  1.29132E+00  3.40631E+00  5.63006E+00  8.28831E+00  1.90003E+01  1.83997E+01
   2.00382E+01  3.62328E+01  4.19989E+01  4.73673E+01  3.90312E+01  5.29344E+01  4.25661E+01  4.27557E+01  4.12075E+01  2.93335E+01
   2.97163E+01  1.53341E+01  1.42777E+01  2.25646E+01  1.09225E+01  1.39546E+01 -1.47727E+00 -3.20556E+00  6.59061E-02 -4.52648E+00
   2.93555E+00  7.47280E+00  3.01521E+00  1.59858E+01  2.21698E+01  2.74926E+01  3.64325E+01  3.18174E+01  3.41702E+01  3.16716E+01
   2.81857E+01  3.00173E+01  3.37962E+01  2.66632E+01  2.78422E+01  2.40187E+01  1.81829E+01  1.92048E+01  3.92373E+00  6.15335E+00
   6.52855E+00 -4.70081E+00  4.91997E-02 -3.61361E-01 -2.11893E+00  1.00883E+00 -1.21938E+01  3.36720E-01 -3.70354E+00  1.82697E+00
  -6.05238E+00 -1.11770E+00 -6.29996E+00 -5.68064E+00 -7.43720E+00  4.21316E+00 -6.86783E+00 -8.09385E+00 -4.99057E+00 -7.31251E+00
  -5.08820E+00 -7.68058E+00 -9.02031E+00 -8.66092E+00 -9.20898E+00 -1.12439E+01 -5.37950E+00 -2.06852E+01 -1.52573E+01 -1.68136E+01
  -1.35997E+01 -1.82371E+01 -2.88840E+01 -2.59113E+01 -3.37859E+01 -3.36646E+01 -2.96086E+01 -2.31701E+01 -2.74037E+01 -3.84701E+01
  -2.03165E+01 -2.14476E+01 -2.71382E+01 -2.43515E+01 -2.56572E+01 -1.66602E+01 -3.30578E+01 -2.78719E+01 -1.76513E+01 -1.26109E+01
  -1.27760E+01 -2.13616E+01 -1.91990E+01 -1.36648E+01 -1.77983E+01 -2.23741E+01 -1.95795E+01 -2.82677E+01 -1.35787E+01 -1.16981E+01
  -1.43396E+01 -3.38575E+00 -8.19658E+00 -1.40542E+01 -1.50549E+01 -1.03388E+01 -1.08738E+01 -1.09531E+01 -9.60687E+00 -1.04874E+01
  -1.39705E+01 -1.32055E+01 -1.45300E+01  1.18930E+00 -7.03349E+00 -1.79332E+00 -3.24227E+00  5.48839E+00 -6.06845E+00 -5.54635E-01
  -8.96740E+00 -4.92250E+00 -4.22733E+00 -7.46945E+00 -9.69739E+00 -3.89294E+00 -1.17853E+01  4.33923E+00 -6.92240E-01 -3.77617E+00
   1.73065E-01  9.10271E+00  1.20495E+01  5.46575E+00  5.62294E+00  9.92470E+00  6.01307E+00  9.58645E+00  1.90941E+01  1.08698E+01
   2.05886E+01  2.79376E+00  1.06811E+01  8.75951E+00  5.24449E+00  7.11071E+00  1.26919E+01  1.32525E+01  1.78263E+01  1.38459E+01
   2.24193E+01  2.95782E+01  3.30305E+01  4.89772E+01  4.80900E+01  6.22850E+01  7.30010E+01  8.79699E+01  8.76283E+01  1.04150E+02
   9.41370E+01  1.00088E+02  8.54849E+01  8.99067E+01  7.35712E+01  7.17900E+01  5.15692E+01  3.97195E+01  1.59285E+01  1.93229E+01
   1.37305E+01  1.00775E+01  3.55908E+00 -1.28388E+01 -8.46760E+00 -1.81266E+00 -6.02225E+00 -5.05513E+00 -2.94238E+00 -1.31164E+01
  -4.58759E+00 -1.10194E+01 -9.65930E+00 -1.51966E+01 -4.53497E+00 -1.14753E+01 -1.36148E+01 -1.83381E+01 -1.91974E+01 -1.77796E+01
  -1.70789E+01 -1.92550E+01 -1.34023E+01 -9.23171E+00 -1.76550E+01 -1.78994E+01 -1.27348E+01 -2.24227E+01 -1.97259E+01 -1.98258E+01
  -3.32075E+01 -2.26569E+01 -3.21467E+01 -2.93704E+01 -2.54931E+01 -2.28070E+01 -2.55751E+01 -2.33622E+01 -2.78819E+01 -2.00731E+01
  -3.22136E+01 -1.67198E+01 -2.48464E+01 -1.96166E+01 -1.57836E+01 -2.10077E+01 -1.58499E+01 -1.94990E+01 -1.60591E+01 -9.07071E+00
  -9.67628E+00 -4.90400E+00  4.39360E+00  8.19389E+00  5.18757E+00  8.67605E+00  2.11802E+01  1.65322E+01  1.41710E+01  2.55305E+01
   2.81759E+01  2.86866E+01  4.29816E+01  2.33045E+01  3.61385E+01  3.53075E+01  3.53368E+01  3.34258E+01  2.81995E+01  3.84394E+01
   3.25191E+01  3.94939E+01  3.29813E+01  3.42496E+01  2.94931E+01  2.81902E+01  2.16048E+01  2.08830E+01  2.24259E+01  3.05751E+01
   1.65978E+01  1.92092E+01  2.29270E+01  2.42169E+01  2.09697E+01  1.35975E+01  9.68371E+00  1.65740E+01  1.56196E+01  1.58274E+01
   1.49871E+01  8.72783E+00  1.10250E+01  4.73282E+00  8.04485E+00  1.14952E+01  9.54891E+00  1.56191E+00  7.74754E+00  1.95870E+01
   9.26757E+00  1.62200E+00  5.63871E+00  1.14872E+00  9.58713E+00  1.07993E+00  5.87347E+00 -1.35308E+00  8.28123E+00 -2.08474E+00
   7.26308E+00  7.44878E+00  7.55914E+00  4.91321E+00  5.74873E+00  6.27224E+00  7.09047E+00  5.68480E+00  5.23539E+00  6.15984E+00
  -9.42913E+00  9.68678E+00  8.58651E+00  1.07455E+01  9.61366E+00 -7.24870E+00 -1.32519E+00 -2.33014E+00  3.42417E+00  4.12832E+00
   4.58600E+00  7.19391E+00 -4.62697E-01  2.51175E+00  3.38071E+00  1.06176E+01  2.25693E+00  9.32150E+00  1.76235E+00  7.63201E+00
   3.11806E+00  1.70583E+00 -4.86207E-01  3.86616E+00  1.78505E+00  1.20471E+00  3.95913E+00 -6.19063E+00  2.02272E-01  9.41356E+00
  -9.45708E-01  2.72188E+00 -5.07009E+00  4.33392E+00 -1.56114E+00 -1.44079E-01  1.13606E+00  1.46090E+00  3.39647E-01 -4.89607E+00
   6.17382E+00  6.06752E+00  1.60339E+00 -2.09459E+00  3.63254E-01 -9.18682E+00 -9.53818E-01 -1.06520E+01 -7.14076E+00 -5.21443E+00
   7.06016E+00 -2.87368E+00  3.58174E-01  2.98351E+00  1.51067E-02 -1.42235E+00 -1.01442E+01 -3.81664E+00 -1.39667E+00  1.16214E+00
   5.22209E+00  1.47383E+00  2.53937E-01 -2.46404E+00 -5.94248E-01  5.66108E+00 -3.64929E+00 -2.44890E+00  2.24361E+00 -6.73689E+00
  -7.02456E+00  4.38131E+00  7.20204E-01 -7.91025E-01 -8.07775E+00 -6.47345E-01 -5.66332E+00  1.06240E+00  3.05355E-01 -5.99283E-01
  -1.00550E+00 -5.07948E+00  2.24644E+00 -3.90134E+00  3.48147E+00  1.48517E+00 -6.39282E+00 -1.40149E+00  6.10607E-01 -1.99063E+00
  -1.73186E+00 -6.12480E+00 -2.26578E+00 -4.57174E+00 -3.19681E+00  2.93548E-01 -2.95244E+00 -8.74091E+00  1.10921E+00 -5.80345E+00
  -6.91774E+00 -1.14189E+01 -2.73509E+00  3.18873E+00 -1.49808E+00 -5.43222E+00 -8.30596E+00 -3.44094E+00
 NY points of the fit to the data follow
   9.53961E+00  8.63689E+00  7.98201E+00  7.90071E+00  8.21153E+00  9.42662E+00  1.12868E+01  1.37658E+01  1.71495E+01  2.00041E+01
   2.36552E+01  2.51622E+01  2.80553E+01  2.75516E+01  2.91772E+01  2.70286E+01  2.72568E+01  2.37687E+01  2.28115E+01  1.92707E+01
   1.77748E+01  1.49932E+01  1.33593E+01  1.10760E+01  9.79252E+00  9.29527E+00  9.41830E+00  1.19065E+01  1.30650E+01  1.68582E+01
   1.71091E+01  2.11889E+01  1.94338E+01  2.28836E+01  1.91267E+01  2.14703E+01  1.65691E+01  1.79193E+01  1.35061E+01  1.47041E+01
   1.19333E+01  1.34716E+01  1.21416E+01  1.37319E+01  1.34606E+01  1.47878E+01  1.51933E+01  1.59255E+01  1.59896E+01  1.58010E+01
   1.50599E+01  1.41241E+01  1.24386E+01  1.10354E+01  9.15231E+00  8.07203E+00  6.66117E+00  6.24474E+00  4.89284E+00  4.59270E+00
   3.23448E+00  3.20852E+00  2.18955E+00  2.82435E+00  1.84442E+00  2.52223E+00  1.42634E+00  2.27412E+00  1.22726E+00  2.24404E+00
   1.32523E+00  2.17893E+00  1.38623E+00  1.86393E+00  1.28089E+00  1.54282E+00  1.18061E+00  1.21865E+00  9.31792E-01  8.75086E-01
   5.98802E-01  7.42180E-01  3.52362E-01  9.75523E-01  3.33416E-02  1.18883E+00 -5.51957E-01  8.90055E-01 -1.28983E+00  1.30124E-01
  -2.03631E+00 -7.33067E-01 -2.34160E+00 -7.63957E-01 -1.05483E+00  2.25559E+00  3.57974E+00  9.93375E+00  1.25901E+01  2.24452E+01
   2.55434E+01  3.67325E+01  3.82738E+01  4.66999E+01  4.52152E+01  4.90183E+01  4.49980E+01  4.43485E+01  3.86055E+01  3.40887E+01
   2.80818E+01  2.24286E+01  1.73520E+01  1.20372E+01  7.86575E+00  2.41713E+00 -2.11168E-01 -3.04523E+00 -3.11987E+00 -9.72873E-01
   8.12904E-01  5.54155E+00  8.54037E+00  1.57333E+01  1.93017E+01  2.70322E+01  2.98172E+01  3.50380E+01  3.60160E+01  3.75708E+01
   3.65902E+01  3.45826E+01  3.18970E+01  2.68049E+01  2.32829E+01  1.73354E+01  1.41671E+01  8.66223E+00  6.29398E+00  8.86551E-01
  -4.17083E-01 -4.09809E+00 -3.96298E+00 -5.09513E+00 -4.33490E+00 -5.29157E+00 -4.81527E+00 -5.69012E+00 -5.46458E+00 -6.25367E+00
  -6.16077E+00 -7.04194E+00 -7.24512E+00 -8.21529E+00 -8.54427E+00 -9.45848E+00 -9.63409E+00 -1.05019E+01 -1.05174E+01 -1.14281E+01
  -1.14575E+01 -1.23419E+01 -1.25268E+01 -1.34004E+01 -1.37882E+01 -1.46999E+01 -1.51724E+01 -1.60399E+01 -1.65083E+01 -1.73952E+01
  -1.78104E+01 -1.87896E+01 -1.90991E+01 -1.99386E+01 -2.01237E+01 -2.08510E+01 -2.08696E+01 -2.16950E+01 -2.15197E+01 -2.22814E+01
  -2.18363E+01 -2.22804E+01 -2.15303E+01 -2.15354E+01 -2.06216E+01 -2.00911E+01 -1.90874E+01 -1.79890E+01 -1.70517E+01 -1.57139E+01
  -1.55746E+01 -1.44303E+01 -1.53175E+01 -1.43122E+01 -1.56257E+01 -1.45119E+01 -1.55452E+01 -1.40499E+01 -1.41869E+01 -1.22482E+01
  -1.17997E+01 -9.90911E+00 -1.00561E+01 -8.90516E+00 -1.04681E+01 -1.02308E+01 -1.32133E+01 -1.32067E+01 -1.63402E+01 -1.54975E+01
  -1.73187E+01 -1.51986E+01 -1.55895E+01 -1.24239E+01 -1.24274E+01 -8.94761E+00 -9.45612E+00 -6.60081E+00 -8.36396E+00 -6.30495E+00
  -8.74091E+00 -6.87075E+00 -8.67766E+00 -6.75029E+00 -7.87952E+00 -5.89009E+00 -6.67123E+00 -4.62582E+00 -4.77658E+00 -2.74233E+00
  -2.36386E+00 -1.68326E-01  6.54586E-01  3.13157E+00  3.86500E+00  6.27141E+00  6.87118E+00  8.15143E+00  8.64955E+00  8.15246E+00
   9.18858E+00  7.58873E+00  9.51220E+00  7.44642E+00  1.02764E+01  8.42058E+00  1.20710E+01  1.13587E+01  1.62277E+01  1.80572E+01
   2.44557E+01  2.97465E+01  3.78330E+01  4.71561E+01  5.55318E+01  6.79933E+01  7.36332E+01  8.64646E+01  8.69081E+01  9.72737E+01
   9.06101E+01  9.71146E+01  8.40012E+01  8.61776E+01  6.99856E+01  6.88965E+01  5.17223E+01  4.84552E+01  3.25771E+01  2.82006E+01
   1.65984E+01  1.26618E+01  5.06458E+00  2.22064E+00 -2.59450E+00 -4.63484E+00 -5.98611E+00 -7.12351E+00 -7.90220E+00 -8.97640E+00
  -9.43130E+00 -1.04314E+01 -1.07346E+01 -1.16078E+01 -1.17822E+01 -1.25841E+01 -1.27160E+01 -1.34330E+01 -1.35178E+01 -1.40655E+01
  -1.40726E+01 -1.44352E+01 -1.44348E+01 -1.46918E+01 -1.47490E+01 -1.49286E+01 -1.50582E+01 -1.51746E+01 -1.53564E+01 -1.54002E+01
  -1.55643E+01 -1.55508E+01 -1.56754E+01 -1.56021E+01 -1.56817E+01 -1.55700E+01 -1.55729E+01 -1.54188E+01 -1.53045E+01 -1.50497E+01
  -1.47913E+01 -1.43889E+01 -1.39340E+01 -1.33316E+01 -1.26198E+01 -1.17463E+01 -1.07085E+01 -9.46284E+00 -8.01529E+00 -6.32579E+00
  -4.41078E+00 -2.24313E+00  1.47495E-01  2.77006E+00  5.57707E+00  8.55682E+00  1.16427E+01  1.48033E+01  1.79554E+01  2.10544E+01
   2.40085E+01  2.67710E+01  2.92540E+01  3.14211E+01  3.32015E+01  3.45812E+01  3.55170E+01  3.60255E+01  3.60949E+01  3.57733E+01
   3.50778E+01  3.40816E+01  3.28213E+01  3.13831E+01  2.98098E+01  2.81864E+01  2.65483E+01  2.49675E+01  2.34620E+01  2.20830E+01
   2.08264E+01  1.97213E+01  1.87429E+01  1.79022E+01  1.71595E+01  1.65149E+01  1.59218E+01  1.53773E+01  1.48359E+01  1.42987E+01
   1.37265E+01  1.31284E+01  1.24743E+01  1.17826E+01  1.10324E+01  1.02503E+01  9.42228E+00  8.58063E+00  7.71547E+00  6.86174E+00
   6.01097E+00  5.19810E+00  4.41368E+00  3.69081E+00  3.01775E+00  2.42489E+00  1.89758E+00  1.46308E+00  1.10368E+00  8.43700E-01
   6.62731E-01  5.82488E-01  5.80104E-01  6.74833E-01  8.41512E-01  1.09717E+00  1.41453E+00  1.80842E+00  2.24939E+00  2.75003E+00
   3.27878E+00  3.84635E+00  4.41952E+00  5.00751E+00  5.57605E+00  6.13376E+00  6.64643E+00  7.12340E+00  7.53194E+00  7.88337E+00
   8.14767E+00  8.33949E+00  8.43272E+00  8.44622E+00  8.35832E+00  8.19226E+00  7.93062E+00  7.60058E+00  7.18832E+00  6.72393E+00
   6.19582E+00  5.63555E+00  5.03227E+00  4.41765E+00  3.78035E+00  3.15090E+00  2.51636E+00  1.90530E+00  1.30267E+00  7.34819E-01
   1.84497E-01 -3.24150E-01 -8.10420E-01 -1.25207E+00 -1.66995E+00 -2.04317E+00 -2.39365E+00 -2.70147E+00 -2.98921E+00 -3.23747E+00
  -3.46908E+00 -3.66479E+00 -3.84747E+00 -3.99787E+00 -4.13881E+00 -4.25086E+00 -4.35660E+00 -4.43638E+00 -4.51260E+00 -4.56542E+00
  -4.61705E+00 -4.64742E+00 -4.67851E+00 -4.69009E+00 -4.70398E+00 -4.69986E+00 -4.69940E+00 -4.68213E+00 -4.66954E+00 -4.64113E+00
  -4.61830E+00 -4.58051E+00 -4.54906E+00 -4.50329E+00 -4.46441E+00 -4.41177E+00 -4.36652E+00 -4.30800E+00 -4.25727E+00 -4.19362E+00
  -4.13806E+00 -4.06993E+00 -4.01018E+00 -3.93818E+00 -3.87476E+00 -3.79929E+00 -3.73260E+00 -3.65409E+00 -3.58456E+00 -3.50338E+00
  -3.43129E+00 -3.34768E+00 -3.27329E+00 -3.18755E+00 -3.11115E+00 -3.02349E+00 -2.94524E+00 -2.85580E+00 -2.77589E+00 -2.68491E+00
  -2.60352E+00 -2.51112E+00 -2.42833E+00 -2.33460E+00 -2.25057E+00 -2.15569E+00 -2.07052E+00 -1.97453E+00 -1.88828E+00 -1.79127E+00
  -1.70406E+00 -1.60614E+00 -1.51800E+00 -1.41917E+00 -1.33015E+00 -1.23048E+00 -1.14065E+00 -1.04019E+00
 NY background values follow
    -4.654E+00   -4.705E+00   -4.756E+00   -4.807E+00   -4.859E+00   -4.910E+00   -4.961E+00   -5.013E+00   -5.064E+00   -5.115E+00
    -5.166E+00   -5.218E+00   -5.269E+00   -5.321E+00   -5.372E+00   -5.424E+00   -5.475E+00   -5.527E+00   -5.578E+00   -5.630E+00
    -5.682E+00   -5.734E+00   -5.786E+00   -5.838E+00   -5.890E+00   -5.942E+00   -5.994E+00   -6.046E+00   -6.099E+00   -6.151E+00
    -6.204E+00   -6.256E+00   -6.309E+00   -6.362E+00   -6.415E+00   -6.468E+00   -6.521E+00   -6.575E+00   -6.628E+00   -6.682E+00
    -6.736E+00   -6.790E+00   -6.844E+00   -6.898E+00   -6.952E+00   -7.007E+00   -7.061E+00   -7.116E+00   -7.171E+00   -7.226E+00
    -7.281E+00   -7.337E+00   -7.392E+00   -7.448E+00   -7.504E+00   -7.560E+00   -7.616E+00   -7.673E+00   -7.729E+00   -7.786E+00
    -7.843E+00   -7.900E+00   -7.957E+00   -8.014E+00   -8.072E+00   -8.129E+00   -8.187E+00   -8.245E+00   -8.303E+00   -8.362E+00
    -8.420E+00   -8.479E+00   -8.537E+00   -8.596E+00   -8.655E+00   -8.714E+00   -8.774E+00   -8.833E+00   -8.893E+00   -8.953E+00
    -9.013E+00   -9.073E+00   -9.133E+00   -9.194E+00   -9.254E+00   -9.315E+00   -9.376E+00   -9.437E+00   -9.498E+00   -9.560E+00
    -9.621E+00   -9.683E+00   -9.745E+00   -9.807E+00   -9.869E+00   -9.932E+00   -9.994E+00   -1.006E+01   -1.012E+01   -1.018E+01
    -1.025E+01   -1.031E+01   -1.037E+01   -1.044E+01   -1.050E+01   -1.056E+01   -1.063E+01   -1.069E+01   -1.076E+01   -1.082E+01
    -1.089E+01   -1.095E+01   -1.102E+01   -1.108E+01   -1.115E+01   -1.121E+01   -1.128E+01   -1.134E+01   -1.141E+01   -1.148E+01
    -1.154E+01   -1.161E+01   -1.168E+01   -1.174E+01   -1.181E+01   -1.188E+01   -1.194E+01   -1.201E+01   -1.208E+01   -1.215E+01
    -1.221E+01   -1.228E+01   -1.235E+01   -1.242E+01   -1.249E+01   -1.256E+01   -1.262E+01   -1.269E+01   -1.276E+01   -1.283E+01
    -1.290E+01   -1.297E+01   -1.304E+01   -1.311E+01   -1.318E+01   -1.325E+01   -1.332E+01   -1.339E+01   -1.346E+01   -1.353E+01
    -1.360E+01   -1.367E+01   -1.374E+01   -1.381E+01   -1.388E+01   -1.395E+01   -1.402E+01   -1.409E+01   -1.416E+01   -1.423E+01
    -1.430E+01   -1.437E+01   -1.444E+01   -1.451E+01   -1.458E+01   -1.465E+01   -1.472E+01   -1.479E+01   -1.486E+01   -1.493E+01
    -1.500E+01   -1.507E+01   -1.513E+01   -1.520E+01   -1.527E+01   -1.534E+01   -1.541E+01   -1.547E+01   -1.554E+01   -1.561E+01
    -1.567E+01   -1.574E+01   -1.581E+01   -1.587E+01   -1.594E+01   -1.600E+01   -1.607E+01   -1.613E+01   -1.620E+01   -1.626E+01
    -1.633E+01   -1.639E+01   -1.645E+01   -1.652E+01   -1.658E+01   -1.664E+01   -1.670E+01   -1.676E+01   -1.682E+01   -1.689E+01
    -1.695E+01   -1.701E+01   -1.707E+01   -1.713E+01   -1.718E+01   -1.724E+01   -1.730E+01   -1.736E+01   -1.742E+01   -1.748E+01
    -1.753E+01   -1.759E+01   -1.765E+01   -1.770E+01   -1.776E+01   -1.781E+01   -1.787E+01   -1.792E+01   -1.797E+01   -1.803E+01
    -1.808E+01   -1.813E+01   -1.819E+01   -1.824E+01   -1.829E+01   -1.834E+01   -1.839E+01   -1.844E+01   -1.849E+01   -1.854E+01
    -1.859E+01   -1.864E+01   -1.869E+01   -1.873E+01   -1.878E+01   -1.883E+01   -1.887E+01   -1.892E+01   -1.896E+01   -1.900E+01
    -1.905E+01   -1.909E+01   -1.913E+01   -1.917E+01   -1.921E+01   -1.925E+01   -1.929E+01   -1.933E+01   -1.937E+01   -1.941E+01
    -1.944E+01   -1.948E+01   -1.951E+01   -1.955E+01   -1.958E+01   -1.961E+01   -1.964E+01   -1.967E+01   -1.970E+01   -1.973E+01
    -1.976E+01   -1.979E+01   -1.981E+01   -1.984E+01   -1.986E+01   -1.989E+01   -1.991E+01   -1.993E+01   -1.995E+01   -1.997E+01
    -1.999E+01   -2.000E+01   -2.002E+01   -2.003E+01   -2.005E+01   -2.006E+01   -2.007E+01   -2.008E+01   -2.009E+01   -2.010E+01
    -2.010E+01   -2.011E+01   -2.011E+01   -2.012E+01   -2.012E+01   -2.012E+01   -2.012E+01   -2.012E+01   -2.012E+01   -2.011E+01
    -2.011E+01   -2.010E+01   -2.010E+01   -2.009E+01   -2.008E+01   -2.007E+01   -2.006E+01   -2.004E+01   -2.003E+01   -2.001E+01
    -2.000E+01   -1.998E+01   -1.996E+01   -1.994E+01   -1.992E+01   -1.989E+01   -1.987E+01   -1.984E+01   -1.982E+01   -1.979E+01
    -1.976E+01   -1.973E+01   -1.970E+01   -1.966E+01   -1.963E+01   -1.959E+01   -1.956E+01   -1.952E+01   -1.948E+01   -1.944E+01
    -1.940E+01   -1.935E+01   -1.931E+01   -1.926E+01   -1.922E+01   -1.917E+01   -1.912E+01   -1.907E+01   -1.902E+01   -1.896E+01
    -1.891E+01   -1.885E+01   -1.880E+01   -1.874E+01   -1.868E+01   -1.862E+01   -1.856E+01   -1.850E+01   -1.844E+01   -1.837E+01
    -1.831E+01   -1.824E+01   -1.818E+01   -1.811E+01   -1.804E+01   -1.797E+01   -1.790E+01   -1.783E+01   -1.776E+01   -1.768E+01
    -1.761E+01   -1.753E+01   -1.746E+01   -1.738E+01   -1.730E+01   -1.723E+01   -1.715E+01   -1.707E+01   -1.699E+01   -1.690E+01
    -1.682E+01   -1.674E+01   -1.666E+01   -1.657E+01   -1.649E+01   -1.640E+01   -1.631E+01   -1.623E+01   -1.614E+01   -1.605E+01
    -1.596E+01   -1.587E+01   -1.578E+01   -1.569E+01   -1.560E+01   -1.551E+01   -1.541E+01   -1.532E+01   -1.523E+01   -1.513E+01
    -1.504E+01   -1.494E+01   -1.484E+01   -1.475E+01   -1.465E+01   -1.455E+01   -1.445E+01   -1.435E+01   -1.425E+01   -1.415E+01
    -1.405E+01   -1.395E+01   -1.385E+01   -1.375E+01   -1.365E+01   -1.354E+01   -1.344E+01   -1.334E+01   -1.323E+01   -1.313E+01
    -1.302E+01   -1.292E+01   -1.281E+01   -1.271E+01   -1.260E+01   -1.249E+01   -1.239E+01   -1.228E+01   -1.217E+01   -1.206E+01
    -1.195E+01   -1.184E+01   -1.173E+01   -1.162E+01   -1.151E+01   -1.140E+01   -1.129E+01   -1.118E+01   -1.107E+01   -1.096E+01
    -1.085E+01   -1.074E+01   -1.063E+01   -1.051E+01   -1.040E+01   -1.029E+01   -1.018E+01   -1.006E+01   -9.951E+00   -9.838E+00
    -9.725E+00   -9.611E+00   -9.498E+00   -9.385E+00   -9.271E+00   -9.158E+00   -9.044E+00   -8.930E+00   -8.816E+00   -8.703E+00
    -8.589E+00   -8.475E+00   -8.361E+00   -8.247E+00   -8.134E+00   -8.020E+00   -7.906E+00   -7.792E+00   -7.679E+00   -7.565E+00
    -7.452E+00   -7.339E+00   -7.225E+00   -7.112E+00   -6.999E+00   -6.886E+00   -6.773E+00   -6.661E+00   -6.548E+00   -6.436E+00
    -6.323E+00   -6.211E+00   -6.099E+00   -5.986E+00   -5.874E+00   -5.762E+00   -5.650E+00   -5.539E+00   -5.427E+00   -5.315E+00
    -5.204E+00   -5.092E+00   -4.981E+00   -4.869E+00   -4.758E+00   -4.646E+00   -4.535E+00   -4.424E+00   -4.313E+00   -4.202E+00
    -4.091E+00   -3.980E+00   -3.869E+00   -3.758E+00   -3.647E+00   -3.536E+00   -3.425E+00   -3.314E+00   -3.203E+00   -3.092E+00
    -2.982E+00   -2.871E+00   -2.760E+00   -2.649E+00   -2.539E+00   -2.428E+00   -2.317E+00   -2.206E+00
 Cr       Conc. = 2.03E+03
