 LCModel (Version 6.3-1L) Copyright: S.W. Provencher.          Ref.: Magn. Reson. Med. 30:672-679 (1993).                
 Slice#3 Row#6 Col#7  PD_24_press_2_raw_act
 36 lines in following concentration table = NCONC+1
    Conc.  %SD /Cr+PCr  Metabolite                                         
    0.000 999%   0.000 Ala                                                 
  174.278 148%   0.146 Asp                                                 
  126.166 308%   0.106 Cr                                                  
 1.07E+03  38%   0.894 PCr                                                 
  108.234 146% 9.1E-02 GABA                                                
  190.703  84%   0.160 Glc                                                 
 1.18E+03  35%   0.988 Gln                                                 
 1.55E+03  30%   1.295 Glu                                                 
  561.657   7%   0.470 GPC                                                 
    0.000 999%   0.000 PCh                                                 
  401.766  36%   0.336 GSH                                                 
  575.961  77%   0.482 Ins                                                 
  284.706  84%   0.238 Lac                                                 
 2.33E+03   6%   1.952 NAA                                                 
    0.000 999%   0.000 NAAG                                                
   80.753  51% 6.8E-02 Scyllo                                              
  363.098  67%   0.304 Tau                                                 
  289.415  63%   0.242 -CrCH2                                              
  561.657   7%   0.470 GPC+PCh                                             
 2.33E+03   6%   1.952 NAA+NAAG                                            
 1.19E+03   9%   1.000 Cr+PCr                                              
 2.73E+03  22%   2.283 Glu+Gln                                             
    0.000 999%   0.000 Lip13a                                              
 1.28E+03  38%   1.071 Lip13b                                              
  111.783 222% 9.4E-02 Lip09                                               
  876.635  36%   0.734 MM09                                                
  174.165  99%   0.146 Lip20                                               
 1.36E+03  37%   1.135 MM20                                                
  263.800  47%   0.221 MM12                                                
  831.828  44%   0.696 MM14                                                
  892.002  24%   0.747 MM17                                                
 1.28E+03  38%   1.071 Lip13a+Lip13b                                       
 2.37E+03  20%   1.988 MM14+Lip13a+Lip13b+MM12                             
  988.418  29%   0.828 MM09+Lip09                                          
 1.53E+03  32%   1.281 MM20+Lip20                                          
   6 lines in following misc. output table
  FWHM = 0.046 ppm    S/N =   5                                            
  Data shift = 0.023 ppm                                                   
  Ph: -33 deg      -1.7 deg/ppm                                            
  alphaB,S = 8.5E+01,   4.6E+01                                            
   14 spline knots.   Ns = 5(1)                                            
   2 inflections.     1 extrema                                            
  498 points on ppm-axis = NY
      4.000000     3.992357     3.984714     3.977070     3.969427     3.961784     3.954141     3.946497     3.938854     3.931211
      3.923568     3.915925     3.908281     3.900638     3.892995     3.885352     3.877708     3.870065     3.862422     3.854779
      3.847136     3.839492     3.831849     3.824206     3.816563     3.808919     3.801276     3.793633     3.785990     3.778347
      3.770703     3.763060     3.755417     3.747774     3.740130     3.732487     3.724844     3.717201     3.709558     3.701914
      3.694271     3.686628     3.678985     3.671341     3.663698     3.656055     3.648412     3.640769     3.633125     3.625482
      3.617839     3.610196     3.602552     3.594909     3.587266     3.579623     3.571980     3.564336     3.556693     3.549050
      3.541407     3.533763     3.526120     3.518477     3.510834     3.503191     3.495547     3.487904     3.480261     3.472618
      3.464974     3.457331     3.449688     3.442045     3.434402     3.426758     3.419115     3.411472     3.403829     3.396185
      3.388542     3.380899     3.373256     3.365613     3.357969     3.350326     3.342683     3.335040     3.327396     3.319753
      3.312110     3.304467     3.296824     3.289180     3.281537     3.273894     3.266251     3.258607     3.250964     3.243321
      3.235678     3.228034     3.220391     3.212748     3.205105     3.197462     3.189818     3.182175     3.174532     3.166889
      3.159245     3.151602     3.143959     3.136316     3.128673     3.121029     3.113386     3.105743     3.098100     3.090456
      3.082813     3.075170     3.067527     3.059884     3.052240     3.044597     3.036954     3.029311     3.021667     3.014024
      3.006381     2.998738     2.991095     2.983451     2.975808     2.968165     2.960522     2.952878     2.945235     2.937592
      2.929949     2.922306     2.914662     2.907019     2.899376     2.891733     2.884089     2.876446     2.868803     2.861160
      2.853517     2.845873     2.838230     2.830587     2.822944     2.815300     2.807657     2.800014     2.792371     2.784728
      2.777084     2.769441     2.761798     2.754155     2.746511     2.738868     2.731225     2.723582     2.715939     2.708295
      2.700652     2.693009     2.685366     2.677722     2.670079     2.662436     2.654793     2.647150     2.639506     2.631863
      2.624220     2.616577     2.608933     2.601290     2.593647     2.586004     2.578361     2.570717     2.563074     2.555431
      2.547788     2.540144     2.532501     2.524858     2.517215     2.509572     2.501928     2.494285     2.486642     2.478999
      2.471355     2.463712     2.456069     2.448426     2.440783     2.433139     2.425496     2.417853     2.410210     2.402566
      2.394923     2.387280     2.379637     2.371994     2.364350     2.356707     2.349064     2.341421     2.333777     2.326134
      2.318491     2.310848     2.303205     2.295561     2.287918     2.280275     2.272632     2.264988     2.257345     2.249702
      2.242059     2.234416     2.226772     2.219129     2.211486     2.203843     2.196199     2.188556     2.180913     2.173270
      2.165627     2.157983     2.150340     2.142697     2.135054     2.127410     2.119767     2.112124     2.104481     2.096838
      2.089194     2.081551     2.073908     2.066265     2.058621     2.050978     2.043335     2.035692     2.028049     2.020405
      2.012762     2.005119     1.997476     1.989833     1.982190     1.974546     1.966903     1.959260     1.951617     1.943974
      1.936331     1.928688     1.921045     1.913402     1.905759     1.898115     1.890472     1.882829     1.875186     1.867543
      1.859900     1.852257     1.844614     1.836971     1.829327     1.821684     1.814041     1.806398     1.798755     1.791112
      1.783469     1.775826     1.768183     1.760540     1.752896     1.745253     1.737610     1.729967     1.722324     1.714681
      1.707038     1.699395     1.691752     1.684108     1.676465     1.668822     1.661179     1.653536     1.645893     1.638250
      1.630607     1.622964     1.615321     1.607677     1.600034     1.592391     1.584748     1.577105     1.569462     1.561819
      1.554176     1.546533     1.538890     1.531246     1.523603     1.515960     1.508317     1.500674     1.493031     1.485388
      1.477745     1.470102     1.462458     1.454815     1.447172     1.439529     1.431886     1.424243     1.416600     1.408957
      1.401314     1.393671     1.386027     1.378384     1.370741     1.363098     1.355455     1.347812     1.340169     1.332526
      1.324883     1.317240     1.309596     1.301953     1.294310     1.286667     1.279024     1.271381     1.263738     1.256095
      1.248452     1.240808     1.233165     1.225522     1.217879     1.210236     1.202593     1.194950     1.187307     1.179664
      1.172021     1.164377     1.156734     1.149091     1.141448     1.133805     1.126162     1.118519     1.110876     1.103233
      1.095590     1.087946     1.080303     1.072660     1.065017     1.057374     1.049731     1.042088     1.034445     1.026802
      1.019158     1.011515     1.003872     0.996229     0.988586     0.980943     0.973300     0.965657     0.958014     0.950371
      0.942727     0.935084     0.927441     0.919798     0.912155     0.904512     0.896869     0.889226     0.881583     0.873940
      0.866296     0.858653     0.851010     0.843367     0.835724     0.828081     0.820438     0.812795     0.805152     0.797508
      0.789865     0.782222     0.774579     0.766936     0.759293     0.751650     0.744007     0.736364     0.728721     0.721077
      0.713434     0.705791     0.698148     0.690505     0.682862     0.675219     0.667576     0.659933     0.652290     0.644646
      0.637003     0.629360     0.621717     0.614074     0.606431     0.598788     0.591145     0.583502     0.575858     0.568215
      0.560572     0.552929     0.545286     0.537643     0.530000     0.522357     0.514714     0.507071     0.499427     0.491784
      0.484141     0.476498     0.468855     0.461212     0.453569     0.445925     0.438282     0.430639     0.422996     0.415353
      0.407710     0.400067     0.392424     0.384780     0.377137     0.369494     0.361851     0.354208     0.346565     0.338922
      0.331278     0.323635     0.315992     0.308349     0.300706     0.293063     0.285420     0.277777     0.270133     0.262490
      0.254847     0.247204     0.239561     0.231918     0.224275     0.216631     0.208988     0.201345
 NY phased data points follow
  -4.37701E+01 -5.07975E+01 -3.57780E+01 -2.86703E+01 -1.56602E+01 -2.36072E+01 -1.86517E+01 -1.96033E+01 -8.70816E+00 -1.30063E+01
   2.43680E+01 -6.32789E+00 -1.25841E+01 -2.03936E+01 -1.36727E+01 -2.52047E+01 -2.47256E+01 -1.58531E+01 -1.68330E+01 -3.22540E+01
  -2.87729E+01 -4.35815E+01 -8.30472E+00 -2.73092E+01 -1.06736E+01 -2.99939E+01 -1.18639E+01 -1.32021E+01 -1.78298E+01 -2.00541E+01
  -1.24054E+01 -1.19720E+01 -1.28230E+01 -1.53928E+01 -1.35841E+01 -2.86716E+01 -1.27340E+01 -3.28630E+01 -1.33804E+01 -3.56543E+01
  -1.45991E+01 -2.70206E+01 -5.74206E+00 -1.75676E+01  5.21017E+00 -1.45337E+01 -1.98342E+01 -2.59561E+01 -1.15707E+01 -1.62869E+01
  -9.11843E+00 -2.12554E+01 -1.71127E+01 -2.11207E+01 -1.32455E+01 -3.22239E+01 -1.11015E+01 -9.01593E+00 -1.77600E+01 -1.83728E+01
  -2.88842E+01 -3.48286E+01 -1.82956E+01 -3.43173E+01 -2.50082E+01 -3.72430E+01 -2.79387E+01 -2.17601E+01 -1.79769E+01 -2.55210E+01
  -2.46319E+01 -3.05839E+01 -1.56771E+01 -2.11646E+01 -1.86975E+01 -2.47015E+01 -1.33704E+01 -3.59323E+01 -1.88089E+01 -2.34332E+01
  -2.66833E+01 -1.28383E+01 -2.72754E+01 -3.31429E+01 -1.26255E+01 -3.30239E+01 -1.60203E+01 -1.69469E+01 -1.23058E+01 -3.50765E+01
  -1.41337E+01 -1.22049E+01 -1.41777E+01 -1.77225E+01 -2.42346E+01 -2.46190E+01 -1.07040E+01 -1.84335E+01 -9.84709E+00 -1.72016E+01
   1.57258E+01  3.30807E+01  5.03209E+01  2.98082E+01  3.58534E+01  4.78980E+00  1.54991E+01 -4.62593E+00 -7.98523E+00 -1.84939E+01
  -1.14900E+01 -2.89315E+01 -1.37501E+01 -1.77519E+01 -2.47031E+01 -1.06846E+01 -9.21763E+00 -2.03097E+01 -2.07067E+01 -2.05777E+01
  -2.58785E+01 -2.75192E+01 -2.60774E+01 -1.42784E+01  4.01401E+00  1.22896E+01  2.46206E+01  3.12934E+01  6.84391E+00  1.46336E+01
   6.79274E+00  3.44770E+00 -1.56153E+00 -1.01189E+01 -8.98772E+00 -1.14484E+01 -1.77203E+01 -2.53020E+01 -3.18324E+01 -1.54217E+01
  -1.82040E+01 -2.48919E+01 -3.56474E+01 -3.03188E+01 -1.88074E+01 -8.28070E+00 -1.21168E+01 -2.73530E+01 -1.04487E+01 -3.42629E+01
  -2.08475E+01 -2.99092E+01 -1.67096E+01 -2.25846E+01 -2.11797E+01 -1.71267E+01 -2.84826E+01 -3.19090E+01 -2.36610E+01 -2.48037E+01
  -2.15234E+01 -2.09781E+01 -2.92275E+01 -3.55947E+01 -1.60160E+01 -1.94560E+01 -1.43696E+01 -2.04806E+01 -2.03888E+01 -3.46525E+01
  -3.75239E+01 -4.12540E+01 -2.17406E+01 -3.06563E+01 -3.40254E+01 -3.79197E+01 -3.16179E+01 -4.09651E+01 -3.26282E+01 -4.12318E+01
  -4.06153E+01 -3.37830E+01 -2.93247E+01 -3.37095E+01 -4.42561E+01 -3.35289E+01 -2.73169E+01 -3.69952E+01 -2.36264E+01 -2.77450E+01
  -1.81622E+01 -2.35604E+01 -1.88395E+01 -1.93830E+01 -1.64894E+01 -1.03471E+01 -2.34196E+01 -3.15882E+01 -1.78995E+01 -2.56623E+01
  -2.88565E+01 -3.36824E+01 -8.72534E+00 -2.75669E+01 -1.20514E+01 -3.13983E+01 -3.52834E+01 -3.44359E+01 -3.72438E+01 -2.56961E+01
  -3.47722E+01 -2.49545E+01 -3.18370E+01 -3.54329E+01 -9.08404E+00 -1.06636E+01  4.56366E-01 -1.59344E+01 -1.56123E-01 -2.44932E+01
  -2.93561E+01 -2.84297E+01 -2.26687E+01 -2.42309E+01 -2.12486E+01 -1.09874E+01 -1.40953E+01 -1.52712E+01 -1.64297E+01 -1.64940E+01
  -6.47053E+00 -3.02613E+00 -2.21436E+01 -1.07782E+01 -2.44755E+01 -2.38769E+01 -1.70470E+01 -1.08312E+01 -1.83892E+01 -2.34159E+01
  -2.47196E+01 -1.57889E+01 -3.11945E+01 -3.31959E+01 -3.10745E+01 -2.50278E+01 -1.92564E+01 -1.87257E+01 -1.79284E+01 -1.22273E-01
  -3.98822E+00 -3.02032E+00 -5.17825E+00 -2.97645E+01 -3.48814E+00 -6.83488E+00 -5.68559E+00  2.78290E+01  5.13672E+01  5.98493E+01
   7.63221E+01  6.95811E+01  5.00756E+01  5.03196E+01  1.56758E+01 -4.60789E-01 -6.17817E+00 -8.35402E+00 -1.88793E+01 -1.59629E+01
  -7.54991E+00 -2.51733E+01 -1.41313E+01 -1.39895E+01 -1.04330E+01 -2.34431E+01 -1.68360E+01 -1.85569E+01 -5.50801E+00 -1.44830E+01
  -1.61713E+01 -1.93692E+01 -1.76445E+01 -2.57675E+01 -2.28099E+01 -2.75801E+00 -1.99456E+01 -3.11811E+01 -1.51707E+01 -2.30070E+01
  -6.91957E+00 -1.52242E+01 -1.22749E+01 -2.30263E+01 -1.15761E+01 -9.71495E+00 -2.56026E+01 -1.58688E+01 -7.35633E+00 -1.97014E+01
  -1.40601E+01 -1.79370E+01 -6.82656E+00 -1.34142E+01 -1.46189E+01 -3.07150E+00 -2.07874E+01  4.64843E+00 -1.98326E+00  1.92524E+00
  -2.69537E+00 -9.30621E+00 -1.38253E-01 -3.63537E+00 -4.33691E-01  2.55411E+00 -9.00511E+00 -2.37880E+01 -2.31516E+00 -2.33709E+01
  -1.38427E+01 -1.39962E+01 -6.54234E+00 -2.10385E+01 -1.36952E+01 -1.37066E+01 -1.47576E+01 -2.32722E+01 -3.88652E+00 -1.61442E+01
  -1.30560E+01 -9.38211E+00 -2.48480E+01 -1.51938E+01 -1.05417E+01 -1.75974E+01 -1.91181E+01 -2.38003E+01 -2.05640E+01 -4.53083E+00
  -2.89200E+01 -9.37961E+00 -7.40552E+00 -1.37298E+01 -3.60965E+00 -7.88784E+00  4.15039E+00 -1.56426E+01 -9.74525E+00 -8.38386E-01
  -4.28581E+00 -4.81888E+00 -8.84767E+00 -1.19271E+01  1.12010E+00 -6.15774E-01  5.83716E+00  1.07301E+00 -8.08088E+00 -8.24167E+00
  -8.79702E+00 -1.02167E+01  3.63449E+00 -1.71899E+01 -1.82355E+01 -1.43361E+01  3.68125E-01 -2.16322E+01 -1.48990E+01 -1.09697E+01
  -1.61249E+01 -8.28645E+00 -1.35276E+01 -1.28460E+01 -1.13462E+01 -2.23990E+01 -3.62905E+01 -2.46402E+01 -1.21817E+01 -1.33832E+01
  -2.80454E+01 -2.01718E+01 -1.22409E+01 -2.03842E+01 -1.99327E+01 -2.25845E+01 -2.15632E+01 -1.25609E+01 -1.73711E+01 -1.65352E+01
  -1.10034E+01  1.11310E+00 -7.36829E+00 -1.61637E+01 -1.70669E+01 -2.38609E+01 -8.77025E+00 -1.53513E+01 -3.00723E+01 -2.39901E+01
  -6.30144E+00 -1.10192E+01 -1.93956E+01 -1.03166E+01 -1.54321E+01 -1.84567E+01 -1.99919E+01 -1.73617E+01 -6.01174E+00 -1.71754E+01
  -4.08582E+00 -1.08709E+01 -1.39128E+01 -4.08266E+00 -2.82849E+01 -1.75232E+01 -1.38323E+01 -2.88700E+01 -8.21971E+00 -7.26684E+00
  -1.58808E+01 -1.92805E+01 -2.27491E+01 -4.51662E-01 -1.70698E+01 -1.76857E+01 -1.11787E+01 -1.92179E+01 -2.80171E+01 -1.63115E+01
  -7.00488E-01 -1.09726E+01 -1.05224E+01 -1.14359E+01 -1.37451E+01 -1.68431E+01 -6.83110E+00 -8.26017E+00 -8.85396E+00 -1.10840E+01
  -1.04282E+01 -2.24771E+00 -7.86957E+00 -2.46707E+01 -1.13007E+01 -1.85042E+01 -1.33746E+01 -2.03094E+01 -1.50282E+01 -8.28400E+00
  -2.07402E+01 -2.05310E+01 -2.44106E+01 -6.57005E+00 -2.54461E+01 -1.06662E+01 -1.58047E+01 -1.55396E+01 -1.70729E+01 -3.29879E+01
  -1.46827E+01 -2.10715E+01 -2.87010E+01 -3.66527E+01 -2.08503E+01 -1.46642E+01 -2.21159E+01 -2.18449E+01 -1.12402E+01 -9.70328E+00
  -2.31555E+01 -1.99013E+01 -2.17715E+01 -3.45093E+01 -1.55509E+01 -8.71687E+00 -1.62975E+01 -2.93864E+01 -1.87884E+01 -2.47241E+01
  -1.23459E+01 -2.35858E+01 -1.42974E+01 -5.92737E+00 -2.03194E+01 -2.30694E+01 -6.84619E+00 -2.35516E+01 -1.35037E+01 -1.43709E+01
  -2.44199E+01 -2.53636E+01 -5.45811E+00 -1.84433E+01 -1.59710E+01 -5.07067E+00 -1.39214E+01 -8.00035E+00
 NY points of the fit to the data follow
  -2.79546E+01 -2.79195E+01 -2.75885E+01 -2.69074E+01 -2.53930E+01 -2.21799E+01 -1.70796E+01 -1.09191E+01 -5.43065E+00 -2.19916E+00
  -1.88086E+00 -3.87672E+00 -7.11025E+00 -1.07994E+01 -1.43853E+01 -1.74674E+01 -1.96924E+01 -2.09771E+01 -2.17089E+01 -2.20041E+01
  -2.20468E+01 -2.20942E+01 -2.23223E+01 -2.29405E+01 -2.39778E+01 -2.48779E+01 -2.47095E+01 -2.27591E+01 -1.91530E+01 -1.48341E+01
  -1.11009E+01 -9.03143E+00 -9.01875E+00 -1.09847E+01 -1.43391E+01 -1.81939E+01 -2.15680E+01 -2.36516E+01 -2.43488E+01 -2.40186E+01
  -2.31363E+01 -2.20776E+01 -2.09760E+01 -1.98866E+01 -1.88095E+01 -1.78244E+01 -1.71853E+01 -1.70821E+01 -1.75131E+01 -1.83379E+01
  -1.93859E+01 -2.05288E+01 -2.15875E+01 -2.24043E+01 -2.29389E+01 -2.32097E+01 -2.32219E+01 -2.29982E+01 -2.26932E+01 -2.25017E+01
  -2.25612E+01 -2.28530E+01 -2.32354E+01 -2.35913E+01 -2.38347E+01 -2.39701E+01 -2.40191E+01 -2.40096E+01 -2.39480E+01 -2.38471E+01
  -2.36825E+01 -2.33433E+01 -2.28004E+01 -2.21740E+01 -2.16934E+01 -2.16260E+01 -2.20552E+01 -2.28259E+01 -2.36362E+01 -2.42426E+01
  -2.45441E+01 -2.43964E+01 -2.36234E+01 -2.23437E+01 -2.10219E+01 -2.01970E+01 -2.01588E+01 -2.08086E+01 -2.17674E+01 -2.27426E+01
  -2.37127E+01 -2.46908E+01 -2.55902E+01 -2.62193E+01 -2.64200E+01 -2.62397E+01 -2.55870E+01 -2.32322E+01 -1.60414E+01 -2.78655E+00
   1.42756E+01  2.97078E+01  3.83961E+01  3.82738E+01  3.12307E+01  2.08024E+01  9.35146E+00 -1.70178E+00 -1.08351E+01 -1.68858E+01
  -1.95149E+01 -2.06586E+01 -2.13701E+01 -2.18753E+01 -2.22598E+01 -2.25677E+01 -2.28573E+01 -2.31512E+01 -2.34340E+01 -2.36588E+01
  -2.37106E+01 -2.30883E+01 -1.97932E+01 -1.20035E+01 -2.62443E-01  1.21698E+01  2.11082E+01  2.39353E+01  2.09239E+01  1.45160E+01
   6.83376E+00 -1.12110E+00 -8.51049E+00 -1.45418E+01 -1.84445E+01 -2.06855E+01 -2.20849E+01 -2.26890E+01 -2.25779E+01 -2.19737E+01
  -2.11888E+01 -2.04830E+01 -2.00568E+01 -1.99597E+01 -2.01294E+01 -2.04883E+01 -2.09316E+01 -2.13564E+01 -2.17281E+01 -2.20318E+01
  -2.23070E+01 -2.25495E+01 -2.27328E+01 -2.28314E+01 -2.28456E+01 -2.28279E+01 -2.29363E+01 -2.33329E+01 -2.40163E+01 -2.47628E+01
  -2.52013E+01 -2.51151E+01 -2.46085E+01 -2.40206E+01 -2.36533E+01 -2.36146E+01 -2.38507E+01 -2.42451E+01 -2.47412E+01 -2.52624E+01
  -2.57310E+01 -2.62077E+01 -2.67864E+01 -2.74368E+01 -2.79507E+01 -2.80772E+01 -2.78598E+01 -2.75628E+01 -2.74245E+01 -2.74333E+01
  -2.74047E+01 -2.72778E+01 -2.72308E+01 -2.74194E+01 -2.76634E+01 -2.75019E+01 -2.66491E+01 -2.51414E+01 -2.33540E+01 -2.17765E+01
  -2.07453E+01 -2.04410E+01 -2.08263E+01 -2.17837E+01 -2.30619E+01 -2.42792E+01 -2.49320E+01 -2.46591E+01 -2.33621E+01 -2.12118E+01
  -1.86126E+01 -1.60725E+01 -1.41136E+01 -1.33335E+01 -1.42094E+01 -1.70947E+01 -2.14448E+01 -2.60870E+01 -2.97763E+01 -3.16942E+01
  -3.15287E+01 -2.92254E+01 -2.50779E+01 -1.98923E+01 -1.49682E+01 -1.17649E+01 -1.10649E+01 -1.29249E+01 -1.66601E+01 -2.14076E+01
  -2.60391E+01 -2.91645E+01 -2.98519E+01 -2.81320E+01 -2.49394E+01 -2.14890E+01 -1.85536E+01 -1.66326E+01 -1.59488E+01 -1.63568E+01
  -1.74169E+01 -1.86296E+01 -1.95277E+01 -1.98114E+01 -1.92334E+01 -1.77819E+01 -1.58392E+01 -1.41712E+01 -1.35597E+01 -1.42896E+01
  -1.60619E+01 -1.82440E+01 -2.01474E+01 -2.12278E+01 -2.12833E+01 -2.05491E+01 -1.93973E+01 -1.81382E+01 -1.69847E+01 -1.60706E+01
  -1.53537E+01 -1.46686E+01 -1.39370E+01 -1.31590E+01 -1.19426E+01 -7.35636E+00  4.95481E+00  2.52885E+01  4.86809E+01  6.69541E+01
   7.40706E+01  6.90330E+01  5.58865E+01  3.94362E+01  2.24563E+01  6.99097E+00 -4.93773E+00 -1.19321E+01 -1.46806E+01 -1.60245E+01
  -1.68131E+01 -1.71839E+01 -1.72395E+01 -1.71360E+01 -1.69842E+01 -1.68895E+01 -1.69218E+01 -1.71029E+01 -1.74068E+01 -1.77805E+01
  -1.81491E+01 -1.84429E+01 -1.86334E+01 -1.87269E+01 -1.87423E+01 -1.87045E+01 -1.86365E+01 -1.85520E+01 -1.84588E+01 -1.83525E+01
  -1.82262E+01 -1.80731E+01 -1.78824E+01 -1.76459E+01 -1.73603E+01 -1.70255E+01 -1.66433E+01 -1.62184E+01 -1.57591E+01 -1.52753E+01
  -1.47773E+01 -1.42783E+01 -1.37926E+01 -1.33355E+01 -1.29222E+01 -1.25664E+01 -1.22787E+01 -1.20676E+01 -1.19385E+01 -1.18934E+01
  -1.19308E+01 -1.20450E+01 -1.22276E+01 -1.24673E+01 -1.27510E+01 -1.30646E+01 -1.33933E+01 -1.37230E+01 -1.40402E+01 -1.43337E+01
  -1.45946E+01 -1.48165E+01 -1.49954E+01 -1.51293E+01 -1.52186E+01 -1.52659E+01 -1.52750E+01 -1.52512E+01 -1.51997E+01 -1.51260E+01
  -1.50353E+01 -1.49327E+01 -1.48221E+01 -1.47063E+01 -1.45859E+01 -1.44593E+01 -1.43222E+01 -1.41662E+01 -1.39771E+01 -1.37314E+01
  -1.33891E+01 -1.28740E+01 -1.20369E+01 -1.08574E+01 -9.62747E+00 -8.76639E+00 -8.55057E+00 -8.90248E+00 -9.48234E+00 -9.91127E+00
  -9.84479E+00 -9.00992E+00 -7.29101E+00 -4.92063E+00 -2.48173E+00 -6.96001E-01 -2.72505E-02 -4.06044E-01 -1.59074E+00 -3.35562E+00
  -5.45036E+00 -7.60638E+00 -9.54118E+00 -1.11466E+01 -1.24711E+01 -1.35422E+01 -1.43849E+01 -1.50305E+01 -1.55137E+01 -1.58684E+01
  -1.61253E+01 -1.63095E+01 -1.64404E+01 -1.65322E+01 -1.65942E+01 -1.66325E+01 -1.66508E+01 -1.66509E+01 -1.66336E+01 -1.65988E+01
  -1.65456E+01 -1.64734E+01 -1.63809E+01 -1.62672E+01 -1.61310E+01 -1.59714E+01 -1.57873E+01 -1.55785E+01 -1.53448E+01 -1.50867E+01
  -1.48052E+01 -1.45023E+01 -1.41806E+01 -1.38440E+01 -1.34969E+01 -1.31451E+01 -1.27949E+01 -1.24533E+01 -1.21279E+01 -1.18266E+01
  -1.15571E+01 -1.13267E+01 -1.11418E+01 -1.10079E+01 -1.09289E+01 -1.09074E+01 -1.09441E+01 -1.10381E+01 -1.11863E+01 -1.13846E+01
  -1.16272E+01 -1.19075E+01 -1.22181E+01 -1.25510E+01 -1.28983E+01 -1.32525E+01 -1.36066E+01 -1.39543E+01 -1.42904E+01 -1.46105E+01
  -1.49111E+01 -1.51902E+01 -1.54464E+01 -1.56790E+01 -1.58882E+01 -1.60746E+01 -1.62394E+01 -1.63839E+01 -1.65098E+01 -1.66187E+01
  -1.67123E+01 -1.67921E+01 -1.68597E+01 -1.69167E+01 -1.69644E+01 -1.70039E+01 -1.70361E+01 -1.70621E+01 -1.70827E+01 -1.70986E+01
  -1.71104E+01 -1.71185E+01 -1.71235E+01 -1.71256E+01 -1.71253E+01 -1.71230E+01 -1.71186E+01 -1.71126E+01 -1.71050E+01 -1.70960E+01
  -1.70859E+01 -1.70747E+01 -1.70624E+01 -1.70493E+01 -1.70352E+01 -1.70204E+01 -1.70050E+01 -1.69890E+01 -1.69723E+01 -1.69551E+01
  -1.69373E+01 -1.69192E+01 -1.69006E+01 -1.68817E+01 -1.68622E+01 -1.68425E+01 -1.68224E+01 -1.68021E+01 -1.67815E+01 -1.67606E+01
  -1.67394E+01 -1.67180E+01 -1.66963E+01 -1.66745E+01 -1.66524E+01 -1.66301E+01 -1.66076E+01 -1.65848E+01 -1.65619E+01 -1.65389E+01
  -1.65156E+01 -1.64922E+01 -1.64685E+01 -1.64447E+01 -1.64207E+01 -1.63966E+01 -1.63722E+01 -1.63476E+01 -1.63228E+01 -1.62978E+01
  -1.62727E+01 -1.62473E+01 -1.62216E+01 -1.61957E+01 -1.61695E+01 -1.61432E+01 -1.61164E+01 -1.60893E+01
 NY background values follow
    -2.716E+01   -2.714E+01   -2.712E+01   -2.710E+01   -2.708E+01   -2.706E+01   -2.704E+01   -2.702E+01   -2.700E+01   -2.698E+01
    -2.696E+01   -2.694E+01   -2.692E+01   -2.691E+01   -2.689E+01   -2.687E+01   -2.685E+01   -2.683E+01   -2.681E+01   -2.679E+01
    -2.677E+01   -2.675E+01   -2.673E+01   -2.671E+01   -2.669E+01   -2.667E+01   -2.665E+01   -2.663E+01   -2.661E+01   -2.659E+01
    -2.657E+01   -2.655E+01   -2.653E+01   -2.651E+01   -2.649E+01   -2.647E+01   -2.645E+01   -2.643E+01   -2.642E+01   -2.640E+01
    -2.638E+01   -2.636E+01   -2.634E+01   -2.632E+01   -2.630E+01   -2.628E+01   -2.626E+01   -2.624E+01   -2.622E+01   -2.620E+01
    -2.618E+01   -2.616E+01   -2.613E+01   -2.611E+01   -2.609E+01   -2.607E+01   -2.605E+01   -2.603E+01   -2.601E+01   -2.599E+01
    -2.597E+01   -2.595E+01   -2.593E+01   -2.591E+01   -2.589E+01   -2.587E+01   -2.585E+01   -2.583E+01   -2.581E+01   -2.579E+01
    -2.577E+01   -2.575E+01   -2.573E+01   -2.571E+01   -2.569E+01   -2.567E+01   -2.565E+01   -2.563E+01   -2.560E+01   -2.558E+01
    -2.556E+01   -2.554E+01   -2.552E+01   -2.550E+01   -2.548E+01   -2.546E+01   -2.544E+01   -2.542E+01   -2.540E+01   -2.538E+01
    -2.536E+01   -2.533E+01   -2.531E+01   -2.529E+01   -2.527E+01   -2.525E+01   -2.523E+01   -2.521E+01   -2.519E+01   -2.517E+01
    -2.515E+01   -2.512E+01   -2.510E+01   -2.508E+01   -2.506E+01   -2.504E+01   -2.502E+01   -2.500E+01   -2.498E+01   -2.496E+01
    -2.493E+01   -2.491E+01   -2.489E+01   -2.487E+01   -2.485E+01   -2.483E+01   -2.481E+01   -2.479E+01   -2.476E+01   -2.474E+01
    -2.472E+01   -2.470E+01   -2.468E+01   -2.466E+01   -2.464E+01   -2.461E+01   -2.459E+01   -2.457E+01   -2.455E+01   -2.453E+01
    -2.451E+01   -2.449E+01   -2.446E+01   -2.444E+01   -2.442E+01   -2.440E+01   -2.438E+01   -2.436E+01   -2.433E+01   -2.431E+01
    -2.429E+01   -2.427E+01   -2.425E+01   -2.423E+01   -2.420E+01   -2.418E+01   -2.416E+01   -2.414E+01   -2.412E+01   -2.409E+01
    -2.407E+01   -2.405E+01   -2.403E+01   -2.401E+01   -2.398E+01   -2.396E+01   -2.394E+01   -2.392E+01   -2.390E+01   -2.387E+01
    -2.385E+01   -2.383E+01   -2.381E+01   -2.379E+01   -2.376E+01   -2.374E+01   -2.372E+01   -2.370E+01   -2.368E+01   -2.365E+01
    -2.363E+01   -2.361E+01   -2.359E+01   -2.356E+01   -2.354E+01   -2.352E+01   -2.350E+01   -2.348E+01   -2.345E+01   -2.343E+01
    -2.341E+01   -2.339E+01   -2.336E+01   -2.334E+01   -2.332E+01   -2.330E+01   -2.327E+01   -2.325E+01   -2.323E+01   -2.321E+01
    -2.318E+01   -2.316E+01   -2.314E+01   -2.312E+01   -2.309E+01   -2.307E+01   -2.305E+01   -2.303E+01   -2.300E+01   -2.298E+01
    -2.296E+01   -2.294E+01   -2.291E+01   -2.289E+01   -2.287E+01   -2.284E+01   -2.282E+01   -2.280E+01   -2.278E+01   -2.275E+01
    -2.273E+01   -2.271E+01   -2.268E+01   -2.266E+01   -2.264E+01   -2.262E+01   -2.259E+01   -2.257E+01   -2.255E+01   -2.252E+01
    -2.250E+01   -2.248E+01   -2.246E+01   -2.243E+01   -2.241E+01   -2.239E+01   -2.236E+01   -2.234E+01   -2.232E+01   -2.229E+01
    -2.227E+01   -2.225E+01   -2.223E+01   -2.220E+01   -2.218E+01   -2.216E+01   -2.213E+01   -2.211E+01   -2.209E+01   -2.206E+01
    -2.204E+01   -2.202E+01   -2.199E+01   -2.197E+01   -2.195E+01   -2.192E+01   -2.190E+01   -2.188E+01   -2.185E+01   -2.183E+01
    -2.181E+01   -2.178E+01   -2.176E+01   -2.174E+01   -2.171E+01   -2.169E+01   -2.167E+01   -2.164E+01   -2.162E+01   -2.160E+01
    -2.157E+01   -2.155E+01   -2.153E+01   -2.150E+01   -2.148E+01   -2.146E+01   -2.143E+01   -2.141E+01   -2.138E+01   -2.136E+01
    -2.134E+01   -2.131E+01   -2.129E+01   -2.127E+01   -2.124E+01   -2.122E+01   -2.120E+01   -2.117E+01   -2.115E+01   -2.112E+01
    -2.110E+01   -2.108E+01   -2.105E+01   -2.103E+01   -2.101E+01   -2.098E+01   -2.096E+01   -2.094E+01   -2.091E+01   -2.089E+01
    -2.086E+01   -2.084E+01   -2.082E+01   -2.079E+01   -2.077E+01   -2.074E+01   -2.072E+01   -2.070E+01   -2.067E+01   -2.065E+01
    -2.063E+01   -2.060E+01   -2.058E+01   -2.055E+01   -2.053E+01   -2.051E+01   -2.048E+01   -2.046E+01   -2.043E+01   -2.041E+01
    -2.039E+01   -2.036E+01   -2.034E+01   -2.031E+01   -2.029E+01   -2.027E+01   -2.024E+01   -2.022E+01   -2.019E+01   -2.017E+01
    -2.015E+01   -2.012E+01   -2.010E+01   -2.007E+01   -2.005E+01   -2.003E+01   -2.000E+01   -1.998E+01   -1.995E+01   -1.993E+01
    -1.990E+01   -1.988E+01   -1.986E+01   -1.983E+01   -1.981E+01   -1.978E+01   -1.976E+01   -1.973E+01   -1.971E+01   -1.969E+01
    -1.966E+01   -1.964E+01   -1.961E+01   -1.959E+01   -1.957E+01   -1.954E+01   -1.952E+01   -1.949E+01   -1.947E+01   -1.944E+01
    -1.942E+01   -1.939E+01   -1.937E+01   -1.935E+01   -1.932E+01   -1.930E+01   -1.927E+01   -1.925E+01   -1.922E+01   -1.920E+01
    -1.918E+01   -1.915E+01   -1.913E+01   -1.910E+01   -1.908E+01   -1.905E+01   -1.903E+01   -1.900E+01   -1.898E+01   -1.896E+01
    -1.893E+01   -1.891E+01   -1.888E+01   -1.886E+01   -1.883E+01   -1.881E+01   -1.878E+01   -1.876E+01   -1.873E+01   -1.871E+01
    -1.869E+01   -1.866E+01   -1.864E+01   -1.861E+01   -1.859E+01   -1.856E+01   -1.854E+01   -1.851E+01   -1.849E+01   -1.846E+01
    -1.844E+01   -1.841E+01   -1.839E+01   -1.837E+01   -1.834E+01   -1.832E+01   -1.829E+01   -1.827E+01   -1.824E+01   -1.822E+01
    -1.819E+01   -1.817E+01   -1.814E+01   -1.812E+01   -1.809E+01   -1.807E+01   -1.804E+01   -1.802E+01   -1.799E+01   -1.797E+01
    -1.795E+01   -1.792E+01   -1.790E+01   -1.787E+01   -1.785E+01   -1.782E+01   -1.780E+01   -1.777E+01   -1.775E+01   -1.772E+01
    -1.770E+01   -1.767E+01   -1.765E+01   -1.762E+01   -1.760E+01   -1.757E+01   -1.755E+01   -1.752E+01   -1.750E+01   -1.747E+01
    -1.745E+01   -1.742E+01   -1.740E+01   -1.737E+01   -1.735E+01   -1.732E+01   -1.730E+01   -1.727E+01   -1.725E+01   -1.722E+01
    -1.720E+01   -1.717E+01   -1.715E+01   -1.712E+01   -1.710E+01   -1.707E+01   -1.705E+01   -1.702E+01   -1.700E+01   -1.697E+01
    -1.695E+01   -1.692E+01   -1.690E+01   -1.687E+01   -1.685E+01   -1.682E+01   -1.680E+01   -1.677E+01   -1.675E+01   -1.672E+01
    -1.670E+01   -1.667E+01   -1.665E+01   -1.662E+01   -1.660E+01   -1.657E+01   -1.655E+01   -1.652E+01   -1.650E+01   -1.647E+01
    -1.645E+01   -1.642E+01   -1.640E+01   -1.637E+01   -1.635E+01   -1.632E+01   -1.630E+01   -1.627E+01   -1.625E+01   -1.622E+01
    -1.620E+01   -1.617E+01   -1.615E+01   -1.612E+01   -1.610E+01   -1.607E+01   -1.605E+01   -1.602E+01   -1.600E+01   -1.597E+01
    -1.595E+01   -1.592E+01   -1.590E+01   -1.587E+01   -1.585E+01   -1.582E+01   -1.580E+01   -1.577E+01
 Asp      Conc. = 1.74E+02
