 LCModel (Version 6.3-1L) Copyright: S.W. Provencher.          Ref.: Magn. Reson. Med. 30:672-679 (1993).                
 Slice#3 Row#1 Col#7  PD_24_press_2_raw_act
 36 lines in following concentration table = NCONC+1
    Conc.  %SD /Cr+PCr  Metabolite                                         
  248.959  99%   1.160 Ala                                                 
   34.081  86%   0.159 Asp                                                 
    0.000 999%   0.000 Cr                                                  
  214.628  51%   1.000 PCr                                                 
   18.991  92% 8.8E-02 GABA                                                
   20.118  87% 9.4E-02 Glc                                                 
    0.000 999%   0.000 Gln                                                 
    0.000 999%   0.000 Glu                                                 
  146.439  29%   0.682 GPC                                                 
    0.000 999%   0.000 PCh                                                 
  246.915  67%   1.150 GSH                                                 
 1.51E+03  32%   7.017 Ins                                                 
   65.640 411%   0.306 Lac                                                 
    0.000 999%   0.000 NAA                                                 
    0.000 999%   0.000 NAAG                                                
    7.116  82% 3.3E-02 Scyllo                                              
   32.840  89%   0.153 Tau                                                 
   36.219 151%   0.169 -CrCH2                                              
  146.439  29%   0.682 GPC+PCh                                             
    0.000 999%   0.000 NAA+NAAG                                            
  214.628  51%   1.000 Cr+PCr                                              
    0.000 999%   0.000 Glu+Gln                                             
  848.087  74%   3.951 Lip13a                                              
    0.000 999%   0.000 Lip13b                                              
  227.702  75%   1.061 Lip09                                               
  269.791 107%   1.257 MM09                                                
  126.906  78%   0.591 Lip20                                               
  354.258 123%   1.651 MM20                                                
   80.585 119%   0.375 MM12                                                
  259.950 106%   1.211 MM14                                                
  163.885  93%   0.764 MM17                                                
  848.087  74%   3.951 Lip13a+Lip13b                                       
 1.19E+03  46%   5.538 MM14+Lip13a+Lip13b+MM12                             
  497.493  52%   2.318 MM09+Lip09                                          
  481.164  84%   2.242 MM20+Lip20                                          
   6 lines in following misc. output table
  FWHM = 0.054 ppm    S/N =   1                                            
  Data shift = 0.069 ppm                                                   
  Ph:-175 deg       4.2 deg/ppm                                            
  alphaB,S = 8.5E+01,   5.1E+01                                            
   14 spline knots.   Ns = 5(1)                                            
   2 inflections.     1 extrema                                            
  498 points on ppm-axis = NY
      4.000000     3.992357     3.984714     3.977070     3.969427     3.961784     3.954141     3.946497     3.938854     3.931211
      3.923568     3.915925     3.908281     3.900638     3.892995     3.885352     3.877708     3.870065     3.862422     3.854779
      3.847136     3.839492     3.831849     3.824206     3.816563     3.808919     3.801276     3.793633     3.785990     3.778347
      3.770703     3.763060     3.755417     3.747774     3.740130     3.732487     3.724844     3.717201     3.709558     3.701914
      3.694271     3.686628     3.678985     3.671341     3.663698     3.656055     3.648412     3.640769     3.633125     3.625482
      3.617839     3.610196     3.602552     3.594909     3.587266     3.579623     3.571980     3.564336     3.556693     3.549050
      3.541407     3.533763     3.526120     3.518477     3.510834     3.503191     3.495547     3.487904     3.480261     3.472618
      3.464974     3.457331     3.449688     3.442045     3.434402     3.426758     3.419115     3.411472     3.403829     3.396185
      3.388542     3.380899     3.373256     3.365613     3.357969     3.350326     3.342683     3.335040     3.327396     3.319753
      3.312110     3.304467     3.296824     3.289180     3.281537     3.273894     3.266251     3.258607     3.250964     3.243321
      3.235678     3.228034     3.220391     3.212748     3.205105     3.197462     3.189818     3.182175     3.174532     3.166889
      3.159245     3.151602     3.143959     3.136316     3.128673     3.121029     3.113386     3.105743     3.098100     3.090456
      3.082813     3.075170     3.067527     3.059884     3.052240     3.044597     3.036954     3.029311     3.021667     3.014024
      3.006381     2.998738     2.991095     2.983451     2.975808     2.968165     2.960522     2.952878     2.945235     2.937592
      2.929949     2.922306     2.914662     2.907019     2.899376     2.891733     2.884089     2.876446     2.868803     2.861160
      2.853517     2.845873     2.838230     2.830587     2.822944     2.815300     2.807657     2.800014     2.792371     2.784728
      2.777084     2.769441     2.761798     2.754155     2.746511     2.738868     2.731225     2.723582     2.715939     2.708295
      2.700652     2.693009     2.685366     2.677722     2.670079     2.662436     2.654793     2.647150     2.639506     2.631863
      2.624220     2.616577     2.608933     2.601290     2.593647     2.586004     2.578361     2.570717     2.563074     2.555431
      2.547788     2.540144     2.532501     2.524858     2.517215     2.509572     2.501928     2.494285     2.486642     2.478999
      2.471355     2.463712     2.456069     2.448426     2.440783     2.433139     2.425496     2.417853     2.410210     2.402566
      2.394923     2.387280     2.379637     2.371994     2.364350     2.356707     2.349064     2.341421     2.333777     2.326134
      2.318491     2.310848     2.303205     2.295561     2.287918     2.280275     2.272632     2.264988     2.257345     2.249702
      2.242059     2.234416     2.226772     2.219129     2.211486     2.203843     2.196199     2.188556     2.180913     2.173270
      2.165627     2.157983     2.150340     2.142697     2.135054     2.127410     2.119767     2.112124     2.104481     2.096838
      2.089194     2.081551     2.073908     2.066265     2.058621     2.050978     2.043335     2.035692     2.028049     2.020405
      2.012762     2.005119     1.997476     1.989833     1.982190     1.974546     1.966903     1.959260     1.951617     1.943974
      1.936331     1.928688     1.921045     1.913402     1.905759     1.898115     1.890472     1.882829     1.875186     1.867543
      1.859900     1.852257     1.844614     1.836971     1.829327     1.821684     1.814041     1.806398     1.798755     1.791112
      1.783469     1.775826     1.768183     1.760540     1.752896     1.745253     1.737610     1.729967     1.722324     1.714681
      1.707038     1.699395     1.691752     1.684108     1.676465     1.668822     1.661179     1.653536     1.645893     1.638250
      1.630607     1.622964     1.615321     1.607677     1.600034     1.592391     1.584748     1.577105     1.569462     1.561819
      1.554176     1.546533     1.538890     1.531246     1.523603     1.515960     1.508317     1.500674     1.493031     1.485388
      1.477745     1.470102     1.462458     1.454815     1.447172     1.439529     1.431886     1.424243     1.416600     1.408957
      1.401314     1.393671     1.386027     1.378384     1.370741     1.363098     1.355455     1.347812     1.340169     1.332526
      1.324883     1.317240     1.309596     1.301953     1.294310     1.286667     1.279024     1.271381     1.263738     1.256095
      1.248452     1.240808     1.233165     1.225522     1.217879     1.210236     1.202593     1.194950     1.187307     1.179664
      1.172021     1.164377     1.156734     1.149091     1.141448     1.133805     1.126162     1.118519     1.110876     1.103233
      1.095590     1.087946     1.080303     1.072660     1.065017     1.057374     1.049731     1.042088     1.034445     1.026802
      1.019158     1.011515     1.003872     0.996229     0.988586     0.980943     0.973300     0.965657     0.958014     0.950371
      0.942727     0.935084     0.927441     0.919798     0.912155     0.904512     0.896869     0.889226     0.881583     0.873940
      0.866296     0.858653     0.851010     0.843367     0.835724     0.828081     0.820438     0.812795     0.805152     0.797508
      0.789865     0.782222     0.774579     0.766936     0.759293     0.751650     0.744007     0.736364     0.728721     0.721077
      0.713434     0.705791     0.698148     0.690505     0.682862     0.675219     0.667576     0.659933     0.652290     0.644646
      0.637003     0.629360     0.621717     0.614074     0.606431     0.598788     0.591145     0.583502     0.575858     0.568215
      0.560572     0.552929     0.545286     0.537643     0.530000     0.522357     0.514714     0.507071     0.499427     0.491784
      0.484141     0.476498     0.468855     0.461212     0.453569     0.445925     0.438282     0.430639     0.422996     0.415353
      0.407710     0.400067     0.392424     0.384780     0.377137     0.369494     0.361851     0.354208     0.346565     0.338922
      0.331278     0.323635     0.315992     0.308349     0.300706     0.293063     0.285420     0.277777     0.270133     0.262490
      0.254847     0.247204     0.239561     0.231918     0.224275     0.216631     0.208988     0.201345
 NY phased data points follow
   2.10519E+01  3.34624E+00  1.81442E+01  8.77672E+00  5.52940E+00  1.98367E+01  2.17479E+01  1.18368E+01  1.62768E+01 -6.74978E+00
   1.55540E+01 -6.99993E+00  1.06933E+01  3.79305E+00  7.96784E+00  8.40359E-01  4.33407E+00  1.12721E+01  1.65929E+01  1.39889E+01
   2.13854E+01  1.17361E+01  1.20992E+01 -2.29898E+00  7.74458E+00  8.26088E+00  1.45325E+01  1.01248E+01  1.31390E+01  1.84111E+01
   7.19024E+00  2.20623E+00  2.18222E+01  1.01744E+01  1.47683E+01  1.08881E+01  8.57192E+00  9.60870E+00  1.37694E+01 -4.02817E+00
   1.51760E+01  2.02918E+01  1.96343E+01  9.28787E+00  1.13203E+01  6.30589E+00  1.54607E+01  1.14291E+01  2.27173E+01  3.42295E+01
   1.48905E+01  2.96482E+01  2.93490E+01  7.16845E+00  1.82896E+01  3.41310E+00  2.09028E+01 -8.85472E-01  8.38251E+00  7.85842E+00
   3.09825E+00  1.03189E-01  2.14125E+00 -5.36656E+00  4.10489E+00  8.00393E+00  5.81596E+00  1.07913E+01  5.62538E+00  1.06048E+01
   1.00253E+01  1.79607E+01  5.16139E+00  1.06070E+01  1.95863E+01  3.48286E+00  1.79725E+01  7.54040E+00  4.74736E+00  1.28389E+01
   1.18574E+01  2.58861E+00  1.41022E+01  6.77371E+00 -3.18464E+00  2.13469E+01  1.38097E+01  9.35149E+00  1.38883E+01 -5.14117E+00
   1.10165E+00  1.23632E+01  5.45890E+00 -4.14384E-01 -8.98639E-01  1.36530E+01  1.11175E+01  7.42830E+00  1.56789E+01  5.43778E+00
   1.38240E+01  1.20314E+01  2.94601E+01  1.92717E+01  1.48457E+01  1.37040E+01  1.24490E+01  2.05764E-01  1.55858E+01  2.42797E+00
   2.34001E+00  6.30336E+00  6.18845E+00  9.89811E+00  1.03006E+01  1.42190E+01 -1.11551E+01 -1.06045E+00  4.72119E+00 -3.90585E+00
   1.30100E+01  1.04550E+01  1.00754E+01  9.22550E+00  1.89363E+01  2.02826E+01  2.31261E+01  1.21924E+01  1.50530E+01  7.84547E+00
  -1.19897E+01  1.56323E+01  7.02678E+00  8.39775E+00  5.83902E+00  8.08055E+00  5.70351E+00  1.23534E+01  2.70687E+00  1.93462E+01
  -2.55256E+00  2.07420E+01  6.87261E+00  1.19971E+01 -3.86378E-01 -5.90468E+00 -7.79132E-01  4.13430E+00  8.23552E+00  9.20104E+00
   4.01877E+00  6.22355E+00 -1.43882E+01 -4.57986E+00  2.08162E+01 -3.58792E+00  7.01877E+00 -2.77006E+00  3.50154E+00  8.68640E+00
   1.90246E+01 -5.43030E+00  1.12993E+01  7.53911E+00 -5.17036E+00  1.23159E+01  1.07151E+01  1.07255E+01  1.46369E+01  1.72542E+01
   1.25648E+01  1.24833E+01  8.93416E-01  7.18622E+00  1.38646E+01  9.35228E+00  1.97865E+01  6.85835E+00  8.12315E+00  1.30105E+01
  -3.68509E+00  1.05936E+01  1.84547E+01  1.99710E+00  2.33886E+00  5.95732E+00  2.18293E+01  2.52469E+01  3.64771E+00  1.35635E+01
   2.23286E+00  6.72707E-01 -2.40475E+00  1.12296E+01 -4.60576E+00 -8.75427E-01  1.89801E+00  1.88522E+01  1.38968E+00 -1.62737E+00
   7.03454E+00  1.77028E+01 -4.89269E+00  1.09014E+01  4.43980E+00  9.31212E+00  1.84953E+01 -3.48540E+00  9.92785E+00  1.11635E+01
   3.02207E+01  1.49967E+01  4.73108E+00  1.91420E+01  4.54176E+00  5.07043E+00  7.93933E+00  3.63112E+00  3.02743E+00  5.18750E-01
   2.26981E+01  7.77585E+00 -1.07487E+00  2.07655E+01  1.20170E+01  1.00097E+01  9.40915E+00  4.69320E+00  1.50376E+01  1.40673E+01
   1.27850E+01  4.39716E+00  1.65738E+01  1.16480E+01  5.47582E+00  1.53407E+01  3.36146E+00  2.11109E+01  5.48008E+00  7.98499E+00
  -5.02065E+00 -7.03571E-01 -4.12791E+00  1.34325E+01  1.14556E+01 -1.45099E+00 -2.50255E+00  4.57506E+00  9.10435E+00  8.79827E-01
   7.94024E+00 -1.04050E+00 -4.52964E+00  1.14003E+00  5.99448E+00 -1.01994E+00  8.14629E+00  3.80645E+00 -3.89156E+00 -6.30783E+00
   1.26220E+01  1.82176E+01  9.31986E+00 -5.14712E+00 -7.76205E+00  4.43493E+00  9.83677E+00 -7.70623E+00  8.83472E-01 -6.81129E+00
  -5.31475E+00  2.70604E+00  4.04363E+00  4.61627E+00 -1.20540E+01 -2.63433E+00  3.97603E+00 -1.09048E+01  7.26143E+00 -5.42063E+00
  -9.02560E+00 -7.55499E+00 -1.89858E+01  9.46329E+00 -9.84066E+00  6.65987E-01  8.06497E+00 -2.46216E+00 -1.04670E+01  1.12897E+01
   7.80984E+00  9.35099E+00  1.49437E+01  6.61873E+00  1.35199E+01 -6.71386E+00 -5.44752E+00  1.81626E+00 -1.23591E+01 -1.56452E+00
   1.23600E+01 -2.70023E-02  1.54662E+01  9.73278E+00  8.35487E+00  6.11998E+00 -3.67368E+00  1.47116E+01  1.55820E+01  2.57153E+01
   1.07260E+01  1.31284E+01  1.05809E+01  1.67429E+01  1.75393E+01 -7.12012E+00  2.33354E+01  7.70638E+00  1.14309E+01  2.89696E+01
   1.83806E+01  1.03759E+01  1.33105E+01  5.41054E-01  1.54364E+01 -6.99699E-01  5.08571E+00  2.06157E+00  3.40493E+00  3.27059E+00
   7.36860E+00 -5.19294E+00  1.89953E+00  4.80014E+00  3.36871E+01  3.20750E+00 -8.19975E+00 -4.97124E+00  2.02454E+01  3.31424E+00
   1.04682E-01  1.88066E+01  1.97757E+01  9.10769E+00  6.02148E+00 -1.90802E+00  1.37229E+01  2.34569E+01 -3.96607E+00  9.52301E+00
   1.87913E+01  7.35918E+00  5.76627E+00  8.91835E+00  1.05373E+00 -6.44155E+00  2.69182E-01 -2.34952E+00  9.02701E+00  2.47949E+01
   3.87336E+00  9.63804E+00  1.63592E+01  5.27985E+00  8.63491E+00 -1.26491E+01  1.91723E+00 -1.27365E+00  4.70390E+00  7.41340E+00
   4.48395E+00  1.18726E+01  4.20770E+00 -3.51526E+00 -3.99420E+00  7.46735E+00  3.63649E+01  8.52330E+00  2.58339E+01  5.80400E+00
   1.08232E+01 -1.15709E+00 -1.82550E+01  3.15036E+00  3.17850E+01 -9.12622E+00  7.70909E+00  6.28189E+00 -1.41001E+00  3.57083E+00
   3.78401E+00 -4.62886E+00  1.10279E+00 -1.21424E+01  1.41569E+01 -8.57380E+00  2.80110E-01  6.60898E+00  1.14658E+01  1.22225E+01
   1.27094E+01  1.57334E+01  1.90323E+01  9.08320E+00  1.17234E+01 -1.42576E+00  8.93231E+00  2.18274E+01  5.00828E+00 -3.24792E+00
  -9.17194E+00  6.56717E+00  3.22249E-01  2.75754E-01 -4.27386E+00  1.05522E+01  1.60593E+01  3.55197E+00 -2.36645E+00  1.96943E+00
   1.37670E+01  4.36162E+00  8.56752E+00  2.69587E+00  2.62057E-01  7.63184E+00 -2.25671E+00  4.76048E+00  9.75272E+00  1.29728E+01
   4.50829E+00  1.76751E+01  3.23170E+00 -5.41473E+00  6.65178E+00  3.12194E+00  2.07011E+01 -1.10517E+00  8.93367E+00  8.65963E+00
   4.18843E+00  1.39880E+01  1.42110E+01  8.03812E+00  7.89022E+00  3.23564E+00  1.89906E+01  6.66834E-01  7.28865E+00  7.76546E+00
   1.80875E+01  2.32446E+00  6.08623E+00 -5.22635E+00 -4.28586E+00  6.52001E+00  1.73467E+01  1.95363E+01 -1.79385E+01 -1.65419E+00
  -1.24722E+01 -9.23258E+00 -1.01845E+01 -1.22586E+01  3.35995E+00  1.19685E+00 -1.56055E+01  1.10363E+01 -2.48192E+00  8.71343E+00
  -7.71282E+00 -6.19119E+00 -3.60274E+00 -3.44434E+00 -1.18808E+01 -3.73432E+00  5.01528E+00 -6.37881E+00  1.24790E+01  5.13550E+00
  -5.78654E+00  4.01511E+00  6.09938E+00  1.67663E+01 -5.66244E+00  1.82513E+00  1.96414E+00  7.98310E+00  2.22443E+00  7.29429E-01
   7.69750E+00 -5.04441E+00 -1.10055E+00  1.16211E+01  3.00604E-01  5.63115E+00  6.19528E+00  3.27853E+00
 NY points of the fit to the data follow
   1.04369E+01  9.61206E+00  9.01936E+00  8.91759E+00  9.48781E+00  1.03746E+01  1.12577E+01  1.19440E+01  1.23128E+01  1.23241E+01
   1.20226E+01  1.14682E+01  1.07200E+01  9.85146E+00  9.01942E+00  8.44597E+00  8.22536E+00  8.15528E+00  8.15489E+00  8.18119E+00
   8.21789E+00  8.20756E+00  8.12517E+00  8.01141E+00  8.05275E+00  8.68311E+00  9.82158E+00  1.10689E+01  1.21741E+01  1.29951E+01
   1.34286E+01  1.34649E+01  1.32153E+01  1.27800E+01  1.22361E+01  1.15370E+01  1.07873E+01  1.02286E+01  9.67578E+00  8.99491E+00
   8.30574E+00  7.77981E+00  7.74168E+00  8.77948E+00  1.10577E+01  1.39732E+01  1.65718E+01  1.81002E+01  1.83263E+01  1.74230E+01
   1.56706E+01  1.33198E+01  1.07048E+01  8.25543E+00  6.57746E+00  6.27049E+00  7.16137E+00  8.61602E+00  1.00727E+01  1.11886E+01
   1.17700E+01  1.17637E+01  1.12602E+01  1.04648E+01  9.56956E+00  8.72753E+00  8.10390E+00  7.96973E+00  8.36830E+00  9.11029E+00
   9.91963E+00  1.05610E+01  1.09149E+01  1.09568E+01  1.07531E+01  1.04021E+01  9.96231E+00  9.49931E+00  9.05400E+00  8.73099E+00
   8.55029E+00  8.44613E+00  8.27776E+00  7.86420E+00  7.11825E+00  6.11869E+00  5.05644E+00  4.13519E+00  3.50540E+00  3.26363E+00
   3.44411E+00  4.01233E+00  4.93188E+00  5.99429E+00  6.87119E+00  7.34007E+00  7.45437E+00  7.77967E+00  9.36094E+00  1.18975E+01
   1.45529E+01  1.67348E+01  1.80641E+01  1.83976E+01  1.78253E+01  1.63832E+01  1.41579E+01  1.14211E+01  8.70099E+00  6.75659E+00
   6.07872E+00  5.95538E+00  5.92109E+00  5.92043E+00  5.92388E+00  5.90314E+00  5.85254E+00  5.78535E+00  5.72278E+00  5.70232E+00
   5.81112E+00  6.37161E+00  7.69960E+00  9.42401E+00  1.10970E+01  1.23928E+01  1.31216E+01  1.32583E+01  1.29346E+01  1.22486E+01
   1.11652E+01  9.74027E+00  8.21994E+00  6.98936E+00  6.23388E+00  5.69601E+00  5.33067E+00  5.19036E+00  5.25746E+00  5.50383E+00
   5.89967E+00  6.34605E+00  6.67607E+00  6.81917E+00  6.78231E+00  6.59434E+00  6.33677E+00  6.08458E+00  5.87938E+00  5.73419E+00
   5.60676E+00  5.49435E+00  5.40588E+00  5.34421E+00  5.30447E+00  5.28046E+00  5.27168E+00  5.26946E+00  5.26715E+00  5.25928E+00
   5.23993E+00  5.20540E+00  5.16542E+00  5.13816E+00  5.12874E+00  5.13173E+00  5.14061E+00  5.15136E+00  5.16741E+00  5.18729E+00
   5.20021E+00  5.19465E+00  5.16585E+00  5.11667E+00  5.05674E+00  4.99074E+00  4.91962E+00  4.84607E+00  4.77411E+00  4.71422E+00
   4.65025E+00  4.57164E+00  4.48375E+00  4.39882E+00  4.34879E+00  4.38917E+00  4.56010E+00  4.85335E+00  5.19989E+00  5.51114E+00
   5.71784E+00  5.76706E+00  5.58818E+00  5.17329E+00  4.66594E+00  4.20976E+00  3.90579E+00  3.81620E+00  3.93934E+00  4.21426E+00
   4.55784E+00  4.90429E+00  5.20184E+00  5.39927E+00  5.45986E+00  5.41179E+00  5.35978E+00  5.33673E+00  5.32962E+00  5.32069E+00
   5.29801E+00  5.26266E+00  5.21915E+00  5.17314E+00  5.13321E+00  5.10917E+00  5.10698E+00  5.12607E+00  5.16685E+00  5.22928E+00
   5.30632E+00  5.38199E+00  5.44484E+00  5.49327E+00  5.52325E+00  5.51968E+00  5.43453E+00  5.24351E+00  5.01269E+00  4.82422E+00
   4.74167E+00  4.81136E+00  5.07062E+00  5.49873E+00  5.94738E+00  6.27578E+00  6.40697E+00  6.30842E+00  5.97861E+00  5.48860E+00
   5.00708E+00  4.68198E+00  4.57843E+00  4.71654E+00  5.07705E+00  5.55802E+00  5.99309E+00  6.29372E+00  6.44202E+00  6.44219E+00
   6.31886E+00  6.12111E+00  5.93340E+00  5.80894E+00  5.73691E+00  5.69966E+00  5.68645E+00  5.68820E+00  5.69120E+00  5.68028E+00
   5.65272E+00  5.61066E+00  5.56091E+00  5.50586E+00  5.44440E+00  5.37408E+00  5.29586E+00  5.21237E+00  5.12794E+00  5.04803E+00
   4.97661E+00  4.91672E+00  4.86905E+00  4.83048E+00  4.79703E+00  4.76553E+00  4.73120E+00  4.69107E+00  4.64668E+00  4.59977E+00
   4.55339E+00  4.51209E+00  4.47921E+00  4.45706E+00  4.44624E+00  4.44487E+00  4.45111E+00  4.46386E+00  4.48155E+00  4.50267E+00
   4.52651E+00  4.55291E+00  4.58289E+00  4.61733E+00  4.65598E+00  4.69826E+00  4.74392E+00  4.79223E+00  4.84199E+00  4.89204E+00
   4.94139E+00  4.98867E+00  5.03277E+00  5.07283E+00  5.10824E+00  5.13864E+00  5.16396E+00  5.18439E+00  5.20052E+00  5.21323E+00
   5.22382E+00  5.23388E+00  5.24540E+00  5.26069E+00  5.28255E+00  5.31443E+00  5.36068E+00  5.42709E+00  5.52223E+00  5.66044E+00
   5.87077E+00  6.22695E+00  6.82090E+00  7.39251E+00  7.63382E+00  7.44552E+00  6.84652E+00  5.92501E+00  4.78922E+00  3.53790E+00
   2.52701E+00  2.12863E+00  2.43234E+00  3.39369E+00  4.80352E+00  6.19978E+00  7.33159E+00  8.17338E+00  8.69516E+00  8.86510E+00
   8.69873E+00  8.33778E+00  8.11995E+00  8.12929E+00  8.16770E+00  8.14084E+00  8.02216E+00  7.81731E+00  7.54683E+00  7.23826E+00
   6.98622E+00  6.87676E+00  6.92690E+00  7.12687E+00  7.43741E+00  7.75234E+00  7.97980E+00  8.10821E+00  8.13173E+00  8.04419E+00
   7.85191E+00  7.59252E+00  7.34708E+00  7.14133E+00  6.95056E+00  6.76473E+00  6.58117E+00  6.39964E+00  6.22101E+00  6.04654E+00
   5.87766E+00  5.71575E+00  5.56210E+00  5.41787E+00  5.28408E+00  5.16160E+00  5.05118E+00  4.95339E+00  4.86877E+00  4.79775E+00
   4.74075E+00  4.69816E+00  4.67035E+00  4.65767E+00  4.66046E+00  4.67901E+00  4.71357E+00  4.76424E+00  4.83095E+00  4.91340E+00
   5.01099E+00  5.12274E+00  5.24727E+00  5.38272E+00  5.52673E+00  5.67643E+00  5.82855E+00  5.97937E+00  6.12493E+00  6.26108E+00
   6.38368E+00  6.48875E+00  6.57268E+00  6.63236E+00  6.66538E+00  6.67008E+00  6.64570E+00  6.59236E+00  6.51111E+00  6.40380E+00
   6.27300E+00  6.12186E+00  5.95395E+00  5.77308E+00  5.58316E+00  5.38795E+00  5.19105E+00  4.99563E+00  4.80451E+00  4.61999E+00
   4.44389E+00  4.27754E+00  4.12182E+00  3.97717E+00  3.84371E+00  3.72127E+00  3.60945E+00  3.50765E+00  3.41522E+00  3.33138E+00
   3.25538E+00  3.18645E+00  3.12386E+00  3.06689E+00  3.01492E+00  2.96733E+00  2.92364E+00  2.88335E+00  2.84607E+00  2.81141E+00
   2.77908E+00  2.74877E+00  2.72029E+00  2.69340E+00  2.66793E+00  2.64372E+00  2.62064E+00  2.59856E+00  2.57741E+00  2.55706E+00
   2.53746E+00  2.51852E+00  2.50019E+00  2.48242E+00  2.46516E+00  2.44836E+00  2.43199E+00  2.41601E+00  2.40040E+00  2.38512E+00
   2.37015E+00  2.35546E+00  2.34105E+00  2.32687E+00  2.31293E+00  2.29920E+00  2.28569E+00  2.27234E+00  2.25918E+00  2.24618E+00
   2.23335E+00  2.22066E+00  2.20811E+00  2.19568E+00  2.18338E+00  2.17119E+00  2.15913E+00  2.14716E+00  2.13529E+00  2.12351E+00
   2.11183E+00  2.10023E+00  2.08872E+00  2.07728E+00  2.06592E+00  2.05462E+00  2.04340E+00  2.03224E+00  2.02116E+00  2.01012E+00
   1.99916E+00  1.98824E+00  1.97739E+00  1.96659E+00  1.95586E+00  1.94517E+00  1.93455E+00  1.92397E+00
 NY background values follow
     6.463E+00    6.454E+00    6.445E+00    6.435E+00    6.426E+00    6.417E+00    6.407E+00    6.398E+00    6.389E+00    6.380E+00
     6.370E+00    6.361E+00    6.352E+00    6.342E+00    6.333E+00    6.324E+00    6.314E+00    6.305E+00    6.296E+00    6.287E+00
     6.277E+00    6.268E+00    6.259E+00    6.249E+00    6.240E+00    6.231E+00    6.221E+00    6.212E+00    6.203E+00    6.193E+00
     6.184E+00    6.175E+00    6.166E+00    6.156E+00    6.147E+00    6.138E+00    6.128E+00    6.119E+00    6.110E+00    6.100E+00
     6.091E+00    6.082E+00    6.073E+00    6.063E+00    6.054E+00    6.045E+00    6.035E+00    6.026E+00    6.017E+00    6.007E+00
     5.998E+00    5.989E+00    5.979E+00    5.970E+00    5.961E+00    5.952E+00    5.942E+00    5.933E+00    5.924E+00    5.914E+00
     5.905E+00    5.896E+00    5.886E+00    5.877E+00    5.868E+00    5.858E+00    5.849E+00    5.840E+00    5.831E+00    5.821E+00
     5.812E+00    5.803E+00    5.793E+00    5.784E+00    5.775E+00    5.765E+00    5.756E+00    5.747E+00    5.738E+00    5.728E+00
     5.719E+00    5.710E+00    5.700E+00    5.691E+00    5.682E+00    5.672E+00    5.663E+00    5.654E+00    5.644E+00    5.635E+00
     5.626E+00    5.617E+00    5.607E+00    5.598E+00    5.589E+00    5.579E+00    5.570E+00    5.561E+00    5.551E+00    5.542E+00
     5.533E+00    5.524E+00    5.514E+00    5.505E+00    5.496E+00    5.486E+00    5.477E+00    5.468E+00    5.458E+00    5.449E+00
     5.440E+00    5.430E+00    5.421E+00    5.412E+00    5.403E+00    5.393E+00    5.384E+00    5.375E+00    5.365E+00    5.356E+00
     5.347E+00    5.337E+00    5.328E+00    5.319E+00    5.309E+00    5.300E+00    5.291E+00    5.282E+00    5.272E+00    5.263E+00
     5.254E+00    5.244E+00    5.235E+00    5.226E+00    5.216E+00    5.207E+00    5.198E+00    5.189E+00    5.179E+00    5.170E+00
     5.161E+00    5.151E+00    5.142E+00    5.133E+00    5.123E+00    5.114E+00    5.105E+00    5.095E+00    5.086E+00    5.077E+00
     5.068E+00    5.058E+00    5.049E+00    5.040E+00    5.030E+00    5.021E+00    5.012E+00    5.002E+00    4.993E+00    4.984E+00
     4.974E+00    4.965E+00    4.956E+00    4.947E+00    4.937E+00    4.928E+00    4.919E+00    4.909E+00    4.900E+00    4.891E+00
     4.881E+00    4.872E+00    4.863E+00    4.854E+00    4.844E+00    4.835E+00    4.826E+00    4.816E+00    4.807E+00    4.798E+00
     4.788E+00    4.779E+00    4.770E+00    4.760E+00    4.751E+00    4.742E+00    4.733E+00    4.723E+00    4.714E+00    4.705E+00
     4.695E+00    4.686E+00    4.677E+00    4.667E+00    4.658E+00    4.649E+00    4.640E+00    4.630E+00    4.621E+00    4.612E+00
     4.602E+00    4.593E+00    4.584E+00    4.574E+00    4.565E+00    4.556E+00    4.546E+00    4.537E+00    4.528E+00    4.519E+00
     4.509E+00    4.500E+00    4.491E+00    4.481E+00    4.472E+00    4.463E+00    4.453E+00    4.444E+00    4.435E+00    4.425E+00
     4.416E+00    4.407E+00    4.398E+00    4.388E+00    4.379E+00    4.370E+00    4.360E+00    4.351E+00    4.342E+00    4.332E+00
     4.323E+00    4.314E+00    4.304E+00    4.295E+00    4.286E+00    4.277E+00    4.267E+00    4.258E+00    4.249E+00    4.239E+00
     4.230E+00    4.221E+00    4.211E+00    4.202E+00    4.193E+00    4.184E+00    4.174E+00    4.165E+00    4.156E+00    4.146E+00
     4.137E+00    4.128E+00    4.118E+00    4.109E+00    4.100E+00    4.090E+00    4.081E+00    4.072E+00    4.063E+00    4.053E+00
     4.044E+00    4.035E+00    4.025E+00    4.016E+00    4.007E+00    3.997E+00    3.988E+00    3.979E+00    3.969E+00    3.960E+00
     3.951E+00    3.942E+00    3.932E+00    3.923E+00    3.914E+00    3.904E+00    3.895E+00    3.886E+00    3.876E+00    3.867E+00
     3.858E+00    3.849E+00    3.839E+00    3.830E+00    3.821E+00    3.811E+00    3.802E+00    3.793E+00    3.783E+00    3.774E+00
     3.765E+00    3.755E+00    3.746E+00    3.737E+00    3.728E+00    3.718E+00    3.709E+00    3.700E+00    3.690E+00    3.681E+00
     3.672E+00    3.662E+00    3.653E+00    3.644E+00    3.634E+00    3.625E+00    3.616E+00    3.607E+00    3.597E+00    3.588E+00
     3.579E+00    3.569E+00    3.560E+00    3.551E+00    3.541E+00    3.532E+00    3.523E+00    3.513E+00    3.504E+00    3.495E+00
     3.486E+00    3.476E+00    3.467E+00    3.458E+00    3.448E+00    3.439E+00    3.430E+00    3.420E+00    3.411E+00    3.402E+00
     3.393E+00    3.383E+00    3.374E+00    3.365E+00    3.355E+00    3.346E+00    3.337E+00    3.327E+00    3.318E+00    3.309E+00
     3.299E+00    3.290E+00    3.281E+00    3.272E+00    3.262E+00    3.253E+00    3.244E+00    3.234E+00    3.225E+00    3.216E+00
     3.206E+00    3.197E+00    3.188E+00    3.178E+00    3.169E+00    3.160E+00    3.151E+00    3.141E+00    3.132E+00    3.123E+00
     3.113E+00    3.104E+00    3.095E+00    3.085E+00    3.076E+00    3.067E+00    3.058E+00    3.048E+00    3.039E+00    3.030E+00
     3.020E+00    3.011E+00    3.002E+00    2.992E+00    2.983E+00    2.974E+00    2.964E+00    2.955E+00    2.946E+00    2.937E+00
     2.927E+00    2.918E+00    2.909E+00    2.899E+00    2.890E+00    2.881E+00    2.871E+00    2.862E+00    2.853E+00    2.843E+00
     2.834E+00    2.825E+00    2.816E+00    2.806E+00    2.797E+00    2.788E+00    2.778E+00    2.769E+00    2.760E+00    2.750E+00
     2.741E+00    2.732E+00    2.722E+00    2.713E+00    2.704E+00    2.695E+00    2.685E+00    2.676E+00    2.667E+00    2.657E+00
     2.648E+00    2.639E+00    2.629E+00    2.620E+00    2.611E+00    2.602E+00    2.592E+00    2.583E+00    2.574E+00    2.564E+00
     2.555E+00    2.546E+00    2.536E+00    2.527E+00    2.518E+00    2.508E+00    2.499E+00    2.490E+00    2.481E+00    2.471E+00
     2.462E+00    2.453E+00    2.443E+00    2.434E+00    2.425E+00    2.415E+00    2.406E+00    2.397E+00    2.387E+00    2.378E+00
     2.369E+00    2.360E+00    2.350E+00    2.341E+00    2.332E+00    2.322E+00    2.313E+00    2.304E+00    2.294E+00    2.285E+00
     2.276E+00    2.267E+00    2.257E+00    2.248E+00    2.239E+00    2.229E+00    2.220E+00    2.211E+00    2.201E+00    2.192E+00
     2.183E+00    2.173E+00    2.164E+00    2.155E+00    2.146E+00    2.136E+00    2.127E+00    2.118E+00    2.108E+00    2.099E+00
     2.090E+00    2.080E+00    2.071E+00    2.062E+00    2.052E+00    2.043E+00    2.034E+00    2.025E+00    2.015E+00    2.006E+00
     1.997E+00    1.987E+00    1.978E+00    1.969E+00    1.959E+00    1.950E+00    1.941E+00    1.931E+00    1.922E+00    1.913E+00
     1.904E+00    1.894E+00    1.885E+00    1.876E+00    1.866E+00    1.857E+00    1.848E+00    1.838E+00
 Ala      Conc. = 2.49E+02
