 LCModel (Version 6.3-1L) Copyright: S.W. Provencher.          Ref.: Magn. Reson. Med. 30:672-679 (1993).                
 Slice#3 Row#1 Col#12  PD_24_press_2_raw_act
 36 lines in following concentration table = NCONC+1
    Conc.  %SD /Cr+PCr  Metabolite                                         
    3.307 999%   0.103 Ala                                                 
   10.638 168%   0.332 Asp                                                 
    0.000 999%   0.000 Cr                                                  
   32.072  92%   1.000 PCr                                                 
    6.027 177%   0.188 GABA                                                
    6.982 154%   0.218 Glc                                                 
   95.212  97%   2.969 Gln                                                 
   92.606 104%   2.887 Glu                                                 
   24.199  58%   0.755 GPC                                                 
    0.000 999%   0.000 PCh                                                 
   51.558  80%   1.608 GSH                                                 
    0.000 999%   0.000 Ins                                                 
    0.000 999%   0.000 Lac                                                 
   82.371  52%   2.568 NAA                                                 
    9.309 402%   0.290 NAAG                                                
    2.727 129% 8.5E-02 Scyllo                                              
    9.636 183%   0.300 Tau                                                 
    5.715 267%   0.178 -CrCH2                                              
   24.199  58%   0.755 GPC+PCh                                             
   91.680  58%   2.859 NAA+NAAG                                            
   32.072  92%   1.000 Cr+PCr                                              
  187.818  75%   5.856 Glu+Gln                                             
    0.000 999%   0.000 Lip13a                                              
    0.000 999%   0.000 Lip13b                                              
    0.000 999%   0.000 Lip09                                               
  464.115  27%  14.471 MM09                                                
    0.000 999%   0.000 Lip20                                               
  693.580  27%  21.625 MM20                                                
  138.688  28%   4.324 MM12                                                
  368.217  26%  11.481 MM14                                                
  184.897  27%   5.765 MM17                                                
    0.000 999%   0.000 Lip13a+Lip13b                                       
  506.905  26%  15.805 MM14+Lip13a+Lip13b+MM12                             
  464.115  27%  14.471 MM09+Lip09                                          
  693.580  27%  21.625 MM20+Lip20                                          
   6 lines in following misc. output table
  FWHM = 0.031 ppm    S/N =   1                                            
  Data shift =-0.008 ppm                                                   
  Ph: 102 deg      -9.8 deg/ppm                                            
  alphaB,S = 8.5E+01,   3.2E+00                                            
   14 spline knots.   Ns = 5(1)                                            
   2 inflections.     3 extrema                                            
  498 points on ppm-axis = NY
      4.000000     3.992357     3.984714     3.977070     3.969427     3.961784     3.954141     3.946497     3.938854     3.931211
      3.923568     3.915925     3.908281     3.900638     3.892995     3.885352     3.877708     3.870065     3.862422     3.854779
      3.847136     3.839492     3.831849     3.824206     3.816563     3.808919     3.801276     3.793633     3.785990     3.778347
      3.770703     3.763060     3.755417     3.747774     3.740130     3.732487     3.724844     3.717201     3.709558     3.701914
      3.694271     3.686628     3.678985     3.671341     3.663698     3.656055     3.648412     3.640769     3.633125     3.625482
      3.617839     3.610196     3.602552     3.594909     3.587266     3.579623     3.571980     3.564336     3.556693     3.549050
      3.541407     3.533763     3.526120     3.518477     3.510834     3.503191     3.495547     3.487904     3.480261     3.472618
      3.464974     3.457331     3.449688     3.442045     3.434402     3.426758     3.419115     3.411472     3.403829     3.396185
      3.388542     3.380899     3.373256     3.365613     3.357969     3.350326     3.342683     3.335040     3.327396     3.319753
      3.312110     3.304467     3.296824     3.289180     3.281537     3.273894     3.266251     3.258607     3.250964     3.243321
      3.235678     3.228034     3.220391     3.212748     3.205105     3.197462     3.189818     3.182175     3.174532     3.166889
      3.159245     3.151602     3.143959     3.136316     3.128673     3.121029     3.113386     3.105743     3.098100     3.090456
      3.082813     3.075170     3.067527     3.059884     3.052240     3.044597     3.036954     3.029311     3.021667     3.014024
      3.006381     2.998738     2.991095     2.983451     2.975808     2.968165     2.960522     2.952878     2.945235     2.937592
      2.929949     2.922306     2.914662     2.907019     2.899376     2.891733     2.884089     2.876446     2.868803     2.861160
      2.853517     2.845873     2.838230     2.830587     2.822944     2.815300     2.807657     2.800014     2.792371     2.784728
      2.777084     2.769441     2.761798     2.754155     2.746511     2.738868     2.731225     2.723582     2.715939     2.708295
      2.700652     2.693009     2.685366     2.677722     2.670079     2.662436     2.654793     2.647150     2.639506     2.631863
      2.624220     2.616577     2.608933     2.601290     2.593647     2.586004     2.578361     2.570717     2.563074     2.555431
      2.547788     2.540144     2.532501     2.524858     2.517215     2.509572     2.501928     2.494285     2.486642     2.478999
      2.471355     2.463712     2.456069     2.448426     2.440783     2.433139     2.425496     2.417853     2.410210     2.402566
      2.394923     2.387280     2.379637     2.371994     2.364350     2.356707     2.349064     2.341421     2.333777     2.326134
      2.318491     2.310848     2.303205     2.295561     2.287918     2.280275     2.272632     2.264988     2.257345     2.249702
      2.242059     2.234416     2.226772     2.219129     2.211486     2.203843     2.196199     2.188556     2.180913     2.173270
      2.165627     2.157983     2.150340     2.142697     2.135054     2.127410     2.119767     2.112124     2.104481     2.096838
      2.089194     2.081551     2.073908     2.066265     2.058621     2.050978     2.043335     2.035692     2.028049     2.020405
      2.012762     2.005119     1.997476     1.989833     1.982190     1.974546     1.966903     1.959260     1.951617     1.943974
      1.936331     1.928688     1.921045     1.913402     1.905759     1.898115     1.890472     1.882829     1.875186     1.867543
      1.859900     1.852257     1.844614     1.836971     1.829327     1.821684     1.814041     1.806398     1.798755     1.791112
      1.783469     1.775826     1.768183     1.760540     1.752896     1.745253     1.737610     1.729967     1.722324     1.714681
      1.707038     1.699395     1.691752     1.684108     1.676465     1.668822     1.661179     1.653536     1.645893     1.638250
      1.630607     1.622964     1.615321     1.607677     1.600034     1.592391     1.584748     1.577105     1.569462     1.561819
      1.554176     1.546533     1.538890     1.531246     1.523603     1.515960     1.508317     1.500674     1.493031     1.485388
      1.477745     1.470102     1.462458     1.454815     1.447172     1.439529     1.431886     1.424243     1.416600     1.408957
      1.401314     1.393671     1.386027     1.378384     1.370741     1.363098     1.355455     1.347812     1.340169     1.332526
      1.324883     1.317240     1.309596     1.301953     1.294310     1.286667     1.279024     1.271381     1.263738     1.256095
      1.248452     1.240808     1.233165     1.225522     1.217879     1.210236     1.202593     1.194950     1.187307     1.179664
      1.172021     1.164377     1.156734     1.149091     1.141448     1.133805     1.126162     1.118519     1.110876     1.103233
      1.095590     1.087946     1.080303     1.072660     1.065017     1.057374     1.049731     1.042088     1.034445     1.026802
      1.019158     1.011515     1.003872     0.996229     0.988586     0.980943     0.973300     0.965657     0.958014     0.950371
      0.942727     0.935084     0.927441     0.919798     0.912155     0.904512     0.896869     0.889226     0.881583     0.873940
      0.866296     0.858653     0.851010     0.843367     0.835724     0.828081     0.820438     0.812795     0.805152     0.797508
      0.789865     0.782222     0.774579     0.766936     0.759293     0.751650     0.744007     0.736364     0.728721     0.721077
      0.713434     0.705791     0.698148     0.690505     0.682862     0.675219     0.667576     0.659933     0.652290     0.644646
      0.637003     0.629360     0.621717     0.614074     0.606431     0.598788     0.591145     0.583502     0.575858     0.568215
      0.560572     0.552929     0.545286     0.537643     0.530000     0.522357     0.514714     0.507071     0.499427     0.491784
      0.484141     0.476498     0.468855     0.461212     0.453569     0.445925     0.438282     0.430639     0.422996     0.415353
      0.407710     0.400067     0.392424     0.384780     0.377137     0.369494     0.361851     0.354208     0.346565     0.338922
      0.331278     0.323635     0.315992     0.308349     0.300706     0.293063     0.285420     0.277777     0.270133     0.262490
      0.254847     0.247204     0.239561     0.231918     0.224275     0.216631     0.208988     0.201345
 NY phased data points follow
   1.76372E-01 -1.01165E+01  1.22946E+00 -1.10930E+01 -1.76151E+00 -4.36112E+00  6.72003E+00  3.29237E+00  5.88330E+00 -2.14539E+00
  -4.28775E+00 -1.89824E+00  1.04748E+00 -3.16076E+00 -1.88479E+00  1.80884E+00  3.17630E+00  9.22508E-01  3.81087E+00 -2.77203E-02
  -1.48535E+00  2.59090E+00  7.85303E-01 -3.38721E+00  2.11348E+00 -1.56172E+00 -1.41907E+00 -1.51753E+00  2.06494E+00  2.14107E+00
   1.14763E+00  3.70636E+00 -5.10278E-02  7.06813E+00  6.85744E-01 -1.28845E+00 -2.01410E+00 -8.99195E-01  4.38082E+00 -7.90777E-01
   5.67799E-01 -5.79422E-01 -7.50453E+00  4.50117E-01 -2.72933E+00 -1.59999E-02 -1.44333E+00 -2.20543E+00 -1.30596E+00 -3.29518E+00
  -3.72073E+00  3.90393E+00 -3.20214E+00  2.64950E+00  3.08844E+00 -2.14829E-01  2.88250E-01 -6.42480E+00  7.15778E+00 -3.90832E+00
  -3.86232E+00  1.18943E+00  3.28530E+00 -2.84018E+00 -2.80959E+00 -1.20812E+00 -2.02719E+00 -4.95105E+00 -1.18306E+00 -4.49026E-02
  -3.77299E-01 -4.85605E+00 -3.84051E+00  4.87146E+00 -1.19051E+00  5.42325E+00 -2.98558E+00  3.17745E+00  5.05754E+00 -2.26690E+00
  -2.73812E+00 -1.91468E+00  3.29744E+00  7.36459E+00  4.59198E+00 -9.27773E-01 -1.48015E+00  2.82114E+00  3.55988E+00  2.87115E+00
  -4.98503E+00 -2.76409E+00 -5.97365E+00  1.33557E+00 -3.58851E+00  7.04965E-01  1.40603E+00  2.67986E+00 -8.12593E-01 -3.06544E+00
  -3.79947E+00  3.32186E+00  6.20983E+00  2.87742E+00  3.78127E+00  6.17068E+00 -6.88996E+00  7.23356E+00 -1.05478E+01 -4.15848E+00
   2.95108E+00 -5.55449E+00 -1.04881E+00  3.94443E+00 -5.22314E+00 -8.01252E-01 -1.68242E-01 -5.09628E-01 -8.28081E+00  3.69931E+00
  -1.01763E+01  5.22176E+00 -6.25549E+00 -3.96836E+00  3.70427E+00 -9.51705E-01 -1.45078E+00  2.85674E+00  7.59796E+00 -7.10823E-01
   2.90345E+00  1.70867E+00 -1.98563E-01 -6.78518E-01 -5.66433E+00 -1.58880E+00 -3.59446E+00  3.82383E+00 -1.67332E+00  2.82364E+00
  -2.18296E+00 -9.64586E-01  5.84446E+00  3.99011E+00 -4.86311E+00 -4.40748E+00  2.71143E-02 -3.10243E+00  8.30200E-01 -5.29355E+00
  -3.04559E+00  8.08935E-01 -2.78487E+00 -9.41841E-01  4.08951E+00 -2.88145E+00  2.53622E+00  5.04113E-01 -2.02607E+00 -1.15580E+00
   2.68775E+00 -2.45686E+00 -2.86571E-01  3.91219E-01  2.77043E+00  2.99016E+00 -1.69817E+00  3.98775E+00  6.15442E+00  2.60961E+00
   1.54094E+00 -2.18930E+00  4.56676E-01 -2.20592E+00 -1.56164E+00  4.16620E+00  2.58500E+00 -1.63503E-01  1.02875E+00  2.13563E+00
   2.08281E+00  7.21261E-01 -2.94243E+00 -1.21190E+01  1.92560E+00  2.74495E+00 -2.83799E+00  5.71711E+00  4.10350E+00  3.45264E+00
   3.74957E+00 -3.68171E+00 -3.24946E+00 -1.83903E+00  3.75322E+00 -3.67740E+00 -4.40007E+00 -5.44834E-01 -1.02891E+01 -2.06070E-01
  -3.46677E+00  5.37036E-01  6.82807E-01  9.93654E-01 -1.66901E+00 -1.02492E+00 -1.63982E+00  1.22882E+00  7.02622E+00  2.10510E-01
  -3.01900E+00 -4.87980E+00  4.26254E+00  7.59374E-01  4.65866E-01  3.65996E+00  3.49457E-01  8.78736E+00  3.11072E-01  5.78626E+00
   2.23797E-01 -2.18159E+00  6.89232E-01  3.65853E-01 -1.42054E+00 -1.46622E+00 -1.28381E+00 -9.89312E-02  1.89568E+00 -4.91450E+00
   5.97621E+00 -5.94620E+00 -3.05622E+00 -2.41527E+00 -7.01544E+00  2.44260E+00 -3.67714E+00  5.56104E-01  4.62616E+00  5.89828E+00
   4.16934E+00  5.58054E+00  1.64732E+00 -1.57180E+00 -4.22890E+00 -1.53660E+00  9.21415E-01  4.63067E+00  1.25514E+00  1.33801E+00
   3.22232E+00 -1.18377E+00 -4.60216E+00  3.20192E+00  3.92825E+00 -2.31236E+00  7.94132E+00 -1.11172E+00  3.23871E+00  2.76159E+00
   7.90060E+00  4.07239E+00  1.19783E+01  9.07976E+00  2.06781E+00 -1.33834E+00  2.39014E-01  1.67229E+00  1.01601E+00  1.22475E+00
   8.33192E+00  3.46230E+00  8.75637E-01  3.22725E+00  4.40291E-01  2.82049E+00 -2.87145E-01 -9.44563E-01  1.75825E+00 -5.50908E+00
  -5.12545E+00 -5.01435E+00 -4.26741E+00 -6.00053E+00  1.21093E+00  1.92087E+00 -7.99037E+00 -1.53407E+00 -1.08878E+00 -6.59489E+00
   2.12386E+00  4.60551E+00  1.68555E+00  3.05381E+00  5.58370E+00  5.69483E+00  4.25405E+00  5.26053E+00  5.80727E+00  8.82556E+00
   9.19733E+00  9.74578E+00  1.71363E+00  8.17574E+00  7.42719E+00  1.96853E-02  7.02904E+00  6.74325E+00  8.06392E+00  9.36975E+00
   7.67668E+00  4.40698E+00  1.75052E+00  5.74628E+00  1.35711E+01  5.68248E+00  7.90360E+00  3.62163E+00  3.82031E+00  4.29709E+00
   5.13799E+00  5.72887E+00  7.65648E+00 -1.94472E+00  6.41137E+00  3.65340E+00  8.21284E+00  7.69396E+00  1.07386E+00  4.70454E+00
   7.61879E+00  9.01152E+00  9.52207E+00  6.21468E+00  9.02448E+00  6.29936E+00  6.41745E+00  1.06113E+01  7.94749E+00  6.41492E+00
   4.31199E+00  5.27032E+00  8.86743E+00  4.04796E+00  1.04351E+00  8.88586E+00  7.42469E+00 -6.27150E-01  9.16922E-01  2.86046E+00
   4.64595E+00 -1.19754E+00 -1.21654E+00  5.64728E+00 -3.19393E-01  1.08360E+00 -3.28025E+00 -3.73186E+00 -4.77284E+00 -3.33288E+00
  -1.67323E+00 -9.36039E+00 -4.47942E+00 -1.56043E+00  1.61977E+00 -1.74269E+00 -6.51490E+00 -2.07067E+00 -5.64503E+00 -4.91911E+00
  -9.64095E+00 -3.19907E+00  1.80503E+00  1.08337E+00  2.15120E+00 -7.24178E-01  1.27410E+00 -2.97298E+00 -4.49801E+00 -3.75662E-01
  -5.80646E+00 -1.54655E+00 -8.75510E-01 -7.23940E+00 -3.65887E+00 -5.03475E+00 -3.34396E+00 -6.70909E+00 -8.20583E-01  9.56139E-01
   1.46431E+00 -4.30986E-01 -1.39689E+00  4.57000E+00 -7.35586E+00 -3.12185E+00 -7.62266E+00 -1.20132E+00  1.09235E+00  1.42315E+00
   5.60591E+00 -3.35348E+00 -2.16617E+00 -3.53593E+00 -3.98956E+00 -3.14387E-01  4.49056E+00  1.15752E+00 -1.81232E-01  9.61949E-01
   5.99284E+00  5.36761E+00  6.48378E+00 -3.43483E+00  4.21881E+00  6.70870E+00 -4.81299E+00  4.47392E+00  3.65769E+00  4.12054E+00
  -2.04177E+00  3.23228E+00  7.15263E+00  1.32525E+00  1.54176E+00  5.71794E+00 -2.30423E+00  3.35460E+00 -2.57444E+00 -3.88593E+00
  -7.11278E+00 -6.52190E-01  5.13701E+00  1.30778E+00 -2.24941E+00 -7.19523E-01  8.76192E-01 -5.45174E+00 -1.65996E+00 -2.71727E+00
   5.93369E-01 -5.07530E+00 -6.06387E+00 -1.88291E+00  9.38784E-01  1.36102E+00  3.16397E+00  1.04178E+00 -3.45511E-02  7.37900E-02
  -8.76317E-01 -8.18961E+00 -9.17166E-01 -4.29461E+00  2.98360E+00 -1.77850E+00  7.95707E+00  2.47752E+00  3.33415E+00 -2.20933E+00
  -1.61580E+00 -4.14669E+00  7.44814E+00  1.03889E+01 -5.05286E+00  2.88519E+00  3.53005E+00  2.79741E+00  8.92096E-02  1.20754E+00
   5.90668E+00  4.46309E+00  2.27700E+00  1.07050E+01  9.46692E-01  6.82275E-01 -2.41646E+00  4.70184E+00  1.32266E+00 -2.67778E-01
   2.51632E+00 -3.29318E-01  3.28615E+00 -2.56462E+00  1.82411E-01  8.02352E-01  1.78843E+00  1.65380E+00 -1.94764E+00 -2.30312E+00
   5.85585E+00 -1.05172E+00 -6.87450E-01  3.48505E+00  1.37611E+00  1.02325E+01  2.76722E+00  1.58692E+00
 NY points of the fit to the data follow
  -7.02405E-01 -7.00117E-01 -6.95977E-01 -7.09325E-01 -7.84982E-01 -7.45159E-01 -4.24118E-01  5.00610E-02  4.78165E-01  7.86513E-01
   8.83984E-01  5.76117E-01 -5.13082E-02 -6.18249E-01 -7.80666E-01 -5.49242E-01 -4.16388E-01 -4.08601E-01 -4.14490E-01 -4.27524E-01
  -4.34650E-01 -3.71032E-01 -2.35715E-01 -1.19523E-01 -2.37110E-01 -8.07736E-01 -1.40517E+00 -1.41383E+00 -7.30247E-01  4.03349E-01
   1.76454E+00  3.04373E+00  3.37723E+00  2.42596E+00  6.47500E-01 -9.02388E-01 -1.49470E+00 -1.69756E+00 -1.57652E+00 -1.11531E+00
  -4.98043E-01  4.31537E-03  1.41591E-01  4.55557E-02 -1.34848E-01 -2.96097E-01 -4.16887E-01 -4.96391E-01 -4.96164E-01 -4.49488E-01
  -4.25655E-01 -3.82044E-01 -3.10675E-01 -3.17949E-01 -4.12558E-01 -4.90765E-01 -5.03006E-01 -5.10384E-01 -5.29216E-01 -5.53367E-01
  -5.63887E-01 -5.55089E-01 -5.44466E-01 -5.35202E-01 -5.28394E-01 -5.17461E-01 -5.01487E-01 -4.93144E-01 -5.04777E-01 -5.30027E-01
  -5.61921E-01 -5.92015E-01 -5.83378E-01 -5.24674E-01 -4.49615E-01 -3.79481E-01 -3.44883E-01 -3.62749E-01 -4.36506E-01 -5.36767E-01
  -6.13414E-01 -6.41002E-01 -6.11621E-01 -5.07999E-01 -3.47978E-01 -2.03171E-01 -1.10093E-01 -6.70221E-02 -1.07958E-01 -2.54672E-01
  -4.36375E-01 -5.40601E-01 -5.13893E-01 -4.84285E-01 -5.24914E-01 -5.63611E-01 -5.73474E-01 -7.03446E-01 -1.19747E+00 -1.29866E+00
  -2.14272E-01  1.64207E+00  3.45072E+00  4.84426E+00  5.44056E+00  4.36466E+00  1.76715E+00 -8.27613E-01 -1.77990E+00 -9.41831E-01
  -3.47038E-01 -2.39954E-01 -2.11980E-01 -1.92203E-01 -1.61494E-01 -1.22984E-01 -8.31904E-02 -5.71448E-02 -4.66267E-02 -5.12854E-02
  -8.82445E-02 -2.20573E-01 -4.72486E-01 -4.32899E-01  1.85311E-01  1.11031E+00  1.95749E+00  2.57391E+00  2.73094E+00  2.09501E+00
   9.94635E-01  1.71044E-01  1.24684E-01  6.36104E-01  7.38764E-01  3.88810E-01 -1.98173E-01 -7.47328E-01 -9.16509E-01 -5.70011E-01
   4.62954E-02  5.21311E-01  7.48496E-01  7.29323E-01  4.77123E-01  1.82389E-01 -7.84657E-03 -7.84497E-02 -5.70429E-02 -7.42058E-02
  -1.04728E-01 -1.50391E-01 -2.14893E-01 -2.82964E-01 -3.23867E-01 -3.15819E-01 -2.71083E-01 -2.14513E-01 -1.97261E-01 -2.50703E-01
  -3.67814E-01 -4.86509E-01 -5.27361E-01 -4.75178E-01 -3.60046E-01 -2.39242E-01 -1.95046E-01 -2.73416E-01 -3.96782E-01 -4.74172E-01
  -4.72465E-01 -3.99898E-01 -3.50596E-01 -3.75764E-01 -4.51774E-01 -5.34063E-01 -5.80833E-01 -5.80854E-01 -5.39734E-01 -4.70866E-01
  -4.11344E-01 -4.12946E-01 -4.87723E-01 -5.59213E-01 -5.72929E-01 -5.95036E-01 -6.52851E-01 -6.92321E-01 -5.60580E-01 -1.84732E-01
   2.85094E-01  6.12096E-01  6.76769E-01  4.49438E-01 -5.31845E-02 -6.81771E-01 -1.18525E+00 -1.38922E+00 -1.25823E+00 -8.52855E-01
  -2.34756E-01  5.01168E-01  1.10738E+00  1.40921E+00  1.36719E+00  1.22470E+00  8.43588E-01  7.42035E-02 -8.47696E-01 -1.59079E+00
  -1.96585E+00 -1.88998E+00 -1.20228E+00  2.28032E-02  1.23626E+00  1.89455E+00  1.94491E+00  1.95241E+00  1.72269E+00  9.09842E-01
  -1.46442E-01 -8.78730E-01 -1.01169E+00 -8.28200E-01 -4.33380E-01  3.10498E-01  1.20327E+00  1.81217E+00  1.81271E+00  1.38633E+00
   1.00775E+00  8.36845E-01  6.49337E-01  4.83975E-01  6.10652E-01  1.06162E+00  1.52751E+00  1.82760E+00  2.19288E+00  2.59135E+00
   2.57893E+00  2.03886E+00  1.36036E+00  1.02285E+00  9.82675E-01  1.16962E+00  1.65095E+00  2.25939E+00  2.59401E+00  2.54595E+00
   2.43200E+00  2.35514E+00  2.39858E+00  2.59147E+00  2.83221E+00  2.61954E+00  1.99627E+00  2.16248E+00  3.49846E+00  5.24575E+00
   6.82315E+00  8.12002E+00  8.33362E+00  6.37366E+00  3.06574E+00  5.00705E-01  2.12784E-01  1.12810E+00  1.31787E+00  1.23959E+00
   1.15083E+00  1.06096E+00  9.80470E-01  9.63818E-01  9.77578E-01  9.89420E-01  9.73376E-01  9.13799E-01  8.09879E-01  7.02231E-01
   6.22136E-01  5.63412E-01  5.20102E-01  4.96272E-01  4.91055E-01  4.96743E-01  5.03293E-01  5.05202E-01  5.10885E-01  5.23253E-01
   5.43532E-01  5.75029E-01  6.19230E-01  6.72376E-01  7.31746E-01  7.95625E-01  8.62320E-01  9.31190E-01  1.00442E+00  1.07992E+00
   1.15403E+00  1.22632E+00  1.29515E+00  1.35759E+00  1.41039E+00  1.45147E+00  1.48138E+00  1.50035E+00  1.50883E+00  1.50857E+00
   1.50111E+00  1.48814E+00  1.47200E+00  1.45516E+00  1.44034E+00  1.43026E+00  1.42727E+00  1.43341E+00  1.45018E+00  1.47849E+00
   1.51844E+00  1.56881E+00  1.62797E+00  1.70862E+00  1.81881E+00  1.93744E+00  2.03952E+00  2.11777E+00  2.17043E+00  2.19057E+00
   2.18186E+00  2.17282E+00  2.20328E+00  2.27485E+00  2.33552E+00  2.37190E+00  2.40170E+00  2.40821E+00  2.36095E+00  2.25523E+00
   2.12139E+00  2.00696E+00  1.91441E+00  1.81553E+00  1.71284E+00  1.61057E+00  1.51127E+00  1.41696E+00  1.32919E+00  1.24917E+00
   1.17767E+00  1.11509E+00  1.06149E+00  1.01670E+00  9.80255E-01  9.51505E-01  9.29565E-01  9.13479E-01  9.02199E-01  8.94735E-01
   8.90068E-01  8.87265E-01  8.85406E-01  8.83741E-01  8.81632E-01  8.78648E-01  8.74446E-01  8.68846E-01  8.61754E-01  8.53274E-01
   8.43608E-01  8.33116E-01  8.22175E-01  8.11254E-01  8.00834E-01  7.91511E-01  7.83880E-01  7.78599E-01  7.76266E-01  7.77527E-01
   7.83008E-01  7.93422E-01  8.09471E-01  8.31908E-01  8.61445E-01  8.98866E-01  9.44951E-01  1.00055E+00  1.06646E+00  1.14345E+00
   1.23213E+00  1.33303E+00  1.44647E+00  1.57254E+00  1.71093E+00  1.86096E+00  2.02140E+00  2.19060E+00  2.36631E+00  2.54583E+00
   2.72588E+00  2.90277E+00  3.07247E+00  3.23087E+00  3.37380E+00  3.49731E+00  3.59778E+00  3.67217E+00  3.71814E+00  3.73427E+00
   3.72000E+00  3.67577E+00  3.60290E+00  3.50361E+00  3.38080E+00  3.23803E+00  3.07922E+00  2.90847E+00  2.72987E+00  2.54741E+00
   2.36473E+00  2.18512E+00  2.01131E+00  1.84551E+00  1.68935E+00  1.54400E+00  1.41011E+00  1.28795E+00  1.17739E+00  1.07804E+00
   9.89272E-01  9.10385E-01  8.40557E-01  7.78963E-01  7.24717E-01  6.77003E-01  6.35026E-01  5.98113E-01  5.65617E-01  5.36988E-01
   5.11686E-01  4.89285E-01  4.69384E-01  4.51695E-01  4.35926E-01  4.21849E-01  4.09217E-01  3.97870E-01  3.87644E-01  3.78449E-01
   3.70148E-01  3.62655E-01  3.55850E-01  3.49686E-01  3.44091E-01  3.39047E-01  3.34473E-01  3.30335E-01  3.26561E-01  3.23149E-01
   3.20059E-01  3.17291E-01  3.14789E-01  3.12543E-01  3.10509E-01  3.08706E-01  3.07105E-01  3.05713E-01  3.04475E-01  3.03393E-01
   3.02441E-01  3.01647E-01  3.00987E-01  3.00466E-01  3.00039E-01  2.99718E-01  2.99485E-01  2.99373E-01  2.99350E-01  2.99419E-01
   2.99541E-01  2.99739E-01  3.00004E-01  3.00361E-01  3.00778E-01  3.01258E-01  3.01769E-01  3.02343E-01  3.02969E-01  3.03669E-01
   3.04404E-01  3.05182E-01  3.05979E-01  3.06833E-01  3.07730E-01  3.08685E-01  3.09659E-01  3.10663E-01
 NY background values follow
    -7.425E-01   -7.405E-01   -7.385E-01   -7.365E-01   -7.344E-01   -7.324E-01   -7.304E-01   -7.284E-01   -7.264E-01   -7.244E-01
    -7.224E-01   -7.204E-01   -7.183E-01   -7.163E-01   -7.143E-01   -7.123E-01   -7.103E-01   -7.083E-01   -7.063E-01   -7.043E-01
    -7.023E-01   -7.002E-01   -6.982E-01   -6.962E-01   -6.942E-01   -6.922E-01   -6.902E-01   -6.882E-01   -6.862E-01   -6.841E-01
    -6.821E-01   -6.801E-01   -6.781E-01   -6.761E-01   -6.741E-01   -6.721E-01   -6.701E-01   -6.681E-01   -6.660E-01   -6.640E-01
    -6.620E-01   -6.600E-01   -6.580E-01   -6.560E-01   -6.540E-01   -6.520E-01   -6.499E-01   -6.479E-01   -6.459E-01   -6.439E-01
    -6.419E-01   -6.399E-01   -6.379E-01   -6.359E-01   -6.339E-01   -6.318E-01   -6.298E-01   -6.278E-01   -6.258E-01   -6.238E-01
    -6.218E-01   -6.198E-01   -6.178E-01   -6.158E-01   -6.137E-01   -6.117E-01   -6.097E-01   -6.077E-01   -6.057E-01   -6.037E-01
    -6.017E-01   -5.997E-01   -5.976E-01   -5.956E-01   -5.936E-01   -5.916E-01   -5.896E-01   -5.876E-01   -5.856E-01   -5.836E-01
    -5.816E-01   -5.795E-01   -5.775E-01   -5.755E-01   -5.735E-01   -5.715E-01   -5.695E-01   -5.675E-01   -5.655E-01   -5.634E-01
    -5.614E-01   -5.594E-01   -5.574E-01   -5.554E-01   -5.534E-01   -5.514E-01   -5.494E-01   -5.474E-01   -5.453E-01   -5.433E-01
    -5.413E-01   -5.393E-01   -5.373E-01   -5.353E-01   -5.333E-01   -5.313E-01   -5.292E-01   -5.272E-01   -5.252E-01   -5.232E-01
    -5.212E-01   -5.192E-01   -5.172E-01   -5.152E-01   -5.132E-01   -5.111E-01   -5.091E-01   -5.071E-01   -5.051E-01   -5.031E-01
    -5.011E-01   -4.991E-01   -4.971E-01   -4.951E-01   -4.930E-01   -4.910E-01   -4.890E-01   -4.870E-01   -4.850E-01   -4.830E-01
    -4.810E-01   -4.790E-01   -4.769E-01   -4.749E-01   -4.729E-01   -4.709E-01   -4.689E-01   -4.669E-01   -4.649E-01   -4.629E-01
    -4.609E-01   -4.588E-01   -4.568E-01   -4.548E-01   -4.528E-01   -4.508E-01   -4.488E-01   -4.468E-01   -4.448E-01   -4.427E-01
    -4.407E-01   -4.387E-01   -4.367E-01   -4.347E-01   -4.327E-01   -4.307E-01   -4.287E-01   -4.267E-01   -4.246E-01   -4.226E-01
    -4.206E-01   -4.186E-01   -4.166E-01   -4.146E-01   -4.126E-01   -4.106E-01   -4.086E-01   -4.065E-01   -4.045E-01   -4.025E-01
    -4.005E-01   -3.985E-01   -3.965E-01   -3.945E-01   -3.925E-01   -3.904E-01   -3.884E-01   -3.864E-01   -3.844E-01   -3.824E-01
    -3.804E-01   -3.784E-01   -3.764E-01   -3.744E-01   -3.723E-01   -3.703E-01   -3.683E-01   -3.663E-01   -3.643E-01   -3.623E-01
    -3.603E-01   -3.583E-01   -3.562E-01   -3.542E-01   -3.522E-01   -3.502E-01   -3.482E-01   -3.462E-01   -3.442E-01   -3.422E-01
    -3.402E-01   -3.381E-01   -3.361E-01   -3.341E-01   -3.321E-01   -3.301E-01   -3.281E-01   -3.261E-01   -3.241E-01   -3.221E-01
    -3.200E-01   -3.180E-01   -3.160E-01   -3.140E-01   -3.120E-01   -3.100E-01   -3.080E-01   -3.060E-01   -3.039E-01   -3.019E-01
    -2.999E-01   -2.979E-01   -2.959E-01   -2.939E-01   -2.919E-01   -2.899E-01   -2.879E-01   -2.858E-01   -2.838E-01   -2.818E-01
    -2.798E-01   -2.778E-01   -2.758E-01   -2.738E-01   -2.718E-01   -2.698E-01   -2.677E-01   -2.657E-01   -2.637E-01   -2.617E-01
    -2.597E-01   -2.577E-01   -2.557E-01   -2.537E-01   -2.516E-01   -2.496E-01   -2.476E-01   -2.456E-01   -2.436E-01   -2.416E-01
    -2.396E-01   -2.376E-01   -2.356E-01   -2.335E-01   -2.315E-01   -2.295E-01   -2.275E-01   -2.255E-01   -2.235E-01   -2.215E-01
    -2.195E-01   -2.175E-01   -2.154E-01   -2.134E-01   -2.114E-01   -2.094E-01   -2.074E-01   -2.054E-01   -2.034E-01   -2.014E-01
    -1.994E-01   -1.973E-01   -1.953E-01   -1.933E-01   -1.913E-01   -1.893E-01   -1.873E-01   -1.853E-01   -1.833E-01   -1.812E-01
    -1.792E-01   -1.772E-01   -1.752E-01   -1.732E-01   -1.712E-01   -1.692E-01   -1.672E-01   -1.652E-01   -1.631E-01   -1.611E-01
    -1.591E-01   -1.571E-01   -1.551E-01   -1.531E-01   -1.511E-01   -1.491E-01   -1.471E-01   -1.450E-01   -1.430E-01   -1.410E-01
    -1.390E-01   -1.370E-01   -1.350E-01   -1.330E-01   -1.310E-01   -1.290E-01   -1.269E-01   -1.249E-01   -1.229E-01   -1.209E-01
    -1.189E-01   -1.169E-01   -1.149E-01   -1.129E-01   -1.109E-01   -1.088E-01   -1.068E-01   -1.048E-01   -1.028E-01   -1.008E-01
    -9.879E-02   -9.678E-02   -9.476E-02   -9.275E-02   -9.074E-02   -8.873E-02   -8.672E-02   -8.471E-02   -8.270E-02   -8.069E-02
    -7.868E-02   -7.666E-02   -7.465E-02   -7.264E-02   -7.063E-02   -6.862E-02   -6.661E-02   -6.460E-02   -6.259E-02   -6.058E-02
    -5.857E-02   -5.655E-02   -5.454E-02   -5.253E-02   -5.052E-02   -4.851E-02   -4.650E-02   -4.449E-02   -4.248E-02   -4.047E-02
    -3.846E-02   -3.644E-02   -3.443E-02   -3.242E-02   -3.041E-02   -2.840E-02   -2.639E-02   -2.438E-02   -2.237E-02   -2.036E-02
    -1.835E-02   -1.633E-02   -1.432E-02   -1.231E-02   -1.030E-02   -8.290E-03   -6.279E-03   -4.268E-03   -2.257E-03   -2.461E-04
     1.765E-03    3.776E-03    5.787E-03    7.798E-03    9.809E-03    1.182E-02    1.383E-02    1.584E-02    1.785E-02    1.986E-02
     2.188E-02    2.389E-02    2.590E-02    2.791E-02    2.992E-02    3.193E-02    3.394E-02    3.595E-02    3.796E-02    3.997E-02
     4.199E-02    4.400E-02    4.601E-02    4.802E-02    5.003E-02    5.204E-02    5.405E-02    5.606E-02    5.807E-02    6.009E-02
     6.210E-02    6.411E-02    6.612E-02    6.813E-02    7.014E-02    7.215E-02    7.416E-02    7.617E-02    7.818E-02    8.020E-02
     8.221E-02    8.422E-02    8.623E-02    8.824E-02    9.025E-02    9.226E-02    9.427E-02    9.628E-02    9.830E-02    1.003E-01
     1.023E-01    1.043E-01    1.063E-01    1.084E-01    1.104E-01    1.124E-01    1.144E-01    1.164E-01    1.184E-01    1.204E-01
     1.224E-01    1.244E-01    1.265E-01    1.285E-01    1.305E-01    1.325E-01    1.345E-01    1.365E-01    1.385E-01    1.405E-01
     1.425E-01    1.446E-01    1.466E-01    1.486E-01    1.506E-01    1.526E-01    1.546E-01    1.566E-01    1.586E-01    1.606E-01
     1.627E-01    1.647E-01    1.667E-01    1.687E-01    1.707E-01    1.727E-01    1.747E-01    1.767E-01    1.787E-01    1.808E-01
     1.828E-01    1.848E-01    1.868E-01    1.888E-01    1.908E-01    1.928E-01    1.948E-01    1.968E-01    1.989E-01    2.009E-01
     2.029E-01    2.049E-01    2.069E-01    2.089E-01    2.109E-01    2.129E-01    2.149E-01    2.170E-01    2.190E-01    2.210E-01
     2.230E-01    2.250E-01    2.270E-01    2.290E-01    2.310E-01    2.330E-01    2.351E-01    2.371E-01    2.391E-01    2.411E-01
     2.431E-01    2.451E-01    2.471E-01    2.491E-01    2.511E-01    2.532E-01    2.552E-01    2.572E-01
 Ala      Conc. = 3.31E+00
