 LCModel (Version 6.3-1L) Copyright: S.W. Provencher.          Ref.: Magn. Reson. Med. 30:672-679 (1993).                
 Slice#1 Row#6 Col#11  PD_24_press_2_raw_act
 36 lines in following concentration table = NCONC+1
    Conc.  %SD /Cr+PCr  Metabolite                                         
  240.502  83%   0.527 Ala                                                 
  166.836 115%   0.366 Asp                                                 
  219.368 127%   0.481 Cr                                                  
  236.636 119%   0.519 PCr                                                 
   64.888 185%   0.142 GABA                                                
  106.367 112%   0.233 Glc                                                 
    0.000 999%   0.000 Gln                                                 
  735.867  59%   1.614 Glu                                                 
    0.000 999%   0.000 GPC                                                 
  115.461  26%   0.253 PCh                                                 
  222.791  50%   0.489 GSH                                                 
  182.569 197%   0.400 Ins                                                 
  233.176  95%   0.511 Lac                                                 
 2.06E+03  18%   4.520 NAA                                                 
  924.945  37%   2.028 NAAG                                                
   49.497  61%   0.109 Scyllo                                              
  328.313  56%   0.720 Tau                                                 
  292.783  36%   0.642 -CrCH2                                              
  115.461  26%   0.253 GPC+PCh                                             
 2.99E+03   6%   6.549 NAA+NAAG                                            
  456.004  18%   1.000 Cr+PCr                                              
  735.867  59%   1.614 Glu+Gln                                             
 4.65E+03  23%  10.206 Lip13a                                              
    0.000 999%   0.000 Lip13b                                              
  516.513 101%   1.133 Lip09                                               
 2.07E+03  25%   4.534 MM09                                                
  910.636  40%   1.997 Lip20                                               
 3.29E+03  20%   7.206 MM20                                                
  807.291  39%   1.770 MM12                                                
 2.18E+03  28%   4.785 MM14                                                
 2.13E+03  10%   4.676 MM17                                                
 4.65E+03  23%  10.206 Lip13a+Lip13b                                       
 7.64E+03   9%  16.762 MM14+Lip13a+Lip13b+MM12                             
 2.58E+03  11%   5.666 MM09+Lip09                                          
 4.20E+03  14%   9.203 MM20+Lip20                                          
   6 lines in following misc. output table
  FWHM = 0.061 ppm    S/N =   9                                            
  Data shift =-0.008 ppm                                                   
  Ph: -29 deg      -3.5 deg/ppm                                            
  alphaB,S = 8.5E+01,   1.0E+02                                            
   14 spline knots.   Ns =10(1)                                            
   2 inflections.     1 extrema                                            
  498 points on ppm-axis = NY
      4.000000     3.992357     3.984714     3.977070     3.969427     3.961784     3.954141     3.946497     3.938854     3.931211
      3.923568     3.915925     3.908281     3.900638     3.892995     3.885352     3.877708     3.870065     3.862422     3.854779
      3.847136     3.839492     3.831849     3.824206     3.816563     3.808919     3.801276     3.793633     3.785990     3.778347
      3.770703     3.763060     3.755417     3.747774     3.740130     3.732487     3.724844     3.717201     3.709558     3.701914
      3.694271     3.686628     3.678985     3.671341     3.663698     3.656055     3.648412     3.640769     3.633125     3.625482
      3.617839     3.610196     3.602552     3.594909     3.587266     3.579623     3.571980     3.564336     3.556693     3.549050
      3.541407     3.533763     3.526120     3.518477     3.510834     3.503191     3.495547     3.487904     3.480261     3.472618
      3.464974     3.457331     3.449688     3.442045     3.434402     3.426758     3.419115     3.411472     3.403829     3.396185
      3.388542     3.380899     3.373256     3.365613     3.357969     3.350326     3.342683     3.335040     3.327396     3.319753
      3.312110     3.304467     3.296824     3.289180     3.281537     3.273894     3.266251     3.258607     3.250964     3.243321
      3.235678     3.228034     3.220391     3.212748     3.205105     3.197462     3.189818     3.182175     3.174532     3.166889
      3.159245     3.151602     3.143959     3.136316     3.128673     3.121029     3.113386     3.105743     3.098100     3.090456
      3.082813     3.075170     3.067527     3.059884     3.052240     3.044597     3.036954     3.029311     3.021667     3.014024
      3.006381     2.998738     2.991095     2.983451     2.975808     2.968165     2.960522     2.952878     2.945235     2.937592
      2.929949     2.922306     2.914662     2.907019     2.899376     2.891733     2.884089     2.876446     2.868803     2.861160
      2.853517     2.845873     2.838230     2.830587     2.822944     2.815300     2.807657     2.800014     2.792371     2.784728
      2.777084     2.769441     2.761798     2.754155     2.746511     2.738868     2.731225     2.723582     2.715939     2.708295
      2.700652     2.693009     2.685366     2.677722     2.670079     2.662436     2.654793     2.647150     2.639506     2.631863
      2.624220     2.616577     2.608933     2.601290     2.593647     2.586004     2.578361     2.570717     2.563074     2.555431
      2.547788     2.540144     2.532501     2.524858     2.517215     2.509572     2.501928     2.494285     2.486642     2.478999
      2.471355     2.463712     2.456069     2.448426     2.440783     2.433139     2.425496     2.417853     2.410210     2.402566
      2.394923     2.387280     2.379637     2.371994     2.364350     2.356707     2.349064     2.341421     2.333777     2.326134
      2.318491     2.310848     2.303205     2.295561     2.287918     2.280275     2.272632     2.264988     2.257345     2.249702
      2.242059     2.234416     2.226772     2.219129     2.211486     2.203843     2.196199     2.188556     2.180913     2.173270
      2.165627     2.157983     2.150340     2.142697     2.135054     2.127410     2.119767     2.112124     2.104481     2.096838
      2.089194     2.081551     2.073908     2.066265     2.058621     2.050978     2.043335     2.035692     2.028049     2.020405
      2.012762     2.005119     1.997476     1.989833     1.982190     1.974546     1.966903     1.959260     1.951617     1.943974
      1.936331     1.928688     1.921045     1.913402     1.905759     1.898115     1.890472     1.882829     1.875186     1.867543
      1.859900     1.852257     1.844614     1.836971     1.829327     1.821684     1.814041     1.806398     1.798755     1.791112
      1.783469     1.775826     1.768183     1.760540     1.752896     1.745253     1.737610     1.729967     1.722324     1.714681
      1.707038     1.699395     1.691752     1.684108     1.676465     1.668822     1.661179     1.653536     1.645893     1.638250
      1.630607     1.622964     1.615321     1.607677     1.600034     1.592391     1.584748     1.577105     1.569462     1.561819
      1.554176     1.546533     1.538890     1.531246     1.523603     1.515960     1.508317     1.500674     1.493031     1.485388
      1.477745     1.470102     1.462458     1.454815     1.447172     1.439529     1.431886     1.424243     1.416600     1.408957
      1.401314     1.393671     1.386027     1.378384     1.370741     1.363098     1.355455     1.347812     1.340169     1.332526
      1.324883     1.317240     1.309596     1.301953     1.294310     1.286667     1.279024     1.271381     1.263738     1.256095
      1.248452     1.240808     1.233165     1.225522     1.217879     1.210236     1.202593     1.194950     1.187307     1.179664
      1.172021     1.164377     1.156734     1.149091     1.141448     1.133805     1.126162     1.118519     1.110876     1.103233
      1.095590     1.087946     1.080303     1.072660     1.065017     1.057374     1.049731     1.042088     1.034445     1.026802
      1.019158     1.011515     1.003872     0.996229     0.988586     0.980943     0.973300     0.965657     0.958014     0.950371
      0.942727     0.935084     0.927441     0.919798     0.912155     0.904512     0.896869     0.889226     0.881583     0.873940
      0.866296     0.858653     0.851010     0.843367     0.835724     0.828081     0.820438     0.812795     0.805152     0.797508
      0.789865     0.782222     0.774579     0.766936     0.759293     0.751650     0.744007     0.736364     0.728721     0.721077
      0.713434     0.705791     0.698148     0.690505     0.682862     0.675219     0.667576     0.659933     0.652290     0.644646
      0.637003     0.629360     0.621717     0.614074     0.606431     0.598788     0.591145     0.583502     0.575858     0.568215
      0.560572     0.552929     0.545286     0.537643     0.530000     0.522357     0.514714     0.507071     0.499427     0.491784
      0.484141     0.476498     0.468855     0.461212     0.453569     0.445925     0.438282     0.430639     0.422996     0.415353
      0.407710     0.400067     0.392424     0.384780     0.377137     0.369494     0.361851     0.354208     0.346565     0.338922
      0.331278     0.323635     0.315992     0.308349     0.300706     0.293063     0.285420     0.277777     0.270133     0.262490
      0.254847     0.247204     0.239561     0.231918     0.224275     0.216631     0.208988     0.201345
 NY phased data points follow
  -2.62868E+00  3.70802E+00 -6.99841E-01  4.45796E+00  3.55494E-01 -3.37531E+00 -5.36085E+00  3.49106E+00 -4.90742E-01 -1.85366E+00
   4.01867E+00 -5.25036E+00 -1.01091E+00  2.08410E+00 -4.79087E-01 -2.38283E+00  8.45001E+00  3.58189E-02 -4.75166E+00 -4.28513E+00
   2.07284E+00  4.81854E-01 -1.07143E+01  3.05952E+00  5.08275E+00 -3.47013E+00 -1.68724E+00  3.67318E-01  8.85797E+00  7.03740E+00
  -3.15763E-01  3.20950E+00 -6.74790E+00  5.18598E+00  3.19770E+00 -3.40871E+00 -2.95599E+00  6.49439E+00 -4.32726E+00  5.93708E+00
  -1.09041E+00  1.24360E+01  1.16231E+00 -1.24321E+00 -2.67227E+00 -4.04479E+00 -3.77609E+00 -1.17924E+00  5.88436E+00 -3.21169E-01
  -1.26199E+00  1.88501E+00  5.37417E+00  7.02062E+00 -2.69565E+00  3.70142E+00  2.27793E+00  5.63515E+00  4.56978E+00  3.68834E+00
   3.21216E+00 -1.38541E+00  3.54363E+00  3.62060E-01 -1.32117E+00 -3.57199E+00  9.60773E-01  7.27098E-01  8.08600E+00  2.69022E+00
   8.77991E-01  3.45641E+00 -5.33319E+00  2.49407E+00  2.30547E+00 -6.23283E+00 -3.67986E+00 -4.57371E+00  2.04319E+00  2.68561E+00
   1.67654E-02  2.81702E+00  4.77227E+00  8.59872E+00  1.87895E+00  7.58659E-01 -3.75742E+00  8.59710E+00  1.98923E+00  3.14299E+00
  -2.27871E+00  6.84025E+00 -3.26776E+00 -6.66731E+00  3.82175E+00  4.43720E+00 -7.74476E-01  3.33811E+00  5.44151E+00  4.35050E+00
   7.04832E+00  3.72963E+00  4.54588E+00  9.44081E+00  2.44316E-02  7.83659E+00  1.19290E+01  1.12211E+01  3.56938E+00  1.43305E+01
   1.13569E+01  1.19210E+01  5.57010E+00  4.29965E+00  2.68651E+00  9.20483E+00  1.74088E+00  3.11909E+00  1.27491E+00  2.83317E+00
   2.35103E+00  1.88410E+00  5.51033E+00  2.91412E+00  5.61433E+00  1.30912E+01  9.81940E+00  1.57877E+01  1.21092E+01  2.05399E+01
   1.31255E+01  1.54026E+01  1.50214E+01  1.37037E+01  6.34783E+00  5.30565E+00  8.26216E+00  9.85976E+00  6.68605E+00 -1.07892E-01
  -4.65969E+00  2.17976E+00  5.24663E+00  3.67463E+00  7.21655E+00  3.78187E+00  8.77564E+00  1.93444E+00 -1.50488E+00 -2.41301E+00
   1.58446E+00  2.34749E+00  4.26054E-01  9.23265E+00  2.14374E+00  6.93026E+00 -5.88968E-01 -4.14077E-01  4.22210E+00 -3.96990E+00
   1.96494E+00 -2.80485E+00  3.87226E+00 -3.51208E+00 -3.93926E-02 -6.89539E+00 -6.09632E+00 -3.46319E+00 -5.65180E+00 -9.24080E-01
  -5.32688E+00 -2.00927E+00 -1.27074E+01 -8.51569E+00 -5.66851E+00 -1.20214E+01  3.83204E-01 -7.92308E+00 -4.94296E+00 -5.80844E+00
  -7.15827E+00 -1.75471E+01 -2.55142E+00 -3.42983E+00 -8.26278E+00  4.78383E+00 -7.48751E+00 -2.98352E+00 -1.29832E+00 -6.05074E+00
  -4.94284E+00  1.77872E+00 -4.89669E+00  2.36390E+00 -8.29578E+00 -8.89865E+00  1.30347E+00 -1.02733E+01 -1.60283E+01 -8.63086E+00
  -1.26113E-01 -9.50920E+00  4.65208E+00 -6.21790E+00  1.10070E+00  6.52512E+00 -4.73693E+00  6.51908E-01  3.04016E-01  3.26678E+00
  -8.98045E+00  3.39718E+00  5.93434E+00  7.88413E+00  2.49450E+00  1.32208E+01  1.11567E+01  7.38669E+00  7.76997E+00  4.56872E+00
   2.51942E+00  5.17451E-01  2.05008E+00  3.97194E+00 -2.45830E+00  5.97781E+00  6.77269E+00 -3.52814E+00  5.80056E+00  5.15484E+00
   4.88848E+00  7.80287E+00  1.14875E+01  1.08145E+01  6.79265E+00  1.32547E+01  1.67382E+01  9.87651E+00  9.81697E+00  1.11356E+01
   8.86231E+00  7.04357E+00  5.78224E+00  8.39202E+00  1.02225E+01  3.51723E+00  9.84459E+00  1.83576E+01  1.99091E+01  1.96557E+01
   1.55720E+01  2.34059E+01  2.58968E+01  2.76594E+01  4.06388E+01  4.63648E+01  6.33554E+01  6.74279E+01  7.96884E+01  8.73577E+01
   8.83548E+01  9.24813E+01  8.32903E+01  6.61472E+01  6.48905E+01  4.09079E+01  3.00390E+01  2.55836E+01  2.75903E+01  8.15938E+00
   1.63609E+01  1.83606E+01  8.35148E+00  1.37092E+00  1.37415E-01 -3.22770E+00  4.30169E+00 -6.68565E+00  3.93347E-01  2.21508E-01
  -1.29975E+00 -6.24010E-01  1.96019E+00 -3.09000E+00 -3.06118E+00  2.21616E+00 -5.30701E+00 -1.62501E-01 -7.09297E+00  9.62243E-01
   1.07308E+00 -2.48202E+00 -3.31421E+00  1.76298E+00 -3.99385E+00 -2.85216E+00  1.21294E+01  6.42561E+00  7.74613E+00  3.99557E+00
   9.34957E+00  1.23375E+01  1.20575E+01  4.69049E+00  2.00412E+01  2.40297E+01  1.08192E+01  1.96116E+01  1.27468E+01  2.05553E+01
   3.31180E+01  1.94583E+01  2.15366E+01  1.76581E+01  1.98722E+01  1.28931E+01  2.11130E+01  1.96738E+01  1.44447E+01  3.98385E+00
   1.24121E+01  9.70476E+00  9.24414E+00  5.15688E+00  6.48138E+00  1.64343E+01  7.25189E+00  1.04410E+01  4.54165E+00  8.18338E+00
   1.90511E+01  4.65711E+00  6.50231E+00  7.50636E+00  1.67643E+01  2.42280E+01  1.89645E+01  1.96766E+01  2.76943E+01  2.31552E+01
   2.39525E+01  1.81605E+01  2.63075E+01  2.65141E+01  2.12774E+01  2.79606E+01  2.59052E+01  2.29911E+01  2.19516E+01  2.45514E+01
   2.44478E+01  1.81731E+01  1.67181E+01  2.36555E+01  1.67787E+01  2.71665E+01  1.87816E+01  1.99280E+01  1.73616E+01  1.76496E+01
   1.73163E+01  1.85778E+01  2.05462E+01  1.74224E+01  2.30290E+01  2.40070E+01  2.20029E+01  2.35840E+01  2.25031E+01  1.90309E+01
   1.64777E+01  1.63873E+01  1.44407E+01  1.42744E+01  1.17982E+01  2.22332E+01  1.75054E+01  1.23222E+01  1.63366E+01  1.25962E+01
   6.57525E+00  1.39811E+01  1.62691E+01  1.49696E+01  8.74175E+00  1.12954E+01  5.95811E+00  6.46017E+00  9.12550E+00  5.37136E+00
   1.39178E+01  8.52203E+00  1.47806E+01  1.28800E+01  1.71062E+01  1.93723E+01  1.07259E+01  1.07077E+01  1.42902E+01  1.25982E+01
   1.89645E+01  2.70913E+01  1.32240E+01  1.74574E+01  2.80657E+01  1.76165E+01  1.17976E+01  2.59597E+01  8.47004E+00  1.54154E+01
   1.48643E+01  1.11040E+01  1.62965E+01  1.63548E+01  7.76320E+00  1.30851E+01  1.46589E+01  1.05420E+01  9.45900E+00 -2.53019E+00
  -8.63810E-01  8.97858E-01  3.05182E+00  2.31829E+00 -1.01821E+00  1.78612E+00  1.54977E+00  4.78352E+00 -3.53695E+00  2.42447E+00
   4.40236E+00  1.51987E+00 -1.01313E+00  5.25413E+00  1.78525E+00 -1.32267E+00  1.04385E+00  1.48416E-01 -6.68215E+00  2.03751E+00
  -2.17712E+00 -1.51048E+00  8.19165E+00 -2.39234E+00  1.29967E+00 -1.72661E-01  4.61978E+00  8.13314E-01  6.25617E+00 -4.46132E+00
   5.91027E+00 -3.79091E-01 -2.09158E+00  3.87889E+00  5.17610E-01 -5.51532E+00 -2.82968E+00 -2.96724E+00  1.46592E+00  3.30409E+00
  -3.80894E+00  2.96845E+00 -3.13491E+00  5.64055E-01 -2.64511E+00 -4.72252E+00 -1.38214E+01  4.69213E+00 -1.59807E+00  3.37163E-01
   2.95863E+00  1.27092E+00  5.16973E+00 -4.07084E+00 -2.08482E+00 -6.05225E-01  2.64531E+00 -5.14394E+00 -1.77043E+00  4.08149E+00
  -5.60126E+00 -3.63677E+00  8.89984E-01 -3.36137E+00 -2.16786E+00 -4.20406E+00 -8.56221E+00  3.64975E-01 -5.63334E+00  6.84116E+00
  -1.90610E-01 -9.73503E-01 -3.45469E+00  2.01173E+00 -7.75820E+00 -4.71183E+00  5.15623E+00 -4.16043E+00
 NY points of the fit to the data follow
   1.04108E-01 -6.95379E-03 -1.13171E-01 -2.30136E-01 -3.42334E-01 -3.75355E-01 -2.67257E-01  1.08889E-02  4.73685E-01  1.09723E+00
   1.79608E+00  2.42793E+00  2.84362E+00  2.94093E+00  2.69886E+00  2.18312E+00  1.53888E+00  9.56899E-01  5.86865E-01  4.46665E-01
   4.53466E-01  4.96193E-01  5.55283E-01  6.80000E-01  9.40651E-01  1.28131E+00  1.68683E+00  2.19518E+00  2.82923E+00  3.51430E+00
   4.11258E+00  4.49896E+00  4.57322E+00  4.30382E+00  3.71199E+00  2.89348E+00  2.02388E+00  1.25603E+00  6.21615E-01  1.39701E-01
  -1.80403E-01 -3.34000E-01 -2.91423E-01 -1.47265E-01  1.30164E-02  1.79296E-01  3.41312E-01  4.70715E-01  5.21133E-01  4.79712E-01
   3.53337E-01  1.60584E-01 -4.30637E-02 -2.06951E-01 -2.94795E-01 -3.06006E-01 -2.66821E-01 -2.03022E-01 -1.32322E-01 -5.12411E-02
   4.83212E-02  1.49108E-01  2.34699E-01  2.99603E-01  3.38229E-01  3.56100E-01  3.61905E-01  3.58409E-01  3.54607E-01  3.79738E-01
   4.59748E-01  6.04625E-01  8.07725E-01  1.03684E+00  1.23005E+00  1.32618E+00  1.29350E+00  1.12651E+00  8.75225E-01  6.52639E-01
   5.59419E-01  6.74129E-01  9.95850E-01  1.44753E+00  1.92284E+00  2.31277E+00  2.52084E+00  2.51691E+00  2.31891E+00  1.95406E+00
   1.47612E+00  9.59288E-01  5.05595E-01  1.94850E-01  4.42273E-02  3.90326E-02  2.03135E-01  6.53275E-01  1.53335E+00  2.82530E+00
   4.37793E+00  6.04751E+00  7.67852E+00  9.03609E+00  9.88780E+00  1.00740E+01  9.54458E+00  8.41748E+00  6.93054E+00  5.37464E+00
   4.05731E+00  3.12724E+00  2.45595E+00  1.90773E+00  1.45205E+00  1.09983E+00  9.80485E-01  1.01548E+00  1.10575E+00  1.25719E+00
   1.62662E+00  2.43935E+00  3.82126E+00  5.74128E+00  8.05880E+00  1.05448E+01  1.28406E+01  1.45386E+01  1.53229E+01  1.50510E+01
   1.38261E+01  1.19323E+01  9.72436E+00  7.61294E+00  5.88569E+00  4.51945E+00  3.37901E+00  2.44314E+00  1.73908E+00  1.42912E+00
   1.49350E+00  1.67193E+00  1.83217E+00  1.91868E+00  1.91625E+00  1.84597E+00  1.74211E+00  1.60366E+00  1.42344E+00  1.19853E+00
   9.29849E-01  6.47276E-01  3.95030E-01  1.97556E-01  4.28945E-02 -1.10418E-01 -2.87099E-01 -5.01924E-01 -7.53598E-01 -1.03589E+00
  -1.33391E+00 -1.61497E+00 -1.83652E+00 -1.98969E+00 -2.11956E+00 -2.27323E+00 -2.50562E+00 -2.85772E+00 -3.29136E+00 -3.74457E+00
  -4.16510E+00 -4.50282E+00 -4.77683E+00 -5.06121E+00 -5.35789E+00 -5.63142E+00 -5.84615E+00 -5.94593E+00 -5.93653E+00 -5.84492E+00
  -5.71718E+00 -5.58008E+00 -5.42734E+00 -5.18305E+00 -4.74143E+00 -4.05784E+00 -3.15999E+00 -2.14003E+00 -1.12226E+00 -1.49417E-01
   7.53938E-01  1.48833E+00  1.94306E+00  2.04618E+00  1.87388E+00  1.55786E+00  1.23241E+00  9.98210E-01  9.14560E-01  9.75357E-01
   1.18546E+00  1.50939E+00  1.87514E+00  2.18716E+00  2.33605E+00  2.22420E+00  1.82486E+00  1.19102E+00  4.31476E-01 -2.58723E-01
  -7.14668E-01 -8.07514E-01 -4.96389E-01  1.52876E-01  9.99177E-01  1.84060E+00  2.44858E+00  2.63630E+00  2.37872E+00  1.77670E+00
   1.03977E+00  4.48079E-01  2.49881E-01  5.71159E-01  1.33284E+00  2.31591E+00  3.35142E+00  4.28756E+00  5.05303E+00  5.60564E+00
   6.00488E+00  6.41191E+00  6.93718E+00  7.59614E+00  8.30661E+00  8.94821E+00  9.43127E+00  9.69356E+00  9.70867E+00  9.57441E+00
   9.44762E+00  9.49492E+00  9.85193E+00  1.05371E+01  1.14791E+01  1.25565E+01  1.36253E+01  1.45752E+01  1.54104E+01  1.64954E+01
   1.83712E+01  2.13497E+01  2.54818E+01  3.11928E+01  3.90503E+01  4.88340E+01  5.95847E+01  7.01197E+01  7.92891E+01  8.58131E+01
   8.84640E+01  8.65790E+01  8.04119E+01  7.09844E+01  5.94661E+01  4.72640E+01  3.62452E+01  2.76762E+01  2.15885E+01  1.69159E+01
   1.29492E+01  9.51463E+00  7.37434E+00  6.42858E+00  5.78031E+00  5.19202E+00  4.61120E+00  4.03371E+00  3.47724E+00  2.97914E+00
   2.56101E+00  2.23331E+00  1.98711E+00  1.79907E+00  1.64480E+00  1.51416E+00  1.41507E+00  1.36195E+00  1.36891E+00  1.45087E+00
   1.63357E+00  1.93586E+00  2.36143E+00  2.90424E+00  3.55668E+00  4.31599E+00  5.18139E+00  6.14579E+00  7.21239E+00  8.38137E+00
   9.63923E+00  1.09600E+01  1.23066E+01  1.36332E+01  1.48979E+01  1.60532E+01  1.70533E+01  1.78629E+01  1.84563E+01  1.88166E+01
   1.89370E+01  1.88188E+01  1.84785E+01  1.79447E+01  1.72533E+01  1.64478E+01  1.55766E+01  1.46910E+01  1.38420E+01  1.30865E+01
   1.24958E+01  1.21141E+01  1.19272E+01  1.18815E+01  1.19110E+01  1.19414E+01  1.18882E+01  1.16898E+01  1.13674E+01  1.10427E+01
   1.08885E+01  1.10526E+01  1.16330E+01  1.26715E+01  1.40885E+01  1.56915E+01  1.72923E+01  1.87549E+01  1.99998E+01  2.10303E+01
   2.18444E+01  2.25090E+01  2.31249E+01  2.36951E+01  2.41443E+01  2.43898E+01  2.43361E+01  2.39621E+01  2.33302E+01  2.25409E+01
   2.17625E+01  2.11630E+01  2.08658E+01  2.09442E+01  2.13602E+01  2.19463E+01  2.25100E+01  2.29169E+01  2.30955E+01  2.30475E+01
   2.27779E+01  2.23053E+01  2.17344E+01  2.11193E+01  2.04553E+01  1.97338E+01  1.89449E+01  1.81387E+01  1.73564E+01  1.65837E+01
   1.58176E+01  1.50622E+01  1.43246E+01  1.36126E+01  1.29345E+01  1.22988E+01  1.17132E+01  1.11853E+01  1.07221E+01  1.03300E+01
   1.00148E+01  9.78151E+00  9.63445E+00  9.57705E+00  9.61167E+00  9.73962E+00  9.96071E+00  1.02732E+01  1.06733E+01  1.11553E+01
   1.17111E+01  1.23303E+01  1.29997E+01  1.37042E+01  1.44262E+01  1.51464E+01  1.58445E+01  1.64996E+01  1.70910E+01  1.75991E+01
   1.80061E+01  1.82972E+01  1.84607E+01  1.84890E+01  1.83786E+01  1.81304E+01  1.77496E+01  1.72452E+01  1.66294E+01  1.59174E+01
   1.51259E+01  1.42730E+01  1.33769E+01  1.24554E+01  1.15252E+01  1.06012E+01  9.69655E+00  8.82210E+00  7.98643E+00  7.19592E+00
   6.45476E+00  5.76534E+00  5.12835E+00  4.54324E+00  4.00831E+00  3.52118E+00  3.07880E+00  2.67789E+00  2.31496E+00  1.98660E+00
   1.68941E+00  1.42022E+00  1.17600E+00  9.54059E-01  7.51884E-01  5.67311E-01  3.98321E-01  2.43192E-01  1.00329E-01 -3.15785E-02
  -1.53742E-01 -2.67149E-01 -3.72756E-01 -4.71331E-01 -5.63622E-01 -6.50188E-01 -7.31596E-01 -8.08277E-01 -8.80706E-01 -9.49227E-01
  -1.01421E+00 -1.07590E+00 -1.13458E+00 -1.19046E+00 -1.24381E+00 -1.29478E+00 -1.34357E+00 -1.39030E+00 -1.43513E+00 -1.47817E+00
  -1.51959E+00 -1.55946E+00 -1.59790E+00 -1.63496E+00 -1.67076E+00 -1.70535E+00 -1.73884E+00 -1.77127E+00 -1.80271E+00 -1.83318E+00
  -1.86277E+00 -1.89151E+00 -1.91949E+00 -1.94669E+00 -1.97318E+00 -1.99897E+00 -2.02413E+00 -2.04867E+00 -2.07266E+00 -2.09607E+00
  -2.11896E+00 -2.14133E+00 -2.16324E+00 -2.18470E+00 -2.20575E+00 -2.22636E+00 -2.24659E+00 -2.26642E+00 -2.28594E+00 -2.30511E+00
  -2.32397E+00 -2.34251E+00 -2.36077E+00 -2.37875E+00 -2.39650E+00 -2.41400E+00 -2.43129E+00 -2.44833E+00
 NY background values follow
    -1.554E+00   -1.559E+00   -1.563E+00   -1.568E+00   -1.572E+00   -1.576E+00   -1.581E+00   -1.585E+00   -1.590E+00   -1.594E+00
    -1.598E+00   -1.603E+00   -1.607E+00   -1.612E+00   -1.616E+00   -1.620E+00   -1.625E+00   -1.629E+00   -1.633E+00   -1.638E+00
    -1.642E+00   -1.647E+00   -1.651E+00   -1.655E+00   -1.660E+00   -1.664E+00   -1.669E+00   -1.673E+00   -1.677E+00   -1.682E+00
    -1.686E+00   -1.690E+00   -1.695E+00   -1.699E+00   -1.704E+00   -1.708E+00   -1.712E+00   -1.717E+00   -1.721E+00   -1.726E+00
    -1.730E+00   -1.734E+00   -1.739E+00   -1.743E+00   -1.748E+00   -1.752E+00   -1.756E+00   -1.761E+00   -1.765E+00   -1.769E+00
    -1.774E+00   -1.778E+00   -1.783E+00   -1.787E+00   -1.791E+00   -1.796E+00   -1.800E+00   -1.805E+00   -1.809E+00   -1.813E+00
    -1.818E+00   -1.822E+00   -1.827E+00   -1.831E+00   -1.835E+00   -1.840E+00   -1.844E+00   -1.848E+00   -1.853E+00   -1.857E+00
    -1.862E+00   -1.866E+00   -1.870E+00   -1.875E+00   -1.879E+00   -1.884E+00   -1.888E+00   -1.892E+00   -1.897E+00   -1.901E+00
    -1.905E+00   -1.910E+00   -1.914E+00   -1.919E+00   -1.923E+00   -1.927E+00   -1.932E+00   -1.936E+00   -1.941E+00   -1.945E+00
    -1.949E+00   -1.954E+00   -1.958E+00   -1.962E+00   -1.967E+00   -1.971E+00   -1.976E+00   -1.980E+00   -1.984E+00   -1.989E+00
    -1.993E+00   -1.998E+00   -2.002E+00   -2.006E+00   -2.011E+00   -2.015E+00   -2.019E+00   -2.024E+00   -2.028E+00   -2.033E+00
    -2.037E+00   -2.041E+00   -2.046E+00   -2.050E+00   -2.054E+00   -2.059E+00   -2.063E+00   -2.068E+00   -2.072E+00   -2.076E+00
    -2.081E+00   -2.085E+00   -2.090E+00   -2.094E+00   -2.098E+00   -2.103E+00   -2.107E+00   -2.111E+00   -2.116E+00   -2.120E+00
    -2.125E+00   -2.129E+00   -2.133E+00   -2.138E+00   -2.142E+00   -2.146E+00   -2.151E+00   -2.155E+00   -2.160E+00   -2.164E+00
    -2.168E+00   -2.173E+00   -2.177E+00   -2.181E+00   -2.186E+00   -2.190E+00   -2.195E+00   -2.199E+00   -2.203E+00   -2.208E+00
    -2.212E+00   -2.216E+00   -2.221E+00   -2.225E+00   -2.230E+00   -2.234E+00   -2.238E+00   -2.243E+00   -2.247E+00   -2.251E+00
    -2.256E+00   -2.260E+00   -2.265E+00   -2.269E+00   -2.273E+00   -2.278E+00   -2.282E+00   -2.286E+00   -2.291E+00   -2.295E+00
    -2.300E+00   -2.304E+00   -2.308E+00   -2.313E+00   -2.317E+00   -2.321E+00   -2.326E+00   -2.330E+00   -2.334E+00   -2.339E+00
    -2.343E+00   -2.348E+00   -2.352E+00   -2.356E+00   -2.361E+00   -2.365E+00   -2.369E+00   -2.374E+00   -2.378E+00   -2.382E+00
    -2.387E+00   -2.391E+00   -2.396E+00   -2.400E+00   -2.404E+00   -2.409E+00   -2.413E+00   -2.417E+00   -2.422E+00   -2.426E+00
    -2.430E+00   -2.435E+00   -2.439E+00   -2.443E+00   -2.448E+00   -2.452E+00   -2.457E+00   -2.461E+00   -2.465E+00   -2.470E+00
    -2.474E+00   -2.478E+00   -2.483E+00   -2.487E+00   -2.491E+00   -2.496E+00   -2.500E+00   -2.504E+00   -2.509E+00   -2.513E+00
    -2.518E+00   -2.522E+00   -2.526E+00   -2.531E+00   -2.535E+00   -2.539E+00   -2.544E+00   -2.548E+00   -2.552E+00   -2.557E+00
    -2.561E+00   -2.565E+00   -2.570E+00   -2.574E+00   -2.578E+00   -2.583E+00   -2.587E+00   -2.591E+00   -2.596E+00   -2.600E+00
    -2.604E+00   -2.609E+00   -2.613E+00   -2.617E+00   -2.622E+00   -2.626E+00   -2.630E+00   -2.635E+00   -2.639E+00   -2.643E+00
    -2.648E+00   -2.652E+00   -2.656E+00   -2.661E+00   -2.665E+00   -2.669E+00   -2.674E+00   -2.678E+00   -2.682E+00   -2.687E+00
    -2.691E+00   -2.695E+00   -2.700E+00   -2.704E+00   -2.708E+00   -2.713E+00   -2.717E+00   -2.721E+00   -2.726E+00   -2.730E+00
    -2.734E+00   -2.739E+00   -2.743E+00   -2.747E+00   -2.752E+00   -2.756E+00   -2.760E+00   -2.765E+00   -2.769E+00   -2.773E+00
    -2.778E+00   -2.782E+00   -2.786E+00   -2.791E+00   -2.795E+00   -2.799E+00   -2.804E+00   -2.808E+00   -2.812E+00   -2.816E+00
    -2.821E+00   -2.825E+00   -2.829E+00   -2.834E+00   -2.838E+00   -2.842E+00   -2.847E+00   -2.851E+00   -2.855E+00   -2.860E+00
    -2.864E+00   -2.868E+00   -2.873E+00   -2.877E+00   -2.881E+00   -2.885E+00   -2.890E+00   -2.894E+00   -2.898E+00   -2.903E+00
    -2.907E+00   -2.911E+00   -2.916E+00   -2.920E+00   -2.924E+00   -2.928E+00   -2.933E+00   -2.937E+00   -2.941E+00   -2.946E+00
    -2.950E+00   -2.954E+00   -2.959E+00   -2.963E+00   -2.967E+00   -2.971E+00   -2.976E+00   -2.980E+00   -2.984E+00   -2.989E+00
    -2.993E+00   -2.997E+00   -3.001E+00   -3.006E+00   -3.010E+00   -3.014E+00   -3.019E+00   -3.023E+00   -3.027E+00   -3.031E+00
    -3.036E+00   -3.040E+00   -3.044E+00   -3.049E+00   -3.053E+00   -3.057E+00   -3.061E+00   -3.066E+00   -3.070E+00   -3.074E+00
    -3.079E+00   -3.083E+00   -3.087E+00   -3.091E+00   -3.096E+00   -3.100E+00   -3.104E+00   -3.108E+00   -3.113E+00   -3.117E+00
    -3.121E+00   -3.125E+00   -3.130E+00   -3.134E+00   -3.138E+00   -3.143E+00   -3.147E+00   -3.151E+00   -3.155E+00   -3.160E+00
    -3.164E+00   -3.168E+00   -3.172E+00   -3.177E+00   -3.181E+00   -3.185E+00   -3.189E+00   -3.194E+00   -3.198E+00   -3.202E+00
    -3.206E+00   -3.211E+00   -3.215E+00   -3.219E+00   -3.223E+00   -3.228E+00   -3.232E+00   -3.236E+00   -3.240E+00   -3.245E+00
    -3.249E+00   -3.253E+00   -3.257E+00   -3.262E+00   -3.266E+00   -3.270E+00   -3.274E+00   -3.279E+00   -3.283E+00   -3.287E+00
    -3.291E+00   -3.296E+00   -3.300E+00   -3.304E+00   -3.308E+00   -3.313E+00   -3.317E+00   -3.321E+00   -3.325E+00   -3.329E+00
    -3.334E+00   -3.338E+00   -3.342E+00   -3.346E+00   -3.351E+00   -3.355E+00   -3.359E+00   -3.363E+00   -3.368E+00   -3.372E+00
    -3.376E+00   -3.380E+00   -3.384E+00   -3.389E+00   -3.393E+00   -3.397E+00   -3.401E+00   -3.406E+00   -3.410E+00   -3.414E+00
    -3.418E+00   -3.422E+00   -3.427E+00   -3.431E+00   -3.435E+00   -3.439E+00   -3.443E+00   -3.448E+00   -3.452E+00   -3.456E+00
    -3.460E+00   -3.464E+00   -3.469E+00   -3.473E+00   -3.477E+00   -3.481E+00   -3.485E+00   -3.490E+00   -3.494E+00   -3.498E+00
    -3.502E+00   -3.506E+00   -3.511E+00   -3.515E+00   -3.519E+00   -3.523E+00   -3.527E+00   -3.532E+00   -3.536E+00   -3.540E+00
    -3.544E+00   -3.548E+00   -3.553E+00   -3.557E+00   -3.561E+00   -3.565E+00   -3.569E+00   -3.573E+00   -3.578E+00   -3.582E+00
    -3.586E+00   -3.590E+00   -3.594E+00   -3.599E+00   -3.603E+00   -3.607E+00   -3.611E+00   -3.615E+00   -3.619E+00   -3.624E+00
    -3.628E+00   -3.632E+00   -3.636E+00   -3.640E+00   -3.644E+00   -3.649E+00   -3.653E+00   -3.657E+00   -3.661E+00   -3.665E+00
    -3.669E+00   -3.674E+00   -3.678E+00   -3.682E+00   -3.686E+00   -3.690E+00   -3.694E+00   -3.698E+00
 Ala      Conc. = 2.41E+02
