 LCModel (Version 6.3-1L) Copyright: S.W. Provencher.          Ref.: Magn. Reson. Med. 30:672-679 (1993).                
 Slice#3 Row#10 Col#2  PD_24_press_2_raw_act
 36 lines in following concentration table = NCONC+1
    Conc.  %SD /Cr+PCr  Metabolite                                         
 6.22E+03  52%   0.000 Ala                                                 
    0.000 999%   0.000 Asp                                                 
    0.000 999%   0.000 Cr                                                  
    0.000 999%   0.000 PCr                                                 
   25.841 668%   0.000 GABA                                                
  173.735  99%   0.000 Glc                                                 
 2.96E+04   8%   0.000 Gln                                                 
    0.000 999%   0.000 Glu                                                 
    0.000 999%   0.000 GPC                                                 
  277.650  32%   0.000 PCh                                                 
    0.000 999%   0.000 GSH                                                 
 6.78E+03  15%   0.000 Ins                                                 
    0.000 999%   0.000 Lac                                                 
    0.000 999%   0.000 NAA                                                 
    0.000 999%   0.000 NAAG                                                
  200.399  26%   0.000+Scyllo                                              
  739.581  37%   0.000 Tau                                                 
 1.49E+03  36%   0.000 -CrCH2                                              
  277.650  32%   0.000 GPC+PCh                                             
    0.000 999%   0.000 NAA+NAAG                                            
    0.000 999%   0.000 Cr+PCr                                              
 2.96E+04   8%   0.000 Glu+Gln                                             
 1.53E+04  15%   0.000 Lip13a                                              
    0.000 999%   0.000 Lip13b                                              
    0.000 999%   0.000 Lip09                                               
 5.72E+03  15%   0.000 MM09                                                
 6.15E+03  19%   0.000 Lip20                                               
 2.43E+04   7%   0.000+MM20                                                
 2.10E+03  42%   0.000 MM12                                                
 1.42E+04  11%   0.000 MM14                                                
 1.37E+04   5%   0.000+MM17                                                
 1.53E+04  15%   0.000 Lip13a+Lip13b                                       
 3.16E+04   7%   0.000 MM14+Lip13a+Lip13b+MM12                             
 5.72E+03  15%   0.000 MM09+Lip09                                          
 3.05E+04   5%   0.000 MM20+Lip20                                          
   6 lines in following misc. output table
  FWHM = 0.168 ppm    S/N =  10                                            
  Data shift = 0.153 ppm                                                   
  Ph: -78 deg      56.6 deg/ppm                                            
  alphaB,S = 1.8E+00,   3.2E+02                                            
    8 spline knots.   Ns = 9(2)                                            
  (17) 4 infls.   ( 5) 1 extrs.                                            
  498 points on ppm-axis = NY
      4.000000     3.992357     3.984714     3.977070     3.969427     3.961784     3.954141     3.946497     3.938854     3.931211
      3.923568     3.915925     3.908281     3.900638     3.892995     3.885352     3.877708     3.870065     3.862422     3.854779
      3.847136     3.839492     3.831849     3.824206     3.816563     3.808919     3.801276     3.793633     3.785990     3.778347
      3.770703     3.763060     3.755417     3.747774     3.740130     3.732487     3.724844     3.717201     3.709558     3.701914
      3.694271     3.686628     3.678985     3.671341     3.663698     3.656055     3.648412     3.640769     3.633125     3.625482
      3.617839     3.610196     3.602552     3.594909     3.587266     3.579623     3.571980     3.564336     3.556693     3.549050
      3.541407     3.533763     3.526120     3.518477     3.510834     3.503191     3.495547     3.487904     3.480261     3.472618
      3.464974     3.457331     3.449688     3.442045     3.434402     3.426758     3.419115     3.411472     3.403829     3.396185
      3.388542     3.380899     3.373256     3.365613     3.357969     3.350326     3.342683     3.335040     3.327396     3.319753
      3.312110     3.304467     3.296824     3.289180     3.281537     3.273894     3.266251     3.258607     3.250964     3.243321
      3.235678     3.228034     3.220391     3.212748     3.205105     3.197462     3.189818     3.182175     3.174532     3.166889
      3.159245     3.151602     3.143959     3.136316     3.128673     3.121029     3.113386     3.105743     3.098100     3.090456
      3.082813     3.075170     3.067527     3.059884     3.052240     3.044597     3.036954     3.029311     3.021667     3.014024
      3.006381     2.998738     2.991095     2.983451     2.975808     2.968165     2.960522     2.952878     2.945235     2.937592
      2.929949     2.922306     2.914662     2.907019     2.899376     2.891733     2.884089     2.876446     2.868803     2.861160
      2.853517     2.845873     2.838230     2.830587     2.822944     2.815300     2.807657     2.800014     2.792371     2.784728
      2.777084     2.769441     2.761798     2.754155     2.746511     2.738868     2.731225     2.723582     2.715939     2.708295
      2.700652     2.693009     2.685366     2.677722     2.670079     2.662436     2.654793     2.647150     2.639506     2.631863
      2.624220     2.616577     2.608933     2.601290     2.593647     2.586004     2.578361     2.570717     2.563074     2.555431
      2.547788     2.540144     2.532501     2.524858     2.517215     2.509572     2.501928     2.494285     2.486642     2.478999
      2.471355     2.463712     2.456069     2.448426     2.440783     2.433139     2.425496     2.417853     2.410210     2.402566
      2.394923     2.387280     2.379637     2.371994     2.364350     2.356707     2.349064     2.341421     2.333777     2.326134
      2.318491     2.310848     2.303205     2.295561     2.287918     2.280275     2.272632     2.264988     2.257345     2.249702
      2.242059     2.234416     2.226772     2.219129     2.211486     2.203843     2.196199     2.188556     2.180913     2.173270
      2.165627     2.157983     2.150340     2.142697     2.135054     2.127410     2.119767     2.112124     2.104481     2.096838
      2.089194     2.081551     2.073908     2.066265     2.058621     2.050978     2.043335     2.035692     2.028049     2.020405
      2.012762     2.005119     1.997476     1.989833     1.982190     1.974546     1.966903     1.959260     1.951617     1.943974
      1.936331     1.928688     1.921045     1.913402     1.905759     1.898115     1.890472     1.882829     1.875186     1.867543
      1.859900     1.852257     1.844614     1.836971     1.829327     1.821684     1.814041     1.806398     1.798755     1.791112
      1.783469     1.775826     1.768183     1.760540     1.752896     1.745253     1.737610     1.729967     1.722324     1.714681
      1.707038     1.699395     1.691752     1.684108     1.676465     1.668822     1.661179     1.653536     1.645893     1.638250
      1.630607     1.622964     1.615321     1.607677     1.600034     1.592391     1.584748     1.577105     1.569462     1.561819
      1.554176     1.546533     1.538890     1.531246     1.523603     1.515960     1.508317     1.500674     1.493031     1.485388
      1.477745     1.470102     1.462458     1.454815     1.447172     1.439529     1.431886     1.424243     1.416600     1.408957
      1.401314     1.393671     1.386027     1.378384     1.370741     1.363098     1.355455     1.347812     1.340169     1.332526
      1.324883     1.317240     1.309596     1.301953     1.294310     1.286667     1.279024     1.271381     1.263738     1.256095
      1.248452     1.240808     1.233165     1.225522     1.217879     1.210236     1.202593     1.194950     1.187307     1.179664
      1.172021     1.164377     1.156734     1.149091     1.141448     1.133805     1.126162     1.118519     1.110876     1.103233
      1.095590     1.087946     1.080303     1.072660     1.065017     1.057374     1.049731     1.042088     1.034445     1.026802
      1.019158     1.011515     1.003872     0.996229     0.988586     0.980943     0.973300     0.965657     0.958014     0.950371
      0.942727     0.935084     0.927441     0.919798     0.912155     0.904512     0.896869     0.889226     0.881583     0.873940
      0.866296     0.858653     0.851010     0.843367     0.835724     0.828081     0.820438     0.812795     0.805152     0.797508
      0.789865     0.782222     0.774579     0.766936     0.759293     0.751650     0.744007     0.736364     0.728721     0.721077
      0.713434     0.705791     0.698148     0.690505     0.682862     0.675219     0.667576     0.659933     0.652290     0.644646
      0.637003     0.629360     0.621717     0.614074     0.606431     0.598788     0.591145     0.583502     0.575858     0.568215
      0.560572     0.552929     0.545286     0.537643     0.530000     0.522357     0.514714     0.507071     0.499427     0.491784
      0.484141     0.476498     0.468855     0.461212     0.453569     0.445925     0.438282     0.430639     0.422996     0.415353
      0.407710     0.400067     0.392424     0.384780     0.377137     0.369494     0.361851     0.354208     0.346565     0.338922
      0.331278     0.323635     0.315992     0.308349     0.300706     0.293063     0.285420     0.277777     0.270133     0.262490
      0.254847     0.247204     0.239561     0.231918     0.224275     0.216631     0.208988     0.201345
 NY phased data points follow
  -2.07994E+02 -2.07796E+02 -2.05631E+02 -1.97519E+02 -1.92887E+02 -1.87384E+02 -1.85466E+02 -1.81073E+02 -1.74479E+02 -1.71516E+02
  -1.69609E+02 -1.66157E+02 -1.63984E+02 -1.59666E+02 -1.56864E+02 -1.48382E+02 -1.49655E+02 -1.47766E+02 -1.44680E+02 -1.44089E+02
  -1.41725E+02 -1.40017E+02 -1.33160E+02 -1.35679E+02 -1.29391E+02 -1.28670E+02 -1.25971E+02 -1.23908E+02 -1.18511E+02 -1.17451E+02
  -1.12361E+02 -1.12911E+02 -1.11998E+02 -1.07817E+02 -1.07270E+02 -1.03240E+02 -1.01936E+02 -1.03235E+02 -9.50500E+01 -9.40737E+01
  -8.81391E+01 -8.79433E+01 -8.81705E+01 -8.91590E+01 -8.30711E+01 -8.09122E+01 -7.91476E+01 -7.55778E+01 -7.16759E+01 -7.23047E+01
  -6.80287E+01 -7.04111E+01 -6.28523E+01 -6.34045E+01 -6.51818E+01 -5.86062E+01 -5.97875E+01 -5.47728E+01 -5.43603E+01 -5.73103E+01
  -5.06155E+01 -4.47030E+01 -4.79265E+01 -4.59161E+01 -4.33286E+01 -4.31714E+01 -4.52335E+01 -3.97590E+01 -3.73835E+01 -3.94373E+01
  -3.86396E+01 -4.06355E+01 -3.60266E+01 -3.35601E+01 -3.08561E+01 -2.98128E+01 -3.28945E+01 -2.69338E+01 -2.63196E+01 -2.96222E+01
  -2.69286E+01 -2.70930E+01 -2.10932E+01 -1.82753E+01 -2.21355E+01 -1.31571E+01 -1.31960E+01 -1.92731E+01 -1.81916E+01 -1.98918E+01
  -1.75446E+01 -2.04507E+01 -1.66493E+01 -1.66445E+01 -1.58442E+01 -1.84649E+01 -1.97378E+01 -1.73719E+01 -1.13357E+01 -1.05772E+01
  -1.15298E+01 -1.41221E+01 -1.02090E+01 -1.76544E+01 -1.63878E+01 -1.31238E+01 -1.18839E+01 -3.29143E+00 -1.38842E+00 -1.50125E+00
  -3.50258E+00 -3.97950E+00 -9.83415E+00 -1.24213E+01 -1.28690E+01 -8.71681E+00 -7.06515E+00 -5.85664E+00 -4.60331E+00 -8.47261E+00
  -4.68169E+00 -3.55405E+00 -3.32871E-02  3.20810E+00  2.92834E-01  1.51281E+00  4.14605E+00  5.36978E+00  4.99537E+00  3.28312E+00
   7.34592E+00  8.58511E+00  8.05702E+00  9.76683E+00  8.21123E+00  1.24419E+01  1.33191E+01  1.06581E+01  1.08880E+01  1.45782E+01
   1.46628E+01  1.47444E+01  1.54983E+01  1.81394E+01  1.37248E+01  1.27163E+01  1.49470E+01  1.57774E+01  1.47786E+01  1.35901E+01
   1.59735E+01  1.24121E+01  1.66284E+01  1.26803E+01  1.26314E+01  1.29292E+01  1.24816E+01  1.13513E+01  1.21581E+01  1.34096E+01
   1.49635E+01  1.30214E+01  1.37748E+01  1.11101E+01  1.06565E+01  1.15339E+01  8.83603E+00  9.92645E+00  9.77140E+00  6.33114E+00
   3.49467E+00  1.12186E+00  4.73606E+00  8.33921E-01  5.25595E-01  5.64934E-01  5.63844E-01 -9.47317E-02 -4.49738E+00 -2.12857E+00
  -7.45168E+00 -7.08995E-01 -6.00927E+00 -5.71721E+00 -4.41262E+00 -7.19055E+00 -9.82039E+00 -1.13560E+01 -1.72665E+01 -1.54054E+01
  -1.16439E+01 -1.46580E+01 -1.73784E+01 -1.27483E+01 -1.76504E+01 -1.59074E+01 -1.21458E+01 -1.39500E+01 -1.35087E+01 -1.62297E+01
  -1.70823E+01 -1.55139E+01 -1.09161E+01 -8.53108E+00 -8.71181E+00 -3.68511E+00  1.12796E+00  4.84693E+00  4.56555E+00  7.87797E+00
   1.55105E+01  2.07845E+01  2.38553E+01  2.55836E+01  2.83066E+01  3.49229E+01  3.64812E+01  4.11178E+01  4.16377E+01  4.56796E+01
   4.54869E+01  5.04554E+01  5.15003E+01  5.78976E+01  5.68866E+01  6.11765E+01  6.38671E+01  6.69915E+01  6.72454E+01  6.96496E+01
   7.36087E+01  7.76738E+01  7.97248E+01  8.11668E+01  8.30082E+01  8.63431E+01  8.53095E+01  9.18746E+01  9.09125E+01  9.78956E+01
   9.98074E+01  9.74229E+01  9.63582E+01  9.20595E+01  8.81158E+01  8.55553E+01  8.58960E+01  9.01974E+01  9.75192E+01  9.64578E+01
   9.50453E+01  9.55562E+01  1.00302E+02  9.36891E+01  9.29593E+01  9.10187E+01  9.05129E+01  9.42295E+01  9.19233E+01  9.23022E+01
   8.82123E+01  8.73872E+01  8.60417E+01  8.40976E+01  8.25201E+01  7.85350E+01  7.81956E+01  7.78850E+01  7.40044E+01  7.42351E+01
   7.01221E+01  6.99416E+01  6.87120E+01  6.28341E+01  6.32991E+01  6.30636E+01  6.05315E+01  6.04530E+01  5.54453E+01  4.97925E+01
   4.90697E+01  4.44567E+01  4.10726E+01  4.00855E+01  3.65408E+01  3.23865E+01  2.85808E+01  2.57152E+01  2.59667E+01  1.91047E+01
   2.09184E+01  2.50526E+01  2.28111E+01  2.94563E+01  3.30204E+01  3.73758E+01  4.68292E+01  5.46292E+01  6.53567E+01  7.63058E+01
   9.26075E+01  1.03617E+02  1.10415E+02  1.23450E+02  1.37787E+02  1.48342E+02  1.53507E+02  1.57753E+02  1.66436E+02  1.71880E+02
   1.71361E+02  1.75330E+02  1.71682E+02  1.75539E+02  1.76228E+02  1.77720E+02  1.75447E+02  1.76763E+02  1.69909E+02  1.74435E+02
   1.74398E+02  1.73919E+02  1.67790E+02  1.69000E+02  1.71731E+02  1.61436E+02  1.58920E+02  1.57768E+02  1.53712E+02  1.51985E+02
   1.51662E+02  1.47006E+02  1.49054E+02  1.41205E+02  1.36420E+02  1.36431E+02  1.32477E+02  1.30370E+02  1.26684E+02  1.22644E+02
   1.21943E+02  1.22755E+02  1.22161E+02  1.22969E+02  1.18683E+02  1.17044E+02  1.16614E+02  1.15525E+02  1.18239E+02  1.11076E+02
   1.10486E+02  1.09917E+02  1.09373E+02  1.07561E+02  1.04307E+02  1.06436E+02  1.03826E+02  1.04698E+02  1.01272E+02  1.02969E+02
   1.03555E+02  1.01893E+02  9.72956E+01  9.59352E+01  9.47797E+01  9.65609E+01  9.30698E+01  9.44500E+01  9.24648E+01  9.34723E+01
   9.40821E+01  9.05824E+01  9.11112E+01  9.35259E+01  8.95734E+01  8.92957E+01  9.21164E+01  9.02287E+01  8.74067E+01  8.75934E+01
   8.81380E+01  8.31848E+01  8.08047E+01  8.44215E+01  7.93142E+01  8.28572E+01  7.84096E+01  8.08215E+01  7.61247E+01  8.03459E+01
   7.41718E+01  7.63306E+01  7.63631E+01  7.39902E+01  7.09208E+01  6.92140E+01  6.82215E+01  7.33735E+01  6.61243E+01  6.74503E+01
   6.70261E+01  6.64852E+01  6.32183E+01  6.58003E+01  6.12654E+01  6.55760E+01  6.55812E+01  5.94063E+01  5.81433E+01  6.14434E+01
   5.92136E+01  6.11469E+01  5.70371E+01  5.37448E+01  5.66068E+01  5.54550E+01  5.69467E+01  5.42383E+01  5.41154E+01  5.12514E+01
   4.61628E+01  5.00355E+01  4.90025E+01  4.98946E+01  4.81769E+01  5.02137E+01  4.80133E+01  4.64905E+01  4.69731E+01  4.50853E+01
   4.08965E+01  4.65322E+01  4.47699E+01  4.51371E+01  3.93445E+01  4.34863E+01  4.50650E+01  4.09360E+01  4.05429E+01  4.05906E+01
   3.99856E+01  3.36783E+01  3.83981E+01  3.38568E+01  3.62663E+01  3.40211E+01  3.55907E+01  3.40719E+01  3.58047E+01  3.01543E+01
   3.36344E+01  3.19153E+01  3.29481E+01  3.04132E+01  2.94148E+01  2.75660E+01  2.89570E+01  3.14643E+01  2.67397E+01  2.60423E+01
   3.12642E+01  2.66186E+01  2.62061E+01  2.53365E+01  2.16106E+01  2.33012E+01  2.58845E+01  2.21877E+01  2.04931E+01  2.21211E+01
   2.14489E+01  2.28854E+01  2.21379E+01  1.86387E+01  1.76004E+01  2.10019E+01  1.65699E+01  1.79925E+01  1.59971E+01  1.77285E+01
   1.65679E+01  1.76553E+01  1.52754E+01  1.45857E+01  1.73315E+01  1.55818E+01  1.62601E+01  1.37352E+01  1.62563E+01  1.58176E+01
   1.35012E+01  1.65242E+01  1.30457E+01  1.31140E+01  1.22175E+01  1.59385E+01  1.28321E+01  1.72784E+01
 NY points of the fit to the data follow
  -1.89764E+02 -1.87462E+02 -1.87483E+02 -1.85203E+02 -1.84726E+02 -1.82233E+02 -1.80717E+02 -1.77588E+02 -1.76673E+02 -1.74375E+02
  -1.73738E+02 -1.71902E+02 -1.71052E+02 -1.68445E+02 -1.65057E+02 -1.61613E+02 -1.57278E+02 -1.54192E+02 -1.50149E+02 -1.48032E+02
  -1.44042E+02 -1.41434E+02 -1.37083E+02 -1.34501E+02 -1.30085E+02 -1.27813E+02 -1.23505E+02 -1.21341E+02 -1.17321E+02 -1.15080E+02
  -1.11597E+02 -1.08792E+02 -1.05609E+02 -1.02928E+02 -1.00473E+02 -9.79579E+01 -9.57012E+01 -9.29503E+01 -9.06438E+01 -8.77693E+01
  -8.58470E+01 -8.32487E+01 -8.17997E+01 -7.92187E+01 -7.77827E+01 -7.47862E+01 -7.30842E+01 -6.98279E+01 -6.93470E+01 -6.73734E+01
  -6.78023E+01 -6.64223E+01 -6.70305E+01 -6.51279E+01 -6.40660E+01 -6.13896E+01 -6.03076E+01 -5.79853E+01 -5.73948E+01 -5.58212E+01
  -5.57381E+01 -5.37025E+01 -5.36295E+01 -5.15608E+01 -5.14312E+01 -4.93339E+01 -4.91638E+01 -4.70834E+01 -4.65631E+01 -4.45489E+01
  -4.36797E+01 -4.15575E+01 -4.05595E+01 -3.89660E+01 -3.80715E+01 -3.69589E+01 -3.60950E+01 -3.53556E+01 -3.44766E+01 -3.40895E+01
  -3.30022E+01 -3.30358E+01 -3.18602E+01 -3.20413E+01 -3.04954E+01 -3.02489E+01 -2.87476E+01 -2.84245E+01 -2.71111E+01 -2.66747E+01
  -2.54452E+01 -2.47030E+01 -2.36008E+01 -2.25045E+01 -2.16426E+01 -2.01294E+01 -1.94995E+01 -1.76576E+01 -1.72580E+01 -1.52369E+01
  -1.50470E+01 -1.29413E+01 -1.29458E+01 -1.08624E+01 -1.09810E+01 -8.96139E+00 -9.06157E+00 -7.02017E+00 -6.85689E+00 -4.90883E+00
  -4.77166E+00 -3.11733E+00 -3.00044E+00 -1.59790E+00 -1.35021E+00 -1.47372E-01  2.51095E-01  1.35818E+00  1.95084E+00  2.94571E+00
   3.74910E+00  4.50694E+00  5.35544E+00  5.90714E+00  6.95810E+00  7.67608E+00  8.61292E+00  9.18922E+00  9.95178E+00  1.04110E+01
   1.10308E+01  1.13487E+01  1.18222E+01  1.20092E+01  1.23561E+01  1.24377E+01  1.26822E+01  1.26810E+01  1.28486E+01  1.27838E+01
   1.28972E+01  1.27885E+01  1.28635E+01  1.27288E+01  1.27828E+01  1.26409E+01  1.26850E+01  1.25402E+01  1.25748E+01  1.24228E+01
   1.24430E+01  1.22798E+01  1.22726E+01  1.20803E+01  1.20394E+01  1.18131E+01  1.17279E+01  1.14575E+01  1.13193E+01  1.09951E+01
   1.07919E+01  1.04092E+01  1.01550E+01  9.72486E+00  9.43393E+00  8.97312E+00  8.66896E+00  8.20147E+00  7.89027E+00  7.45094E+00
   7.16876E+00  6.73504E+00  6.49074E+00  6.08731E+00  5.89737E+00  5.41254E+00  4.75566E+00  4.08655E+00  2.51760E+00  1.34009E+00
  -6.96925E-01 -2.12613E+00 -4.21833E+00 -4.70004E+00 -5.64004E+00 -5.09879E+00 -5.59000E+00 -3.78795E+00 -4.18096E+00 -2.08241E+00
  -3.10207E+00 -2.39984E+00 -6.81550E+00 -5.77162E+00 -9.76762E+00 -7.55449E+00 -1.08839E+01 -7.93692E+00 -1.14375E+01 -8.18283E+00
  -1.20060E+01 -8.48767E+00 -1.21318E+01 -8.23605E+00 -1.10928E+01 -6.59175E+00 -8.10554E+00 -2.87273E+00 -2.82092E+00  3.19303E+00
   4.81537E+00  1.12037E+01  1.40193E+01  2.01927E+01  2.34786E+01  2.91315E+01  3.24551E+01  3.68442E+01  3.82322E+01  4.19253E+01
   4.34253E+01  4.75022E+01  5.01662E+01  5.60738E+01  5.93688E+01  6.43410E+01  6.71845E+01  7.10763E+01  7.33332E+01  7.56273E+01
   7.68328E+01  7.65523E+01  7.56758E+01  7.50735E+01  7.59994E+01  7.54258E+01  7.78967E+01  7.71013E+01  8.07057E+01  7.92855E+01
   8.37470E+01  8.14920E+01  8.67924E+01  8.42862E+01  9.04821E+01  8.80740E+01  9.49359E+01  9.22684E+01  9.91263E+01  9.56816E+01
   1.01855E+02  9.75339E+01  1.02860E+02  9.80597E+01  1.02639E+02  9.76193E+01  1.01253E+02  9.55101E+01  9.67926E+01  9.10821E+01
   9.17405E+01  8.70352E+01  8.76319E+01  8.44656E+01  8.44957E+01  8.07485E+01  7.99899E+01  7.57656E+01  7.39817E+01  6.95514E+01
   6.72384E+01  6.29234E+01  6.05592E+01  5.71635E+01  5.51380E+01  5.25068E+01  5.06946E+01  4.86548E+01  4.68400E+01  4.50639E+01
   4.33500E+01  4.16438E+01  4.01678E+01  3.87704E+01  3.76574E+01  3.66675E+01  3.60325E+01  3.56150E+01  3.56404E+01  3.60001E+01
   3.69350E+01  3.83522E+01  4.04993E+01  4.32906E+01  4.69626E+01  5.14100E+01  5.68346E+01  6.30855E+01  7.03089E+01  7.82788E+01
   8.70574E+01  9.63379E+01  1.06108E+02  1.15990E+02  1.25928E+02  1.35530E+02  1.44772E+02  1.53378E+02  1.61662E+02  1.69591E+02
   1.74690E+02  1.79739E+02  1.81389E+02  1.83537E+02  1.82225E+02  1.81995E+02  1.77917E+02  1.77702E+02  1.73422E+02  1.73185E+02
   1.69036E+02  1.68628E+02  1.64694E+02  1.64290E+02  1.60880E+02  1.60441E+02  1.57708E+02  1.56850E+02  1.54749E+02  1.53173E+02
   1.51574E+02  1.49184E+02  1.47832E+02  1.44499E+02  1.43163E+02  1.38758E+02  1.37347E+02  1.32092E+02  1.30780E+02  1.25376E+02
   1.24522E+02  1.19585E+02  1.19344E+02  1.14982E+02  1.15295E+02  1.11472E+02  1.12382E+02  1.09536E+02  1.11217E+02  1.10049E+02
   1.11194E+02  1.10013E+02  1.10658E+02  1.09297E+02  1.09133E+02  1.07453E+02  1.06322E+02  1.05525E+02  1.04927E+02  1.04286E+02
   1.03668E+02  1.02910E+02  1.02117E+02  1.01154E+02  1.00145E+02  9.89676E+01  9.77583E+01  9.64055E+01  9.50506E+01  9.35887E+01
   9.21640E+01  9.06744E+01  8.92637E+01  8.78299E+01  8.65138E+01  8.52112E+01  8.40576E+01  8.29448E+01  8.20015E+01  8.11142E+01
   8.04043E+01  7.97524E+01  7.92720E+01  7.88381E+01  7.85573E+01  7.82996E+01  7.81657E+01  7.80225E+01  7.79667E+01  7.78640E+01
   7.78093E+01  7.76696E+01  7.75405E+01  7.72925E+01  7.70240E+01  7.66113E+01  7.61572E+01  7.55446E+01  7.48819E+01  7.40588E+01
   7.31888E+01  7.21682E+01  7.11143E+01  6.99285E+01  6.87305E+01  6.74247E+01  6.61314E+01  6.47562E+01  6.34181E+01  6.20226E+01
   6.06860E+01  5.93125E+01  5.80151E+01  5.66961E+01  5.54652E+01  5.42227E+01  5.30750E+01  5.19208E+01  5.08637E+01  4.98016E+01
   4.88356E+01  4.78632E+01  4.69838E+01  4.60948E+01  4.52944E+01  4.44806E+01  4.37504E+01  4.30026E+01  4.23335E+01  4.16427E+01
   4.10260E+01  4.03838E+01  3.98116E+01  3.92106E+01  3.86758E+01  3.81095E+01  3.76060E+01  3.70689E+01  3.65917E+01  3.60788E+01
   3.56235E+01  3.51309E+01  3.46937E+01  3.42181E+01  3.37959E+01  3.33343E+01  3.29245E+01  3.24744E+01  3.20747E+01  3.16342E+01
   3.12428E+01  3.08099E+01  3.04251E+01  2.99984E+01  2.96188E+01  2.91970E+01  2.88214E+01  2.84034E+01  2.80307E+01  2.76155E+01
   2.72448E+01  2.68315E+01  2.64621E+01  2.60499E+01  2.56810E+01  2.52694E+01  2.49003E+01  2.44886E+01  2.41188E+01  2.37065E+01
   2.33355E+01  2.29221E+01  2.25495E+01  2.21345E+01  2.17598E+01  2.13430E+01  2.09658E+01  2.05466E+01  2.01666E+01  1.97448E+01
   1.93616E+01  1.89368E+01  1.85501E+01  1.81219E+01  1.77315E+01  1.72996E+01  1.69049E+01  1.64690E+01  1.60699E+01  1.56295E+01
   1.52255E+01  1.47803E+01  1.43709E+01  1.39204E+01  1.35051E+01  1.30488E+01  1.26269E+01  1.21639E+01
 NY background values follow
    -2.020E+02   -1.996E+02   -1.973E+02   -1.949E+02   -1.925E+02   -1.902E+02   -1.878E+02   -1.855E+02   -1.832E+02   -1.809E+02
    -1.786E+02   -1.763E+02   -1.740E+02   -1.717E+02   -1.694E+02   -1.672E+02   -1.649E+02   -1.627E+02   -1.605E+02   -1.583E+02
    -1.561E+02   -1.539E+02   -1.517E+02   -1.496E+02   -1.474E+02   -1.453E+02   -1.431E+02   -1.410E+02   -1.389E+02   -1.368E+02
    -1.347E+02   -1.327E+02   -1.306E+02   -1.286E+02   -1.265E+02   -1.245E+02   -1.225E+02   -1.205E+02   -1.185E+02   -1.166E+02
    -1.146E+02   -1.127E+02   -1.107E+02   -1.088E+02   -1.069E+02   -1.050E+02   -1.032E+02   -1.013E+02   -9.948E+01   -9.765E+01
    -9.584E+01   -9.404E+01   -9.225E+01   -9.049E+01   -8.873E+01   -8.699E+01   -8.527E+01   -8.356E+01   -8.187E+01   -8.019E+01
    -7.853E+01   -7.688E+01   -7.525E+01   -7.364E+01   -7.204E+01   -7.046E+01   -6.889E+01   -6.734E+01   -6.581E+01   -6.430E+01
    -6.280E+01   -6.132E+01   -5.985E+01   -5.840E+01   -5.697E+01   -5.556E+01   -5.417E+01   -5.279E+01   -5.143E+01   -5.009E+01
    -4.876E+01   -4.746E+01   -4.617E+01   -4.490E+01   -4.365E+01   -4.242E+01   -4.120E+01   -4.001E+01   -3.883E+01   -3.768E+01
    -3.654E+01   -3.542E+01   -3.432E+01   -3.324E+01   -3.218E+01   -3.114E+01   -3.012E+01   -2.912E+01   -2.814E+01   -2.718E+01
    -2.624E+01   -2.532E+01   -2.442E+01   -2.354E+01   -2.268E+01   -2.184E+01   -2.101E+01   -2.021E+01   -1.942E+01   -1.866E+01
    -1.791E+01   -1.718E+01   -1.647E+01   -1.577E+01   -1.509E+01   -1.443E+01   -1.378E+01   -1.315E+01   -1.254E+01   -1.195E+01
    -1.137E+01   -1.080E+01   -1.025E+01   -9.716E+00   -9.196E+00   -8.691E+00   -8.200E+00   -7.723E+00   -7.260E+00   -6.811E+00
    -6.375E+00   -5.953E+00   -5.543E+00   -5.146E+00   -4.762E+00   -4.390E+00   -4.030E+00   -3.682E+00   -3.346E+00   -3.020E+00
    -2.706E+00   -2.403E+00   -2.111E+00   -1.829E+00   -1.557E+00   -1.295E+00   -1.043E+00   -8.000E-01   -5.666E-01   -3.422E-01
    -1.267E-01    8.034E-02    2.790E-01    4.696E-01    6.522E-01    8.273E-01    9.949E-01    1.155E+00    1.309E+00    1.456E+00
     1.596E+00    1.730E+00    1.858E+00    1.980E+00    2.097E+00    2.208E+00    2.314E+00    2.416E+00    2.512E+00    2.605E+00
     2.693E+00    2.777E+00    2.858E+00    2.935E+00    3.009E+00    3.079E+00    3.147E+00    3.213E+00    3.276E+00    3.337E+00
     3.396E+00    3.454E+00    3.510E+00    3.565E+00    3.619E+00    3.672E+00    3.725E+00    3.778E+00    3.830E+00    3.883E+00
     3.937E+00    3.991E+00    4.045E+00    4.102E+00    4.159E+00    4.218E+00    4.279E+00    4.342E+00    4.407E+00    4.475E+00
     4.545E+00    4.618E+00    4.694E+00    4.773E+00    4.853E+00    4.937E+00    5.023E+00    5.111E+00    5.202E+00    5.295E+00
     5.391E+00    5.489E+00    5.589E+00    5.691E+00    5.796E+00    5.903E+00    6.012E+00    6.123E+00    6.236E+00    6.351E+00
     6.468E+00    6.587E+00    6.708E+00    6.831E+00    6.956E+00    7.083E+00    7.211E+00    7.341E+00    7.473E+00    7.607E+00
     7.742E+00    7.879E+00    8.017E+00    8.157E+00    8.299E+00    8.442E+00    8.586E+00    8.732E+00    8.879E+00    9.027E+00
     9.177E+00    9.328E+00    9.480E+00    9.633E+00    9.788E+00    9.944E+00    1.010E+01    1.026E+01    1.042E+01    1.058E+01
     1.074E+01    1.090E+01    1.106E+01    1.123E+01    1.139E+01    1.155E+01    1.172E+01    1.189E+01    1.205E+01    1.222E+01
     1.239E+01    1.256E+01    1.273E+01    1.290E+01    1.307E+01    1.324E+01    1.341E+01    1.358E+01    1.375E+01    1.392E+01
     1.410E+01    1.427E+01    1.444E+01    1.461E+01    1.479E+01    1.496E+01    1.513E+01    1.530E+01    1.548E+01    1.565E+01
     1.582E+01    1.600E+01    1.617E+01    1.634E+01    1.651E+01    1.668E+01    1.685E+01    1.703E+01    1.720E+01    1.737E+01
     1.754E+01    1.770E+01    1.787E+01    1.804E+01    1.821E+01    1.838E+01    1.854E+01    1.871E+01    1.887E+01    1.904E+01
     1.920E+01    1.936E+01    1.952E+01    1.968E+01    1.984E+01    2.000E+01    2.016E+01    2.032E+01    2.047E+01    2.063E+01
     2.078E+01    2.093E+01    2.108E+01    2.123E+01    2.138E+01    2.153E+01    2.168E+01    2.182E+01    2.197E+01    2.211E+01
     2.225E+01    2.239E+01    2.253E+01    2.266E+01    2.280E+01    2.293E+01    2.307E+01    2.320E+01    2.333E+01    2.345E+01
     2.358E+01    2.371E+01    2.383E+01    2.395E+01    2.407E+01    2.419E+01    2.430E+01    2.442E+01    2.453E+01    2.464E+01
     2.475E+01    2.485E+01    2.496E+01    2.506E+01    2.516E+01    2.526E+01    2.536E+01    2.545E+01    2.554E+01    2.563E+01
     2.572E+01    2.581E+01    2.589E+01    2.597E+01    2.605E+01    2.613E+01    2.620E+01    2.627E+01    2.634E+01    2.641E+01
     2.647E+01    2.654E+01    2.660E+01    2.665E+01    2.671E+01    2.676E+01    2.681E+01    2.686E+01    2.690E+01    2.694E+01
     2.698E+01    2.702E+01    2.705E+01    2.708E+01    2.711E+01    2.713E+01    2.716E+01    2.717E+01    2.719E+01    2.720E+01
     2.721E+01    2.722E+01    2.723E+01    2.723E+01    2.722E+01    2.722E+01    2.721E+01    2.720E+01    2.719E+01    2.717E+01
     2.715E+01    2.712E+01    2.709E+01    2.706E+01    2.703E+01    2.699E+01    2.695E+01    2.691E+01    2.686E+01    2.681E+01
     2.675E+01    2.669E+01    2.663E+01    2.657E+01    2.650E+01    2.642E+01    2.635E+01    2.627E+01    2.619E+01    2.610E+01
     2.601E+01    2.592E+01    2.582E+01    2.572E+01    2.562E+01    2.551E+01    2.540E+01    2.529E+01    2.517E+01    2.505E+01
     2.493E+01    2.480E+01    2.467E+01    2.454E+01    2.440E+01    2.426E+01    2.412E+01    2.397E+01    2.382E+01    2.367E+01
     2.351E+01    2.335E+01    2.319E+01    2.302E+01    2.285E+01    2.268E+01    2.250E+01    2.232E+01    2.214E+01    2.195E+01
     2.176E+01    2.157E+01    2.138E+01    2.118E+01    2.097E+01    2.077E+01    2.056E+01    2.035E+01    2.013E+01    1.991E+01
     1.969E+01    1.947E+01    1.924E+01    1.901E+01    1.877E+01    1.854E+01    1.829E+01    1.805E+01    1.780E+01    1.755E+01
     1.730E+01    1.704E+01    1.678E+01    1.652E+01    1.626E+01    1.599E+01    1.571E+01    1.544E+01    1.516E+01    1.488E+01
     1.459E+01    1.431E+01    1.402E+01    1.372E+01    1.343E+01    1.313E+01    1.282E+01    1.252E+01    1.221E+01    1.190E+01
     1.158E+01    1.126E+01    1.094E+01    1.062E+01    1.029E+01    9.960E+00    9.626E+00    9.290E+00    8.951E+00    8.609E+00
     8.264E+00    7.916E+00    7.564E+00    7.210E+00    6.853E+00    6.493E+00    6.131E+00    5.765E+00
 Ala      Conc. = 6.22E+03
