 LCModel (Version 6.3-1L) Copyright: S.W. Provencher.          Ref.: Magn. Reson. Med. 30:672-679 (1993).                
 Slice#2 Row#10 Col#3  PD_24_press_2_raw_act
 36 lines in following concentration table = NCONC+1
    Conc.  %SD /Cr+PCr  Metabolite                                         
  198.431  70%   0.412 Ala                                                 
   27.371 399% 5.7E-02 Asp                                                 
  481.074  12%   1.000 Cr                                                  
    0.000 999%   0.000 PCr                                                 
   68.363  99%   0.142 GABA                                                
    0.000 999%   0.000 Glc                                                 
  325.373  97%   0.676 Gln                                                 
  761.506  45%   1.583 Glu                                                 
  194.223  10%   0.404 GPC                                                 
    0.000 999%   0.000 PCh                                                 
  423.922  19%   0.881 GSH                                                 
    0.000 999%   0.000 Ins                                                 
    0.000 999%   0.000 Lac                                                 
  671.013  13%   1.395 NAA                                                 
  107.028  93%   0.222 NAAG                                                
   49.832  37%   0.104 Scyllo                                              
    0.000 999%   0.000 Tau                                                 
   89.611 107%   0.186 -CrCH2                                              
  194.223  10%   0.404 GPC+PCh                                             
  778.041  10%   1.617 NAA+NAAG                                            
  481.074  12%   1.000 Cr+PCr                                              
 1.09E+03  51%   2.259 Glu+Gln                                             
 8.79E+03  20%  18.281 Lip13a                                              
  426.747  33%   0.887 Lip13b                                              
    0.000 999%   0.000 Lip09                                               
 2.03E+03  18%   4.228 MM09                                                
 1.12E+03  48%   2.330 Lip20                                               
 3.76E+03  17%   7.822 MM20                                                
  702.153  36%   1.460 MM12                                                
 4.80E+03   5%   9.971 MM14                                                
    0.000 999%   0.000 MM17                                                
 9.22E+03  19%  19.168 Lip13a+Lip13b                                       
 1.47E+04  12%  30.599 MM14+Lip13a+Lip13b+MM12                             
 2.03E+03  18%   4.228 MM09+Lip09                                          
 4.88E+03  13%  10.152 MM20+Lip20                                          
   6 lines in following misc. output table
  FWHM = 0.084 ppm    S/N =   9                                            
  Data shift = 0.008 ppm                                                   
  Ph: -72 deg     -17.2 deg/ppm                                            
  alphaB,S = 3.4E-01,   1.0E+02                                            
   14 spline knots.   Ns = 9(1)                                            
  (18) 4 infls.   (17) 1 extrs.                                            
  498 points on ppm-axis = NY
      4.000000     3.992357     3.984714     3.977070     3.969427     3.961784     3.954141     3.946497     3.938854     3.931211
      3.923568     3.915925     3.908281     3.900638     3.892995     3.885352     3.877708     3.870065     3.862422     3.854779
      3.847136     3.839492     3.831849     3.824206     3.816563     3.808919     3.801276     3.793633     3.785990     3.778347
      3.770703     3.763060     3.755417     3.747774     3.740130     3.732487     3.724844     3.717201     3.709558     3.701914
      3.694271     3.686628     3.678985     3.671341     3.663698     3.656055     3.648412     3.640769     3.633125     3.625482
      3.617839     3.610196     3.602552     3.594909     3.587266     3.579623     3.571980     3.564336     3.556693     3.549050
      3.541407     3.533763     3.526120     3.518477     3.510834     3.503191     3.495547     3.487904     3.480261     3.472618
      3.464974     3.457331     3.449688     3.442045     3.434402     3.426758     3.419115     3.411472     3.403829     3.396185
      3.388542     3.380899     3.373256     3.365613     3.357969     3.350326     3.342683     3.335040     3.327396     3.319753
      3.312110     3.304467     3.296824     3.289180     3.281537     3.273894     3.266251     3.258607     3.250964     3.243321
      3.235678     3.228034     3.220391     3.212748     3.205105     3.197462     3.189818     3.182175     3.174532     3.166889
      3.159245     3.151602     3.143959     3.136316     3.128673     3.121029     3.113386     3.105743     3.098100     3.090456
      3.082813     3.075170     3.067527     3.059884     3.052240     3.044597     3.036954     3.029311     3.021667     3.014024
      3.006381     2.998738     2.991095     2.983451     2.975808     2.968165     2.960522     2.952878     2.945235     2.937592
      2.929949     2.922306     2.914662     2.907019     2.899376     2.891733     2.884089     2.876446     2.868803     2.861160
      2.853517     2.845873     2.838230     2.830587     2.822944     2.815300     2.807657     2.800014     2.792371     2.784728
      2.777084     2.769441     2.761798     2.754155     2.746511     2.738868     2.731225     2.723582     2.715939     2.708295
      2.700652     2.693009     2.685366     2.677722     2.670079     2.662436     2.654793     2.647150     2.639506     2.631863
      2.624220     2.616577     2.608933     2.601290     2.593647     2.586004     2.578361     2.570717     2.563074     2.555431
      2.547788     2.540144     2.532501     2.524858     2.517215     2.509572     2.501928     2.494285     2.486642     2.478999
      2.471355     2.463712     2.456069     2.448426     2.440783     2.433139     2.425496     2.417853     2.410210     2.402566
      2.394923     2.387280     2.379637     2.371994     2.364350     2.356707     2.349064     2.341421     2.333777     2.326134
      2.318491     2.310848     2.303205     2.295561     2.287918     2.280275     2.272632     2.264988     2.257345     2.249702
      2.242059     2.234416     2.226772     2.219129     2.211486     2.203843     2.196199     2.188556     2.180913     2.173270
      2.165627     2.157983     2.150340     2.142697     2.135054     2.127410     2.119767     2.112124     2.104481     2.096838
      2.089194     2.081551     2.073908     2.066265     2.058621     2.050978     2.043335     2.035692     2.028049     2.020405
      2.012762     2.005119     1.997476     1.989833     1.982190     1.974546     1.966903     1.959260     1.951617     1.943974
      1.936331     1.928688     1.921045     1.913402     1.905759     1.898115     1.890472     1.882829     1.875186     1.867543
      1.859900     1.852257     1.844614     1.836971     1.829327     1.821684     1.814041     1.806398     1.798755     1.791112
      1.783469     1.775826     1.768183     1.760540     1.752896     1.745253     1.737610     1.729967     1.722324     1.714681
      1.707038     1.699395     1.691752     1.684108     1.676465     1.668822     1.661179     1.653536     1.645893     1.638250
      1.630607     1.622964     1.615321     1.607677     1.600034     1.592391     1.584748     1.577105     1.569462     1.561819
      1.554176     1.546533     1.538890     1.531246     1.523603     1.515960     1.508317     1.500674     1.493031     1.485388
      1.477745     1.470102     1.462458     1.454815     1.447172     1.439529     1.431886     1.424243     1.416600     1.408957
      1.401314     1.393671     1.386027     1.378384     1.370741     1.363098     1.355455     1.347812     1.340169     1.332526
      1.324883     1.317240     1.309596     1.301953     1.294310     1.286667     1.279024     1.271381     1.263738     1.256095
      1.248452     1.240808     1.233165     1.225522     1.217879     1.210236     1.202593     1.194950     1.187307     1.179664
      1.172021     1.164377     1.156734     1.149091     1.141448     1.133805     1.126162     1.118519     1.110876     1.103233
      1.095590     1.087946     1.080303     1.072660     1.065017     1.057374     1.049731     1.042088     1.034445     1.026802
      1.019158     1.011515     1.003872     0.996229     0.988586     0.980943     0.973300     0.965657     0.958014     0.950371
      0.942727     0.935084     0.927441     0.919798     0.912155     0.904512     0.896869     0.889226     0.881583     0.873940
      0.866296     0.858653     0.851010     0.843367     0.835724     0.828081     0.820438     0.812795     0.805152     0.797508
      0.789865     0.782222     0.774579     0.766936     0.759293     0.751650     0.744007     0.736364     0.728721     0.721077
      0.713434     0.705791     0.698148     0.690505     0.682862     0.675219     0.667576     0.659933     0.652290     0.644646
      0.637003     0.629360     0.621717     0.614074     0.606431     0.598788     0.591145     0.583502     0.575858     0.568215
      0.560572     0.552929     0.545286     0.537643     0.530000     0.522357     0.514714     0.507071     0.499427     0.491784
      0.484141     0.476498     0.468855     0.461212     0.453569     0.445925     0.438282     0.430639     0.422996     0.415353
      0.407710     0.400067     0.392424     0.384780     0.377137     0.369494     0.361851     0.354208     0.346565     0.338922
      0.331278     0.323635     0.315992     0.308349     0.300706     0.293063     0.285420     0.277777     0.270133     0.262490
      0.254847     0.247204     0.239561     0.231918     0.224275     0.216631     0.208988     0.201345
 NY phased data points follow
  -5.17178E+02 -5.10763E+02 -5.07605E+02 -4.95334E+02 -4.90117E+02 -4.80662E+02 -4.77689E+02 -4.68856E+02 -4.67665E+02 -4.59235E+02
  -4.53366E+02 -4.49434E+02 -4.46363E+02 -4.45631E+02 -4.35564E+02 -4.33917E+02 -4.31523E+02 -4.31173E+02 -4.28392E+02 -4.18859E+02
  -4.14608E+02 -4.11382E+02 -4.09974E+02 -3.99355E+02 -4.00668E+02 -3.94797E+02 -3.91361E+02 -3.84172E+02 -3.79581E+02 -3.75614E+02
  -3.73508E+02 -3.67378E+02 -3.65472E+02 -3.56550E+02 -3.57489E+02 -3.51122E+02 -3.53046E+02 -3.46362E+02 -3.43588E+02 -3.40428E+02
  -3.38210E+02 -3.31541E+02 -3.31089E+02 -3.27995E+02 -3.23479E+02 -3.21912E+02 -3.20518E+02 -3.17803E+02 -3.18218E+02 -3.10381E+02
  -3.11230E+02 -3.09596E+02 -3.04923E+02 -3.06383E+02 -3.02856E+02 -2.98815E+02 -3.00255E+02 -2.96703E+02 -2.91570E+02 -2.92584E+02
  -2.88894E+02 -2.85691E+02 -2.85200E+02 -2.83719E+02 -2.78957E+02 -2.77316E+02 -2.72994E+02 -2.74378E+02 -2.69475E+02 -2.68382E+02
  -2.63889E+02 -2.64592E+02 -2.60509E+02 -2.60734E+02 -2.62469E+02 -2.56574E+02 -2.53097E+02 -2.54747E+02 -2.50750E+02 -2.46599E+02
  -2.46582E+02 -2.38751E+02 -2.44381E+02 -2.40005E+02 -2.38352E+02 -2.32677E+02 -2.35074E+02 -2.27388E+02 -2.27234E+02 -2.25318E+02
  -2.25884E+02 -2.21746E+02 -2.22310E+02 -2.20307E+02 -2.18922E+02 -2.14650E+02 -2.12791E+02 -2.09485E+02 -2.12018E+02 -2.05847E+02
  -2.02463E+02 -2.01549E+02 -2.00144E+02 -1.95403E+02 -1.96561E+02 -1.92947E+02 -1.94203E+02 -1.97196E+02 -1.99183E+02 -2.00536E+02
  -1.98528E+02 -1.95018E+02 -1.95328E+02 -1.92494E+02 -1.88051E+02 -1.89120E+02 -1.85047E+02 -1.86221E+02 -1.84474E+02 -1.82566E+02
  -1.82181E+02 -1.78047E+02 -1.76011E+02 -1.75385E+02 -1.76215E+02 -1.73049E+02 -1.73038E+02 -1.65561E+02 -1.63261E+02 -1.60872E+02
  -1.66753E+02 -1.63328E+02 -1.68854E+02 -1.69389E+02 -1.73836E+02 -1.72045E+02 -1.69125E+02 -1.69252E+02 -1.69812E+02 -1.67279E+02
  -1.70073E+02 -1.65192E+02 -1.64751E+02 -1.61910E+02 -1.62168E+02 -1.57855E+02 -1.61493E+02 -1.61951E+02 -1.61088E+02 -1.57677E+02
  -1.59567E+02 -1.57995E+02 -1.54758E+02 -1.53212E+02 -1.58094E+02 -1.49211E+02 -1.52156E+02 -1.51285E+02 -1.48920E+02 -1.49853E+02
  -1.49498E+02 -1.47161E+02 -1.49339E+02 -1.47270E+02 -1.44859E+02 -1.44116E+02 -1.45567E+02 -1.41202E+02 -1.44923E+02 -1.41682E+02
  -1.40245E+02 -1.41154E+02 -1.41299E+02 -1.42128E+02 -1.41137E+02 -1.41342E+02 -1.43988E+02 -1.42708E+02 -1.37256E+02 -1.35652E+02
  -1.36979E+02 -1.38122E+02 -1.33143E+02 -1.31575E+02 -1.31249E+02 -1.28608E+02 -1.29798E+02 -1.27073E+02 -1.26286E+02 -1.28711E+02
  -1.24125E+02 -1.23613E+02 -1.18738E+02 -1.19022E+02 -1.19175E+02 -1.18017E+02 -1.18827E+02 -1.17314E+02 -1.20183E+02 -1.11602E+02
  -1.20391E+02 -1.15468E+02 -1.18303E+02 -1.15705E+02 -1.12171E+02 -1.10355E+02 -1.06381E+02 -1.08664E+02 -1.08122E+02 -1.06223E+02
  -1.06877E+02 -1.07534E+02 -1.09574E+02 -1.03604E+02 -1.03128E+02 -1.01490E+02 -1.01611E+02 -9.84502E+01 -9.71080E+01 -9.93875E+01
  -9.53243E+01 -9.75434E+01 -9.68699E+01 -9.37334E+01 -9.25156E+01 -9.01219E+01 -9.23178E+01 -8.81281E+01 -8.91459E+01 -8.50561E+01
  -8.54765E+01 -8.44826E+01 -8.31955E+01 -7.95465E+01 -8.51544E+01 -8.26770E+01 -7.90868E+01 -8.07423E+01 -7.66238E+01 -7.10562E+01
  -7.27632E+01 -7.70226E+01 -7.57715E+01 -7.50737E+01 -7.51845E+01 -6.75143E+01 -6.67882E+01 -6.85098E+01 -6.89537E+01 -6.68556E+01
  -6.56242E+01 -6.24051E+01 -5.81357E+01 -5.59678E+01 -5.57301E+01 -5.05720E+01 -5.24453E+01 -5.27592E+01 -5.33655E+01 -5.01910E+01
  -5.14721E+01 -5.13999E+01 -4.96727E+01 -5.23980E+01 -5.29448E+01 -6.43161E+01 -6.65449E+01 -7.12676E+01 -7.27508E+01 -7.21974E+01
  -6.76168E+01 -7.58396E+01 -7.76497E+01 -7.32728E+01 -7.44150E+01 -7.28852E+01 -7.45546E+01 -7.26405E+01 -7.49444E+01 -7.30935E+01
  -7.35334E+01 -7.72081E+01 -7.62089E+01 -7.51731E+01 -7.21507E+01 -7.63873E+01 -7.53229E+01 -7.59204E+01 -7.48938E+01 -7.76105E+01
  -7.71029E+01 -7.89304E+01 -7.90628E+01 -7.97637E+01 -8.20686E+01 -7.74231E+01 -8.39790E+01 -7.94017E+01 -8.70324E+01 -8.36428E+01
  -8.27802E+01 -8.18440E+01 -8.11503E+01 -8.39532E+01 -8.41399E+01 -8.10172E+01 -7.95928E+01 -8.24740E+01 -7.90340E+01 -7.93691E+01
  -8.08906E+01 -7.64227E+01 -7.80263E+01 -7.57913E+01 -7.34622E+01 -7.25893E+01 -6.68327E+01 -6.61279E+01 -6.19877E+01 -5.84128E+01
  -5.55684E+01 -5.60434E+01 -5.08909E+01 -5.32526E+01 -4.42638E+01 -4.35447E+01 -3.63350E+01 -3.68937E+01 -3.64951E+01 -3.25589E+01
  -3.11836E+01 -2.99764E+01 -2.71089E+01 -2.99645E+01 -2.86834E+01 -2.17921E+01 -2.72120E+01 -2.39596E+01 -2.29575E+01 -2.64392E+01
  -2.77539E+01 -2.55991E+01 -2.43207E+01 -2.95028E+01 -2.33588E+01 -2.31487E+01 -2.34324E+01 -2.54807E+01 -2.50990E+01 -1.93676E+01
  -1.91296E+01 -2.51998E+01 -1.97261E+01 -1.98250E+01 -2.39644E+01 -2.27443E+01 -2.33771E+01 -2.64228E+01 -2.19884E+01 -2.38728E+01
  -2.24060E+01 -2.35677E+01 -2.17710E+01 -1.93735E+01 -2.37494E+01 -2.66595E+01 -2.41207E+01 -2.49628E+01 -2.48139E+01 -2.72590E+01
  -2.49728E+01 -2.25872E+01 -2.58452E+01 -2.44929E+01 -2.97059E+01 -2.62668E+01 -2.36207E+01 -2.35400E+01 -2.72520E+01 -2.58976E+01
  -2.51519E+01 -2.63022E+01 -3.09972E+01 -2.88483E+01 -2.51567E+01 -2.49758E+01 -2.66705E+01 -2.49046E+01 -2.40837E+01 -2.39528E+01
  -2.54180E+01 -2.57130E+01 -2.33543E+01 -2.33513E+01 -2.08110E+01 -2.34593E+01 -2.55893E+01 -2.29066E+01 -2.47340E+01 -2.29580E+01
  -2.00142E+01 -1.98356E+01 -2.22073E+01 -1.93518E+01 -2.14470E+01 -2.16262E+01 -2.18943E+01 -2.09472E+01 -2.42651E+01 -2.35654E+01
  -2.47902E+01 -2.15613E+01 -2.17954E+01 -2.23212E+01 -2.27985E+01 -2.31159E+01 -2.52266E+01 -2.70615E+01 -2.63277E+01 -2.60807E+01
  -2.29929E+01 -2.58333E+01 -2.66397E+01 -2.60610E+01 -2.60532E+01 -2.47094E+01 -2.60722E+01 -2.35202E+01 -2.25028E+01 -2.77081E+01
  -2.60790E+01 -2.59306E+01 -2.57563E+01 -2.46023E+01 -2.34300E+01 -2.27978E+01 -2.10592E+01 -2.01785E+01 -2.13799E+01 -1.87399E+01
  -2.34827E+01 -2.16707E+01 -2.24977E+01 -2.04178E+01 -2.00227E+01 -2.24578E+01 -2.30085E+01 -1.81823E+01 -2.27359E+01 -2.22930E+01
  -1.76420E+01 -1.89022E+01 -2.34057E+01 -2.11223E+01 -1.74541E+01 -1.98057E+01 -1.69470E+01 -1.82946E+01 -1.71568E+01 -2.14571E+01
  -1.50939E+01 -1.40172E+01 -2.01885E+01 -1.40215E+01 -1.70484E+01 -1.88726E+01 -1.33679E+01 -2.07852E+01 -1.75238E+01 -1.58370E+01
  -1.78233E+01 -1.80688E+01 -1.98119E+01 -1.52867E+01 -1.63645E+01 -1.76435E+01 -1.56684E+01 -1.88635E+01 -1.42903E+01 -1.68977E+01
  -1.58835E+01 -1.55972E+01 -1.75278E+01 -1.40376E+01 -1.36309E+01 -1.43340E+01 -1.71473E+01 -1.22477E+01 -1.18623E+01 -1.25931E+01
  -1.20336E+01 -9.21776E+00 -1.38376E+01 -1.04889E+01 -1.25118E+01 -1.14866E+01 -9.52758E+00 -7.31061E+00
 NY points of the fit to the data follow
  -5.10605E+02 -5.05575E+02 -4.99957E+02 -4.93897E+02 -4.87910E+02 -4.82282E+02 -4.77051E+02 -4.72045E+02 -4.67029E+02 -4.61882E+02
  -4.56620E+02 -4.51346E+02 -4.46230E+02 -4.41505E+02 -4.37418E+02 -4.34080E+02 -4.31248E+02 -4.28393E+02 -4.25136E+02 -4.21473E+02
  -4.17615E+02 -4.13410E+02 -4.08468E+02 -4.03153E+02 -3.97952E+02 -3.93146E+02 -3.88841E+02 -3.84897E+02 -3.81032E+02 -3.76992E+02
  -3.72616E+02 -3.67954E+02 -3.63367E+02 -3.59333E+02 -3.56239E+02 -3.54155E+02 -3.52629E+02 -3.50943E+02 -3.48662E+02 -3.45778E+02
  -3.42503E+02 -3.38981E+02 -3.35341E+02 -3.31834E+02 -3.28582E+02 -3.25552E+02 -3.22652E+02 -3.19812E+02 -3.17006E+02 -3.14231E+02
  -3.11480E+02 -3.08750E+02 -3.06063E+02 -3.03429E+02 -3.00859E+02 -2.98366E+02 -2.95929E+02 -2.93508E+02 -2.91099E+02 -2.88720E+02
  -2.86374E+02 -2.84054E+02 -2.81757E+02 -2.79488E+02 -2.77250E+02 -2.75046E+02 -2.72873E+02 -2.70732E+02 -2.68623E+02 -2.66545E+02
  -2.64498E+02 -2.62481E+02 -2.60492E+02 -2.58530E+02 -2.56594E+02 -2.54678E+02 -2.52766E+02 -2.50767E+02 -2.48607E+02 -2.46430E+02
  -2.44358E+02 -2.42426E+02 -2.40601E+02 -2.38810E+02 -2.36988E+02 -2.35124E+02 -2.33252E+02 -2.31434E+02 -2.29746E+02 -2.28256E+02
  -2.26989E+02 -2.25862E+02 -2.24611E+02 -2.22526E+02 -2.19227E+02 -2.15617E+02 -2.12479E+02 -2.10023E+02 -2.08015E+02 -2.06051E+02
  -2.03796E+02 -2.01213E+02 -1.98530E+02 -1.96123E+02 -1.94443E+02 -1.93908E+02 -1.94677E+02 -1.96392E+02 -1.98191E+02 -1.99164E+02
  -1.98972E+02 -1.98007E+02 -1.96906E+02 -1.95815E+02 -1.94577E+02 -1.93257E+02 -1.91838E+02 -1.90053E+02 -1.87346E+02 -1.84171E+02
  -1.81265E+02 -1.78925E+02 -1.77076E+02 -1.75388E+02 -1.73469E+02 -1.71129E+02 -1.68569E+02 -1.66244E+02 -1.64589E+02 -1.63955E+02
  -1.64501E+02 -1.65958E+02 -1.67685E+02 -1.68858E+02 -1.69066E+02 -1.68567E+02 -1.67979E+02 -1.67623E+02 -1.67249E+02 -1.66678E+02
  -1.65798E+02 -1.64580E+02 -1.63166E+02 -1.61800E+02 -1.60676E+02 -1.59840E+02 -1.59238E+02 -1.58761E+02 -1.58264E+02 -1.57671E+02
  -1.56988E+02 -1.56268E+02 -1.55595E+02 -1.54957E+02 -1.54307E+02 -1.53606E+02 -1.52822E+02 -1.51999E+02 -1.51193E+02 -1.50432E+02
  -1.49718E+02 -1.49044E+02 -1.48383E+02 -1.47697E+02 -1.46960E+02 -1.46174E+02 -1.45395E+02 -1.44711E+02 -1.44124E+02 -1.43556E+02
  -1.42936E+02 -1.42241E+02 -1.41525E+02 -1.40820E+02 -1.40134E+02 -1.39441E+02 -1.38725E+02 -1.38024E+02 -1.37339E+02 -1.36601E+02
  -1.35755E+02 -1.34795E+02 -1.33736E+02 -1.32609E+02 -1.31451E+02 -1.30315E+02 -1.29229E+02 -1.28207E+02 -1.27238E+02 -1.26315E+02
  -1.25356E+02 -1.24251E+02 -1.23056E+02 -1.21898E+02 -1.20892E+02 -1.20074E+02 -1.19392E+02 -1.18738E+02 -1.18026E+02 -1.17155E+02
  -1.16119E+02 -1.15022E+02 -1.13874E+02 -1.12657E+02 -1.11483E+02 -1.10440E+02 -1.09502E+02 -1.08552E+02 -1.07684E+02 -1.06989E+02
  -1.06401E+02 -1.05758E+02 -1.04938E+02 -1.03935E+02 -1.02727E+02 -1.01293E+02 -9.97753E+01 -9.84465E+01 -9.75044E+01 -9.69871E+01
  -9.67653E+01 -9.66044E+01 -9.62390E+01 -9.55040E+01 -9.43451E+01 -9.27809E+01 -9.09293E+01 -8.90166E+01 -8.73202E+01 -8.59501E+01
  -8.49062E+01 -8.41283E+01 -8.34649E+01 -8.28275E+01 -8.21700E+01 -8.13282E+01 -8.02300E+01 -7.89486E+01 -7.76408E+01 -7.64649E+01
  -7.55268E+01 -7.48491E+01 -7.43510E+01 -7.38660E+01 -7.31789E+01 -7.21483E+01 -7.07616E+01 -6.90883E+01 -6.74094E+01 -6.59861E+01
  -6.47189E+01 -6.27396E+01 -5.98969E+01 -5.71102E+01 -5.49595E+01 -5.35607E+01 -5.27312E+01 -5.20805E+01 -5.13378E+01 -5.05454E+01
  -4.99556E+01 -4.98992E+01 -5.07409E+01 -5.28410E+01 -5.62992E+01 -6.06451E+01 -6.48364E+01 -6.78585E+01 -6.95184E+01 -7.04515E+01
  -7.13299E+01 -7.21303E+01 -7.27345E+01 -7.32572E+01 -7.37232E+01 -7.41420E+01 -7.45503E+01 -7.49788E+01 -7.54396E+01 -7.59269E+01
  -7.64176E+01 -7.68864E+01 -7.73187E+01 -7.77092E+01 -7.80565E+01 -7.83646E+01 -7.86431E+01 -7.89012E+01 -7.91449E+01 -7.93764E+01
  -7.95951E+01 -7.97983E+01 -7.99829E+01 -8.01459E+01 -8.02860E+01 -8.04047E+01 -8.05035E+01 -8.05811E+01 -8.06345E+01 -8.06596E+01
  -8.06511E+01 -8.06036E+01 -8.05121E+01 -8.03701E+01 -8.01700E+01 -7.99039E+01 -7.95624E+01 -7.91328E+01 -7.86001E+01 -7.79473E+01
  -7.71569E+01 -7.62105E+01 -7.50893E+01 -7.37751E+01 -7.22499E+01 -7.04963E+01 -6.84956E+01 -6.62184E+01 -6.36215E+01 -6.08160E+01
  -5.79866E+01 -5.51713E+01 -5.23393E+01 -4.94572E+01 -4.65323E+01 -4.36409E+01 -4.07997E+01 -3.79849E+01 -3.53450E+01 -3.30561E+01
  -3.12175E+01 -2.98034E+01 -2.86600E+01 -2.76017E+01 -2.65464E+01 -2.55583E+01 -2.47672E+01 -2.42572E+01 -2.40363E+01 -2.41361E+01
  -2.45704E+01 -2.52155E+01 -2.58506E+01 -2.62709E+01 -2.63909E+01 -2.62494E+01 -2.58835E+01 -2.52997E+01 -2.45576E+01 -2.37366E+01
  -2.29221E+01 -2.21949E+01 -2.16202E+01 -2.12376E+01 -2.10575E+01 -2.10626E+01 -2.12152E+01 -2.14671E+01 -2.17703E+01 -2.20859E+01
  -2.23887E+01 -2.26683E+01 -2.29268E+01 -2.31739E+01 -2.34222E+01 -2.36839E+01 -2.39682E+01 -2.42796E+01 -2.46181E+01 -2.49794E+01
  -2.53564E+01 -2.57397E+01 -2.61191E+01 -2.64840E+01 -2.68238E+01 -2.71289E+01 -2.73906E+01 -2.76011E+01 -2.77539E+01 -2.78441E+01
  -2.78678E+01 -2.78228E+01 -2.77081E+01 -2.75244E+01 -2.72741E+01 -2.69608E+01 -2.65900E+01 -2.61684E+01 -2.57045E+01 -2.52080E+01
  -2.46896E+01 -2.41612E+01 -2.36351E+01 -2.31238E+01 -2.26397E+01 -2.21946E+01 -2.17992E+01 -2.14628E+01 -2.11928E+01 -2.09945E+01
  -2.08709E+01 -2.08226E+01 -2.08477E+01 -2.09420E+01 -2.10994E+01 -2.13120E+01 -2.15706E+01 -2.18650E+01 -2.21848E+01 -2.25199E+01
  -2.28606E+01 -2.31978E+01 -2.35233E+01 -2.38301E+01 -2.41124E+01 -2.43657E+01 -2.45867E+01 -2.47734E+01 -2.49247E+01 -2.50404E+01
  -2.51213E+01 -2.51686E+01 -2.51840E+01 -2.51696E+01 -2.51276E+01 -2.50605E+01 -2.49705E+01 -2.48600E+01 -2.47313E+01 -2.45865E+01
  -2.44276E+01 -2.42564E+01 -2.40747E+01 -2.38838E+01 -2.36854E+01 -2.34806E+01 -2.32705E+01 -2.30563E+01 -2.28388E+01 -2.26189E+01
  -2.23975E+01 -2.21752E+01 -2.19526E+01 -2.17304E+01 -2.15091E+01 -2.12893E+01 -2.10715E+01 -2.08560E+01 -2.06433E+01 -2.04339E+01
  -2.02281E+01 -2.00262E+01 -1.98287E+01 -1.96357E+01 -1.94469E+01 -1.92621E+01 -1.90809E+01 -1.89032E+01 -1.87285E+01 -1.85565E+01
  -1.83869E+01 -1.82194E+01 -1.80536E+01 -1.78892E+01 -1.77258E+01 -1.75631E+01 -1.74006E+01 -1.72382E+01 -1.70752E+01 -1.69115E+01
  -1.67467E+01 -1.65803E+01 -1.64119E+01 -1.62413E+01 -1.60680E+01 -1.58917E+01 -1.57119E+01 -1.55283E+01 -1.53404E+01 -1.51480E+01
  -1.49506E+01 -1.47478E+01 -1.45392E+01 -1.43245E+01 -1.41031E+01 -1.38749E+01 -1.36393E+01 -1.33960E+01 -1.31445E+01 -1.28844E+01
  -1.26154E+01 -1.23371E+01 -1.20491E+01 -1.17509E+01 -1.14421E+01 -1.11224E+01 -1.07913E+01 -1.04485E+01
 NY background values follow
    -5.113E+02   -5.064E+02   -5.015E+02   -4.967E+02   -4.919E+02   -4.871E+02   -4.824E+02   -4.777E+02   -4.730E+02   -4.684E+02
    -4.638E+02   -4.592E+02   -4.547E+02   -4.502E+02   -4.457E+02   -4.413E+02   -4.369E+02   -4.325E+02   -4.282E+02   -4.239E+02
    -4.197E+02   -4.155E+02   -4.113E+02   -4.072E+02   -4.031E+02   -3.991E+02   -3.951E+02   -3.912E+02   -3.873E+02   -3.834E+02
    -3.796E+02   -3.758E+02   -3.721E+02   -3.684E+02   -3.647E+02   -3.611E+02   -3.576E+02   -3.541E+02   -3.506E+02   -3.472E+02
    -3.439E+02   -3.406E+02   -3.373E+02   -3.341E+02   -3.309E+02   -3.278E+02   -3.248E+02   -3.218E+02   -3.188E+02   -3.159E+02
    -3.130E+02   -3.102E+02   -3.075E+02   -3.047E+02   -3.021E+02   -2.994E+02   -2.969E+02   -2.943E+02   -2.918E+02   -2.894E+02
    -2.869E+02   -2.846E+02   -2.822E+02   -2.799E+02   -2.777E+02   -2.755E+02   -2.733E+02   -2.711E+02   -2.690E+02   -2.669E+02
    -2.649E+02   -2.628E+02   -2.609E+02   -2.589E+02   -2.570E+02   -2.551E+02   -2.532E+02   -2.514E+02   -2.496E+02   -2.478E+02
    -2.460E+02   -2.443E+02   -2.426E+02   -2.409E+02   -2.392E+02   -2.376E+02   -2.359E+02   -2.343E+02   -2.328E+02   -2.312E+02
    -2.296E+02   -2.281E+02   -2.266E+02   -2.251E+02   -2.236E+02   -2.221E+02   -2.207E+02   -2.193E+02   -2.178E+02   -2.164E+02
    -2.150E+02   -2.137E+02   -2.123E+02   -2.110E+02   -2.096E+02   -2.083E+02   -2.070E+02   -2.057E+02   -2.045E+02   -2.032E+02
    -2.020E+02   -2.007E+02   -1.995E+02   -1.983E+02   -1.971E+02   -1.959E+02   -1.947E+02   -1.936E+02   -1.924E+02   -1.913E+02
    -1.902E+02   -1.890E+02   -1.879E+02   -1.869E+02   -1.858E+02   -1.847E+02   -1.836E+02   -1.826E+02   -1.816E+02   -1.805E+02
    -1.795E+02   -1.785E+02   -1.775E+02   -1.765E+02   -1.755E+02   -1.745E+02   -1.736E+02   -1.726E+02   -1.717E+02   -1.707E+02
    -1.698E+02   -1.688E+02   -1.679E+02   -1.670E+02   -1.661E+02   -1.652E+02   -1.643E+02   -1.634E+02   -1.625E+02   -1.617E+02
    -1.608E+02   -1.599E+02   -1.590E+02   -1.582E+02   -1.573E+02   -1.565E+02   -1.556E+02   -1.548E+02   -1.539E+02   -1.531E+02
    -1.522E+02   -1.514E+02   -1.506E+02   -1.497E+02   -1.489E+02   -1.481E+02   -1.473E+02   -1.464E+02   -1.456E+02   -1.448E+02
    -1.439E+02   -1.431E+02   -1.423E+02   -1.415E+02   -1.406E+02   -1.398E+02   -1.390E+02   -1.381E+02   -1.373E+02   -1.364E+02
    -1.356E+02   -1.348E+02   -1.339E+02   -1.331E+02   -1.322E+02   -1.313E+02   -1.305E+02   -1.296E+02   -1.288E+02   -1.279E+02
    -1.270E+02   -1.262E+02   -1.253E+02   -1.245E+02   -1.236E+02   -1.227E+02   -1.219E+02   -1.210E+02   -1.202E+02   -1.193E+02
    -1.185E+02   -1.176E+02   -1.168E+02   -1.159E+02   -1.151E+02   -1.143E+02   -1.135E+02   -1.126E+02   -1.118E+02   -1.110E+02
    -1.102E+02   -1.094E+02   -1.086E+02   -1.078E+02   -1.071E+02   -1.063E+02   -1.055E+02   -1.048E+02   -1.040E+02   -1.033E+02
    -1.026E+02   -1.018E+02   -1.011E+02   -1.004E+02   -9.974E+01   -9.906E+01   -9.840E+01   -9.774E+01   -9.710E+01   -9.646E+01
    -9.584E+01   -9.523E+01   -9.463E+01   -9.405E+01   -9.348E+01   -9.292E+01   -9.237E+01   -9.183E+01   -9.131E+01   -9.080E+01
    -9.030E+01   -8.982E+01   -8.935E+01   -8.889E+01   -8.845E+01   -8.802E+01   -8.760E+01   -8.720E+01   -8.681E+01   -8.644E+01
    -8.608E+01   -8.573E+01   -8.540E+01   -8.509E+01   -8.479E+01   -8.451E+01   -8.424E+01   -8.398E+01   -8.374E+01   -8.352E+01
    -8.332E+01   -8.312E+01   -8.295E+01   -8.279E+01   -8.265E+01   -8.252E+01   -8.242E+01   -8.232E+01   -8.225E+01   -8.219E+01
    -8.215E+01   -8.213E+01   -8.212E+01   -8.213E+01   -8.216E+01   -8.220E+01   -8.225E+01   -8.232E+01   -8.240E+01   -8.249E+01
    -8.258E+01   -8.269E+01   -8.280E+01   -8.292E+01   -8.304E+01   -8.317E+01   -8.330E+01   -8.343E+01   -8.357E+01   -8.370E+01
    -8.383E+01   -8.396E+01   -8.409E+01   -8.421E+01   -8.433E+01   -8.444E+01   -8.454E+01   -8.463E+01   -8.472E+01   -8.479E+01
    -8.485E+01   -8.490E+01   -8.493E+01   -8.495E+01   -8.496E+01   -8.494E+01   -8.491E+01   -8.486E+01   -8.479E+01   -8.470E+01
    -8.459E+01   -8.445E+01   -8.429E+01   -8.410E+01   -8.389E+01   -8.364E+01   -8.337E+01   -8.307E+01   -8.275E+01   -8.239E+01
    -8.201E+01   -8.160E+01   -8.116E+01   -8.070E+01   -8.022E+01   -7.971E+01   -7.919E+01   -7.864E+01   -7.807E+01   -7.749E+01
    -7.689E+01   -7.627E+01   -7.564E+01   -7.499E+01   -7.433E+01   -7.366E+01   -7.297E+01   -7.228E+01   -7.157E+01   -7.086E+01
    -7.014E+01   -6.941E+01   -6.868E+01   -6.795E+01   -6.721E+01   -6.646E+01   -6.572E+01   -6.498E+01   -6.423E+01   -6.349E+01
    -6.275E+01   -6.202E+01   -6.128E+01   -6.056E+01   -5.984E+01   -5.913E+01   -5.842E+01   -5.773E+01   -5.705E+01   -5.638E+01
    -5.572E+01   -5.507E+01   -5.444E+01   -5.382E+01   -5.322E+01   -5.263E+01   -5.205E+01   -5.149E+01   -5.094E+01   -5.041E+01
    -4.988E+01   -4.937E+01   -4.887E+01   -4.838E+01   -4.789E+01   -4.742E+01   -4.696E+01   -4.651E+01   -4.607E+01   -4.564E+01
    -4.521E+01   -4.480E+01   -4.439E+01   -4.399E+01   -4.359E+01   -4.320E+01   -4.282E+01   -4.244E+01   -4.207E+01   -4.170E+01
    -4.134E+01   -4.098E+01   -4.063E+01   -4.028E+01   -3.993E+01   -3.959E+01   -3.925E+01   -3.891E+01   -3.857E+01   -3.823E+01
    -3.789E+01   -3.756E+01   -3.722E+01   -3.689E+01   -3.655E+01   -3.621E+01   -3.587E+01   -3.553E+01   -3.519E+01   -3.485E+01
    -3.450E+01   -3.415E+01   -3.380E+01   -3.346E+01   -3.311E+01   -3.276E+01   -3.240E+01   -3.205E+01   -3.170E+01   -3.135E+01
    -3.100E+01   -3.065E+01   -3.030E+01   -2.995E+01   -2.961E+01   -2.926E+01   -2.891E+01   -2.857E+01   -2.823E+01   -2.789E+01
    -2.756E+01   -2.722E+01   -2.689E+01   -2.656E+01   -2.624E+01   -2.591E+01   -2.559E+01   -2.528E+01   -2.497E+01   -2.466E+01
    -2.436E+01   -2.406E+01   -2.376E+01   -2.347E+01   -2.319E+01   -2.291E+01   -2.263E+01   -2.236E+01   -2.210E+01   -2.184E+01
    -2.159E+01   -2.135E+01   -2.111E+01   -2.088E+01   -2.065E+01   -2.043E+01   -2.021E+01   -2.000E+01   -1.980E+01   -1.959E+01
    -1.940E+01   -1.920E+01   -1.901E+01   -1.882E+01   -1.863E+01   -1.845E+01   -1.826E+01   -1.808E+01   -1.789E+01   -1.771E+01
    -1.752E+01   -1.734E+01   -1.715E+01   -1.696E+01   -1.677E+01   -1.658E+01   -1.639E+01   -1.619E+01   -1.598E+01   -1.578E+01
    -1.557E+01   -1.535E+01   -1.513E+01   -1.490E+01   -1.467E+01   -1.443E+01   -1.418E+01   -1.392E+01   -1.366E+01   -1.339E+01
    -1.311E+01   -1.282E+01   -1.253E+01   -1.222E+01   -1.190E+01   -1.157E+01   -1.123E+01   -1.088E+01
 Ala      Conc. = 1.98E+02
