 LCModel (Version 6.3-1L) Copyright: S.W. Provencher.          Ref.: Magn. Reson. Med. 30:672-679 (1993).                
 Slice#2 Row#10 Col#8  PD_24_press_2_raw_act
 36 lines in following concentration table = NCONC+1
    Conc.  %SD /Cr+PCr  Metabolite                                         
    0.000 999%   0.000 Ala                                                 
    0.000 999%   0.000 Asp                                                 
  241.079  90%   0.140 Cr                                                  
 1.48E+03  16%   0.860 PCr                                                 
    0.000 999%   0.000 GABA                                                
    0.000 999%   0.000 Glc                                                 
  762.573  29%   0.443 Gln                                                 
 1.45E+03  17%   0.841 Glu                                                 
  508.424   4%   0.295 GPC                                                 
    0.000 999%   0.000 PCh                                                 
  421.236  16%   0.245 GSH                                                 
 1.73E+03  16%   1.001 Ins                                                 
  121.455  95% 7.1E-02 Lac                                                 
 2.63E+03   5%   1.525 NAA                                                 
  176.552  79%   0.102 NAAG                                                
  146.311  18% 8.5E-02 Scyllo                                              
   25.038 865% 1.5E-02 Tau                                                 
  106.114  98% 6.2E-02 -CrCH2                                              
  508.424   4%   0.295 GPC+PCh                                             
 2.80E+03   3%   1.627 NAA+NAAG                                            
 1.72E+03   3%   1.000 Cr+PCr                                              
 2.21E+03  17%   1.283 Glu+Gln                                             
 1.26E+03  29%   0.734 Lip13a                                              
    0.000 999%   0.000 Lip13b                                              
    0.000 999%   0.000 Lip09                                               
 1.61E+03  13%   0.934 MM09                                                
  250.527  58%   0.145 Lip20                                               
 3.90E+03   9%   2.261 MM20                                                
  539.350  27%   0.313 MM12                                                
 1.43E+03  22%   0.831 MM14                                                
    0.000 999%   0.000 MM17                                                
 1.26E+03  29%   0.734 Lip13a+Lip13b                                       
 3.24E+03  14%   1.878 MM14+Lip13a+Lip13b+MM12                             
 1.61E+03  13%   0.934 MM09+Lip09                                          
 4.15E+03   9%   2.407 MM20+Lip20                                          
   6 lines in following misc. output table
  FWHM = 0.054 ppm    S/N =  17                                            
  Data shift = 0.023 ppm                                                   
  Ph: -49 deg     -12.1 deg/ppm                                            
  alphaB,S = 4.8E-01,   2.0E+02                                            
   14 spline knots.   Ns = 8(1)                                            
  (12) 4 infls.   ( 7) 1 extrs.                                            
  498 points on ppm-axis = NY
      4.000000     3.992357     3.984714     3.977070     3.969427     3.961784     3.954141     3.946497     3.938854     3.931211
      3.923568     3.915925     3.908281     3.900638     3.892995     3.885352     3.877708     3.870065     3.862422     3.854779
      3.847136     3.839492     3.831849     3.824206     3.816563     3.808919     3.801276     3.793633     3.785990     3.778347
      3.770703     3.763060     3.755417     3.747774     3.740130     3.732487     3.724844     3.717201     3.709558     3.701914
      3.694271     3.686628     3.678985     3.671341     3.663698     3.656055     3.648412     3.640769     3.633125     3.625482
      3.617839     3.610196     3.602552     3.594909     3.587266     3.579623     3.571980     3.564336     3.556693     3.549050
      3.541407     3.533763     3.526120     3.518477     3.510834     3.503191     3.495547     3.487904     3.480261     3.472618
      3.464974     3.457331     3.449688     3.442045     3.434402     3.426758     3.419115     3.411472     3.403829     3.396185
      3.388542     3.380899     3.373256     3.365613     3.357969     3.350326     3.342683     3.335040     3.327396     3.319753
      3.312110     3.304467     3.296824     3.289180     3.281537     3.273894     3.266251     3.258607     3.250964     3.243321
      3.235678     3.228034     3.220391     3.212748     3.205105     3.197462     3.189818     3.182175     3.174532     3.166889
      3.159245     3.151602     3.143959     3.136316     3.128673     3.121029     3.113386     3.105743     3.098100     3.090456
      3.082813     3.075170     3.067527     3.059884     3.052240     3.044597     3.036954     3.029311     3.021667     3.014024
      3.006381     2.998738     2.991095     2.983451     2.975808     2.968165     2.960522     2.952878     2.945235     2.937592
      2.929949     2.922306     2.914662     2.907019     2.899376     2.891733     2.884089     2.876446     2.868803     2.861160
      2.853517     2.845873     2.838230     2.830587     2.822944     2.815300     2.807657     2.800014     2.792371     2.784728
      2.777084     2.769441     2.761798     2.754155     2.746511     2.738868     2.731225     2.723582     2.715939     2.708295
      2.700652     2.693009     2.685366     2.677722     2.670079     2.662436     2.654793     2.647150     2.639506     2.631863
      2.624220     2.616577     2.608933     2.601290     2.593647     2.586004     2.578361     2.570717     2.563074     2.555431
      2.547788     2.540144     2.532501     2.524858     2.517215     2.509572     2.501928     2.494285     2.486642     2.478999
      2.471355     2.463712     2.456069     2.448426     2.440783     2.433139     2.425496     2.417853     2.410210     2.402566
      2.394923     2.387280     2.379637     2.371994     2.364350     2.356707     2.349064     2.341421     2.333777     2.326134
      2.318491     2.310848     2.303205     2.295561     2.287918     2.280275     2.272632     2.264988     2.257345     2.249702
      2.242059     2.234416     2.226772     2.219129     2.211486     2.203843     2.196199     2.188556     2.180913     2.173270
      2.165627     2.157983     2.150340     2.142697     2.135054     2.127410     2.119767     2.112124     2.104481     2.096838
      2.089194     2.081551     2.073908     2.066265     2.058621     2.050978     2.043335     2.035692     2.028049     2.020405
      2.012762     2.005119     1.997476     1.989833     1.982190     1.974546     1.966903     1.959260     1.951617     1.943974
      1.936331     1.928688     1.921045     1.913402     1.905759     1.898115     1.890472     1.882829     1.875186     1.867543
      1.859900     1.852257     1.844614     1.836971     1.829327     1.821684     1.814041     1.806398     1.798755     1.791112
      1.783469     1.775826     1.768183     1.760540     1.752896     1.745253     1.737610     1.729967     1.722324     1.714681
      1.707038     1.699395     1.691752     1.684108     1.676465     1.668822     1.661179     1.653536     1.645893     1.638250
      1.630607     1.622964     1.615321     1.607677     1.600034     1.592391     1.584748     1.577105     1.569462     1.561819
      1.554176     1.546533     1.538890     1.531246     1.523603     1.515960     1.508317     1.500674     1.493031     1.485388
      1.477745     1.470102     1.462458     1.454815     1.447172     1.439529     1.431886     1.424243     1.416600     1.408957
      1.401314     1.393671     1.386027     1.378384     1.370741     1.363098     1.355455     1.347812     1.340169     1.332526
      1.324883     1.317240     1.309596     1.301953     1.294310     1.286667     1.279024     1.271381     1.263738     1.256095
      1.248452     1.240808     1.233165     1.225522     1.217879     1.210236     1.202593     1.194950     1.187307     1.179664
      1.172021     1.164377     1.156734     1.149091     1.141448     1.133805     1.126162     1.118519     1.110876     1.103233
      1.095590     1.087946     1.080303     1.072660     1.065017     1.057374     1.049731     1.042088     1.034445     1.026802
      1.019158     1.011515     1.003872     0.996229     0.988586     0.980943     0.973300     0.965657     0.958014     0.950371
      0.942727     0.935084     0.927441     0.919798     0.912155     0.904512     0.896869     0.889226     0.881583     0.873940
      0.866296     0.858653     0.851010     0.843367     0.835724     0.828081     0.820438     0.812795     0.805152     0.797508
      0.789865     0.782222     0.774579     0.766936     0.759293     0.751650     0.744007     0.736364     0.728721     0.721077
      0.713434     0.705791     0.698148     0.690505     0.682862     0.675219     0.667576     0.659933     0.652290     0.644646
      0.637003     0.629360     0.621717     0.614074     0.606431     0.598788     0.591145     0.583502     0.575858     0.568215
      0.560572     0.552929     0.545286     0.537643     0.530000     0.522357     0.514714     0.507071     0.499427     0.491784
      0.484141     0.476498     0.468855     0.461212     0.453569     0.445925     0.438282     0.430639     0.422996     0.415353
      0.407710     0.400067     0.392424     0.384780     0.377137     0.369494     0.361851     0.354208     0.346565     0.338922
      0.331278     0.323635     0.315992     0.308349     0.300706     0.293063     0.285420     0.277777     0.270133     0.262490
      0.254847     0.247204     0.239561     0.231918     0.224275     0.216631     0.208988     0.201345
 NY phased data points follow
  -5.71703E+01 -5.31531E+01 -4.69316E+01 -4.79858E+01 -3.95962E+01 -3.66696E+01 -2.92760E+01 -2.76662E+01 -2.05673E+01 -1.77560E+01
  -1.80187E+01 -2.29113E+01 -2.24687E+01 -2.42354E+01 -3.22994E+01 -3.79790E+01 -4.13627E+01 -4.25060E+01 -4.54182E+01 -4.76860E+01
  -4.61346E+01 -4.58372E+01 -4.39028E+01 -4.48220E+01 -3.73470E+01 -3.91631E+01 -3.64814E+01 -3.45271E+01 -3.42319E+01 -3.54582E+01
  -3.35385E+01 -3.58789E+01 -3.35560E+01 -3.21929E+01 -3.62607E+01 -3.24530E+01 -3.54636E+01 -3.97224E+01 -3.43647E+01 -3.71943E+01
  -3.23943E+01 -3.12185E+01 -2.81186E+01 -3.07124E+01 -2.68747E+01 -2.65378E+01 -2.40300E+01 -2.53308E+01 -2.12123E+01 -2.63417E+01
  -2.59017E+01 -2.91064E+01 -2.80086E+01 -3.10593E+01 -2.91398E+01 -2.87464E+01 -2.85941E+01 -3.15545E+01 -2.71581E+01 -2.78751E+01
  -2.84895E+01 -3.55151E+01 -3.15880E+01 -3.09987E+01 -3.35994E+01 -3.41780E+01 -3.39520E+01 -3.06315E+01 -3.28511E+01 -2.66729E+01
  -3.20459E+01 -2.70968E+01 -2.88347E+01 -2.74631E+01 -2.38251E+01 -2.74004E+01 -2.95854E+01 -2.45384E+01 -3.02915E+01 -2.91747E+01
  -2.73667E+01 -2.38521E+01 -2.97706E+01 -2.33171E+01 -2.48428E+01 -1.96404E+01 -2.50353E+01 -2.10712E+01 -2.14784E+01 -2.09221E+01
  -2.10804E+01 -2.03933E+01 -1.96817E+01 -1.97067E+01 -1.82580E+01 -1.43378E+01 -1.25874E+01 -1.11817E+01 -7.20218E+00 -3.48891E+00
   4.28021E+00  8.83145E+00  1.70391E+01  1.64338E+01  1.56555E+01  8.59832E+00 -3.96567E-01 -4.92109E+00 -8.04702E+00 -1.04731E+01
  -1.18762E+01 -1.53762E+01 -1.93008E+01 -1.48172E+01 -1.43609E+01 -1.54774E+01 -1.76651E+01 -1.50486E+01 -1.50416E+01 -1.24882E+01
  -1.02110E+01 -5.29711E+00 -2.72087E+00  5.23193E+00  1.37638E+01  2.26868E+01  3.00507E+01  3.43223E+01  3.48755E+01  2.26962E+01
   1.54099E+01  8.26150E+00 -1.95871E+00 -2.28805E+00 -4.27133E+00 -1.46635E+01 -1.34896E+01 -1.80665E+01 -1.70370E+01 -1.51536E+01
  -1.54418E+01 -1.58365E+01 -1.68595E+01 -2.22496E+01 -1.85184E+01 -1.59353E+01 -1.54512E+01 -1.55859E+01 -1.89362E+01 -1.64357E+01
  -1.47835E+01 -1.82455E+01 -1.74624E+01 -1.34848E+01 -1.87255E+01 -1.81796E+01 -1.66064E+01 -1.94608E+01 -1.63248E+01 -1.64410E+01
  -1.86300E+01 -1.88134E+01 -2.21206E+01 -2.13001E+01 -1.77538E+01 -1.76412E+01 -1.77847E+01 -1.82327E+01 -2.27783E+01 -2.43053E+01
  -2.36567E+01 -2.64883E+01 -2.67424E+01 -2.46268E+01 -2.57866E+01 -2.91409E+01 -2.80401E+01 -2.51654E+01 -2.41972E+01 -2.56207E+01
  -2.47976E+01 -2.66438E+01 -2.54210E+01 -2.82429E+01 -2.34091E+01 -2.23231E+01 -2.44250E+01 -2.23115E+01 -1.97240E+01 -1.66118E+01
  -1.50798E+01 -1.22026E+01 -8.96486E+00 -1.18885E+01 -9.20515E+00 -8.89174E+00 -1.01673E+01 -1.22395E+01 -1.30597E+01 -1.11954E+01
  -1.34402E+01 -5.67030E+00 -7.36368E+00 -8.08414E+00 -8.75704E+00 -9.91796E+00 -1.01486E+01 -1.42489E+01 -1.20404E+01 -1.63148E+01
  -1.25830E+01 -1.37536E+01 -9.55571E+00 -7.35102E+00 -3.61839E+00 -1.40434E+00 -2.10622E+00 -4.20161E+00 -6.28962E+00 -6.00494E+00
  -8.77999E+00 -9.74139E+00 -1.01973E+01 -7.49917E+00 -7.81624E+00 -5.08891E+00 -3.42074E+00 -1.35505E+00 -9.72650E-01  1.28251E+00
   5.80202E+00  6.23427E-01  1.43723E+00 -2.55986E+00  1.06763E-02  2.51234E+00  4.82715E+00  3.32100E+00  3.42337E-01  1.84788E+00
   8.69360E-01 -7.25459E-01  1.77252E+00  2.18815E+00  4.30979E+00  6.68679E+00  6.77806E+00  9.18871E+00  1.24092E+01  1.47955E+01
   1.19835E+01  2.11791E+01  1.94366E+01  3.04345E+01  3.41605E+01  4.02137E+01  4.51192E+01  5.76087E+01  6.60686E+01  7.95732E+01
   8.99159E+01  9.12160E+01  7.76211E+01  5.99632E+01  4.78814E+01  3.58705E+01  2.68263E+01  1.70612E+01  1.20577E+01  9.45728E+00
   1.05551E+01  8.75346E+00  7.08921E+00  2.41770E+00  1.22221E+00  5.87806E+00  1.57709E+00 -2.26766E+00 -1.65205E+00 -4.51472E-01
  -4.71729E-01 -2.21933E+00 -9.97769E-01 -9.63972E-01 -2.30621E+00 -6.47298E+00  1.23855E+00 -1.78214E-01 -2.90444E+00 -7.19768E-02
   2.18881E+00 -1.05603E+00  9.96496E-01  1.61553E-01 -8.07367E-01  9.13918E-02 -1.21078E+00  1.43277E+00 -3.86808E+00 -2.56654E+00
  -3.23011E+00  1.82289E-01 -2.82107E+00 -1.53386E+00 -9.25153E-01 -5.66542E+00  9.23119E-01 -3.22415E+00 -1.71848E+00 -4.46108E+00
  -3.06408E+00  2.23402E-01 -3.24433E-01 -7.86361E-01 -4.12640E+00 -2.27089E+00 -1.47124E+00 -6.30603E-02  2.32553E+00  2.29806E+00
   1.42528E+00  2.05470E+00  3.11166E+00  2.90449E+00  3.33424E+00  5.57652E+00  4.48305E+00  7.71386E+00  7.22405E+00  7.39639E+00
   5.18591E+00  6.01231E+00  6.93746E+00  5.49364E+00  7.22907E+00  1.14369E+01  9.79392E+00  6.97998E+00  8.67008E+00  8.14870E+00
   7.61677E+00  9.21317E+00  8.69365E+00  7.40478E+00  7.27841E+00  8.63746E+00  8.84559E+00  1.19449E+01  1.01566E+01  7.78616E+00
   8.67946E+00  8.20653E+00  5.43010E+00  6.33371E+00  1.18675E+01  8.24417E+00  1.01896E+01  9.65207E+00  9.31409E+00  7.18936E+00
   9.46865E+00  9.19375E+00  9.83706E+00  1.11052E+01  8.08781E+00  6.46232E+00  9.49152E+00  1.31172E+01  7.51531E+00  4.32390E+00
   7.23092E+00  6.13692E+00  7.44264E+00  5.42074E+00  2.91012E+00  7.33555E+00  3.63526E+00  2.81873E+00  6.42940E+00  3.35621E+00
   4.14255E+00  6.27095E+00  7.46246E-01 -2.75468E-01  5.08932E+00  4.12248E+00 -1.45898E+00  4.69337E+00  6.38835E+00  3.64768E+00
   5.58460E+00  4.73712E+00  4.41150E+00  8.28186E+00  4.04024E+00  7.30417E+00  1.03745E+01  7.51855E+00  7.97350E+00  5.67741E+00
   1.01618E+01  8.64691E+00  9.65674E+00  1.46121E+01  1.37875E+01  1.02183E+01  1.38889E+01  1.38006E+01  1.32846E+01  1.22543E+01
   1.14317E+01  9.48484E+00  8.91205E+00  1.06306E+01  8.52203E+00  9.16468E+00  1.00606E+01  8.00533E+00  6.44083E+00  8.75222E+00
   6.52039E+00  8.24789E+00  5.85724E+00  8.88926E+00  2.82241E+00  3.34226E+00  7.34258E+00  7.10016E+00  5.99570E+00  2.45327E+00
   3.30115E+00  2.44183E+00  3.75969E+00  4.59051E+00  4.29528E+00  3.02187E+00  4.45494E+00  1.49177E+00  1.88909E+00  5.84628E+00
   2.67397E+00  6.27106E+00  1.44880E+00  2.95285E+00  4.93622E+00  5.02627E+00  5.03547E+00  5.63890E+00  3.19680E+00  4.28390E+00
   2.11817E+00  3.80028E+00  4.76085E+00  5.19624E+00  7.11480E+00  3.93670E+00  1.79366E+00  4.37264E+00  5.23601E+00  3.14991E+00
   9.56080E-01  2.29963E+00  3.66682E+00 -1.07279E+00  4.11687E+00  6.74930E+00  6.59208E+00  5.67577E+00  2.48068E+00  6.69305E+00
   2.46420E+00  4.34728E+00  1.03060E+00  5.04159E+00  1.72041E+00  4.01247E+00  5.22685E+00  1.57069E+00  4.36745E+00  5.82144E+00
   5.49907E+00  1.86282E+00  2.81438E+00  5.26590E+00  4.26406E-01  3.77230E+00  2.71858E+00  6.65566E+00  5.45091E+00  2.41698E+00
   2.04950E+00  2.54629E+00  6.88672E-01  1.66378E+00  9.52186E-01  6.17463E+00  3.58669E+00  9.22560E-01
 NY points of the fit to the data follow
  -5.14531E+01 -4.99159E+01 -4.72366E+01 -4.42253E+01 -4.09152E+01 -3.69029E+01 -3.19682E+01 -2.64436E+01 -2.12995E+01 -1.79514E+01
  -1.75339E+01 -2.00382E+01 -2.43078E+01 -2.89372E+01 -3.29880E+01 -3.61706E+01 -3.86787E+01 -4.07967E+01 -4.25374E+01 -4.35003E+01
  -4.38997E+01 -4.38404E+01 -4.32668E+01 -4.25657E+01 -4.18016E+01 -4.08479E+01 -3.95136E+01 -3.77394E+01 -3.56470E+01 -3.35060E+01
  -3.18241E+01 -3.10449E+01 -3.11776E+01 -3.20242E+01 -3.32891E+01 -3.46498E+01 -3.59250E+01 -3.69306E+01 -3.73506E+01 -3.68437E+01
  -3.56178E+01 -3.41930E+01 -3.26276E+01 -3.08167E+01 -2.87535E+01 -2.67020E+01 -2.51565E+01 -2.46340E+01 -2.54073E+01 -2.72248E+01
  -2.93409E+01 -3.10571E+01 -3.20981E+01 -3.25116E+01 -3.25613E+01 -3.23946E+01 -3.19289E+01 -3.11179E+01 -3.01702E+01 -2.94047E+01
  -2.90567E+01 -2.91800E+01 -2.96499E+01 -3.01495E+01 -3.04146E+01 -3.03477E+01 -2.99827E+01 -2.94301E+01 -2.87738E+01 -2.80761E+01
  -2.74265E+01 -2.68974E+01 -2.65694E+01 -2.64542E+01 -2.64803E+01 -2.65566E+01 -2.66111E+01 -2.66099E+01 -2.65573E+01 -2.62514E+01
  -2.57670E+01 -2.53080E+01 -2.48562E+01 -2.42995E+01 -2.35721E+01 -2.27163E+01 -2.19012E+01 -2.13750E+01 -2.13021E+01 -2.16665E+01
  -2.21864E+01 -2.25538E+01 -2.26249E+01 -2.23078E+01 -2.09891E+01 -1.80532E+01 -1.47523E+01 -1.15108E+01 -7.65571E+00 -2.45384E+00
   4.11204E+00  1.09850E+01  1.62379E+01  1.78640E+01  1.51039E+01  9.15057E+00  2.21733E+00 -4.03850E+00 -8.97126E+00 -1.27232E+01
  -1.57730E+01 -1.83586E+01 -2.00831E+01 -2.05617E+01 -2.04887E+01 -2.02430E+01 -1.98739E+01 -1.92974E+01 -1.79263E+01 -1.43107E+01
  -9.48693E+00 -4.84585E+00  2.55739E-02  6.18613E+00  1.40184E+01  2.26810E+01  3.00774E+01  3.35586E+01  3.15885E+01  2.50067E+01
   1.64242E+01  8.24518E+00  1.50615E+00 -3.84598E+00 -8.41080E+00 -1.25504E+01 -1.57982E+01 -1.71765E+01 -1.72745E+01 -1.69452E+01
  -1.65282E+01 -1.62309E+01 -1.61360E+01 -1.62025E+01 -1.63713E+01 -1.66005E+01 -1.68518E+01 -1.71111E+01 -1.73669E+01 -1.76009E+01
  -1.78118E+01 -1.79705E+01 -1.80999E+01 -1.82852E+01 -1.84841E+01 -1.86111E+01 -1.86613E+01 -1.86743E+01 -1.88022E+01 -1.91102E+01
  -1.94731E+01 -1.96966E+01 -1.96668E+01 -1.94365E+01 -1.92111E+01 -1.92080E+01 -1.95110E+01 -2.00440E+01 -2.06567E+01 -2.11752E+01
  -2.14704E+01 -2.16706E+01 -2.19279E+01 -2.23252E+01 -2.27354E+01 -2.29116E+01 -2.27926E+01 -2.24659E+01 -2.20916E+01 -2.18773E+01
  -2.17901E+01 -2.16140E+01 -2.12356E+01 -2.06658E+01 -1.99778E+01 -1.92412E+01 -1.84176E+01 -1.73689E+01 -1.60472E+01 -1.46509E+01
  -1.35464E+01 -1.29604E+01 -1.28571E+01 -1.30201E+01 -1.32382E+01 -1.33301E+01 -1.31165E+01 -1.26194E+01 -1.18765E+01 -1.09422E+01
  -9.92833E+00 -9.03975E+00 -8.48507E+00 -8.25362E+00 -8.48248E+00 -9.38928E+00 -1.08335E+01 -1.23649E+01 -1.34398E+01 -1.38566E+01
  -1.35627E+01 -1.25013E+01 -1.08005E+01 -8.76656E+00 -6.82427E+00 -5.42185E+00 -4.82148E+00 -5.14996E+00 -6.37320E+00 -8.13388E+00
  -9.89373E+00 -1.10387E+01 -1.12192E+01 -1.04282E+01 -8.81398E+00 -6.71176E+00 -4.56302E+00 -2.86779E+00 -1.77367E+00 -1.04775E+00
  -5.21426E-01 -1.05798E-01  2.73899E-01  7.19906E-01  1.26012E+00  1.86086E+00  2.51685E+00  3.17526E+00  3.64768E+00  3.80278E+00
   3.72380E+00  3.57733E+00  3.60940E+00  4.04890E+00  4.94093E+00  6.13237E+00  7.40548E+00  8.68837E+00  1.00141E+01  1.12995E+01
   1.25699E+01  1.44353E+01  1.90207E+01  2.66477E+01  3.43343E+01  4.14292E+01  4.92434E+01  5.88945E+01  7.00798E+01  8.07401E+01
   8.72916E+01  8.63823E+01  7.75620E+01  6.39256E+01  4.96096E+01  3.72739E+01  2.76913E+01  2.01831E+01  1.37156E+01  8.12688E+00
   4.58595E+00  3.24442E+00  2.59499E+00  2.16335E+00  1.83579E+00  1.52597E+00  1.18415E+00  8.22957E-01  4.59696E-01  1.13754E-01
  -2.01409E-01 -4.80176E-01 -7.25138E-01 -9.35868E-01 -1.11215E+00 -1.26293E+00 -1.39791E+00 -1.51994E+00 -1.62469E+00 -1.70750E+00
  -1.76964E+00 -1.81555E+00 -1.84511E+00 -1.86073E+00 -1.86754E+00 -1.86916E+00 -1.86569E+00 -1.85584E+00 -1.83790E+00 -1.80972E+00
  -1.76997E+00 -1.71859E+00 -1.65565E+00 -1.58237E+00 -1.49998E+00 -1.40884E+00 -1.30827E+00 -1.19678E+00 -1.07302E+00 -9.35923E-01
  -7.83559E-01 -6.14268E-01 -4.26671E-01 -2.18990E-01  1.03964E-02  2.62787E-01  5.39031E-01  8.39548E-01  1.16433E+00  1.51302E+00
   1.88466E+00  2.27753E+00  2.68903E+00  3.11588E+00  3.55414E+00  3.99950E+00  4.44706E+00  4.89149E+00  5.32716E+00  5.74862E+00
   6.15088E+00  6.52964E+00  6.88130E+00  7.20336E+00  7.49459E+00  7.75573E+00  7.98993E+00  8.20399E+00  8.41265E+00  8.64373E+00
   8.86622E+00  9.01909E+00  9.12710E+00  9.22832E+00  9.31804E+00  9.34535E+00  9.24675E+00  9.03367E+00  8.74062E+00  8.40688E+00
   8.13083E+00  8.01170E+00  8.09395E+00  8.36587E+00  8.76785E+00  9.19963E+00  9.55233E+00  9.76097E+00  9.80154E+00  9.69019E+00
   9.48781E+00  9.23695E+00  8.94956E+00  8.61827E+00  8.24311E+00  7.86348E+00  7.49999E+00  7.14103E+00  6.78385E+00  6.43058E+00
   6.08492E+00  5.75109E+00  5.43326E+00  5.13534E+00  4.86094E+00  4.61333E+00  4.39533E+00  4.20939E+00  4.05746E+00  3.94123E+00
   3.86217E+00  3.82163E+00  3.82078E+00  3.86067E+00  3.94217E+00  4.06615E+00  4.23333E+00  4.44432E+00  4.69933E+00  4.99811E+00
   5.33980E+00  5.72285E+00  6.14482E+00  6.60220E+00  7.09021E+00  7.60274E+00  8.13235E+00  8.67043E+00  9.20719E+00  9.73193E+00
   1.02333E+01  1.06996E+01  1.11194E+01  1.14822E+01  1.17783E+01  1.20000E+01  1.21411E+01  1.21981E+01  1.21697E+01  1.20575E+01
   1.18651E+01  1.15986E+01  1.12661E+01  1.08769E+01  1.04417E+01  9.97174E+00  9.47832E+00  8.97232E+00  8.46386E+00  7.96210E+00
   7.47494E+00  7.00891E+00  6.56901E+00  6.15886E+00  5.78075E+00  5.43586E+00  5.12436E+00  4.84561E+00  4.59821E+00  4.38037E+00
   4.18996E+00  4.02478E+00  3.88249E+00  3.76078E+00  3.65737E+00  3.57014E+00  3.49716E+00  3.43670E+00  3.38719E+00  3.34718E+00
   3.31535E+00  3.29061E+00  3.27200E+00  3.25871E+00  3.24997E+00  3.24511E+00  3.24349E+00  3.24464E+00  3.24814E+00  3.25363E+00
   3.26072E+00  3.26909E+00  3.27841E+00  3.28850E+00  3.29923E+00  3.31048E+00  3.32208E+00  3.33391E+00  3.34588E+00  3.35796E+00
   3.37009E+00  3.38222E+00  3.39425E+00  3.40614E+00  3.41786E+00  3.42944E+00  3.44084E+00  3.45203E+00  3.46295E+00  3.47360E+00
   3.48400E+00  3.49418E+00  3.50412E+00  3.51379E+00  3.52317E+00  3.53229E+00  3.54118E+00  3.54988E+00  3.55835E+00  3.56658E+00
   3.57457E+00  3.58238E+00  3.59004E+00  3.59758E+00  3.60495E+00  3.61218E+00  3.61928E+00  3.62633E+00  3.63334E+00  3.64034E+00
   3.64729E+00  3.65423E+00  3.66119E+00  3.66827E+00  3.67546E+00  3.68279E+00  3.69024E+00  3.69788E+00
 NY background values follow
    -5.745E+01   -5.706E+01   -5.667E+01   -5.628E+01   -5.589E+01   -5.550E+01   -5.510E+01   -5.471E+01   -5.432E+01   -5.394E+01
    -5.355E+01   -5.316E+01   -5.277E+01   -5.238E+01   -5.199E+01   -5.161E+01   -5.122E+01   -5.084E+01   -5.045E+01   -5.007E+01
    -4.968E+01   -4.930E+01   -4.892E+01   -4.854E+01   -4.816E+01   -4.779E+01   -4.741E+01   -4.703E+01   -4.666E+01   -4.629E+01
    -4.592E+01   -4.555E+01   -4.518E+01   -4.481E+01   -4.445E+01   -4.408E+01   -4.372E+01   -4.336E+01   -4.300E+01   -4.264E+01
    -4.229E+01   -4.194E+01   -4.159E+01   -4.124E+01   -4.089E+01   -4.055E+01   -4.021E+01   -3.987E+01   -3.953E+01   -3.919E+01
    -3.886E+01   -3.853E+01   -3.820E+01   -3.787E+01   -3.755E+01   -3.723E+01   -3.691E+01   -3.660E+01   -3.628E+01   -3.597E+01
    -3.566E+01   -3.536E+01   -3.505E+01   -3.475E+01   -3.446E+01   -3.416E+01   -3.387E+01   -3.358E+01   -3.329E+01   -3.301E+01
    -3.273E+01   -3.245E+01   -3.217E+01   -3.190E+01   -3.163E+01   -3.137E+01   -3.110E+01   -3.084E+01   -3.058E+01   -3.033E+01
    -3.008E+01   -2.983E+01   -2.958E+01   -2.934E+01   -2.910E+01   -2.887E+01   -2.864E+01   -2.841E+01   -2.818E+01   -2.796E+01
    -2.774E+01   -2.752E+01   -2.731E+01   -2.710E+01   -2.690E+01   -2.670E+01   -2.650E+01   -2.630E+01   -2.611E+01   -2.592E+01
    -2.573E+01   -2.555E+01   -2.537E+01   -2.519E+01   -2.502E+01   -2.485E+01   -2.468E+01   -2.452E+01   -2.436E+01   -2.420E+01
    -2.404E+01   -2.389E+01   -2.374E+01   -2.359E+01   -2.345E+01   -2.331E+01   -2.317E+01   -2.303E+01   -2.290E+01   -2.277E+01
    -2.264E+01   -2.252E+01   -2.239E+01   -2.228E+01   -2.216E+01   -2.204E+01   -2.193E+01   -2.182E+01   -2.172E+01   -2.161E+01
    -2.151E+01   -2.141E+01   -2.132E+01   -2.122E+01   -2.113E+01   -2.104E+01   -2.095E+01   -2.087E+01   -2.079E+01   -2.070E+01
    -2.063E+01   -2.055E+01   -2.047E+01   -2.040E+01   -2.033E+01   -2.026E+01   -2.019E+01   -2.012E+01   -2.005E+01   -1.998E+01
    -1.991E+01   -1.985E+01   -1.978E+01   -1.972E+01   -1.965E+01   -1.958E+01   -1.952E+01   -1.945E+01   -1.939E+01   -1.932E+01
    -1.925E+01   -1.918E+01   -1.911E+01   -1.904E+01   -1.897E+01   -1.890E+01   -1.883E+01   -1.875E+01   -1.867E+01   -1.859E+01
    -1.851E+01   -1.843E+01   -1.834E+01   -1.826E+01   -1.817E+01   -1.807E+01   -1.798E+01   -1.788E+01   -1.778E+01   -1.767E+01
    -1.757E+01   -1.746E+01   -1.734E+01   -1.723E+01   -1.711E+01   -1.698E+01   -1.686E+01   -1.673E+01   -1.659E+01   -1.646E+01
    -1.632E+01   -1.618E+01   -1.604E+01   -1.590E+01   -1.575E+01   -1.561E+01   -1.546E+01   -1.530E+01   -1.515E+01   -1.500E+01
    -1.484E+01   -1.468E+01   -1.453E+01   -1.437E+01   -1.421E+01   -1.405E+01   -1.389E+01   -1.372E+01   -1.356E+01   -1.340E+01
    -1.324E+01   -1.307E+01   -1.291E+01   -1.275E+01   -1.258E+01   -1.242E+01   -1.226E+01   -1.210E+01   -1.194E+01   -1.178E+01
    -1.162E+01   -1.146E+01   -1.130E+01   -1.115E+01   -1.099E+01   -1.084E+01   -1.069E+01   -1.054E+01   -1.039E+01   -1.024E+01
    -1.010E+01   -9.955E+00   -9.814E+00   -9.674E+00   -9.535E+00   -9.399E+00   -9.264E+00   -9.130E+00   -8.998E+00   -8.868E+00
    -8.740E+00   -8.613E+00   -8.487E+00   -8.363E+00   -8.241E+00   -8.120E+00   -8.001E+00   -7.884E+00   -7.768E+00   -7.654E+00
    -7.541E+00   -7.430E+00   -7.320E+00   -7.212E+00   -7.105E+00   -7.000E+00   -6.897E+00   -6.795E+00   -6.694E+00   -6.595E+00
    -6.498E+00   -6.402E+00   -6.308E+00   -6.215E+00   -6.124E+00   -6.034E+00   -5.945E+00   -5.858E+00   -5.773E+00   -5.689E+00
    -5.607E+00   -5.526E+00   -5.446E+00   -5.368E+00   -5.291E+00   -5.216E+00   -5.142E+00   -5.069E+00   -4.998E+00   -4.928E+00
    -4.859E+00   -4.792E+00   -4.726E+00   -4.661E+00   -4.597E+00   -4.534E+00   -4.472E+00   -4.412E+00   -4.352E+00   -4.294E+00
    -4.236E+00   -4.180E+00   -4.124E+00   -4.070E+00   -4.016E+00   -3.964E+00   -3.912E+00   -3.861E+00   -3.810E+00   -3.761E+00
    -3.712E+00   -3.664E+00   -3.617E+00   -3.570E+00   -3.525E+00   -3.479E+00   -3.435E+00   -3.391E+00   -3.347E+00   -3.304E+00
    -3.262E+00   -3.220E+00   -3.178E+00   -3.137E+00   -3.097E+00   -3.056E+00   -3.016E+00   -2.977E+00   -2.938E+00   -2.899E+00
    -2.860E+00   -2.822E+00   -2.784E+00   -2.746E+00   -2.709E+00   -2.671E+00   -2.634E+00   -2.598E+00   -2.561E+00   -2.525E+00
    -2.489E+00   -2.453E+00   -2.418E+00   -2.383E+00   -2.348E+00   -2.313E+00   -2.278E+00   -2.243E+00   -2.209E+00   -2.175E+00
    -2.141E+00   -2.107E+00   -2.073E+00   -2.040E+00   -2.006E+00   -1.973E+00   -1.940E+00   -1.907E+00   -1.874E+00   -1.841E+00
    -1.808E+00   -1.775E+00   -1.742E+00   -1.710E+00   -1.677E+00   -1.645E+00   -1.612E+00   -1.580E+00   -1.547E+00   -1.515E+00
    -1.483E+00   -1.450E+00   -1.418E+00   -1.386E+00   -1.353E+00   -1.321E+00   -1.288E+00   -1.255E+00   -1.223E+00   -1.190E+00
    -1.157E+00   -1.124E+00   -1.091E+00   -1.057E+00   -1.023E+00   -9.895E-01   -9.554E-01   -9.210E-01   -8.864E-01   -8.515E-01
    -8.163E-01   -7.808E-01   -7.450E-01   -7.088E-01   -6.722E-01   -6.353E-01   -5.979E-01   -5.602E-01   -5.220E-01   -4.834E-01
    -4.443E-01   -4.048E-01   -3.647E-01   -3.241E-01   -2.830E-01   -2.414E-01   -1.992E-01   -1.564E-01   -1.130E-01   -6.903E-02
    -2.441E-02    2.085E-02    6.678E-02    1.134E-01    1.607E-01    2.087E-01    2.574E-01    3.069E-01    3.571E-01    4.080E-01
     4.596E-01    5.118E-01    5.645E-01    6.177E-01    6.715E-01    7.256E-01    7.801E-01    8.350E-01    8.902E-01    9.456E-01
     1.001E+00    1.057E+00    1.113E+00    1.169E+00    1.225E+00    1.281E+00    1.337E+00    1.393E+00    1.449E+00    1.504E+00
     1.559E+00    1.614E+00    1.669E+00    1.723E+00    1.777E+00    1.831E+00    1.884E+00    1.936E+00    1.988E+00    2.039E+00
     2.090E+00    2.140E+00    2.189E+00    2.237E+00    2.284E+00    2.331E+00    2.376E+00    2.421E+00    2.465E+00    2.507E+00
     2.548E+00    2.589E+00    2.628E+00    2.665E+00    2.702E+00    2.737E+00    2.772E+00    2.805E+00    2.837E+00    2.868E+00
     2.898E+00    2.926E+00    2.954E+00    2.981E+00    3.007E+00    3.032E+00    3.057E+00    3.080E+00    3.102E+00    3.124E+00
     3.145E+00    3.165E+00    3.185E+00    3.204E+00    3.222E+00    3.239E+00    3.256E+00    3.272E+00    3.288E+00    3.303E+00
     3.318E+00    3.332E+00    3.346E+00    3.360E+00    3.373E+00    3.385E+00    3.398E+00    3.410E+00    3.421E+00    3.433E+00
     3.444E+00    3.455E+00    3.466E+00    3.477E+00    3.487E+00    3.498E+00    3.508E+00    3.519E+00
 Cr       Conc. = 2.41E+02
