 LCModel (Version 6.3-1L) Copyright: S.W. Provencher.          Ref.: Magn. Reson. Med. 30:672-679 (1993).                
 Slice#3 Row#8 Col#10  PD_24_press_2_raw_act
 36 lines in following concentration table = NCONC+1
    Conc.  %SD /Cr+PCr  Metabolite                                         
   38.744 382% 1.6E-02 Ala                                                 
    0.000 999%   0.000 Asp                                                 
   21.435 999% 8.9E-03 Cr                                                  
 2.38E+03  18%   0.991 PCr                                                 
    0.000 999%   0.000 GABA                                                
    0.000 999%   0.000 Glc                                                 
 1.16E+03  26%   0.482 Gln                                                 
 2.23E+03  15%   0.928 Glu                                                 
  857.344   4%   0.357 GPC                                                 
    0.000 999%   0.000 PCh                                                 
  442.455  22%   0.184 GSH                                                 
 1.47E+03  23%   0.612 Ins                                                 
   13.358 999% 5.6E-03 Lac                                                 
 3.48E+03   3%   1.449 NAA                                                 
    0.000 999%   0.000 NAAG                                                
  183.288  21% 7.6E-02 Scyllo                                              
    0.000 999%   0.000 Tau                                                 
 1.13E+03  13%   0.471 -CrCH2                                              
  857.344   4%   0.357 GPC+PCh                                             
 3.48E+03   3%   1.449 NAA+NAAG                                            
 2.40E+03   3%   1.000 Cr+PCr                                              
 3.39E+03  14%   1.411 Glu+Gln                                             
 1.82E+03  34%   0.760 Lip13a                                              
    0.000 999%   0.000 Lip13b                                              
    0.000 999%   0.000 Lip09                                               
 2.01E+03  16%   0.837 MM09                                                
  384.368  59%   0.160 Lip20                                               
 4.94E+03  12%   2.056 MM20                                                
  701.651  35%   0.292 MM12                                                
 2.81E+03  21%   1.170 MM14                                                
 2.06E+03  20%   0.858 MM17                                                
 1.82E+03  34%   0.760 Lip13a+Lip13b                                       
 5.34E+03  13%   2.222 MM14+Lip13a+Lip13b+MM12                             
 2.01E+03  16%   0.837 MM09+Lip09                                          
 5.32E+03  11%   2.216 MM20+Lip20                                          
   6 lines in following misc. output table
  FWHM = 0.054 ppm    S/N =  15                                            
  Data shift = 0.015 ppm                                                   
  Ph: -18 deg      -8.5 deg/ppm                                            
  alphaB,S = 5.6E-01,   1.8E+02                                            
   14 spline knots.   Ns = 7(1)                                            
  ( 9) 4 infls.   ( 3) 1 extrs.                                            
  498 points on ppm-axis = NY
      4.000000     3.992357     3.984714     3.977070     3.969427     3.961784     3.954141     3.946497     3.938854     3.931211
      3.923568     3.915925     3.908281     3.900638     3.892995     3.885352     3.877708     3.870065     3.862422     3.854779
      3.847136     3.839492     3.831849     3.824206     3.816563     3.808919     3.801276     3.793633     3.785990     3.778347
      3.770703     3.763060     3.755417     3.747774     3.740130     3.732487     3.724844     3.717201     3.709558     3.701914
      3.694271     3.686628     3.678985     3.671341     3.663698     3.656055     3.648412     3.640769     3.633125     3.625482
      3.617839     3.610196     3.602552     3.594909     3.587266     3.579623     3.571980     3.564336     3.556693     3.549050
      3.541407     3.533763     3.526120     3.518477     3.510834     3.503191     3.495547     3.487904     3.480261     3.472618
      3.464974     3.457331     3.449688     3.442045     3.434402     3.426758     3.419115     3.411472     3.403829     3.396185
      3.388542     3.380899     3.373256     3.365613     3.357969     3.350326     3.342683     3.335040     3.327396     3.319753
      3.312110     3.304467     3.296824     3.289180     3.281537     3.273894     3.266251     3.258607     3.250964     3.243321
      3.235678     3.228034     3.220391     3.212748     3.205105     3.197462     3.189818     3.182175     3.174532     3.166889
      3.159245     3.151602     3.143959     3.136316     3.128673     3.121029     3.113386     3.105743     3.098100     3.090456
      3.082813     3.075170     3.067527     3.059884     3.052240     3.044597     3.036954     3.029311     3.021667     3.014024
      3.006381     2.998738     2.991095     2.983451     2.975808     2.968165     2.960522     2.952878     2.945235     2.937592
      2.929949     2.922306     2.914662     2.907019     2.899376     2.891733     2.884089     2.876446     2.868803     2.861160
      2.853517     2.845873     2.838230     2.830587     2.822944     2.815300     2.807657     2.800014     2.792371     2.784728
      2.777084     2.769441     2.761798     2.754155     2.746511     2.738868     2.731225     2.723582     2.715939     2.708295
      2.700652     2.693009     2.685366     2.677722     2.670079     2.662436     2.654793     2.647150     2.639506     2.631863
      2.624220     2.616577     2.608933     2.601290     2.593647     2.586004     2.578361     2.570717     2.563074     2.555431
      2.547788     2.540144     2.532501     2.524858     2.517215     2.509572     2.501928     2.494285     2.486642     2.478999
      2.471355     2.463712     2.456069     2.448426     2.440783     2.433139     2.425496     2.417853     2.410210     2.402566
      2.394923     2.387280     2.379637     2.371994     2.364350     2.356707     2.349064     2.341421     2.333777     2.326134
      2.318491     2.310848     2.303205     2.295561     2.287918     2.280275     2.272632     2.264988     2.257345     2.249702
      2.242059     2.234416     2.226772     2.219129     2.211486     2.203843     2.196199     2.188556     2.180913     2.173270
      2.165627     2.157983     2.150340     2.142697     2.135054     2.127410     2.119767     2.112124     2.104481     2.096838
      2.089194     2.081551     2.073908     2.066265     2.058621     2.050978     2.043335     2.035692     2.028049     2.020405
      2.012762     2.005119     1.997476     1.989833     1.982190     1.974546     1.966903     1.959260     1.951617     1.943974
      1.936331     1.928688     1.921045     1.913402     1.905759     1.898115     1.890472     1.882829     1.875186     1.867543
      1.859900     1.852257     1.844614     1.836971     1.829327     1.821684     1.814041     1.806398     1.798755     1.791112
      1.783469     1.775826     1.768183     1.760540     1.752896     1.745253     1.737610     1.729967     1.722324     1.714681
      1.707038     1.699395     1.691752     1.684108     1.676465     1.668822     1.661179     1.653536     1.645893     1.638250
      1.630607     1.622964     1.615321     1.607677     1.600034     1.592391     1.584748     1.577105     1.569462     1.561819
      1.554176     1.546533     1.538890     1.531246     1.523603     1.515960     1.508317     1.500674     1.493031     1.485388
      1.477745     1.470102     1.462458     1.454815     1.447172     1.439529     1.431886     1.424243     1.416600     1.408957
      1.401314     1.393671     1.386027     1.378384     1.370741     1.363098     1.355455     1.347812     1.340169     1.332526
      1.324883     1.317240     1.309596     1.301953     1.294310     1.286667     1.279024     1.271381     1.263738     1.256095
      1.248452     1.240808     1.233165     1.225522     1.217879     1.210236     1.202593     1.194950     1.187307     1.179664
      1.172021     1.164377     1.156734     1.149091     1.141448     1.133805     1.126162     1.118519     1.110876     1.103233
      1.095590     1.087946     1.080303     1.072660     1.065017     1.057374     1.049731     1.042088     1.034445     1.026802
      1.019158     1.011515     1.003872     0.996229     0.988586     0.980943     0.973300     0.965657     0.958014     0.950371
      0.942727     0.935084     0.927441     0.919798     0.912155     0.904512     0.896869     0.889226     0.881583     0.873940
      0.866296     0.858653     0.851010     0.843367     0.835724     0.828081     0.820438     0.812795     0.805152     0.797508
      0.789865     0.782222     0.774579     0.766936     0.759293     0.751650     0.744007     0.736364     0.728721     0.721077
      0.713434     0.705791     0.698148     0.690505     0.682862     0.675219     0.667576     0.659933     0.652290     0.644646
      0.637003     0.629360     0.621717     0.614074     0.606431     0.598788     0.591145     0.583502     0.575858     0.568215
      0.560572     0.552929     0.545286     0.537643     0.530000     0.522357     0.514714     0.507071     0.499427     0.491784
      0.484141     0.476498     0.468855     0.461212     0.453569     0.445925     0.438282     0.430639     0.422996     0.415353
      0.407710     0.400067     0.392424     0.384780     0.377137     0.369494     0.361851     0.354208     0.346565     0.338922
      0.331278     0.323635     0.315992     0.308349     0.300706     0.293063     0.285420     0.277777     0.270133     0.262490
      0.254847     0.247204     0.239561     0.231918     0.224275     0.216631     0.208988     0.201345
 NY phased data points follow
   4.14997E+01  3.99682E+01  3.59734E+01  4.08454E+01  4.20108E+01  4.60244E+01  5.06404E+01  5.78657E+01  6.04824E+01  5.92688E+01
   5.87503E+01  6.44999E+01  5.98770E+01  5.21420E+01  5.23917E+01  4.21880E+01  4.32208E+01  3.87251E+01  3.94461E+01  3.70882E+01
   3.34364E+01  3.62045E+01  3.59236E+01  3.77961E+01  3.92336E+01  3.25542E+01  3.45749E+01  3.65671E+01  4.33089E+01  3.82405E+01
   3.75063E+01  4.00696E+01  3.90502E+01  3.79574E+01  3.54962E+01  3.21238E+01  3.21566E+01  3.62179E+01  2.77722E+01  3.27210E+01
   3.69389E+01  3.24921E+01  3.35644E+01  2.97565E+01  3.92627E+01  4.07443E+01  4.63658E+01  4.49743E+01  4.69141E+01  3.90772E+01
   3.83595E+01  3.29346E+01  3.43053E+01  3.34860E+01  3.20464E+01  3.54676E+01  3.33364E+01  3.35236E+01  2.81715E+01  2.72666E+01
   2.50179E+01  2.34332E+01  2.02938E+01  1.80833E+01  1.63430E+01  1.98096E+01  1.51830E+01  2.15163E+01  1.70548E+01  1.79761E+01
   1.97788E+01  2.00332E+01  2.24727E+01  2.08808E+01  1.82006E+01  2.16758E+01  2.08425E+01  1.83532E+01  1.94903E+01  1.84654E+01
   2.46212E+01  2.08158E+01  1.94071E+01  2.39084E+01  2.32559E+01  2.11432E+01  2.46801E+01  2.35625E+01  2.40520E+01  2.35623E+01
   2.64313E+01  2.67661E+01  2.59779E+01  2.53251E+01  2.86762E+01  2.90382E+01  2.44365E+01  3.30872E+01  3.83377E+01  4.95967E+01
   5.94024E+01  7.14084E+01  8.68033E+01  9.41692E+01  9.00432E+01  8.14333E+01  6.16484E+01  5.24184E+01  4.56804E+01  3.87062E+01
   2.87258E+01  2.69174E+01  2.20006E+01  2.13902E+01  1.81420E+01  1.83696E+01  2.18580E+01  2.19563E+01  1.55454E+01  1.85275E+01
   2.30245E+01  2.64749E+01  3.07859E+01  3.79012E+01  5.18485E+01  6.91539E+01  8.76036E+01  9.36850E+01  9.44275E+01  8.22984E+01
   6.48544E+01  5.44602E+01  4.25532E+01  3.78284E+01  2.85789E+01  2.38167E+01  2.23281E+01  1.97436E+01  1.67982E+01  1.82720E+01
   1.96907E+01  1.57836E+01  1.73445E+01  7.94610E+00  1.09089E+01  1.60414E+01  9.59783E+00  1.68200E+01  1.01631E+01  1.19249E+01
   1.00692E+01  9.65308E+00  9.23972E+00  1.25158E+01  1.17087E+01  5.56956E+00  6.46393E+00  1.45554E+01  6.87218E+00  7.83038E+00
   9.77802E+00  6.97740E+00  5.13975E+00  5.24833E+00  7.59686E+00  6.24922E+00  7.03562E+00  3.80965E+00 -1.04950E+00 -2.02158E+00
  -5.10154E+00 -6.93757E+00 -8.52205E+00 -7.53991E+00 -1.30227E+01 -1.35963E+01 -1.93758E+01 -1.16847E+01 -9.01971E+00 -9.02364E+00
  -3.31385E+00 -8.62140E+00 -6.26340E+00 -9.28729E+00 -7.19033E+00 -6.08382E+00 -7.24634E+00 -8.73914E+00 -7.17559E+00 -3.74474E+00
  -5.67760E+00  6.98477E+00  7.07398E+00  5.75170E+00  8.16915E+00  6.79827E+00 -4.96198E-01  1.70151E+00 -1.78269E+00 -2.72638E+00
  -3.29582E+00 -3.23132E-01  1.25137E+00  1.23034E+01  7.96194E+00  1.02433E+01  7.26206E+00  5.09154E+00  2.11741E-01  6.42261E+00
   3.29497E+00  6.91010E+00  9.13907E+00  1.54311E+01  2.28747E+01  2.38666E+01  2.32281E+01  2.47605E+01  2.16906E+01  1.30260E+01
   8.22110E+00  3.34303E+00 -3.50310E-01  3.32934E+00  5.70609E+00  1.02426E+01  1.85859E+01  1.46587E+01  1.36624E+01  1.45836E+01
   2.00631E+01  1.65900E+01  1.83180E+01  1.49371E+01  1.54610E+01  2.08836E+01  1.68558E+01  1.58872E+01  1.45246E+01  1.61831E+01
   1.83090E+01  1.43508E+01  7.39718E+00  9.77735E+00  9.16190E+00  1.45022E+01  1.55949E+01  1.87181E+01  1.90284E+01  1.83366E+01
   2.19271E+01  2.39053E+01  2.38721E+01  3.00790E+01  3.94900E+01  5.03399E+01  5.81274E+01  7.58047E+01  9.24219E+01  1.11555E+02
   1.32743E+02  1.40564E+02  1.24936E+02  9.41040E+01  7.08978E+01  5.68027E+01  3.94529E+01  3.38052E+01  2.52628E+01  2.03480E+01
   1.76121E+01  1.84839E+01  1.44667E+01  1.42059E+01  8.79756E+00  1.35713E+01  1.35561E+01  6.57827E+00  6.10541E+00  5.68522E+00
   2.34491E+00  6.19752E+00  6.18853E+00  3.75519E+00  7.98678E+00  3.32739E+00  9.69051E-01  5.89761E-01  5.55100E+00  5.57220E+00
   8.17372E+00  5.17818E+00  9.20597E+00  1.00453E+01  1.02323E+01  5.18185E+00  8.26422E+00  1.07788E+01  9.94031E+00  9.64185E+00
   1.39381E+01  1.19571E+01  1.26787E+01  1.73426E+01  2.03524E+01  1.60890E+01  1.89846E+01  1.85338E+01  1.50729E+01  1.98596E+01
   1.97905E+01  1.58903E+01  1.78599E+01  1.95861E+01  2.14620E+01  2.33747E+01  1.92068E+01  1.86253E+01  1.73072E+01  2.19025E+01
   2.29529E+01  2.23453E+01  1.93266E+01  1.34064E+01  1.48004E+01  1.94826E+01  1.44947E+01  1.36068E+01  1.59518E+01  1.84092E+01
   1.52508E+01  1.50246E+01  2.10127E+01  1.74681E+01  1.83842E+01  2.03992E+01  1.95761E+01  2.16897E+01  1.28324E+01  1.50338E+01
   2.03521E+01  2.06071E+01  1.82979E+01  2.17761E+01  1.89264E+01  2.70662E+01  2.41648E+01  1.96361E+01  1.62600E+01  1.61398E+01
   1.90104E+01  1.68459E+01  2.11653E+01  1.93013E+01  1.55101E+01  1.90607E+01  2.05275E+01  1.77280E+01  1.46680E+01  1.02640E+01
   1.37003E+01  1.52683E+01  1.05321E+01  1.23351E+01  1.15846E+01  1.80877E+01  1.21526E+01  1.48717E+01  4.59987E+00  1.66597E+01
   1.45092E+01  1.24738E+01  1.45477E+01  1.71492E+01  9.51498E+00  1.35784E+01  1.09217E+01  8.98807E+00  4.25487E+00  1.57644E+01
   7.85406E+00  1.06923E+01  9.10082E+00  1.04859E+01  6.91583E+00  8.29508E+00  1.60385E+01  1.38185E+01  1.53451E+01  8.27244E+00
   1.06446E+01  8.56496E+00  1.21985E+01  9.37853E+00  8.52915E+00  1.21462E+01  1.04218E+01  1.14961E+01  1.23985E+01  1.16315E+01
   1.28334E+01  1.32152E+01  1.23554E+01  1.52003E+01  1.43980E+01  1.59455E+01  1.26626E+01  1.65562E+01  1.89685E+01  1.16187E+01
   1.56998E+01  1.27520E+01  1.11501E+01  1.21672E+01  8.51104E+00  1.43525E+01  9.39126E+00  1.42003E+01  7.67006E+00  1.02599E+01
   7.84146E+00  7.68372E+00  6.17549E+00  4.52912E+00  9.86554E+00  7.91269E+00  7.51075E+00  9.81929E+00  6.10481E+00  5.74526E+00
   6.11790E+00  4.88054E+00  4.55151E+00  2.11484E+00  5.10529E+00  5.89767E+00  4.32370E+00  1.90967E+00  8.50783E+00  1.23043E+00
   2.59619E+00  4.18300E+00  2.67566E+00  6.17094E+00  4.76845E+00  4.94850E+00  6.55094E-01  4.31924E+00 -4.82062E-01  2.60223E+00
   5.99670E+00  2.47620E+00  5.57957E+00  5.11831E+00  4.39977E+00  3.10327E+00  5.70454E+00  6.56977E+00  4.18715E+00  3.16096E+00
   5.29755E+00  5.92382E+00 -1.54993E+00  5.56654E+00  4.93837E+00  2.86657E+00  2.21609E+00  6.06020E-01  3.47712E+00  1.64134E+00
   2.23809E+00 -1.16186E+00  7.27938E+00  4.42371E+00  2.81984E+00  1.74134E+00  5.98123E+00  6.27016E+00  2.13770E+00  5.93570E+00
   3.09304E-03  1.24935E+00  1.73387E+00  1.00832E+00  6.34597E-01  2.41557E+00  1.45549E+00  3.15862E+00  2.40319E+00  4.16616E+00
   6.65231E+00  1.31629E+00  3.72077E-01  1.98709E-01 -2.48715E-01  2.08032E+00  1.50026E+00  1.75520E+00
 NY points of the fit to the data follow
   3.64910E+01  3.62281E+01  3.69814E+01  3.89916E+01  4.17598E+01  4.52398E+01  4.95949E+01  5.46328E+01  5.95828E+01  6.31596E+01
   6.41126E+01  6.20238E+01  5.77672E+01  5.29942E+01  4.89225E+01  4.57988E+01  4.31629E+01  4.06873E+01  3.86723E+01  3.75075E+01
   3.66671E+01  3.58181E+01  3.50087E+01  3.44552E+01  3.40865E+01  3.39355E+01  3.42855E+01  3.53991E+01  3.73762E+01  3.98604E+01
   4.22460E+01  4.37941E+01  4.39446E+01  4.27304E+01  4.05532E+01  3.78972E+01  3.53380E+01  3.30562E+01  3.13947E+01  3.08410E+01
   3.12942E+01  3.23969E+01  3.37511E+01  3.52724E+01  3.69859E+01  3.86807E+01  4.00588E+01  4.06287E+01  3.99179E+01  3.79791E+01
   3.53123E+01  3.26532E+01  3.06087E+01  2.91759E+01  2.81093E+01  2.74105E+01  2.72151E+01  2.74202E+01  2.77387E+01  2.79431E+01
   2.78428E+01  2.72798E+01  2.62867E+01  2.50796E+01  2.40112E+01  2.33403E+01  2.30502E+01  2.30124E+01  2.31651E+01  2.34141E+01
   2.36674E+01  2.38291E+01  2.37981E+01  2.35315E+01  2.30658E+01  2.25056E+01  2.19819E+01  2.15403E+01  2.11861E+01  2.09075E+01
   2.09542E+01  2.13632E+01  2.18864E+01  2.25622E+01  2.35077E+01  2.46515E+01  2.56840E+01  2.61479E+01  2.56932E+01  2.44005E+01
   2.27643E+01  2.13545E+01  2.04374E+01  1.99164E+01  1.96628E+01  2.03544E+01  2.40647E+01  3.02912E+01  3.79171E+01  4.76889E+01
   6.02626E+01  7.44731E+01  8.70342E+01  9.36345E+01  9.13616E+01  8.09990E+01  6.67794E+01  5.33523E+01  4.28232E+01  3.46128E+01
   2.73402E+01  2.11664E+01  1.79499E+01  1.68148E+01  1.62804E+01  1.59734E+01  1.58007E+01  1.57592E+01  1.59455E+01  1.68741E+01
   2.03836E+01  2.66613E+01  3.43408E+01  4.37735E+01  5.57783E+01  6.97418E+01  8.29816E+01  9.13507E+01  9.13357E+01  8.27130E+01
   6.91290E+01  5.54520E+01  4.44005E+01  3.57012E+01  2.78368E+01  2.05037E+01  1.58248E+01  1.40648E+01  1.35097E+01  1.35168E+01
   1.37118E+01  1.38261E+01  1.37675E+01  1.35129E+01  1.30667E+01  1.25266E+01  1.19723E+01  1.14109E+01  1.08640E+01  1.03405E+01
   9.87079E+00  9.47264E+00  9.13404E+00  8.83956E+00  8.48430E+00  8.06517E+00  7.63706E+00  7.18030E+00  6.69342E+00  6.08724E+00
   5.40293E+00  4.90191E+00  4.80491E+00  5.06529E+00  5.35640E+00  5.28549E+00  4.67948E+00  3.69801E+00  2.68527E+00  1.80946E+00
   9.64714E-01  1.86170E-01 -5.71175E-01 -1.34233E+00 -2.03749E+00 -2.55427E+00 -2.71516E+00 -2.47990E+00 -2.07664E+00 -1.83605E+00
  -1.98379E+00 -2.31589E+00 -2.41692E+00 -2.16403E+00 -1.69464E+00 -1.19420E+00 -5.78072E-01  5.31582E-01  2.20205E+00  4.07582E+00
   5.56667E+00  6.23097E+00  6.14626E+00  5.64604E+00  5.09916E+00  4.70508E+00  4.49527E+00  4.72258E+00  5.51922E+00  6.78445E+00
   8.36146E+00  9.94481E+00  1.10779E+01  1.13245E+01  1.06251E+01  8.87741E+00  6.08483E+00  2.72004E+00 -2.58479E-01 -1.84157E+00
  -1.62546E+00  7.89265E-02  2.92087E+00  6.58291E+00  1.04088E+01  1.34380E+01  1.46826E+01  1.36983E+01  1.07279E+01  6.48817E+00
   2.34048E+00 -7.07949E-01 -2.17227E+00 -1.69877E+00  6.31827E-01  4.27346E+00  8.12551E+00  1.10862E+01  1.28373E+01  1.36632E+01
   1.40456E+01  1.40970E+01  1.38871E+01  1.38556E+01  1.43386E+01  1.51739E+01  1.61458E+01  1.70881E+01  1.77284E+01  1.77717E+01
   1.70836E+01  1.59984E+01  1.51522E+01  1.49837E+01  1.55172E+01  1.65722E+01  1.79464E+01  1.92768E+01  2.03360E+01  2.11781E+01
   2.19717E+01  2.27715E+01  2.40392E+01  2.84602E+01  3.74580E+01  4.82338E+01  6.08018E+01  7.69773E+01  9.67707E+01  1.16738E+02
   1.30689E+02  1.32527E+02  1.20586E+02  9.95624E+01  7.73713E+01  5.93158E+01  4.57898E+01  3.43627E+01  2.36153E+01  1.61968E+01
   1.35148E+01  1.22626E+01  1.14619E+01  1.09694E+01  1.06453E+01  1.03116E+01  9.92734E+00  9.47603E+00  8.98116E+00  8.48338E+00
   8.01223E+00  7.57094E+00  7.18495E+00  6.88549E+00  6.66834E+00  6.50757E+00  6.39286E+00  6.32757E+00  6.32093E+00  6.37367E+00
   6.48293E+00  6.65918E+00  6.91280E+00  7.24805E+00  7.66850E+00  8.17461E+00  8.76745E+00  9.44378E+00  1.01985E+01  1.10235E+01
   1.19076E+01  1.28340E+01  1.37856E+01  1.47408E+01  1.56769E+01  1.65677E+01  1.73893E+01  1.81192E+01  1.87404E+01  1.92380E+01
   1.96031E+01  1.98299E+01  1.99211E+01  1.98845E+01  1.97352E+01  1.94914E+01  1.91760E+01  1.88131E+01  1.84303E+01  1.80563E+01
   1.77221E+01  1.74340E+01  1.71952E+01  1.70198E+01  1.69127E+01  1.68580E+01  1.68297E+01  1.68042E+01  1.67950E+01  1.68397E+01
   1.69655E+01  1.71853E+01  1.74939E+01  1.78691E+01  1.82838E+01  1.87063E+01  1.90987E+01  1.94030E+01  1.95928E+01  1.96917E+01
   1.97353E+01  1.97377E+01  1.96948E+01  1.96026E+01  1.94794E+01  1.93378E+01  1.91662E+01  1.89574E+01  1.87215E+01  1.84734E+01
   1.82289E+01  1.79996E+01  1.77903E+01  1.75956E+01  1.74070E+01  1.72120E+01  1.69988E+01  1.67506E+01  1.64610E+01  1.61385E+01
   1.57937E+01  1.54297E+01  1.50458E+01  1.46411E+01  1.42254E+01  1.38037E+01  1.33773E+01  1.29480E+01  1.25198E+01  1.20966E+01
   1.16834E+01  1.12844E+01  1.09044E+01  1.05466E+01  1.02156E+01  9.91478E+00  9.64839E+00  9.41889E+00  9.22940E+00  9.08155E+00
   8.97811E+00  8.92050E+00  8.91088E+00  8.94961E+00  9.03771E+00  9.17470E+00  9.36107E+00  9.59551E+00  9.87699E+00  1.02022E+01
   1.05681E+01  1.09696E+01  1.14019E+01  1.18578E+01  1.23298E+01  1.28080E+01  1.32831E+01  1.37439E+01  1.41802E+01  1.45804E+01
   1.49340E+01  1.52301E+01  1.54603E+01  1.56169E+01  1.56949E+01  1.56902E+01  1.56019E+01  1.54302E+01  1.51791E+01  1.48535E+01
   1.44613E+01  1.40103E+01  1.35106E+01  1.29720E+01  1.24058E+01  1.18220E+01  1.12311E+01  1.06414E+01  1.00616E+01  9.49791E+00
   8.95677E+00  8.44207E+00  7.95742E+00  7.50405E+00  7.08343E+00  6.69529E+00  6.33977E+00  6.01519E+00  5.72037E+00  5.45279E+00
   5.21102E+00  4.99262E+00  4.79619E+00  4.61909E+00  4.45975E+00  4.31574E+00  4.18605E+00  4.06882E+00  3.96324E+00  3.86741E+00
   3.78061E+00  3.70133E+00  3.62941E+00  3.56368E+00  3.50395E+00  3.44893E+00  3.39849E+00  3.35174E+00  3.30895E+00  3.26932E+00
   3.23291E+00  3.19875E+00  3.16709E+00  3.13731E+00  3.10989E+00  3.08413E+00  3.06022E+00  3.03738E+00  3.01606E+00  2.99580E+00
   2.97710E+00  2.95926E+00  2.94255E+00  2.92634E+00  2.91119E+00  2.89669E+00  2.88328E+00  2.87028E+00  2.85800E+00  2.84593E+00
   2.83470E+00  2.82388E+00  2.81388E+00  2.80399E+00  2.79463E+00  2.78539E+00  2.77689E+00  2.76864E+00  2.76100E+00  2.75331E+00
   2.74607E+00  2.73892E+00  2.73246E+00  2.72614E+00  2.72029E+00  2.71434E+00  2.70885E+00  2.70349E+00  2.69879E+00  2.69415E+00
   2.68993E+00  2.68562E+00  2.68187E+00  2.67831E+00  2.67542E+00  2.67258E+00  2.67020E+00  2.66788E+00
 NY background values follow
     3.247E+01    3.228E+01    3.209E+01    3.189E+01    3.170E+01    3.151E+01    3.132E+01    3.113E+01    3.094E+01    3.075E+01
     3.056E+01    3.037E+01    3.018E+01    2.999E+01    2.980E+01    2.961E+01    2.942E+01    2.923E+01    2.904E+01    2.885E+01
     2.867E+01    2.848E+01    2.829E+01    2.810E+01    2.791E+01    2.772E+01    2.753E+01    2.735E+01    2.716E+01    2.697E+01
     2.678E+01    2.660E+01    2.641E+01    2.622E+01    2.604E+01    2.585E+01    2.566E+01    2.548E+01    2.529E+01    2.511E+01
     2.492E+01    2.474E+01    2.455E+01    2.437E+01    2.419E+01    2.400E+01    2.382E+01    2.364E+01    2.346E+01    2.327E+01
     2.309E+01    2.291E+01    2.273E+01    2.255E+01    2.237E+01    2.219E+01    2.201E+01    2.183E+01    2.166E+01    2.148E+01
     2.130E+01    2.112E+01    2.094E+01    2.077E+01    2.059E+01    2.041E+01    2.024E+01    2.006E+01    1.989E+01    1.971E+01
     1.954E+01    1.936E+01    1.919E+01    1.901E+01    1.884E+01    1.867E+01    1.849E+01    1.832E+01    1.815E+01    1.798E+01
     1.780E+01    1.763E+01    1.746E+01    1.729E+01    1.712E+01    1.695E+01    1.678E+01    1.661E+01    1.644E+01    1.627E+01
     1.610E+01    1.593E+01    1.576E+01    1.559E+01    1.542E+01    1.525E+01    1.508E+01    1.492E+01    1.475E+01    1.458E+01
     1.441E+01    1.425E+01    1.408E+01    1.391E+01    1.375E+01    1.358E+01    1.342E+01    1.325E+01    1.309E+01    1.292E+01
     1.276E+01    1.260E+01    1.243E+01    1.227E+01    1.211E+01    1.194E+01    1.178E+01    1.162E+01    1.146E+01    1.130E+01
     1.114E+01    1.098E+01    1.082E+01    1.066E+01    1.050E+01    1.034E+01    1.018E+01    1.002E+01    9.867E+00    9.710E+00
     9.553E+00    9.397E+00    9.241E+00    9.086E+00    8.931E+00    8.776E+00    8.622E+00    8.468E+00    8.315E+00    8.163E+00
     8.011E+00    7.860E+00    7.709E+00    7.560E+00    7.411E+00    7.263E+00    7.115E+00    6.969E+00    6.824E+00    6.680E+00
     6.537E+00    6.396E+00    6.255E+00    6.116E+00    5.978E+00    5.842E+00    5.706E+00    5.573E+00    5.441E+00    5.310E+00
     5.182E+00    5.054E+00    4.929E+00    4.805E+00    4.684E+00    4.564E+00    4.446E+00    4.330E+00    4.216E+00    4.104E+00
     3.994E+00    3.887E+00    3.781E+00    3.679E+00    3.578E+00    3.480E+00    3.384E+00    3.291E+00    3.200E+00    3.112E+00
     3.026E+00    2.943E+00    2.863E+00    2.786E+00    2.711E+00    2.639E+00    2.569E+00    2.502E+00    2.437E+00    2.374E+00
     2.314E+00    2.255E+00    2.199E+00    2.145E+00    2.093E+00    2.043E+00    1.995E+00    1.949E+00    1.904E+00    1.862E+00
     1.821E+00    1.781E+00    1.743E+00    1.707E+00    1.672E+00    1.638E+00    1.606E+00    1.575E+00    1.545E+00    1.516E+00
     1.488E+00    1.462E+00    1.436E+00    1.411E+00    1.387E+00    1.364E+00    1.342E+00    1.320E+00    1.299E+00    1.278E+00
     1.258E+00    1.239E+00    1.219E+00    1.200E+00    1.182E+00    1.163E+00    1.145E+00    1.127E+00    1.109E+00    1.091E+00
     1.073E+00    1.055E+00    1.037E+00    1.020E+00    1.003E+00    9.857E-01    9.689E-01    9.522E-01    9.357E-01    9.195E-01
     9.035E-01    8.877E-01    8.722E-01    8.570E-01    8.420E-01    8.274E-01    8.130E-01    7.990E-01    7.852E-01    7.719E-01
     7.588E-01    7.462E-01    7.339E-01    7.219E-01    7.104E-01    6.993E-01    6.885E-01    6.782E-01    6.684E-01    6.590E-01
     6.500E-01    6.415E-01    6.335E-01    6.260E-01    6.190E-01    6.125E-01    6.065E-01    6.011E-01    5.962E-01    5.919E-01
     5.881E-01    5.849E-01    5.823E-01    5.803E-01    5.789E-01    5.780E-01    5.776E-01    5.778E-01    5.786E-01    5.798E-01
     5.816E-01    5.838E-01    5.865E-01    5.897E-01    5.934E-01    5.975E-01    6.021E-01    6.070E-01    6.124E-01    6.182E-01
     6.244E-01    6.310E-01    6.380E-01    6.453E-01    6.530E-01    6.610E-01    6.694E-01    6.780E-01    6.870E-01    6.963E-01
     7.058E-01    7.157E-01    7.258E-01    7.361E-01    7.467E-01    7.576E-01    7.686E-01    7.799E-01    7.913E-01    8.030E-01
     8.148E-01    8.268E-01    8.390E-01    8.513E-01    8.637E-01    8.763E-01    8.889E-01    9.017E-01    9.146E-01    9.275E-01
     9.405E-01    9.537E-01    9.669E-01    9.801E-01    9.934E-01    1.007E+00    1.020E+00    1.034E+00    1.047E+00    1.061E+00
     1.075E+00    1.088E+00    1.102E+00    1.116E+00    1.129E+00    1.143E+00    1.157E+00    1.171E+00    1.184E+00    1.198E+00
     1.212E+00    1.226E+00    1.239E+00    1.253E+00    1.267E+00    1.280E+00    1.294E+00    1.307E+00    1.321E+00    1.334E+00
     1.348E+00    1.361E+00    1.374E+00    1.387E+00    1.400E+00    1.413E+00    1.426E+00    1.439E+00    1.452E+00    1.465E+00
     1.477E+00    1.490E+00    1.502E+00    1.514E+00    1.526E+00    1.538E+00    1.550E+00    1.562E+00    1.573E+00    1.585E+00
     1.596E+00    1.608E+00    1.619E+00    1.630E+00    1.642E+00    1.653E+00    1.664E+00    1.675E+00    1.686E+00    1.697E+00
     1.708E+00    1.718E+00    1.729E+00    1.740E+00    1.751E+00    1.761E+00    1.772E+00    1.783E+00    1.793E+00    1.804E+00
     1.815E+00    1.825E+00    1.836E+00    1.847E+00    1.857E+00    1.868E+00    1.879E+00    1.890E+00    1.900E+00    1.911E+00
     1.922E+00    1.933E+00    1.944E+00    1.955E+00    1.966E+00    1.977E+00    1.988E+00    1.999E+00    2.011E+00    2.022E+00
     2.033E+00    2.045E+00    2.056E+00    2.068E+00    2.079E+00    2.091E+00    2.102E+00    2.114E+00    2.126E+00    2.137E+00
     2.149E+00    2.160E+00    2.172E+00    2.183E+00    2.194E+00    2.206E+00    2.217E+00    2.228E+00    2.239E+00    2.250E+00
     2.261E+00    2.272E+00    2.283E+00    2.294E+00    2.304E+00    2.315E+00    2.325E+00    2.335E+00    2.345E+00    2.355E+00
     2.365E+00    2.374E+00    2.384E+00    2.393E+00    2.402E+00    2.411E+00    2.419E+00    2.428E+00    2.436E+00    2.444E+00
     2.451E+00    2.459E+00    2.466E+00    2.473E+00    2.480E+00    2.486E+00    2.493E+00    2.499E+00    2.504E+00    2.510E+00
     2.515E+00    2.521E+00    2.526E+00    2.530E+00    2.535E+00    2.539E+00    2.544E+00    2.548E+00    2.552E+00    2.555E+00
     2.559E+00    2.562E+00    2.566E+00    2.569E+00    2.572E+00    2.575E+00    2.578E+00    2.580E+00    2.583E+00    2.585E+00
     2.588E+00    2.590E+00    2.592E+00    2.594E+00    2.596E+00    2.598E+00    2.600E+00    2.602E+00    2.603E+00    2.605E+00
     2.607E+00    2.608E+00    2.610E+00    2.612E+00    2.613E+00    2.615E+00    2.616E+00    2.618E+00
 Ala      Conc. = 3.87E+01
