 LCModel (Version 6.3-1L) Copyright: S.W. Provencher.          Ref.: Magn. Reson. Med. 30:672-679 (1993).                
 Slice#1 Row#3 Col#1  PD_24_press_2_raw_act
 36 lines in following concentration table = NCONC+1
    Conc.  %SD /Cr+PCr  Metabolite                                         
 4.32E+03  32%   7.057 Ala                                                 
   55.734  62% 9.1E-02 Asp                                                 
    0.000 999%   0.000 Cr                                                  
  611.553  27%   1.000 PCr                                                 
   34.794  59% 5.7E-02 GABA                                                
   35.972  58% 5.9E-02 Glc                                                 
 1.81E+03  81%   2.962 Gln                                                 
    0.000 999%   0.000 Glu                                                 
    0.000 999%   0.000 GPC                                                 
  182.302  37%   0.298 PCh                                                 
  238.878 122%   0.391 GSH                                                 
 2.21E+03  34%   3.613 Ins                                                 
    0.000 999%   0.000 Lac                                                 
    0.000 999%   0.000 NAA                                                 
    0.000 999%   0.000 NAAG                                                
   12.817  54% 2.1E-02 Scyllo                                              
   64.993  53%   0.106 Tau                                                 
  371.463  40%   0.607 -CrCH2                                              
  182.302  37%   0.298 GPC+PCh                                             
    0.000 999%   0.000 NAA+NAAG                                            
  611.553  27%   1.000 Cr+PCr                                              
 1.81E+03  81%   2.962 Glu+Gln                                             
    0.000 999%   0.000 Lip13a                                              
    0.000 999%   0.000 Lip13b                                              
    0.000 999%   0.000 Lip09                                               
  268.802  98%   0.440 MM09                                                
    0.000 999%   0.000 Lip20                                               
  312.777 200%   0.511 MM20                                                
 1.82E+03  29%   2.984 MM12                                                
 4.19E+03  27%   6.843 MM14                                                
 7.94E+03  14%  12.979 MM17                                                
    0.000 999%   0.000 Lip13a+Lip13b                                       
 6.01E+03  23%   9.827 MM14+Lip13a+Lip13b+MM12                             
  268.802  98%   0.440 MM09+Lip09                                          
  312.777 200%   0.511 MM20+Lip20                                          
   6 lines in following misc. output table
  FWHM = 0.168 ppm    S/N =   6                                            
  Data shift = 0.222 ppm                                                   
  Ph: -47 deg      77.5 deg/ppm                                            
  alphaB,S = 1.7E+00,   5.5E+01                                            
   10 spline knots.   Ns = 9(2)                                            
  (13)10 infls.   (12) 3 extrs.                                            
  498 points on ppm-axis = NY
      4.000000     3.992357     3.984714     3.977070     3.969427     3.961784     3.954141     3.946497     3.938854     3.931211
      3.923568     3.915925     3.908281     3.900638     3.892995     3.885352     3.877708     3.870065     3.862422     3.854779
      3.847136     3.839492     3.831849     3.824206     3.816563     3.808919     3.801276     3.793633     3.785990     3.778347
      3.770703     3.763060     3.755417     3.747774     3.740130     3.732487     3.724844     3.717201     3.709558     3.701914
      3.694271     3.686628     3.678985     3.671341     3.663698     3.656055     3.648412     3.640769     3.633125     3.625482
      3.617839     3.610196     3.602552     3.594909     3.587266     3.579623     3.571980     3.564336     3.556693     3.549050
      3.541407     3.533763     3.526120     3.518477     3.510834     3.503191     3.495547     3.487904     3.480261     3.472618
      3.464974     3.457331     3.449688     3.442045     3.434402     3.426758     3.419115     3.411472     3.403829     3.396185
      3.388542     3.380899     3.373256     3.365613     3.357969     3.350326     3.342683     3.335040     3.327396     3.319753
      3.312110     3.304467     3.296824     3.289180     3.281537     3.273894     3.266251     3.258607     3.250964     3.243321
      3.235678     3.228034     3.220391     3.212748     3.205105     3.197462     3.189818     3.182175     3.174532     3.166889
      3.159245     3.151602     3.143959     3.136316     3.128673     3.121029     3.113386     3.105743     3.098100     3.090456
      3.082813     3.075170     3.067527     3.059884     3.052240     3.044597     3.036954     3.029311     3.021667     3.014024
      3.006381     2.998738     2.991095     2.983451     2.975808     2.968165     2.960522     2.952878     2.945235     2.937592
      2.929949     2.922306     2.914662     2.907019     2.899376     2.891733     2.884089     2.876446     2.868803     2.861160
      2.853517     2.845873     2.838230     2.830587     2.822944     2.815300     2.807657     2.800014     2.792371     2.784728
      2.777084     2.769441     2.761798     2.754155     2.746511     2.738868     2.731225     2.723582     2.715939     2.708295
      2.700652     2.693009     2.685366     2.677722     2.670079     2.662436     2.654793     2.647150     2.639506     2.631863
      2.624220     2.616577     2.608933     2.601290     2.593647     2.586004     2.578361     2.570717     2.563074     2.555431
      2.547788     2.540144     2.532501     2.524858     2.517215     2.509572     2.501928     2.494285     2.486642     2.478999
      2.471355     2.463712     2.456069     2.448426     2.440783     2.433139     2.425496     2.417853     2.410210     2.402566
      2.394923     2.387280     2.379637     2.371994     2.364350     2.356707     2.349064     2.341421     2.333777     2.326134
      2.318491     2.310848     2.303205     2.295561     2.287918     2.280275     2.272632     2.264988     2.257345     2.249702
      2.242059     2.234416     2.226772     2.219129     2.211486     2.203843     2.196199     2.188556     2.180913     2.173270
      2.165627     2.157983     2.150340     2.142697     2.135054     2.127410     2.119767     2.112124     2.104481     2.096838
      2.089194     2.081551     2.073908     2.066265     2.058621     2.050978     2.043335     2.035692     2.028049     2.020405
      2.012762     2.005119     1.997476     1.989833     1.982190     1.974546     1.966903     1.959260     1.951617     1.943974
      1.936331     1.928688     1.921045     1.913402     1.905759     1.898115     1.890472     1.882829     1.875186     1.867543
      1.859900     1.852257     1.844614     1.836971     1.829327     1.821684     1.814041     1.806398     1.798755     1.791112
      1.783469     1.775826     1.768183     1.760540     1.752896     1.745253     1.737610     1.729967     1.722324     1.714681
      1.707038     1.699395     1.691752     1.684108     1.676465     1.668822     1.661179     1.653536     1.645893     1.638250
      1.630607     1.622964     1.615321     1.607677     1.600034     1.592391     1.584748     1.577105     1.569462     1.561819
      1.554176     1.546533     1.538890     1.531246     1.523603     1.515960     1.508317     1.500674     1.493031     1.485388
      1.477745     1.470102     1.462458     1.454815     1.447172     1.439529     1.431886     1.424243     1.416600     1.408957
      1.401314     1.393671     1.386027     1.378384     1.370741     1.363098     1.355455     1.347812     1.340169     1.332526
      1.324883     1.317240     1.309596     1.301953     1.294310     1.286667     1.279024     1.271381     1.263738     1.256095
      1.248452     1.240808     1.233165     1.225522     1.217879     1.210236     1.202593     1.194950     1.187307     1.179664
      1.172021     1.164377     1.156734     1.149091     1.141448     1.133805     1.126162     1.118519     1.110876     1.103233
      1.095590     1.087946     1.080303     1.072660     1.065017     1.057374     1.049731     1.042088     1.034445     1.026802
      1.019158     1.011515     1.003872     0.996229     0.988586     0.980943     0.973300     0.965657     0.958014     0.950371
      0.942727     0.935084     0.927441     0.919798     0.912155     0.904512     0.896869     0.889226     0.881583     0.873940
      0.866296     0.858653     0.851010     0.843367     0.835724     0.828081     0.820438     0.812795     0.805152     0.797508
      0.789865     0.782222     0.774579     0.766936     0.759293     0.751650     0.744007     0.736364     0.728721     0.721077
      0.713434     0.705791     0.698148     0.690505     0.682862     0.675219     0.667576     0.659933     0.652290     0.644646
      0.637003     0.629360     0.621717     0.614074     0.606431     0.598788     0.591145     0.583502     0.575858     0.568215
      0.560572     0.552929     0.545286     0.537643     0.530000     0.522357     0.514714     0.507071     0.499427     0.491784
      0.484141     0.476498     0.468855     0.461212     0.453569     0.445925     0.438282     0.430639     0.422996     0.415353
      0.407710     0.400067     0.392424     0.384780     0.377137     0.369494     0.361851     0.354208     0.346565     0.338922
      0.331278     0.323635     0.315992     0.308349     0.300706     0.293063     0.285420     0.277777     0.270133     0.262490
      0.254847     0.247204     0.239561     0.231918     0.224275     0.216631     0.208988     0.201345
 NY phased data points follow
  -2.69904E+01 -1.68456E+01 -1.64505E+01 -1.77778E+01 -2.32613E+01 -2.12009E+01 -1.60396E+01 -1.64889E+01 -1.81164E+01 -2.31794E+01
  -1.73952E+01 -1.65089E+01 -1.99600E+01 -1.55365E+01 -1.55332E+01 -1.44499E+01 -2.20212E+01 -1.70834E+01 -2.20560E+01 -1.21984E+01
  -1.66738E+01 -1.39270E+01 -1.56392E+01 -1.72316E+01 -1.50970E+01 -1.51410E+01 -1.70617E+01 -1.08487E+01 -2.11871E+01 -1.14598E+01
  -1.87267E+01 -7.05055E+00 -1.03847E+01 -1.34544E+01 -1.05908E+01 -1.67963E+01 -1.02768E+01 -8.18214E+00 -9.95200E+00 -1.18295E+01
  -1.09149E+01 -1.27941E+01 -1.23817E+01 -9.04677E+00 -1.11948E+01 -8.50951E+00 -1.17301E+01 -8.98971E+00 -7.00712E+00 -5.44459E+00
  -9.22055E+00 -5.67434E+00 -9.51857E+00 -9.39449E+00 -3.04215E+00 -4.33681E+00 -9.65579E+00 -5.47284E+00 -7.64727E+00 -1.87559E+00
  -1.51352E+01 -5.94796E+00 -3.69961E+00  1.98287E+00 -5.64138E+00  1.84753E+00 -2.82443E+00 -3.31088E+00 -5.96449E+00  2.45935E+00
  -1.59964E+00 -3.70692E+00 -1.30368E+01 -1.00176E+01 -1.51675E+01 -9.32350E+00 -5.86854E+00 -6.61714E+00 -2.21981E+00  7.42547E-01
  -1.13354E+00 -9.22036E+00 -1.01363E+01 -2.58547E+00 -1.08696E+01 -9.00433E+00 -6.17110E+00 -1.12673E+01  4.46395E-01  5.26590E-01
  -6.36517E+00 -5.94533E+00 -5.16060E+00 -5.68488E+00 -4.04772E+00 -1.17206E+01 -7.33382E+00 -1.21213E+01 -1.09135E+01 -1.06990E+01
  -4.62211E+00 -6.14402E+00 -2.15762E+00  2.58769E+00  5.00023E+00 -9.68159E+00 -1.06252E+01  4.60793E-01 -4.64163E+00 -6.97414E+00
  -2.73124E+00 -1.96827E+00 -4.51464E+00 -1.44565E+00 -4.93686E+00 -1.80787E+00 -3.43438E-02  3.92576E+00 -2.98367E+00  3.59976E+00
   2.07315E+00  5.11803E+00 -8.02237E-01  3.17229E+00 -8.58347E-01  3.24764E-01  9.45297E-01 -1.83614E+00  1.83755E+00 -3.16001E+00
   2.09073E-01 -5.67088E+00  2.66348E+00  2.95632E+00  1.18298E+00  1.50251E-01 -6.64346E+00 -9.75079E-01 -6.49659E+00 -1.05168E+01
  -4.00633E+00  1.60394E+00 -1.39008E+00 -1.81673E-01 -2.80219E+00 -5.94097E-01  2.79877E+00 -2.96950E+00 -5.20555E-01 -7.25329E-01
   1.35744E+00 -2.47868E+00 -8.11693E-01 -6.75294E+00  8.47071E-01 -4.37383E-01 -1.57903E+00 -7.53575E+00 -1.59006E+01 -3.97931E+00
  -1.10401E+01 -5.06765E+00 -9.38376E+00 -5.72512E+00 -9.94165E+00 -8.83039E+00 -9.72892E+00 -8.46447E+00 -1.45146E+01 -5.26259E+00
  -1.98284E+01 -1.06176E+01 -1.13244E+01 -1.73311E+01 -1.14709E+01 -1.60562E+01 -5.85144E+00 -1.19648E+01 -1.34396E+01 -1.23041E+01
  -1.18549E+01 -1.80733E+01 -1.61363E+01 -1.04841E+01 -1.12633E+01 -1.39398E+01 -7.36416E+00 -8.76027E+00 -8.56503E+00 -6.45526E+00
  -1.09873E+01 -7.97103E-01 -1.04071E+01 -6.23486E+00 -8.02410E+00 -1.13796E+01 -7.91727E+00 -4.17369E+00  2.32287E+00 -6.77042E+00
   8.80430E-01 -5.70871E+00  4.83383E-01  4.53724E+00 -2.21757E+00  2.50685E+00  2.91550E+00  2.89173E+00  4.49197E+00  1.23006E+00
   7.05677E+00  1.14541E+01  1.04617E+01  3.61924E+00  8.50051E+00  1.96786E+00 -3.61701E-01  4.77425E+00  7.94907E-01  1.15682E+01
   1.03315E+01  1.39986E+00  2.05099E+00 -3.24920E-03  4.68634E-01 -8.30177E+00 -3.68229E+00 -1.07356E+00 -4.39703E+00 -6.15997E+00
   5.54129E-01 -3.85258E-01  7.28072E+00  7.93441E+00  1.28286E+01  9.33369E+00 -1.60553E+00  2.44706E+00  1.98199E-01 -7.43960E+00
   6.01490E+00  3.67010E+00  4.95006E+00  7.42305E+00  1.77507E-01 -4.12196E-01  4.93658E+00 -2.08838E+00 -1.91747E+00 -6.60217E+00
   1.29590E+00  1.04932E+00  5.11804E+00 -6.64099E+00 -7.09443E+00 -7.51393E+00 -3.33074E+00 -4.85474E+00 -7.82579E+00 -6.23059E+00
  -6.28621E+00 -8.23634E+00 -9.08148E+00 -9.28035E+00 -1.09924E+01 -1.11630E+01 -1.57106E+01 -1.28986E+01 -1.18743E+01 -9.45760E+00
  -1.43402E+01 -7.81063E+00  2.03006E-01  2.06356E+00  6.98249E-01 -3.71686E+00  4.60084E+00  2.57414E+00  1.35805E+01  1.67442E+01
   2.43918E+01  2.46415E+01  2.92934E+01  3.04123E+01  4.22271E+01  5.84004E+01  6.18192E+01  5.70372E+01  6.17612E+01  6.35219E+01
   6.25032E+01  6.46458E+01  6.10218E+01  5.94185E+01  6.68650E+01  5.74151E+01  5.89406E+01  6.32568E+01  6.26689E+01  5.34214E+01
   5.88200E+01  5.66170E+01  4.58900E+01  5.24674E+01  4.68325E+01  4.39203E+01  3.92199E+01  5.00370E+01  3.70362E+01  4.12712E+01
   4.55072E+01  3.18995E+01  2.89851E+01  3.54684E+01  3.65463E+01  3.65376E+01  3.11261E+01  2.12393E+01  2.69274E+01  2.91308E+01
   2.34086E+01  1.27118E+01  2.31253E+01  1.71745E+01  1.93576E+01  1.52130E+01  1.48023E+01  1.52302E+01  1.15552E+01  8.92849E+00
   1.33489E+01  1.13976E+01  1.14063E+01  1.43459E+01  1.06163E+01  1.25837E+01  7.89603E+00  1.14996E+01  7.13740E+00  8.42116E+00
   3.54089E+00  1.30674E+01  7.41261E+00  5.66083E+00  9.93371E+00  4.37089E+00  1.87279E+00 -3.39020E+00  3.87541E+00  3.96421E+00
   3.94017E+00  6.00449E+00  4.06497E+00  1.18919E+01  3.26109E+00  8.77182E+00  6.81365E-01  3.30146E+00  8.69204E+00  5.78180E+00
   4.14299E+00 -7.08091E-01  5.66527E+00 -4.23362E+00  4.61368E-01  7.26996E+00  5.55781E+00  5.43581E+00  7.94958E+00  5.90983E+00
   1.20761E+01  5.60569E+00  9.35576E+00  1.87689E+00  7.77064E+00  6.38430E+00  7.08048E+00  8.60003E+00  8.84691E+00  5.21422E-02
   2.87388E+00  3.43645E+00 -5.64064E-02  6.13997E+00  8.43185E-01  1.18058E+01  1.12413E+00 -3.36193E+00  3.32568E-01  3.91191E+00
  -9.27692E-01  1.69072E+00 -7.37814E+00 -2.33805E+00 -2.57310E+00 -1.07871E+00  2.38921E+00  4.99580E-01 -4.83046E+00 -4.99870E+00
   3.12862E+00 -1.49904E+00 -6.99542E+00 -8.64559E+00 -1.78373E+00 -5.92922E-01  4.92330E+00 -1.06068E+00 -2.58583E+00  1.03001E+00
  -1.14647E+00 -5.65181E+00 -2.47963E+00 -3.64011E+00  2.76050E+00 -1.68895E+00 -3.83431E+00 -2.82012E+00 -2.95530E+00 -8.73589E+00
  -7.86025E+00  1.17336E+00 -2.89713E+00 -2.12336E+00 -3.66200E+00 -6.81296E+00 -2.41237E+00 -1.00307E+01 -4.99107E+00 -7.80628E+00
  -1.22138E+01 -5.99919E+00 -6.15930E+00  4.05408E+00 -2.16672E+00 -7.51889E+00 -4.35426E+00 -9.93070E+00 -7.76438E+00 -5.15018E+00
  -3.47442E+00 -1.10886E+01 -9.30053E+00 -1.01939E+01 -1.41926E+00 -4.48733E+00 -9.10441E+00 -2.34211E-01 -2.11322E-01 -4.54659E-01
  -2.46001E-01 -1.07287E+01 -8.95994E+00  1.14344E+00 -6.71263E+00 -2.85066E+00  2.28730E+00  2.01516E-02 -2.93238E+00 -1.36715E+01
  -4.56897E+00 -1.04343E+01 -8.12090E+00 -3.70544E+00 -7.89209E+00 -9.48300E+00 -6.14054E+00 -3.08705E+00 -3.76322E+00 -4.29360E+00
  -6.01042E+00 -2.66036E+00 -7.80233E+00 -2.40794E+00 -6.47689E+00  2.51118E-01 -2.74616E+00 -2.41958E+00 -1.03742E+01 -7.55974E+00
  -7.71530E+00 -5.92065E+00 -2.99518E+00 -3.20327E-02 -1.16355E+01 -1.11064E+01 -3.61628E+00 -3.34662E+00 -9.30818E+00 -3.74527E+00
  -5.16462E+00 -6.56308E-02 -8.68430E+00 -6.39459E+00  8.57605E-02 -6.12732E+00 -4.59235E+00 -9.90367E+00
 NY points of the fit to the data follow
  -1.54825E+01 -1.53862E+01 -1.57497E+01 -1.54370E+01 -1.56275E+01 -1.51289E+01 -1.47644E+01 -1.44623E+01 -1.44027E+01 -1.47364E+01
  -1.51338E+01 -1.54912E+01 -1.53771E+01 -1.64086E+01 -1.54294E+01 -1.61193E+01 -1.52737E+01 -1.54566E+01 -1.49012E+01 -1.50515E+01
  -1.40288E+01 -1.40116E+01 -1.33792E+01 -1.33309E+01 -1.34199E+01 -1.30254E+01 -1.34087E+01 -1.27672E+01 -1.30574E+01 -1.17874E+01
  -1.15986E+01 -1.02809E+01 -1.08039E+01 -1.00997E+01 -1.10139E+01 -1.00581E+01 -1.02585E+01 -8.84411E+00 -8.90559E+00 -7.96547E+00
  -8.57990E+00 -8.17618E+00 -9.16599E+00 -8.97731E+00 -9.75576E+00 -9.14991E+00 -8.88114E+00 -8.17531E+00 -8.10439E+00 -7.51237E+00
  -7.90577E+00 -7.47136E+00 -8.28264E+00 -8.48510E+00 -8.49356E+00 -8.51528E+00 -8.52463E+00 -8.57284E+00 -8.56073E+00 -8.44696E+00
  -8.05139E+00 -7.96688E+00 -7.46819E+00 -7.33601E+00 -6.96360E+00 -7.07063E+00 -7.05674E+00 -7.66864E+00 -7.89203E+00 -8.26762E+00
  -8.12104E+00 -8.56001E+00 -8.51484E+00 -8.86313E+00 -8.73497E+00 -9.02479E+00 -8.89135E+00 -9.32927E+00 -9.12365E+00 -9.81016E+00
  -9.74190E+00 -1.03034E+01 -1.01729E+01 -1.04705E+01 -1.01256E+01 -9.83500E+00 -8.95282E+00 -8.73756E+00 -7.59408E+00 -7.93390E+00
  -6.84178E+00 -6.98485E+00 -5.66739E+00 -6.12507E+00 -4.73866E+00 -5.60970E+00 -4.33409E+00 -5.35842E+00 -4.12174E+00 -5.08029E+00
  -3.82222E+00 -4.93303E+00 -3.87540E+00 -5.28907E+00 -4.56795E+00 -5.97873E+00 -5.40921E+00 -6.16719E+00 -5.02027E+00 -4.64597E+00
  -3.64295E+00 -3.00237E+00 -2.90822E+00 -2.48525E+00 -2.56472E+00 -1.34478E+00 -1.82320E+00 -5.35547E-02 -7.10282E-01  8.83478E-01
  -6.04190E-02  1.05318E+00 -1.57637E-01  5.09303E-01 -1.17068E+00  3.77151E-02 -1.53764E+00 -7.10621E-01 -2.24464E+00 -1.78712E+00
  -2.88525E+00 -2.43506E+00 -3.20515E+00 -2.69895E+00 -3.54167E+00 -3.31535E+00 -4.12191E+00 -4.11842E+00 -4.67082E+00 -4.69942E+00
  -4.79911E+00 -4.48191E+00 -4.61511E+00 -4.21718E+00 -4.69450E+00 -4.64517E+00 -5.45222E+00 -6.03509E+00 -6.05388E+00 -6.09805E+00
  -6.06511E+00 -6.10907E+00 -6.12652E+00 -6.16015E+00 -6.17889E+00 -6.10321E+00 -6.01567E+00 -5.92728E+00 -5.84548E+00 -5.79415E+00
  -5.78397E+00 -5.74277E+00 -5.75961E+00 -5.69274E+00 -5.69104E+00 -5.62236E+00 -5.61538E+00 -5.55885E+00 -5.55244E+00 -5.50704E+00
  -5.50216E+00 -5.44301E+00 -5.40085E+00 -5.31673E+00 -5.25036E+00 -5.16145E+00 -5.17410E+00 -5.14427E+00 -5.26182E+00 -5.34501E+00
  -5.47201E+00 -5.60075E+00 -5.69605E+00 -5.68530E+00 -5.58721E+00 -5.51352E+00 -5.31088E+00 -5.15157E+00 -4.93011E+00 -4.74573E+00
  -4.47881E+00 -4.53897E+00 -4.79351E+00 -4.97861E+00 -5.13471E+00 -5.26782E+00 -4.98378E+00 -5.15924E+00 -5.11489E+00 -5.31248E+00
  -5.07112E+00 -5.23911E+00 -4.83882E+00 -5.03178E+00 -4.56979E+00 -4.74128E+00 -4.22304E+00 -4.31303E+00 -3.70186E+00 -3.68285E+00
  -3.03464E+00 -3.03584E+00 -2.44497E+00 -2.55948E+00 -2.18776E+00 -2.27885E+00 -1.93747E+00 -1.87714E+00 -1.63063E+00 -1.59508E+00
  -1.49541E+00 -1.53077E+00 -1.44561E+00 -1.51965E+00 -1.72122E+00 -2.06519E+00 -2.10083E+00 -2.49568E+00 -2.02699E+00 -2.18140E+00
  -1.34609E+00 -1.90485E+00 -1.73172E+00 -2.48771E+00 -2.14021E+00 -2.80327E+00 -2.26395E+00 -2.85180E+00 -2.23242E+00 -2.80607E+00
  -2.25145E+00 -2.91911E+00 -2.44063E+00 -3.01994E+00 -2.45793E+00 -2.81593E+00 -2.19557E+00 -2.49112E+00 -1.92667E+00 -2.32390E+00
  -1.98002E+00 -2.36335E+00 -2.05302E+00 -2.33671E+00 -1.94239E+00 -1.99971E+00 -1.40205E+00 -1.57842E+00 -1.40772E+00 -1.77321E+00
  -1.71171E+00 -2.10767E+00 -2.03177E+00 -1.97508E+00 -1.77989E+00 -1.63651E+00 -1.34073E+00 -1.05728E+00 -6.99777E-01 -2.90838E-01
   2.09687E-01  7.40541E-01  1.51906E+00  2.48576E+00  3.80860E+00  5.40488E+00  7.44360E+00  9.88207E+00  1.27304E+01  1.60696E+01
   1.97883E+01  2.39362E+01  2.84188E+01  3.32177E+01  3.81808E+01  4.32402E+01  4.82072E+01  5.29849E+01  5.73629E+01  6.12494E+01
   6.44550E+01  6.69188E+01  6.85114E+01  6.92429E+01  6.90620E+01  6.80609E+01  6.62695E+01  6.38517E+01  6.09030E+01  5.76281E+01
   5.41446E+01  5.06675E+01  4.73052E+01  4.42488E+01  4.15842E+01  3.94895E+01  3.81003E+01  3.78711E+01  3.90036E+01  3.81448E+01
   3.90895E+01  3.66653E+01  3.61293E+01  3.41589E+01  3.41901E+01  3.00570E+01  3.05676E+01  2.70106E+01  2.75287E+01  2.53819E+01
   2.41126E+01  2.14234E+01  2.12396E+01  1.98356E+01  1.92463E+01  1.83605E+01  1.62915E+01  1.58629E+01  1.32260E+01  1.38444E+01
   1.24603E+01  1.39681E+01  1.31241E+01  1.43650E+01  1.21180E+01  1.28764E+01  9.71899E+00  1.00312E+01  7.84381E+00  8.93328E+00
   8.86503E+00  9.91498E+00  9.10646E+00  8.67321E+00  6.02393E+00  4.58761E+00  1.03739E+00  1.67386E+00  2.29580E+00  3.52768E+00
   4.69010E+00  6.74491E+00  7.38997E+00  9.04126E+00  7.15429E+00  6.05775E+00  5.61963E+00  5.47149E+00  5.43668E+00  5.49269E+00
   5.56518E+00  5.66996E+00  5.75109E+00  5.83423E+00  5.87015E+00  5.88944E+00  5.84759E+00  5.77930E+00  5.64423E+00  5.48056E+00
   5.25152E+00  4.99827E+00  4.68713E+00  4.36158E+00  3.99000E+00  3.61690E+00  3.21150E+00  2.81833E+00  2.40658E+00  2.01994E+00
   1.62668E+00  1.26894E+00  9.13594E-01  6.01032E-01  2.96741E-01  3.93947E-02 -2.06906E-01 -4.05148E-01 -5.92418E-01 -7.33043E-01
  -8.64996E-01 -9.53770E-01 -1.03815E+00 -1.08467E+00 -1.13269E+00 -1.14945E+00 -1.17459E+00 -1.17583E+00 -1.19283E+00 -1.19340E+00
  -1.21666E+00 -1.22998E+00 -1.27151E+00 -1.30778E+00 -1.37569E+00 -1.44065E+00 -1.53805E+00 -1.63209E+00 -1.75680E+00 -1.87552E+00
  -2.02128E+00 -2.15691E+00 -2.31487E+00 -2.45797E+00 -2.61862E+00 -2.76011E+00 -2.91519E+00 -3.04783E+00 -3.19123E+00 -3.31019E+00
  -3.43842E+00 -3.54152E+00 -3.65358E+00 -3.74075E+00 -3.83732E+00 -3.90987E+00 -3.99276E+00 -4.05283E+00 -4.12433E+00 -4.17421E+00
  -4.23653E+00 -4.27832E+00 -4.33347E+00 -4.36905E+00 -4.41869E+00 -4.44948E+00 -4.49483E+00 -4.52191E+00 -4.56397E+00 -4.58822E+00
  -4.62770E+00 -4.64969E+00 -4.68708E+00 -4.70727E+00 -4.74300E+00 -4.76177E+00 -4.79612E+00 -4.81367E+00 -4.84684E+00 -4.86339E+00
  -4.89560E+00 -4.91132E+00 -4.94268E+00 -4.95765E+00 -4.98826E+00 -5.00261E+00 -5.03259E+00 -5.04641E+00 -5.07580E+00 -5.08911E+00
  -5.11799E+00 -5.13090E+00 -5.15933E+00 -5.17185E+00 -5.19985E+00 -5.21201E+00 -5.23963E+00 -5.25152E+00 -5.27880E+00 -5.29040E+00
  -5.31734E+00 -5.32867E+00 -5.35532E+00 -5.36644E+00 -5.39281E+00 -5.40370E+00 -5.42978E+00 -5.44047E+00 -5.46632E+00 -5.47683E+00
  -5.50242E+00 -5.51272E+00 -5.53806E+00 -5.54818E+00 -5.57330E+00 -5.58324E+00 -5.60811E+00 -5.61783E+00 -5.64241E+00 -5.65193E+00
  -5.67624E+00 -5.68549E+00 -5.70944E+00 -5.71833E+00 -5.74181E+00 -5.75024E+00 -5.77309E+00 -5.78072E+00
 NY background values follow
    -2.133E+01   -2.121E+01   -2.109E+01   -2.096E+01   -2.084E+01   -2.071E+01   -2.059E+01   -2.046E+01   -2.034E+01   -2.022E+01
    -2.009E+01   -1.997E+01   -1.984E+01   -1.972E+01   -1.959E+01   -1.947E+01   -1.934E+01   -1.922E+01   -1.909E+01   -1.897E+01
    -1.885E+01   -1.872E+01   -1.860E+01   -1.847E+01   -1.835E+01   -1.823E+01   -1.810E+01   -1.798E+01   -1.786E+01   -1.773E+01
    -1.761E+01   -1.749E+01   -1.737E+01   -1.724E+01   -1.712E+01   -1.700E+01   -1.688E+01   -1.676E+01   -1.664E+01   -1.652E+01
    -1.640E+01   -1.628E+01   -1.616E+01   -1.604E+01   -1.592E+01   -1.580E+01   -1.568E+01   -1.556E+01   -1.544E+01   -1.533E+01
    -1.521E+01   -1.509E+01   -1.498E+01   -1.486E+01   -1.475E+01   -1.463E+01   -1.452E+01   -1.440E+01   -1.429E+01   -1.418E+01
    -1.406E+01   -1.395E+01   -1.384E+01   -1.373E+01   -1.362E+01   -1.351E+01   -1.340E+01   -1.329E+01   -1.318E+01   -1.307E+01
    -1.296E+01   -1.286E+01   -1.275E+01   -1.265E+01   -1.254E+01   -1.244E+01   -1.233E+01   -1.223E+01   -1.213E+01   -1.202E+01
    -1.192E+01   -1.182E+01   -1.172E+01   -1.162E+01   -1.152E+01   -1.142E+01   -1.133E+01   -1.123E+01   -1.113E+01   -1.104E+01
    -1.094E+01   -1.085E+01   -1.075E+01   -1.066E+01   -1.056E+01   -1.047E+01   -1.038E+01   -1.029E+01   -1.020E+01   -1.011E+01
    -1.002E+01   -9.928E+00   -9.840E+00   -9.752E+00   -9.664E+00   -9.577E+00   -9.491E+00   -9.406E+00   -9.321E+00   -9.236E+00
    -9.152E+00   -9.069E+00   -8.986E+00   -8.904E+00   -8.823E+00   -8.742E+00   -8.661E+00   -8.581E+00   -8.502E+00   -8.424E+00
    -8.346E+00   -8.268E+00   -8.191E+00   -8.115E+00   -8.039E+00   -7.964E+00   -7.889E+00   -7.815E+00   -7.742E+00   -7.669E+00
    -7.597E+00   -7.525E+00   -7.454E+00   -7.383E+00   -7.313E+00   -7.244E+00   -7.175E+00   -7.106E+00   -7.039E+00   -6.972E+00
    -6.905E+00   -6.839E+00   -6.774E+00   -6.709E+00   -6.644E+00   -6.581E+00   -6.518E+00   -6.455E+00   -6.393E+00   -6.332E+00
    -6.271E+00   -6.211E+00   -6.151E+00   -6.092E+00   -6.033E+00   -5.975E+00   -5.918E+00   -5.861E+00   -5.805E+00   -5.749E+00
    -5.694E+00   -5.640E+00   -5.586E+00   -5.533E+00   -5.480E+00   -5.428E+00   -5.376E+00   -5.325E+00   -5.275E+00   -5.225E+00
    -5.176E+00   -5.128E+00   -5.080E+00   -5.032E+00   -4.986E+00   -4.939E+00   -4.894E+00   -4.849E+00   -4.804E+00   -4.761E+00
    -4.718E+00   -4.675E+00   -4.633E+00   -4.592E+00   -4.551E+00   -4.511E+00   -4.471E+00   -4.432E+00   -4.394E+00   -4.356E+00
    -4.319E+00   -4.283E+00   -4.247E+00   -4.211E+00   -4.177E+00   -4.143E+00   -4.109E+00   -4.076E+00   -4.044E+00   -4.013E+00
    -3.982E+00   -3.951E+00   -3.921E+00   -3.892E+00   -3.864E+00   -3.836E+00   -3.809E+00   -3.782E+00   -3.756E+00   -3.731E+00
    -3.706E+00   -3.682E+00   -3.658E+00   -3.635E+00   -3.613E+00   -3.592E+00   -3.570E+00   -3.550E+00   -3.530E+00   -3.511E+00
    -3.492E+00   -3.474E+00   -3.457E+00   -3.440E+00   -3.424E+00   -3.408E+00   -3.393E+00   -3.378E+00   -3.364E+00   -3.350E+00
    -3.337E+00   -3.325E+00   -3.312E+00   -3.301E+00   -3.290E+00   -3.279E+00   -3.269E+00   -3.259E+00   -3.250E+00   -3.241E+00
    -3.233E+00   -3.225E+00   -3.218E+00   -3.211E+00   -3.204E+00   -3.198E+00   -3.193E+00   -3.187E+00   -3.182E+00   -3.178E+00
    -3.174E+00   -3.170E+00   -3.166E+00   -3.163E+00   -3.161E+00   -3.158E+00   -3.156E+00   -3.155E+00   -3.154E+00   -3.153E+00
    -3.152E+00   -3.151E+00   -3.151E+00   -3.152E+00   -3.152E+00   -3.153E+00   -3.154E+00   -3.155E+00   -3.157E+00   -3.159E+00
    -3.161E+00   -3.163E+00   -3.166E+00   -3.169E+00   -3.172E+00   -3.175E+00   -3.178E+00   -3.182E+00   -3.186E+00   -3.190E+00
    -3.194E+00   -3.199E+00   -3.203E+00   -3.208E+00   -3.213E+00   -3.218E+00   -3.223E+00   -3.228E+00   -3.234E+00   -3.239E+00
    -3.245E+00   -3.251E+00   -3.257E+00   -3.263E+00   -3.269E+00   -3.276E+00   -3.282E+00   -3.289E+00   -3.296E+00   -3.303E+00
    -3.310E+00   -3.317E+00   -3.324E+00   -3.332E+00   -3.339E+00   -3.347E+00   -3.355E+00   -3.363E+00   -3.371E+00   -3.379E+00
    -3.387E+00   -3.396E+00   -3.404E+00   -3.413E+00   -3.422E+00   -3.431E+00   -3.440E+00   -3.449E+00   -3.458E+00   -3.467E+00
    -3.477E+00   -3.486E+00   -3.496E+00   -3.506E+00   -3.516E+00   -3.526E+00   -3.536E+00   -3.546E+00   -3.556E+00   -3.567E+00
    -3.577E+00   -3.588E+00   -3.598E+00   -3.609E+00   -3.620E+00   -3.631E+00   -3.642E+00   -3.653E+00   -3.665E+00   -3.676E+00
    -3.687E+00   -3.699E+00   -3.710E+00   -3.722E+00   -3.734E+00   -3.746E+00   -3.758E+00   -3.770E+00   -3.782E+00   -3.794E+00
    -3.806E+00   -3.819E+00   -3.831E+00   -3.843E+00   -3.856E+00   -3.869E+00   -3.881E+00   -3.894E+00   -3.907E+00   -3.920E+00
    -3.933E+00   -3.946E+00   -3.959E+00   -3.972E+00   -3.985E+00   -3.999E+00   -4.012E+00   -4.025E+00   -4.039E+00   -4.052E+00
    -4.066E+00   -4.080E+00   -4.093E+00   -4.107E+00   -4.121E+00   -4.135E+00   -4.149E+00   -4.163E+00   -4.177E+00   -4.191E+00
    -4.205E+00   -4.219E+00   -4.233E+00   -4.248E+00   -4.262E+00   -4.276E+00   -4.291E+00   -4.305E+00   -4.320E+00   -4.334E+00
    -4.349E+00   -4.363E+00   -4.378E+00   -4.392E+00   -4.407E+00   -4.422E+00   -4.436E+00   -4.451E+00   -4.466E+00   -4.481E+00
    -4.496E+00   -4.510E+00   -4.525E+00   -4.540E+00   -4.555E+00   -4.570E+00   -4.585E+00   -4.600E+00   -4.615E+00   -4.630E+00
    -4.645E+00   -4.660E+00   -4.675E+00   -4.690E+00   -4.705E+00   -4.721E+00   -4.736E+00   -4.751E+00   -4.766E+00   -4.781E+00
    -4.796E+00   -4.811E+00   -4.826E+00   -4.842E+00   -4.857E+00   -4.872E+00   -4.887E+00   -4.902E+00   -4.917E+00   -4.932E+00
    -4.948E+00   -4.963E+00   -4.978E+00   -4.993E+00   -5.008E+00   -5.023E+00   -5.038E+00   -5.054E+00   -5.069E+00   -5.084E+00
    -5.099E+00   -5.114E+00   -5.129E+00   -5.144E+00   -5.159E+00   -5.174E+00   -5.189E+00   -5.204E+00   -5.220E+00   -5.235E+00
    -5.250E+00   -5.265E+00   -5.280E+00   -5.295E+00   -5.310E+00   -5.325E+00   -5.340E+00   -5.355E+00   -5.370E+00   -5.385E+00
    -5.400E+00   -5.415E+00   -5.430E+00   -5.445E+00   -5.460E+00   -5.475E+00   -5.490E+00   -5.505E+00   -5.520E+00   -5.535E+00
    -5.550E+00   -5.565E+00   -5.580E+00   -5.595E+00   -5.610E+00   -5.625E+00   -5.640E+00   -5.655E+00   -5.670E+00   -5.685E+00
    -5.700E+00   -5.715E+00   -5.729E+00   -5.744E+00   -5.759E+00   -5.774E+00   -5.789E+00   -5.804E+00   -5.819E+00   -5.834E+00
    -5.848E+00   -5.863E+00   -5.878E+00   -5.893E+00   -5.908E+00   -5.923E+00   -5.937E+00   -5.952E+00
 Ala      Conc. = 4.32E+03
