 LCModel (Version 6.3-1L) Copyright: S.W. Provencher.          Ref.: Magn. Reson. Med. 30:672-679 (1993).                
 Slice#2 Row#8 Col#9  PD_24_press_2_raw_act
 36 lines in following concentration table = NCONC+1
    Conc.  %SD /Cr+PCr  Metabolite                                         
    0.000 999%   0.000 Ala                                                 
    0.000 999%   0.000 Asp                                                 
  571.697  55%   0.231 Cr                                                  
 1.90E+03  17%   0.769 PCr                                                 
    0.000 999%   0.000 GABA                                                
    0.000 999%   0.000 Glc                                                 
 1.40E+03  22%   0.568 Gln                                                 
 2.32E+03  15%   0.937 Glu                                                 
 1.12E+03   3%   0.454 GPC                                                 
    0.000 999%   0.000 PCh                                                 
  548.863  18%   0.222 GSH                                                 
 2.19E+03  16%   0.887 Ins                                                 
  354.303  46%   0.143 Lac                                                 
 4.36E+03   4%   1.762 NAA                                                 
   12.677 999% 5.1E-03 NAAG                                                
  256.858  16%   0.104 Scyllo                                              
    0.000 999%   0.000 Tau                                                 
  414.252  38%   0.167 -CrCH2                                              
 1.12E+03   3%   0.454 GPC+PCh                                             
 4.37E+03   3%   1.767 NAA+NAAG                                            
 2.47E+03   3%   1.000 Cr+PCr                                              
 3.72E+03  13%   1.504 Glu+Gln                                             
 2.76E+03  36%   1.115 Lip13a                                              
    0.000 999%   0.000 Lip13b                                              
  650.946  65%   0.263 Lip09                                               
 2.22E+03  21%   0.896 MM09                                                
  480.072  56%   0.194 Lip20                                               
 4.59E+03  13%   1.855 MM20                                                
  739.787  50%   0.299 MM12                                                
 2.13E+03  28%   0.861 MM14                                                
    0.000 999%   0.000 MM17                                                
 2.76E+03  36%   1.115 Lip13a+Lip13b                                       
 5.63E+03  12%   2.276 MM14+Lip13a+Lip13b+MM12                             
 2.87E+03  12%   1.159 MM09+Lip09                                          
 5.07E+03  11%   2.049 MM20+Lip20                                          
   6 lines in following misc. output table
  FWHM = 0.054 ppm    S/N =  17                                            
  Data shift = 0.008 ppm                                                   
  Ph: -31 deg     -12.5 deg/ppm                                            
  alphaB,S = 5.3E-01,   1.7E+02                                            
   14 spline knots.   Ns = 7(1)                                            
  (12) 4 infls.   ( 5) 1 extrs.                                            
  498 points on ppm-axis = NY
      4.000000     3.992357     3.984714     3.977070     3.969427     3.961784     3.954141     3.946497     3.938854     3.931211
      3.923568     3.915925     3.908281     3.900638     3.892995     3.885352     3.877708     3.870065     3.862422     3.854779
      3.847136     3.839492     3.831849     3.824206     3.816563     3.808919     3.801276     3.793633     3.785990     3.778347
      3.770703     3.763060     3.755417     3.747774     3.740130     3.732487     3.724844     3.717201     3.709558     3.701914
      3.694271     3.686628     3.678985     3.671341     3.663698     3.656055     3.648412     3.640769     3.633125     3.625482
      3.617839     3.610196     3.602552     3.594909     3.587266     3.579623     3.571980     3.564336     3.556693     3.549050
      3.541407     3.533763     3.526120     3.518477     3.510834     3.503191     3.495547     3.487904     3.480261     3.472618
      3.464974     3.457331     3.449688     3.442045     3.434402     3.426758     3.419115     3.411472     3.403829     3.396185
      3.388542     3.380899     3.373256     3.365613     3.357969     3.350326     3.342683     3.335040     3.327396     3.319753
      3.312110     3.304467     3.296824     3.289180     3.281537     3.273894     3.266251     3.258607     3.250964     3.243321
      3.235678     3.228034     3.220391     3.212748     3.205105     3.197462     3.189818     3.182175     3.174532     3.166889
      3.159245     3.151602     3.143959     3.136316     3.128673     3.121029     3.113386     3.105743     3.098100     3.090456
      3.082813     3.075170     3.067527     3.059884     3.052240     3.044597     3.036954     3.029311     3.021667     3.014024
      3.006381     2.998738     2.991095     2.983451     2.975808     2.968165     2.960522     2.952878     2.945235     2.937592
      2.929949     2.922306     2.914662     2.907019     2.899376     2.891733     2.884089     2.876446     2.868803     2.861160
      2.853517     2.845873     2.838230     2.830587     2.822944     2.815300     2.807657     2.800014     2.792371     2.784728
      2.777084     2.769441     2.761798     2.754155     2.746511     2.738868     2.731225     2.723582     2.715939     2.708295
      2.700652     2.693009     2.685366     2.677722     2.670079     2.662436     2.654793     2.647150     2.639506     2.631863
      2.624220     2.616577     2.608933     2.601290     2.593647     2.586004     2.578361     2.570717     2.563074     2.555431
      2.547788     2.540144     2.532501     2.524858     2.517215     2.509572     2.501928     2.494285     2.486642     2.478999
      2.471355     2.463712     2.456069     2.448426     2.440783     2.433139     2.425496     2.417853     2.410210     2.402566
      2.394923     2.387280     2.379637     2.371994     2.364350     2.356707     2.349064     2.341421     2.333777     2.326134
      2.318491     2.310848     2.303205     2.295561     2.287918     2.280275     2.272632     2.264988     2.257345     2.249702
      2.242059     2.234416     2.226772     2.219129     2.211486     2.203843     2.196199     2.188556     2.180913     2.173270
      2.165627     2.157983     2.150340     2.142697     2.135054     2.127410     2.119767     2.112124     2.104481     2.096838
      2.089194     2.081551     2.073908     2.066265     2.058621     2.050978     2.043335     2.035692     2.028049     2.020405
      2.012762     2.005119     1.997476     1.989833     1.982190     1.974546     1.966903     1.959260     1.951617     1.943974
      1.936331     1.928688     1.921045     1.913402     1.905759     1.898115     1.890472     1.882829     1.875186     1.867543
      1.859900     1.852257     1.844614     1.836971     1.829327     1.821684     1.814041     1.806398     1.798755     1.791112
      1.783469     1.775826     1.768183     1.760540     1.752896     1.745253     1.737610     1.729967     1.722324     1.714681
      1.707038     1.699395     1.691752     1.684108     1.676465     1.668822     1.661179     1.653536     1.645893     1.638250
      1.630607     1.622964     1.615321     1.607677     1.600034     1.592391     1.584748     1.577105     1.569462     1.561819
      1.554176     1.546533     1.538890     1.531246     1.523603     1.515960     1.508317     1.500674     1.493031     1.485388
      1.477745     1.470102     1.462458     1.454815     1.447172     1.439529     1.431886     1.424243     1.416600     1.408957
      1.401314     1.393671     1.386027     1.378384     1.370741     1.363098     1.355455     1.347812     1.340169     1.332526
      1.324883     1.317240     1.309596     1.301953     1.294310     1.286667     1.279024     1.271381     1.263738     1.256095
      1.248452     1.240808     1.233165     1.225522     1.217879     1.210236     1.202593     1.194950     1.187307     1.179664
      1.172021     1.164377     1.156734     1.149091     1.141448     1.133805     1.126162     1.118519     1.110876     1.103233
      1.095590     1.087946     1.080303     1.072660     1.065017     1.057374     1.049731     1.042088     1.034445     1.026802
      1.019158     1.011515     1.003872     0.996229     0.988586     0.980943     0.973300     0.965657     0.958014     0.950371
      0.942727     0.935084     0.927441     0.919798     0.912155     0.904512     0.896869     0.889226     0.881583     0.873940
      0.866296     0.858653     0.851010     0.843367     0.835724     0.828081     0.820438     0.812795     0.805152     0.797508
      0.789865     0.782222     0.774579     0.766936     0.759293     0.751650     0.744007     0.736364     0.728721     0.721077
      0.713434     0.705791     0.698148     0.690505     0.682862     0.675219     0.667576     0.659933     0.652290     0.644646
      0.637003     0.629360     0.621717     0.614074     0.606431     0.598788     0.591145     0.583502     0.575858     0.568215
      0.560572     0.552929     0.545286     0.537643     0.530000     0.522357     0.514714     0.507071     0.499427     0.491784
      0.484141     0.476498     0.468855     0.461212     0.453569     0.445925     0.438282     0.430639     0.422996     0.415353
      0.407710     0.400067     0.392424     0.384780     0.377137     0.369494     0.361851     0.354208     0.346565     0.338922
      0.331278     0.323635     0.315992     0.308349     0.300706     0.293063     0.285420     0.277777     0.270133     0.262490
      0.254847     0.247204     0.239561     0.231918     0.224275     0.216631     0.208988     0.201345
 NY phased data points follow
  -4.36282E+00 -5.61547E+00 -1.73676E+00 -4.75972E-02  6.18882E+00  1.38434E+01  1.40191E+01  2.66158E+01  2.99243E+01  3.97341E+01
   4.13111E+01  4.63512E+01  4.16123E+01  3.64795E+01  1.64415E+01  1.69857E+01  1.21575E+01  9.85818E+00 -3.17322E-01 -2.02550E+00
  -2.00695E+00  3.49923E-01 -2.51106E+00 -2.42829E+00  7.25661E-01  5.39352E+00  5.11317E+00 -7.48675E-01  4.21900E+00  6.45610E+00
   3.81897E+00  7.39294E+00  9.83122E+00  1.30271E+01  6.00982E+00  1.38446E+01  2.69777E+00  2.01984E-01  1.14865E+00  1.50090E+00
   5.32778E+00  5.21830E+00  9.35935E+00  1.01284E+01  8.89405E+00  1.20805E+01  1.65166E+01  2.14886E+01  1.95304E+01  1.74514E+01
   1.12185E+01  9.50663E+00  9.54368E+00  7.42738E+00  3.68360E+00  6.74017E+00  1.25906E+01  7.30339E+00  4.79476E+00 -3.87974E+00
  -1.28544E+00 -4.57604E+00 -1.30023E+01 -9.51143E+00 -9.98405E+00 -1.06368E+01 -1.14580E+01 -8.01196E+00 -1.36277E+01 -7.99343E+00
  -9.91379E+00 -8.82128E+00 -1.26039E+01 -6.21837E+00 -1.02816E+01 -5.02865E+00 -4.77440E+00 -1.11405E+00 -3.85167E+00 -3.46896E+00
  -6.38824E+00 -2.67951E+00  7.37341E-01  1.93213E+00 -7.64613E-01  9.96879E-01  4.27144E+00  3.73933E-01  1.88245E+00  8.99186E-01
   6.54127E-01 -1.18492E+00  2.80603E+00  2.33676E+00  6.76281E+00  5.68413E+00  2.59367E+00  1.45546E+01  2.24949E+01  3.70841E+01
   4.71056E+01  6.73259E+01  8.20623E+01  9.17210E+01  9.46468E+01  7.81070E+01  5.94051E+01  3.79207E+01  2.65173E+01  2.13375E+01
   8.06380E+00  7.38815E+00  2.60391E+00  3.61681E+00 -4.14933E+00 -2.63302E+00 -2.55491E+00 -1.91011E+00 -1.05797E+01 -2.15213E+00
  -6.50369E+00  3.88286E+00  1.06020E+01  2.37209E+01  3.38383E+01  5.06307E+01  6.61081E+01  8.00165E+01  7.94481E+01  6.48883E+01
   4.88742E+01  3.42333E+01  2.53264E+01  1.72302E+01  8.57499E+00  7.87501E+00  2.35060E+00 -8.60674E-01 -4.58426E-01 -1.38950E+00
  -4.98104E+00  5.51989E+00 -2.13913E+00 -2.97082E+00 -3.99773E+00 -7.27298E+00 -5.16160E+00 -2.38401E+00 -2.53070E+00 -5.86753E+00
  -7.40839E+00 -1.65415E+00 -8.98478E+00 -1.37203E+00 -6.41703E+00 -4.39830E+00 -7.01292E+00 -9.49530E+00 -6.11636E+00 -3.99249E+00
  -6.49210E+00 -7.77046E+00 -1.22449E+01 -1.32227E+01 -1.46265E+01 -9.72943E+00 -1.33062E+01 -1.30320E+01 -2.14857E+01 -1.43622E+01
  -1.85607E+01 -1.74169E+01 -2.56465E+01 -1.90936E+01 -2.24436E+01 -2.70691E+01 -2.55495E+01 -2.65407E+01 -2.30885E+01 -2.04883E+01
  -1.93884E+01 -2.02083E+01 -2.09249E+01 -1.98249E+01 -1.83381E+01 -2.38012E+01 -2.13824E+01 -1.66715E+01 -2.55294E+01 -1.12463E+01
  -9.34749E+00  9.01286E-02 -4.11740E+00 -9.42813E-01 -4.22675E+00 -1.99880E+00 -7.29729E+00 -6.98013E+00 -7.73191E+00 -1.86679E+00
  -1.02068E+01 -5.60842E+00 -4.04039E+00  4.29486E+00  2.19977E+00  4.41300E+00 -7.03688E-01 -7.04836E+00 -9.21834E+00 -9.30190E+00
  -5.25747E+00 -1.68863E+00 -3.72783E+00  4.95361E+00  9.20239E+00  1.40051E+01  8.51262E+00  1.16332E+01  9.24346E+00  6.11391E+00
   8.43327E-01 -3.15648E+00 -7.27959E+00 -6.23238E+00 -6.59754E+00 -1.52191E+00  4.03314E+00  1.11948E+01  4.95078E+00  9.76169E+00
   1.11437E+01  6.12928E+00  6.63384E+00  7.05387E+00  5.93489E+00  8.63683E+00  7.39857E+00  4.43524E+00  7.59915E+00  5.53943E+00
   2.77316E+00  6.57980E+00 -4.11927E-01  1.80165E+00 -2.48813E+00  1.94781E-01  1.35909E+00  9.10369E+00  2.30106E+00  1.02306E+01
   1.28695E+01  1.18768E+01  1.12766E+01  2.58972E+01  2.57095E+01  4.69348E+01  6.44690E+01  8.36556E+01  9.91541E+01  1.21781E+02
   1.45357E+02  1.52044E+02  1.43839E+02  1.08818E+02  8.24073E+01  6.08569E+01  4.44819E+01  3.13288E+01  2.32916E+01  2.01195E+01
   1.29828E+01  8.67502E+00  6.86793E+00  8.92923E+00 -1.20873E-01  1.39554E+00  3.64588E-01  3.19116E+00 -1.52797E-01  7.61674E-01
  -4.13402E+00 -3.97824E+00  1.36133E+00  1.25215E-01 -1.51751E+00 -1.63316E+00 -2.29095E+00 -1.65167E-03 -1.84231E+00 -2.65401E+00
  -2.27360E+00 -8.60424E-01 -7.56774E+00 -5.71123E-01 -9.66884E+00 -1.40090E+00 -6.53636E+00 -3.48136E+00 -9.52840E+00 -7.12779E+00
  -6.87632E+00 -7.21549E+00 -6.58998E+00 -5.67334E+00 -7.04363E+00  2.06868E+00 -5.40597E+00  8.91316E-01 -2.55609E+00 -5.50349E+00
  -5.63887E+00  5.36183E+00 -3.55298E+00 -8.92813E-01 -1.69513E+00  6.64076E-01  5.19970E+00  2.32893E+00 -2.04508E+00  4.09822E+00
   1.80609E-02  2.37166E+00 -3.14001E+00  1.22323E-03 -4.83679E+00 -3.42834E+00  2.55557E+00  4.28893E-01 -3.12286E+00  4.20765E+00
   2.75759E+00  7.73112E+00  1.08202E+01  6.95905E+00  1.57563E+01  1.81718E+01  1.28101E+01  1.79858E+01  1.50520E+01  1.42502E+01
   1.77206E+01  1.86904E+01  1.85174E+01  1.80943E+01  1.81897E+01  2.03313E+01  1.98515E+01  2.25413E+01  1.80423E+01  1.69855E+01
   9.32584E+00  1.37073E+01  1.49729E+01  1.53351E+01  1.90969E+01  1.84300E+01  1.58918E+01  1.89301E+01  1.53377E+01  1.87865E+01
   1.51538E+01  1.75773E+01  1.49297E+01  1.40846E+01  1.63105E+01  1.32552E+01  1.11088E+01  1.14407E+01  1.21838E+01  1.31170E+01
   7.40146E+00  1.61269E+01  8.88478E+00  1.17960E+01  1.42525E+01  1.04774E+01  6.16571E+00  1.26098E+01  4.61541E+00  7.77686E+00
   1.08647E+01  9.28462E+00  5.60515E+00  1.04908E+01  5.15966E+00  1.12892E+01  9.78186E+00  7.85522E+00  5.42322E+00  1.18258E+01
   9.34383E+00  1.03877E+01  8.22693E+00  1.42247E+01  1.45540E+01  1.27310E+01  1.59722E+01  1.71451E+01  1.80805E+01  2.02525E+01
   2.04656E+01  1.77418E+01  1.65289E+01  1.87890E+01  1.53530E+01  2.57587E+01  2.14464E+01  2.04683E+01  2.01926E+01  2.49889E+01
   2.00836E+01  2.30716E+01  2.24973E+01  2.07398E+01  2.04073E+01  2.07480E+01  2.12145E+01  1.32254E+01  1.69860E+01  1.90198E+01
   9.00092E+00  1.59992E+01  1.24205E+01  1.33949E+01  1.45199E+01  1.27834E+01  1.10986E+01  1.13511E+01  6.81975E+00  7.25204E+00
   1.65678E+00  8.99178E+00  6.10747E+00  8.41778E+00  1.15366E+01  1.19565E+01  7.16132E+00  7.70089E+00  1.08886E+01  1.08351E+01
   7.82386E+00  7.83668E+00  6.00302E+00  9.21521E+00  9.92352E+00  7.07155E+00  7.08762E+00  4.61068E+00  7.83122E+00  6.81912E+00
   6.63467E+00  3.68163E+00  4.88922E+00  7.06863E+00  5.11155E+00  1.50230E+01  5.41796E+00  1.02239E+01  6.33684E+00  1.20382E+01
   2.34334E+00  7.36567E+00  8.31551E+00  3.27838E+00  5.58547E+00  1.06077E+01  5.62496E+00  9.31479E+00  4.59058E+00  4.77130E+00
   4.70963E+00  8.45172E+00  2.90327E+00  6.40921E+00  5.13336E+00  7.15860E+00  6.49751E+00  7.77178E+00  5.54654E+00  7.44574E+00
   1.08701E+01  1.12024E+01  7.16594E+00  1.12413E+01  8.30464E+00  9.69109E+00  1.23642E+01  1.03089E+01  5.42735E+00  6.38567E+00
   1.09671E+01  1.19820E+01  6.98010E+00  7.40464E+00  6.83615E+00  9.31136E+00  8.56643E+00  4.52512E+00
 NY points of the fit to the data follow
  -3.15025E+00 -3.52895E+00 -2.61148E+00  3.17790E-01  4.95067E+00  1.08333E+01  1.74921E+01  2.48701E+01  3.27346E+01  3.98170E+01
   4.39940E+01  4.35051E+01  3.84259E+01  3.08620E+01  2.34070E+01  1.75091E+01  1.30311E+01  9.05731E+00  5.60200E+00  3.38351E+00
   1.90620E+00  8.34371E-01 -1.75814E-01 -9.00241E-01 -1.13254E+00 -8.70832E-01 -6.90670E-02  1.43378E+00  3.89568E+00  7.17533E+00
   1.06155E+01  1.32087E+01  1.40369E+01  1.29250E+01  1.04159E+01  7.32004E+00  4.45170E+00  2.01284E+00  8.19156E-02 -7.20711E-01
  -5.12593E-02  1.77945E+00  4.15396E+00  6.66276E+00  9.23252E+00  1.17214E+01  1.38378E+01  1.49271E+01  1.42310E+01  1.16930E+01
   8.02884E+00  4.38723E+00  1.72880E+00  1.13287E-01 -8.86228E-01 -1.38996E+00 -1.26191E+00 -6.48167E-01  4.92735E-02  5.57995E-01
   6.48429E-01  1.06777E-01 -1.04610E+00 -2.52018E+00 -3.81005E+00 -4.50826E+00 -4.61698E+00 -4.33927E+00 -3.82221E+00 -3.21941E+00
  -2.64145E+00 -2.19476E+00 -2.01874E+00 -2.17793E+00 -2.63419E+00 -3.23336E+00 -3.77815E+00 -4.18706E+00 -4.44879E+00 -4.53063E+00
  -4.04967E+00 -3.05637E+00 -1.90700E+00 -6.98141E-01  6.59234E-01  2.17789E+00  3.50103E+00  3.98516E+00  3.16788E+00  1.26851E+00
  -9.15922E-01 -2.60040E+00 -3.53219E+00 -3.96336E+00 -4.12887E+00 -3.10930E+00  2.14356E+00  1.15170E+01  2.30029E+01  3.59955E+01
   5.09904E+01  6.78649E+01  8.37430E+01  9.32150E+01  9.16282E+01  7.89079E+01  6.01725E+01  4.20312E+01  2.81030E+01  1.78902E+01
   9.15617E+00  1.45310E+00 -2.75265E+00 -4.19643E+00 -4.84692E+00 -5.21603E+00 -5.43200E+00 -5.51431E+00 -5.39117E+00 -4.60007E+00
  -1.07228E+00  6.17754E+00  1.54894E+01  2.58893E+01  3.75548E+01  5.08214E+01  6.42470E+01  7.39090E+01  7.54208E+01  6.73627E+01
   5.30039E+01  3.79786E+01  2.60846E+01  1.74665E+01  1.00806E+01  2.83059E+00 -2.20993E+00 -4.14564E+00 -4.76784E+00 -4.65402E+00
  -4.16032E+00 -3.65109E+00 -3.34457E+00 -3.28579E+00 -3.49859E+00 -3.90654E+00 -4.36761E+00 -4.82568E+00 -5.27606E+00 -5.69292E+00
  -6.07893E+00 -6.37743E+00 -6.60256E+00 -6.78055E+00 -7.03263E+00 -7.40896E+00 -7.83664E+00 -8.25505E+00 -8.61173E+00 -9.01905E+00
  -9.56752E+00 -1.00648E+01 -1.02071E+01 -9.88428E+00 -9.38162E+00 -9.20351E+00 -9.67303E+00 -1.06918E+01 -1.18504E+01 -1.28605E+01
  -1.38044E+01 -1.46594E+01 -1.54119E+01 -1.61027E+01 -1.67227E+01 -1.72548E+01 -1.74962E+01 -1.72328E+01 -1.66072E+01 -1.60681E+01
  -1.60256E+01 -1.63650E+01 -1.65350E+01 -1.61883E+01 -1.54132E+01 -1.45494E+01 -1.36730E+01 -1.23742E+01 -1.04282E+01 -8.09067E+00
  -5.99066E+00 -4.77192E+00 -4.54132E+00 -4.98385E+00 -5.61801E+00 -6.11116E+00 -6.39439E+00 -6.25210E+00 -5.44201E+00 -3.99360E+00
  -2.06045E+00 -2.06681E-02  1.57443E+00  2.07142E+00  1.36467E+00 -4.98066E-01 -3.43078E+00 -7.14605E+00 -1.07656E+01 -1.30646E+01
  -1.32203E+01 -1.14515E+01 -8.36998E+00 -4.51320E+00 -4.57949E-01  2.99186E+00  4.82541E+00  4.37673E+00  1.78579E+00 -2.28590E+00
  -6.43736E+00 -9.59765E+00 -1.13218E+01 -1.12218E+01 -9.18950E+00 -5.68490E+00 -1.70208E+00  1.50284E+00  3.44525E+00  4.26659E+00
   4.49178E+00  4.44333E+00  4.21580E+00  4.14321E+00  4.58495E+00  5.44139E+00  6.46035E+00  7.47361E+00  8.22405E+00  8.40859E+00
   7.77105E+00  6.43135E+00  5.02704E+00  4.23433E+00  4.30445E+00  5.09530E+00  6.42277E+00  7.92768E+00  9.26211E+00  1.03746E+01
   1.14199E+01  1.24998E+01  1.40605E+01  1.90929E+01  3.06416E+01  4.61368E+01  6.32638E+01  8.20229E+01  1.03477E+02  1.26233E+02
   1.44303E+02  1.49690E+02  1.38331E+02  1.14079E+02  8.64217E+01  6.32845E+01  4.65468E+01  3.33405E+01  2.09403E+01  1.15164E+01
   7.72064E+00  6.00526E+00  4.90590E+00  4.19279E+00  3.73559E+00  3.32336E+00  2.87617E+00  2.36660E+00  1.80747E+00  1.24000E+00
   6.97918E-01  1.83264E-01 -2.91139E-01 -6.93760E-01 -1.02265E+00 -1.30616E+00 -1.56530E+00 -1.80424E+00 -2.01871E+00 -2.20891E+00
  -2.38509E+00 -2.54466E+00 -2.68308E+00 -2.80111E+00 -2.90120E+00 -2.98549E+00 -3.05466E+00 -3.10910E+00 -3.15042E+00 -3.17847E+00
  -3.19372E+00 -3.19714E+00 -3.18834E+00 -3.16669E+00 -3.13251E+00 -3.08711E+00 -3.03124E+00 -2.96403E+00 -2.88313E+00 -2.78593E+00
  -2.67061E+00 -2.53613E+00 -2.38070E+00 -2.20122E+00 -1.99442E+00 -1.75706E+00 -1.48634E+00 -1.17962E+00 -8.33847E-01 -4.45560E-01
  -1.12726E-02  4.71634E-01  1.00476E+00  1.58886E+00  2.22434E+00  2.91096E+00  3.64731E+00  4.43017E+00  5.25474E+00  6.11513E+00
   7.00491E+00  7.91702E+00  8.84359E+00  9.77606E+00  1.07062E+01  1.16273E+01  1.25355E+01  1.34317E+01  1.43261E+01  1.52554E+01
   1.62970E+01  1.73616E+01  1.82651E+01  1.89605E+01  1.94554E+01  1.96973E+01  1.94984E+01  1.86575E+01  1.73227E+01  1.58771E+01
   1.47332E+01  1.41854E+01  1.42957E+01  1.49647E+01  1.60148E+01  1.72193E+01  1.83213E+01  1.89176E+01  1.88239E+01  1.82950E+01
   1.76316E+01  1.69630E+01  1.62361E+01  1.53852E+01  1.45782E+01  1.38860E+01  1.32481E+01  1.26401E+01  1.20547E+01  1.14912E+01
   1.09517E+01  1.04395E+01  9.95821E+00  9.51157E+00  9.10359E+00  8.73820E+00  8.41912E+00  8.14952E+00  7.93227E+00  7.77003E+00
   7.66561E+00  7.62170E+00  7.64088E+00  7.72534E+00  7.87722E+00  8.09862E+00  8.39172E+00  8.75825E+00  9.19931E+00  9.71494E+00
   1.03043E+01  1.09654E+01  1.16949E+01  1.24871E+01  1.33346E+01  1.42270E+01  1.51522E+01  1.60957E+01  1.70412E+01  1.79704E+01
   1.88638E+01  1.97011E+01  2.04626E+01  2.11295E+01  2.16852E+01  2.21149E+01  2.24076E+01  2.25556E+01  2.25561E+01  2.24105E+01
   2.21242E+01  2.17064E+01  2.11699E+01  2.05302E+01  1.98050E+01  1.90134E+01  1.81743E+01  1.73064E+01  1.64272E+01  1.55529E+01
   1.46977E+01  1.38734E+01  1.30893E+01  1.23522E+01  1.16667E+01  1.10359E+01  1.04608E+01  9.94085E+00  9.47431E+00  9.05843E+00
   8.69018E+00  8.36616E+00  8.08281E+00  7.83625E+00  7.62272E+00  7.43866E+00  7.28101E+00  7.14692E+00  7.03377E+00  6.93895E+00
   6.86025E+00  6.79572E+00  6.74393E+00  6.70347E+00  6.67305E+00  6.65133E+00  6.63729E+00  6.63013E+00  6.62931E+00  6.63416E+00
   6.64404E+00  6.65823E+00  6.67633E+00  6.69806E+00  6.72324E+00  6.75148E+00  6.78242E+00  6.81566E+00  6.85112E+00  6.88871E+00
   6.92837E+00  6.96979E+00  7.01275E+00  7.05704E+00  7.10273E+00  7.14980E+00  7.19819E+00  7.24763E+00  7.29797E+00  7.34915E+00
   7.40133E+00  7.45445E+00  7.50845E+00  7.56308E+00  7.61830E+00  7.67414E+00  7.73075E+00  7.78805E+00  7.84594E+00  7.90421E+00
   7.96293E+00  8.02216E+00  8.08204E+00  8.14242E+00  8.20320E+00  8.26426E+00  8.32573E+00  8.38768E+00  8.45021E+00  8.51311E+00
   8.57632E+00  8.63978E+00  8.70370E+00  8.76810E+00  8.83303E+00  8.89828E+00  8.96383E+00  9.02973E+00
 NY background values follow
    -8.559E+00   -8.558E+00   -8.557E+00   -8.556E+00   -8.555E+00   -8.554E+00   -8.553E+00   -8.552E+00   -8.551E+00   -8.550E+00
    -8.550E+00   -8.549E+00   -8.548E+00   -8.547E+00   -8.546E+00   -8.546E+00   -8.545E+00   -8.545E+00   -8.544E+00   -8.544E+00
    -8.544E+00   -8.544E+00   -8.544E+00   -8.544E+00   -8.545E+00   -8.545E+00   -8.546E+00   -8.547E+00   -8.548E+00   -8.549E+00
    -8.551E+00   -8.552E+00   -8.554E+00   -8.556E+00   -8.559E+00   -8.561E+00   -8.564E+00   -8.567E+00   -8.571E+00   -8.574E+00
    -8.578E+00   -8.583E+00   -8.587E+00   -8.592E+00   -8.597E+00   -8.603E+00   -8.609E+00   -8.615E+00   -8.621E+00   -8.628E+00
    -8.635E+00   -8.643E+00   -8.651E+00   -8.659E+00   -8.667E+00   -8.676E+00   -8.685E+00   -8.694E+00   -8.703E+00   -8.713E+00
    -8.723E+00   -8.733E+00   -8.744E+00   -8.755E+00   -8.765E+00   -8.777E+00   -8.788E+00   -8.799E+00   -8.811E+00   -8.823E+00
    -8.835E+00   -8.848E+00   -8.860E+00   -8.873E+00   -8.886E+00   -8.899E+00   -8.912E+00   -8.925E+00   -8.938E+00   -8.952E+00
    -8.965E+00   -8.979E+00   -8.993E+00   -9.007E+00   -9.021E+00   -9.035E+00   -9.049E+00   -9.064E+00   -9.078E+00   -9.092E+00
    -9.107E+00   -9.121E+00   -9.136E+00   -9.151E+00   -9.165E+00   -9.180E+00   -9.195E+00   -9.209E+00   -9.224E+00   -9.239E+00
    -9.254E+00   -9.269E+00   -9.283E+00   -9.298E+00   -9.313E+00   -9.328E+00   -9.343E+00   -9.357E+00   -9.372E+00   -9.387E+00
    -9.402E+00   -9.417E+00   -9.431E+00   -9.446E+00   -9.461E+00   -9.475E+00   -9.490E+00   -9.504E+00   -9.519E+00   -9.533E+00
    -9.548E+00   -9.562E+00   -9.577E+00   -9.591E+00   -9.605E+00   -9.619E+00   -9.633E+00   -9.647E+00   -9.661E+00   -9.675E+00
    -9.688E+00   -9.702E+00   -9.716E+00   -9.729E+00   -9.742E+00   -9.756E+00   -9.769E+00   -9.782E+00   -9.794E+00   -9.807E+00
    -9.820E+00   -9.832E+00   -9.844E+00   -9.855E+00   -9.866E+00   -9.877E+00   -9.887E+00   -9.897E+00   -9.906E+00   -9.915E+00
    -9.923E+00   -9.931E+00   -9.937E+00   -9.944E+00   -9.949E+00   -9.954E+00   -9.957E+00   -9.960E+00   -9.963E+00   -9.964E+00
    -9.964E+00   -9.963E+00   -9.962E+00   -9.959E+00   -9.955E+00   -9.950E+00   -9.944E+00   -9.936E+00   -9.928E+00   -9.918E+00
    -9.907E+00   -9.894E+00   -9.880E+00   -9.865E+00   -9.848E+00   -9.830E+00   -9.810E+00   -9.789E+00   -9.766E+00   -9.742E+00
    -9.715E+00   -9.688E+00   -9.658E+00   -9.627E+00   -9.594E+00   -9.560E+00   -9.524E+00   -9.487E+00   -9.449E+00   -9.410E+00
    -9.369E+00   -9.327E+00   -9.285E+00   -9.242E+00   -9.198E+00   -9.153E+00   -9.107E+00   -9.061E+00   -9.014E+00   -8.967E+00
    -8.920E+00   -8.872E+00   -8.825E+00   -8.777E+00   -8.729E+00   -8.681E+00   -8.633E+00   -8.585E+00   -8.538E+00   -8.491E+00
    -8.444E+00   -8.398E+00   -8.352E+00   -8.307E+00   -8.263E+00   -8.220E+00   -8.177E+00   -8.135E+00   -8.095E+00   -8.055E+00
    -8.017E+00   -7.979E+00   -7.943E+00   -7.909E+00   -7.876E+00   -7.844E+00   -7.815E+00   -7.786E+00   -7.760E+00   -7.735E+00
    -7.711E+00   -7.689E+00   -7.669E+00   -7.649E+00   -7.631E+00   -7.615E+00   -7.599E+00   -7.585E+00   -7.571E+00   -7.559E+00
    -7.548E+00   -7.537E+00   -7.528E+00   -7.519E+00   -7.511E+00   -7.504E+00   -7.497E+00   -7.491E+00   -7.486E+00   -7.481E+00
    -7.476E+00   -7.472E+00   -7.468E+00   -7.464E+00   -7.461E+00   -7.457E+00   -7.454E+00   -7.451E+00   -7.448E+00   -7.444E+00
    -7.441E+00   -7.438E+00   -7.434E+00   -7.430E+00   -7.425E+00   -7.421E+00   -7.415E+00   -7.410E+00   -7.403E+00   -7.396E+00
    -7.389E+00   -7.381E+00   -7.372E+00   -7.362E+00   -7.351E+00   -7.340E+00   -7.327E+00   -7.314E+00   -7.300E+00   -7.286E+00
    -7.270E+00   -7.254E+00   -7.237E+00   -7.219E+00   -7.200E+00   -7.180E+00   -7.159E+00   -7.138E+00   -7.115E+00   -7.092E+00
    -7.068E+00   -7.043E+00   -7.017E+00   -6.990E+00   -6.962E+00   -6.933E+00   -6.904E+00   -6.873E+00   -6.841E+00   -6.809E+00
    -6.775E+00   -6.741E+00   -6.705E+00   -6.669E+00   -6.632E+00   -6.593E+00   -6.554E+00   -6.513E+00   -6.472E+00   -6.430E+00
    -6.386E+00   -6.342E+00   -6.296E+00   -6.250E+00   -6.202E+00   -6.153E+00   -6.103E+00   -6.053E+00   -6.001E+00   -5.948E+00
    -5.894E+00   -5.839E+00   -5.783E+00   -5.726E+00   -5.668E+00   -5.609E+00   -5.549E+00   -5.489E+00   -5.427E+00   -5.365E+00
    -5.301E+00   -5.237E+00   -5.172E+00   -5.106E+00   -5.039E+00   -4.972E+00   -4.903E+00   -4.834E+00   -4.765E+00   -4.694E+00
    -4.623E+00   -4.551E+00   -4.478E+00   -4.405E+00   -4.331E+00   -4.256E+00   -4.181E+00   -4.105E+00   -4.029E+00   -3.952E+00
    -3.874E+00   -3.796E+00   -3.717E+00   -3.638E+00   -3.559E+00   -3.479E+00   -3.398E+00   -3.317E+00   -3.235E+00   -3.154E+00
    -3.071E+00   -2.989E+00   -2.906E+00   -2.822E+00   -2.738E+00   -2.654E+00   -2.570E+00   -2.485E+00   -2.400E+00   -2.315E+00
    -2.229E+00   -2.143E+00   -2.057E+00   -1.970E+00   -1.884E+00   -1.797E+00   -1.709E+00   -1.622E+00   -1.534E+00   -1.446E+00
    -1.358E+00   -1.270E+00   -1.181E+00   -1.093E+00   -1.004E+00   -9.150E-01   -8.259E-01   -7.366E-01   -6.473E-01   -5.578E-01
    -4.682E-01   -3.785E-01   -2.887E-01   -1.989E-01   -1.089E-01   -1.894E-02    7.110E-02    1.612E-01    2.513E-01    3.414E-01
     4.316E-01    5.218E-01    6.119E-01    7.021E-01    7.922E-01    8.823E-01    9.723E-01    1.062E+00    1.152E+00    1.242E+00
     1.332E+00    1.422E+00    1.511E+00    1.601E+00    1.690E+00    1.780E+00    1.869E+00    1.958E+00    2.047E+00    2.136E+00
     2.225E+00    2.313E+00    2.402E+00    2.490E+00    2.578E+00    2.666E+00    2.754E+00    2.842E+00    2.930E+00    3.017E+00
     3.104E+00    3.191E+00    3.278E+00    3.364E+00    3.451E+00    3.537E+00    3.623E+00    3.708E+00    3.794E+00    3.879E+00
     3.964E+00    4.049E+00    4.133E+00    4.217E+00    4.301E+00    4.385E+00    4.468E+00    4.551E+00    4.634E+00    4.717E+00
     4.799E+00    4.881E+00    4.962E+00    5.044E+00    5.124E+00    5.205E+00    5.285E+00    5.366E+00    5.445E+00    5.525E+00
     5.604E+00    5.683E+00    5.762E+00    5.840E+00    5.919E+00    5.997E+00    6.075E+00    6.152E+00    6.230E+00    6.307E+00
     6.384E+00    6.461E+00    6.538E+00    6.614E+00    6.691E+00    6.767E+00    6.844E+00    6.920E+00    6.996E+00    7.072E+00
     7.147E+00    7.223E+00    7.299E+00    7.374E+00    7.450E+00    7.525E+00    7.601E+00    7.676E+00    7.752E+00    7.827E+00
     7.902E+00    7.978E+00    8.053E+00    8.129E+00    8.204E+00    8.280E+00    8.355E+00    8.431E+00
 Cr       Conc. = 5.72E+02
