 LCModel (Version 6.3-1L) Copyright: S.W. Provencher.          Ref.: Magn. Reson. Med. 30:672-679 (1993).                
 Slice#3 Row#4 Col#7  PD_24_press_2_raw_act
 36 lines in following concentration table = NCONC+1
    Conc.  %SD /Cr+PCr  Metabolite                                         
   13.309 999% 9.3E-03 Ala                                                 
    0.000 999%   0.000 Asp                                                 
    0.000 999%   0.000 Cr                                                  
 1.43E+03  13%   1.000 PCr                                                 
  124.527 152% 8.7E-02 GABA                                                
  163.458 115%   0.114 Glc                                                 
    0.000 999%   0.000 Gln                                                 
    0.000 999%   0.000 Glu                                                 
    0.000 999%   0.000 GPC                                                 
  786.757   9%   0.549 PCh                                                 
  327.026  81%   0.228 GSH                                                 
 1.56E+03  54%   1.090 Ins                                                 
    0.000 999%   0.000 Lac                                                 
 1.46E+03  12%   1.022 NAA                                                 
    0.000 999%   0.000 NAAG                                                
   99.486  56% 6.9E-02 Scyllo                                              
  356.859  84%   0.249 Tau                                                 
 1.64E+03  17%   1.148 -CrCH2                                              
  786.757   9%   0.549 GPC+PCh                                             
 1.46E+03  12%   1.022 NAA+NAAG                                            
 1.43E+03  13%   1.000 Cr+PCr                                              
    0.000 999%   0.000 Glu+Gln                                             
    0.000 999%   0.000 Lip13a                                              
  222.008 139%   0.155 Lip13b                                              
  195.566 142%   0.136 Lip09                                               
  111.088 300% 7.8E-02 MM09                                                
   81.358 253% 5.7E-02 Lip20                                               
    0.000 999%   0.000 MM20                                                
    0.000 999%   0.000 MM12                                                
    0.000 999%   0.000 MM14                                                
  604.276  72%   0.422 MM17                                                
  222.008 139%   0.155 Lip13a+Lip13b                                       
  222.008 139%   0.155 MM14+Lip13a+Lip13b+MM12                             
  306.655 109%   0.214 MM09+Lip09                                          
   81.358 253% 5.7E-02 MM20+Lip20                                          
   6 lines in following misc. output table
  FWHM = 0.061 ppm    S/N =   3                                            
  Data shift = 0.015 ppm                                                   
  Ph: -57 deg     -29.2 deg/ppm                                            
  alphaB,S = 5.3E+00,   5.5E+01                                            
   14 spline knots.   Ns = 9(1)                                            
  (11)10 infls.   (13) 7 extrs.                                            
  498 points on ppm-axis = NY
      4.000000     3.992357     3.984714     3.977070     3.969427     3.961784     3.954141     3.946497     3.938854     3.931211
      3.923568     3.915925     3.908281     3.900638     3.892995     3.885352     3.877708     3.870065     3.862422     3.854779
      3.847136     3.839492     3.831849     3.824206     3.816563     3.808919     3.801276     3.793633     3.785990     3.778347
      3.770703     3.763060     3.755417     3.747774     3.740130     3.732487     3.724844     3.717201     3.709558     3.701914
      3.694271     3.686628     3.678985     3.671341     3.663698     3.656055     3.648412     3.640769     3.633125     3.625482
      3.617839     3.610196     3.602552     3.594909     3.587266     3.579623     3.571980     3.564336     3.556693     3.549050
      3.541407     3.533763     3.526120     3.518477     3.510834     3.503191     3.495547     3.487904     3.480261     3.472618
      3.464974     3.457331     3.449688     3.442045     3.434402     3.426758     3.419115     3.411472     3.403829     3.396185
      3.388542     3.380899     3.373256     3.365613     3.357969     3.350326     3.342683     3.335040     3.327396     3.319753
      3.312110     3.304467     3.296824     3.289180     3.281537     3.273894     3.266251     3.258607     3.250964     3.243321
      3.235678     3.228034     3.220391     3.212748     3.205105     3.197462     3.189818     3.182175     3.174532     3.166889
      3.159245     3.151602     3.143959     3.136316     3.128673     3.121029     3.113386     3.105743     3.098100     3.090456
      3.082813     3.075170     3.067527     3.059884     3.052240     3.044597     3.036954     3.029311     3.021667     3.014024
      3.006381     2.998738     2.991095     2.983451     2.975808     2.968165     2.960522     2.952878     2.945235     2.937592
      2.929949     2.922306     2.914662     2.907019     2.899376     2.891733     2.884089     2.876446     2.868803     2.861160
      2.853517     2.845873     2.838230     2.830587     2.822944     2.815300     2.807657     2.800014     2.792371     2.784728
      2.777084     2.769441     2.761798     2.754155     2.746511     2.738868     2.731225     2.723582     2.715939     2.708295
      2.700652     2.693009     2.685366     2.677722     2.670079     2.662436     2.654793     2.647150     2.639506     2.631863
      2.624220     2.616577     2.608933     2.601290     2.593647     2.586004     2.578361     2.570717     2.563074     2.555431
      2.547788     2.540144     2.532501     2.524858     2.517215     2.509572     2.501928     2.494285     2.486642     2.478999
      2.471355     2.463712     2.456069     2.448426     2.440783     2.433139     2.425496     2.417853     2.410210     2.402566
      2.394923     2.387280     2.379637     2.371994     2.364350     2.356707     2.349064     2.341421     2.333777     2.326134
      2.318491     2.310848     2.303205     2.295561     2.287918     2.280275     2.272632     2.264988     2.257345     2.249702
      2.242059     2.234416     2.226772     2.219129     2.211486     2.203843     2.196199     2.188556     2.180913     2.173270
      2.165627     2.157983     2.150340     2.142697     2.135054     2.127410     2.119767     2.112124     2.104481     2.096838
      2.089194     2.081551     2.073908     2.066265     2.058621     2.050978     2.043335     2.035692     2.028049     2.020405
      2.012762     2.005119     1.997476     1.989833     1.982190     1.974546     1.966903     1.959260     1.951617     1.943974
      1.936331     1.928688     1.921045     1.913402     1.905759     1.898115     1.890472     1.882829     1.875186     1.867543
      1.859900     1.852257     1.844614     1.836971     1.829327     1.821684     1.814041     1.806398     1.798755     1.791112
      1.783469     1.775826     1.768183     1.760540     1.752896     1.745253     1.737610     1.729967     1.722324     1.714681
      1.707038     1.699395     1.691752     1.684108     1.676465     1.668822     1.661179     1.653536     1.645893     1.638250
      1.630607     1.622964     1.615321     1.607677     1.600034     1.592391     1.584748     1.577105     1.569462     1.561819
      1.554176     1.546533     1.538890     1.531246     1.523603     1.515960     1.508317     1.500674     1.493031     1.485388
      1.477745     1.470102     1.462458     1.454815     1.447172     1.439529     1.431886     1.424243     1.416600     1.408957
      1.401314     1.393671     1.386027     1.378384     1.370741     1.363098     1.355455     1.347812     1.340169     1.332526
      1.324883     1.317240     1.309596     1.301953     1.294310     1.286667     1.279024     1.271381     1.263738     1.256095
      1.248452     1.240808     1.233165     1.225522     1.217879     1.210236     1.202593     1.194950     1.187307     1.179664
      1.172021     1.164377     1.156734     1.149091     1.141448     1.133805     1.126162     1.118519     1.110876     1.103233
      1.095590     1.087946     1.080303     1.072660     1.065017     1.057374     1.049731     1.042088     1.034445     1.026802
      1.019158     1.011515     1.003872     0.996229     0.988586     0.980943     0.973300     0.965657     0.958014     0.950371
      0.942727     0.935084     0.927441     0.919798     0.912155     0.904512     0.896869     0.889226     0.881583     0.873940
      0.866296     0.858653     0.851010     0.843367     0.835724     0.828081     0.820438     0.812795     0.805152     0.797508
      0.789865     0.782222     0.774579     0.766936     0.759293     0.751650     0.744007     0.736364     0.728721     0.721077
      0.713434     0.705791     0.698148     0.690505     0.682862     0.675219     0.667576     0.659933     0.652290     0.644646
      0.637003     0.629360     0.621717     0.614074     0.606431     0.598788     0.591145     0.583502     0.575858     0.568215
      0.560572     0.552929     0.545286     0.537643     0.530000     0.522357     0.514714     0.507071     0.499427     0.491784
      0.484141     0.476498     0.468855     0.461212     0.453569     0.445925     0.438282     0.430639     0.422996     0.415353
      0.407710     0.400067     0.392424     0.384780     0.377137     0.369494     0.361851     0.354208     0.346565     0.338922
      0.331278     0.323635     0.315992     0.308349     0.300706     0.293063     0.285420     0.277777     0.270133     0.262490
      0.254847     0.247204     0.239561     0.231918     0.224275     0.216631     0.208988     0.201345
 NY phased data points follow
  -9.57498E+01 -4.82119E+01 -6.98513E+01 -6.44692E+01 -5.87169E+01 -6.25962E+01 -6.96832E+01 -5.80508E+01 -4.28915E+01 -6.03096E+01
  -5.58113E+01 -5.53670E+01 -6.04083E+01 -5.70756E+01 -6.55894E+01 -6.26041E+01 -7.20994E+01 -4.90148E+01 -5.75954E+01 -5.74408E+01
  -6.37648E+01 -4.39157E+01 -5.60062E+01 -6.03380E+01 -6.21067E+01 -2.48329E+01 -6.19972E+01 -5.09246E+01 -4.69362E+01 -4.02895E+01
  -4.96546E+01 -3.74261E+01 -4.68220E+01 -4.02708E+01 -5.31925E+01 -4.46316E+01 -4.42505E+01 -3.96645E+01 -3.71618E+01 -2.79287E+01
  -2.56306E+01 -3.50081E+01 -5.05313E+01 -2.25901E+01 -4.18344E+01 -3.67652E+01 -3.29900E+01 -2.96482E+01 -4.68702E+01 -4.07565E+01
  -1.60170E+01 -3.14188E+01 -2.07389E+01 -1.69351E+01 -2.86505E+01 -2.75041E+01 -3.68357E+01 -4.64511E+01 -2.38666E+01 -4.16815E+01
  -3.56979E+01 -3.42226E+01 -4.31839E+01 -4.39771E+01 -2.61324E+01 -4.20738E+01 -4.02295E+01 -2.61135E+01 -2.76437E+01 -3.58016E+01
  -1.87266E+01 -2.11257E+01 -2.75786E+01 -2.06041E+01 -3.31705E+01 -4.00559E+01 -3.69781E+01 -3.54656E+01 -3.80713E+01 -1.41756E+01
  -3.52920E+01 -2.34366E+01 -2.95934E+01 -2.19918E+01 -2.18388E+01 -3.94843E+01 -3.53195E+01 -2.31317E+01 -6.32334E+00 -1.49865E+01
  -3.82154E+01 -1.99614E+01 -3.51810E+01 -3.43513E+01 -1.78861E+01 -2.56026E+00 -5.46410E+00  1.08900E+01  9.30413E+00  1.25443E+01
   5.95756E+00  1.34607E+01  1.22215E+01  2.66494E+01  3.90584E+01  3.09015E+01 -1.82606E+00 -1.53890E+01 -1.92364E+01 -8.73769E+00
  -2.54786E+01 -5.52552E+00 -2.81275E+01 -2.09735E+01 -1.07935E+01 -2.88341E+01 -3.03149E+01 -2.13665E+01 -2.26099E+01 -1.62642E+01
  -1.50721E+01 -1.41811E+01 -1.03044E+01 -3.64476E+00  1.95003E+00 -1.00998E-01  2.03518E+00  1.85980E+01  1.74187E+01  2.81687E+00
   2.73291E+00  3.86405E+00  2.17073E+00 -9.23328E+00 -1.11412E+01 -2.24569E+01 -1.19250E+01 -1.78613E+01 -2.14244E+01 -3.10606E+01
  -2.49542E+01  1.17219E-01 -2.20998E+01 -2.13525E+01 -2.31555E+01 -2.39170E+01 -2.68653E+01 -7.72339E+00 -1.28075E+01 -1.03206E+01
  -2.27768E+01 -2.42179E+01 -1.07155E+01 -2.16863E+01 -1.19156E+01 -8.65844E+00 -1.63116E+01 -9.99850E+00  1.33548E+00 -5.29127E+00
  -1.81267E+01 -1.12253E+01 -2.07157E+01 -1.54967E+01 -9.78746E+00 -2.62636E+01 -1.82300E+01 -2.00004E+01 -2.93152E+01 -1.75787E+01
  -2.82977E+01 -2.23902E+01 -3.34528E+01 -2.78258E+01 -1.87559E+01 -2.24636E+01 -8.47772E+00 -1.98224E+01 -2.76689E+01 -2.33684E+01
  -2.70805E+01 -2.82894E+01 -5.05124E+00 -2.97825E+01 -1.91456E+01 -3.16014E+01 -1.87990E+01 -1.16226E+01 -2.17215E+01 -6.54673E+00
  -5.04280E+00 -9.13157E+00 -8.79597E+00 -3.44924E+00 -1.98297E+01  8.69270E-01 -2.12909E+01 -1.60534E+01 -1.78630E+01 -1.24333E+01
  -7.33139E+00 -2.40987E+00 -6.70057E+00 -7.12142E+00 -1.66635E+01 -1.32781E+01 -8.63863E+00 -8.12641E+00 -1.50602E+01 -2.27642E+01
   4.38414E+00 -9.11706E+00 -3.26385E+00 -2.00414E+00 -5.83075E+00  3.88012E+00 -9.87082E+00 -4.96761E+00  4.95557E+00  8.67443E+00
  -2.70167E+00 -1.76466E+01 -8.82973E+00 -1.24487E+01 -1.12141E+01  2.34732E+00  1.41100E+00  8.31456E-01 -2.09409E+01 -4.45861E+00
  -7.07219E+00 -7.89469E+00 -6.42078E+00 -1.16255E+01 -2.40557E+00 -4.45783E+00 -2.68148E+01  1.94021E+00 -4.52270E+00 -2.12987E+01
  -6.34887E+00 -9.96492E-01 -2.13789E+01 -6.57225E-02 -8.63238E+00  3.59933E+00  6.69303E-01  9.99076E+00  6.25113E+00  8.00534E+00
   2.15979E+01  1.45955E+01  5.40755E+00  1.31564E+01  2.64058E+01  2.25953E+01  6.48736E+00  1.13591E+01  4.24136E+01  1.11731E+01
   2.89986E+01  5.90336E+01  3.28306E+01  1.54073E+01  7.26095E+00  1.17522E+01 -5.83352E+00  1.61425E+00 -8.30373E+00 -7.58533E-01
   2.37009E-01 -2.45467E+00 -2.33742E+00 -1.88063E+01 -1.48913E+01 -1.25697E+01  2.25254E+00  1.76521E+00 -2.65197E-01  9.98642E+00
  -9.27273E+00  1.89960E+01  4.80555E+00 -1.69459E+00  1.11522E+00 -6.17848E+00 -6.22074E-02  1.49318E+00 -6.09931E+00 -2.05475E-01
   6.81321E+00  5.49610E+00  1.14636E+01  1.41309E-01  8.73566E+00  6.16865E+00  2.41955E+00  1.51495E+00  3.11261E+00 -5.39697E+00
   9.03138E+00 -1.13333E+01 -2.25857E+01  8.69982E+00  4.61800E+00  8.75713E+00  5.22848E+00  1.40207E+01  6.38691E+00  1.57228E-01
   9.56269E-01  4.25470E-01  7.75111E+00  1.22249E+01 -8.21840E+00  4.53872E+00 -6.99523E+00  9.49318E-02 -1.39829E+01  1.14205E+01
  -3.36777E+00 -7.93380E+00 -1.87933E+01 -5.10474E+00  3.51585E+00  1.68274E+00 -2.70590E+00 -9.20052E-01 -1.85254E+01  6.98506E+00
   1.28202E+01 -6.23183E-01  1.22978E+01  8.27030E+00 -2.47300E+00  9.03592E+00  3.02319E+00  5.22355E+00  6.46862E+00 -7.80978E-01
   3.90763E+00  2.83002E+01  1.00388E+01  3.40084E+01  5.96266E+00  7.88390E+00 -1.19182E+01 -1.22813E+01  5.63483E+00 -3.67836E+00
   9.39960E+00  1.73961E+01  9.18212E+00  1.25068E+01  1.27417E+01  1.20663E+00  1.30857E+01  1.04919E+01  9.58692E+00  1.26414E+00
   5.29939E+00 -2.53061E+00 -7.53818E-01  7.01557E+00 -7.53139E+00  6.38340E+00 -7.16533E+00  1.40643E+01  2.97128E+00 -3.67033E+00
   1.58172E+01  2.19703E+01  1.92859E+01 -3.02727E+00  6.51046E+00  1.38516E+01  2.05585E+01  2.42246E+01  2.34947E+01  1.22929E+01
   5.66152E+00 -2.26249E+00 -1.46775E+00 -6.66807E+00  7.09858E+00  1.59198E+01 -1.06894E+01  6.28488E+00  1.77805E+01  8.61157E+00
   1.86294E+01  1.43274E+01 -2.45395E+01  2.27432E+00 -1.17182E+01  3.64108E+00  2.34598E+00 -1.18028E+00 -5.80318E+00  5.20404E+00
   1.98638E+01  6.26427E+00  1.23626E+01  3.08825E+01  2.39634E+01  3.14843E+01  8.17181E+00  3.84808E-01  1.34686E+01  1.96654E+01
   1.77075E+01  1.73099E+01  1.14769E+01  4.42625E+00  9.52006E+00 -2.34697E+00  5.96991E+00  1.11153E+01  1.82756E+00 -9.49783E-01
   1.26163E+01  1.08071E+01  2.32031E+01  7.73999E+00 -4.95085E+00  9.29023E+00  3.32089E+00  9.68041E+00 -7.11402E+00  5.92172E+00
   5.57579E+00  5.62288E+00  5.79815E+00  4.30997E+00 -9.25392E+00 -1.82133E+01  2.65882E+00 -1.26412E+01  9.17550E-01  6.42741E+00
   4.06019E+00 -1.45695E+01 -3.15105E+00 -1.39086E+01 -5.12723E-02  1.41407E+01  2.67188E+00 -7.52896E+00  6.92165E+00  1.36041E+01
   1.16509E+00  1.00121E+01  4.55377E+00 -7.23057E+00 -5.23352E+00  1.38353E+01  7.02786E-01  1.08420E+01 -6.73472E+00  9.58471E+00
  -7.31847E+00 -1.06220E+01  1.25440E+01 -5.37740E+00  6.56655E-01  9.28773E+00  5.39919E+00  1.27915E+00  1.94464E+01  6.59791E+00
  -2.24173E+00  6.98141E-01  1.22701E+01  1.50793E+00  7.78383E+00 -1.80077E+00 -5.78609E+00  1.43166E+01  5.09436E+00  2.04517E+00
  -5.93386E-01 -1.11237E+01 -6.52876E+00 -2.20111E+00 -5.15834E+00  1.77994E+00  2.18099E+01  6.22840E+00 -4.86284E+00  1.26236E+01
   2.19913E+00  1.31344E+01  1.24431E+01  7.45130E+00 -4.89864E+00 -2.52443E+00  4.99371E-01 -6.78500E+00
 NY points of the fit to the data follow
  -5.10259E+01 -5.21719E+01 -5.31658E+01 -5.39021E+01 -5.41897E+01 -5.43583E+01 -5.46878E+01 -5.51569E+01 -5.58703E+01 -5.66319E+01
  -5.67051E+01 -5.58079E+01 -5.44972E+01 -5.34544E+01 -5.28639E+01 -5.25355E+01 -5.22615E+01 -5.18665E+01 -5.12381E+01 -5.06034E+01
  -5.03444E+01 -4.96742E+01 -4.86062E+01 -4.74788E+01 -4.65224E+01 -4.58582E+01 -4.53505E+01 -4.47632E+01 -4.38718E+01 -4.25345E+01
  -4.08529E+01 -3.94343E+01 -3.89623E+01 -3.95626E+01 -4.06416E+01 -4.15708E+01 -4.20699E+01 -4.21000E+01 -4.17159E+01 -4.12082E+01
  -4.08305E+01 -4.04985E+01 -4.02995E+01 -4.02711E+01 -4.01531E+01 -3.96521E+01 -3.85807E+01 -3.70082E+01 -3.53860E+01 -3.45291E+01
  -3.49922E+01 -3.63317E+01 -3.75125E+01 -3.79581E+01 -3.77730E+01 -3.74308E+01 -3.73213E+01 -3.74620E+01 -3.74541E+01 -3.69084E+01
  -3.58875E+01 -3.49149E+01 -3.43864E+01 -3.42931E+01 -3.44654E+01 -3.46444E+01 -3.45611E+01 -3.41151E+01 -3.34804E+01 -3.29134E+01
  -3.24959E+01 -3.21717E+01 -3.18141E+01 -3.13533E+01 -3.08898E+01 -3.04716E+01 -3.01061E+01 -2.97762E+01 -2.95500E+01 -2.95215E+01
  -2.95992E+01 -2.97147E+01 -2.97322E+01 -2.94595E+01 -2.89698E+01 -2.83955E+01 -2.77746E+01 -2.73595E+01 -2.74950E+01 -2.80125E+01
  -2.83022E+01 -2.79474E+01 -2.67612E+01 -2.38504E+01 -1.81075E+01 -1.10883E+01 -4.58577E+00  2.87231E-01  3.14281E+00  5.09677E+00
   7.87898E+00  1.28115E+01  2.04823E+01  2.83067E+01  3.03957E+01  2.37302E+01  1.16012E+01 -1.00104E-01 -8.14178E+00 -1.28048E+01
  -1.58982E+01 -1.93687E+01 -2.41096E+01 -2.78881E+01 -2.84167E+01 -2.78325E+01 -2.69464E+01 -2.54786E+01 -2.24306E+01 -1.79827E+01
  -1.34216E+01 -9.75704E+00 -7.48002E+00 -6.12962E+00 -4.55802E+00 -1.86159E+00  2.39864E+00  7.47353E+00  1.03161E+01  7.99465E+00
   1.13579E+00 -6.75269E+00 -1.27164E+01 -1.61716E+01 -1.82146E+01 -2.02119E+01 -2.30827E+01 -2.61982E+01 -2.74007E+01 -2.69785E+01
  -2.61450E+01 -2.52526E+01 -2.45129E+01 -2.40401E+01 -2.37636E+01 -2.35496E+01 -2.33502E+01 -2.31254E+01 -2.28857E+01 -2.26783E+01
  -2.25030E+01 -2.23605E+01 -2.22640E+01 -2.21686E+01 -2.20504E+01 -2.18683E+01 -2.15771E+01 -2.12265E+01 -2.09245E+01 -2.07389E+01
  -2.06849E+01 -2.07137E+01 -2.06843E+01 -2.04672E+01 -2.00669E+01 -1.96485E+01 -1.94322E+01 -1.95007E+01 -1.97142E+01 -1.98233E+01
  -1.97038E+01 -1.94189E+01 -1.91676E+01 -1.90359E+01 -1.89846E+01 -1.89298E+01 -1.87668E+01 -1.84630E+01 -1.80281E+01 -1.75158E+01
  -1.70300E+01 -1.66119E+01 -1.61507E+01 -1.55389E+01 -1.48333E+01 -1.41850E+01 -1.36772E+01 -1.32635E+01 -1.27521E+01 -1.20170E+01
  -1.11743E+01 -1.04639E+01 -1.00839E+01 -1.00077E+01 -1.00592E+01 -1.00684E+01 -9.98318E+00 -9.86485E+00 -9.81396E+00 -9.75537E+00
  -9.56758E+00 -9.26800E+00 -8.92703E+00 -8.58937E+00 -8.32564E+00 -8.21305E+00 -8.25630E+00 -8.35020E+00 -8.39184E+00 -8.39934E+00
  -8.36270E+00 -8.31536E+00 -8.30352E+00 -8.30507E+00 -8.16335E+00 -7.74725E+00 -7.16429E+00 -6.59032E+00 -6.12596E+00 -5.76632E+00
  -5.45981E+00 -5.17201E+00 -4.89232E+00 -4.63406E+00 -4.43012E+00 -4.25707E+00 -4.08999E+00 -3.92049E+00 -3.73238E+00 -3.53236E+00
  -3.37206E+00 -3.25042E+00 -3.07081E+00 -2.72713E+00 -2.21930E+00 -1.65995E+00 -1.15064E+00 -7.36341E-01 -4.66860E-01 -3.69211E-01
  -3.49891E-01 -2.41506E-01  5.51393E-02  5.53722E-01  1.23335E+00  2.04544E+00  2.93471E+00  3.85333E+00  4.84244E+00  6.02816E+00
   7.69233E+00  1.06456E+01  1.48350E+01  1.88130E+01  2.15572E+01  2.27011E+01  2.28128E+01  2.31028E+01  2.43862E+01  2.68537E+01
   2.97256E+01  3.02874E+01  2.58117E+01  1.70871E+01  7.92310E+00  1.45188E+00 -1.91869E+00 -3.51183E+00 -4.75636E+00 -6.54981E+00
  -8.57676E+00 -9.01656E+00 -7.85994E+00 -6.71554E+00 -5.77569E+00 -4.98370E+00 -4.30027E+00 -3.70466E+00 -3.18241E+00 -2.71454E+00
  -2.28432E+00 -1.87623E+00 -1.47377E+00 -1.07172E+00 -6.66157E-01 -2.56663E-01  1.52210E-01  5.54917E-01  9.42665E-01  1.30857E+00
   1.65535E+00  1.98458E+00  2.29225E+00  2.57661E+00  2.83455E+00  3.06390E+00  3.26750E+00  3.44548E+00  3.59243E+00  3.70526E+00
   3.78445E+00  3.83068E+00  3.84392E+00  3.82753E+00  3.78481E+00  3.71887E+00  3.63476E+00  3.53789E+00  3.43364E+00  3.32742E+00
   3.22420E+00  3.12858E+00  3.04432E+00  2.97466E+00  2.92200E+00  2.88826E+00  2.87463E+00  2.88192E+00  2.90847E+00  2.94654E+00
   2.99180E+00  3.04505E+00  3.10903E+00  3.18719E+00  3.27941E+00  3.38265E+00  3.49587E+00  3.61117E+00  3.71799E+00  3.82034E+00
   3.93258E+00  4.06458E+00  4.21438E+00  4.37476E+00  4.54254E+00  4.71667E+00  4.88775E+00  5.04613E+00  5.19095E+00  5.32714E+00
   5.47064E+00  5.63343E+00  5.81857E+00  6.02611E+00  6.25457E+00  6.50666E+00  6.79030E+00  7.09914E+00  7.41604E+00  7.72077E+00
   7.98786E+00  8.18910E+00  8.29715E+00  8.29120E+00  8.16135E+00  7.91253E+00  7.56458E+00  7.15042E+00  6.71043E+00  6.28649E+00
   5.91490E+00  5.62194E+00  5.42075E+00  5.31212E+00  5.28643E+00  5.32791E+00  5.41804E+00  5.53929E+00  5.67664E+00  5.81918E+00
   5.95947E+00  6.09363E+00  6.21988E+00  6.33825E+00  6.44929E+00  6.55418E+00  6.65390E+00  6.74966E+00  6.84224E+00  6.93254E+00
   7.02095E+00  7.10804E+00  7.19392E+00  7.27893E+00  7.36294E+00  7.44597E+00  7.52750E+00  7.60721E+00  7.68424E+00  7.75793E+00
   7.82704E+00  7.89047E+00  7.94660E+00  7.99404E+00  8.03100E+00  8.05602E+00  8.06732E+00  8.06361E+00  8.04344E+00  8.00603E+00
   7.95071E+00  7.87754E+00  7.78675E+00  7.67935E+00  7.55655E+00  7.42040E+00  7.27299E+00  7.11707E+00  6.95523E+00  6.79048E+00
   6.62547E+00  6.46310E+00  6.30566E+00  6.15545E+00  6.01402E+00  5.88282E+00  5.76256E+00  5.65389E+00  5.55668E+00  5.47080E+00
   5.39544E+00  5.32996E+00  5.27320E+00  5.22427E+00  5.18187E+00  5.14504E+00  5.11247E+00  5.08334E+00  5.05655E+00  5.03148E+00
   5.00723E+00  4.98334E+00  4.95911E+00  4.93432E+00  4.90845E+00  4.88146E+00  4.85294E+00  4.82290E+00  4.79103E+00  4.75747E+00
   4.72200E+00  4.68479E+00  4.64560E+00  4.60461E+00  4.56164E+00  4.51694E+00  4.47032E+00  4.42200E+00  4.37179E+00  4.31989E+00
   4.26615E+00  4.21081E+00  4.15371E+00  4.09504E+00  4.03461E+00  3.97265E+00  3.90900E+00  3.84389E+00  3.77713E+00  3.70894E+00
   3.63909E+00  3.56785E+00  3.49503E+00  3.42086E+00  3.34515E+00  3.26810E+00  3.18950E+00  3.10962E+00  3.02825E+00  2.94565E+00
   2.86158E+00  2.77626E+00  2.68949E+00  2.60154E+00  2.51222E+00  2.42173E+00  2.32987E+00  2.23687E+00  2.14254E+00  2.04713E+00
   1.95045E+00  1.85273E+00  1.75374E+00  1.65375E+00  1.55257E+00  1.45048E+00  1.34726E+00  1.24316E+00  1.13799E+00  1.03201E+00
   9.25086E-01  8.17490E-01  7.09035E-01  6.00004E-01  4.90240E-01  3.80088E-01  2.69428E-01  1.58610E-01
 NY background values follow
    -5.491E+01   -5.470E+01   -5.449E+01   -5.428E+01   -5.407E+01   -5.386E+01   -5.364E+01   -5.343E+01   -5.321E+01   -5.300E+01
    -5.278E+01   -5.256E+01   -5.234E+01   -5.212E+01   -5.190E+01   -5.168E+01   -5.146E+01   -5.124E+01   -5.101E+01   -5.079E+01
    -5.057E+01   -5.034E+01   -5.011E+01   -4.989E+01   -4.966E+01   -4.943E+01   -4.920E+01   -4.897E+01   -4.874E+01   -4.851E+01
    -4.828E+01   -4.805E+01   -4.781E+01   -4.758E+01   -4.735E+01   -4.711E+01   -4.688E+01   -4.664E+01   -4.641E+01   -4.617E+01
    -4.593E+01   -4.570E+01   -4.546E+01   -4.522E+01   -4.498E+01   -4.474E+01   -4.451E+01   -4.427E+01   -4.403E+01   -4.379E+01
    -4.355E+01   -4.331E+01   -4.306E+01   -4.282E+01   -4.258E+01   -4.234E+01   -4.210E+01   -4.186E+01   -4.161E+01   -4.137E+01
    -4.113E+01   -4.089E+01   -4.064E+01   -4.040E+01   -4.015E+01   -3.991E+01   -3.967E+01   -3.942E+01   -3.918E+01   -3.894E+01
    -3.869E+01   -3.845E+01   -3.820E+01   -3.796E+01   -3.771E+01   -3.747E+01   -3.723E+01   -3.698E+01   -3.674E+01   -3.649E+01
    -3.625E+01   -3.600E+01   -3.576E+01   -3.552E+01   -3.527E+01   -3.503E+01   -3.478E+01   -3.454E+01   -3.430E+01   -3.405E+01
    -3.381E+01   -3.357E+01   -3.332E+01   -3.308E+01   -3.284E+01   -3.260E+01   -3.236E+01   -3.211E+01   -3.187E+01   -3.163E+01
    -3.139E+01   -3.115E+01   -3.091E+01   -3.067E+01   -3.043E+01   -3.019E+01   -2.995E+01   -2.971E+01   -2.947E+01   -2.923E+01
    -2.899E+01   -2.876E+01   -2.852E+01   -2.828E+01   -2.805E+01   -2.781E+01   -2.757E+01   -2.734E+01   -2.710E+01   -2.687E+01
    -2.663E+01   -2.640E+01   -2.617E+01   -2.593E+01   -2.570E+01   -2.547E+01   -2.524E+01   -2.501E+01   -2.478E+01   -2.455E+01
    -2.432E+01   -2.409E+01   -2.386E+01   -2.363E+01   -2.341E+01   -2.318E+01   -2.295E+01   -2.273E+01   -2.250E+01   -2.228E+01
    -2.206E+01   -2.183E+01   -2.161E+01   -2.139E+01   -2.117E+01   -2.095E+01   -2.073E+01   -2.051E+01   -2.029E+01   -2.007E+01
    -1.985E+01   -1.963E+01   -1.942E+01   -1.920E+01   -1.899E+01   -1.877E+01   -1.856E+01   -1.834E+01   -1.813E+01   -1.792E+01
    -1.771E+01   -1.750E+01   -1.729E+01   -1.708E+01   -1.687E+01   -1.666E+01   -1.645E+01   -1.624E+01   -1.604E+01   -1.583E+01
    -1.563E+01   -1.542E+01   -1.522E+01   -1.501E+01   -1.481E+01   -1.461E+01   -1.441E+01   -1.421E+01   -1.401E+01   -1.381E+01
    -1.361E+01   -1.341E+01   -1.321E+01   -1.302E+01   -1.282E+01   -1.263E+01   -1.243E+01   -1.224E+01   -1.204E+01   -1.185E+01
    -1.166E+01   -1.147E+01   -1.128E+01   -1.109E+01   -1.090E+01   -1.071E+01   -1.052E+01   -1.033E+01   -1.015E+01   -9.962E+00
    -9.777E+00   -9.593E+00   -9.409E+00   -9.226E+00   -9.044E+00   -8.863E+00   -8.682E+00   -8.502E+00   -8.323E+00   -8.144E+00
    -7.966E+00   -7.789E+00   -7.613E+00   -7.437E+00   -7.262E+00   -7.088E+00   -6.914E+00   -6.742E+00   -6.570E+00   -6.399E+00
    -6.228E+00   -6.058E+00   -5.889E+00   -5.721E+00   -5.554E+00   -5.387E+00   -5.221E+00   -5.056E+00   -4.891E+00   -4.728E+00
    -4.565E+00   -4.403E+00   -4.241E+00   -4.081E+00   -3.921E+00   -3.762E+00   -3.604E+00   -3.447E+00   -3.290E+00   -3.134E+00
    -2.979E+00   -2.825E+00   -2.672E+00   -2.519E+00   -2.368E+00   -2.217E+00   -2.067E+00   -1.918E+00   -1.769E+00   -1.622E+00
    -1.475E+00   -1.330E+00   -1.185E+00   -1.041E+00   -8.975E-01   -7.552E-01   -6.138E-01   -4.732E-01   -3.335E-01   -1.948E-01
    -5.687E-02    8.013E-02    2.162E-01    3.514E-01    4.858E-01    6.192E-01    7.517E-01    8.832E-01    1.014E+00    1.144E+00
     1.272E+00    1.400E+00    1.527E+00    1.653E+00    1.778E+00    1.903E+00    2.026E+00    2.148E+00    2.269E+00    2.390E+00
     2.509E+00    2.628E+00    2.745E+00    2.862E+00    2.977E+00    3.092E+00    3.206E+00    3.318E+00    3.430E+00    3.541E+00
     3.651E+00    3.759E+00    3.867E+00    3.974E+00    4.080E+00    4.185E+00    4.289E+00    4.391E+00    4.493E+00    4.594E+00
     4.694E+00    4.793E+00    4.891E+00    4.988E+00    5.083E+00    5.178E+00    5.272E+00    5.365E+00    5.456E+00    5.547E+00
     5.637E+00    5.725E+00    5.813E+00    5.899E+00    5.985E+00    6.069E+00    6.153E+00    6.235E+00    6.317E+00    6.397E+00
     6.476E+00    6.554E+00    6.631E+00    6.708E+00    6.783E+00    6.856E+00    6.929E+00    7.001E+00    7.072E+00    7.141E+00
     7.210E+00    7.277E+00    7.344E+00    7.409E+00    7.473E+00    7.536E+00    7.598E+00    7.659E+00    7.718E+00    7.777E+00
     7.835E+00    7.891E+00    7.946E+00    8.000E+00    8.053E+00    8.105E+00    8.156E+00    8.206E+00    8.254E+00    8.301E+00
     8.348E+00    8.393E+00    8.437E+00    8.479E+00    8.521E+00    8.561E+00    8.601E+00    8.639E+00    8.676E+00    8.712E+00
     8.746E+00    8.780E+00    8.812E+00    8.843E+00    8.873E+00    8.902E+00    8.930E+00    8.956E+00    8.981E+00    9.006E+00
     9.028E+00    9.050E+00    9.071E+00    9.090E+00    9.108E+00    9.125E+00    9.141E+00    9.155E+00    9.169E+00    9.181E+00
     9.192E+00    9.202E+00    9.210E+00    9.217E+00    9.224E+00    9.228E+00    9.232E+00    9.235E+00    9.236E+00    9.236E+00
     9.235E+00    9.232E+00    9.229E+00    9.224E+00    9.218E+00    9.211E+00    9.202E+00    9.192E+00    9.181E+00    9.169E+00
     9.156E+00    9.141E+00    9.125E+00    9.108E+00    9.090E+00    9.070E+00    9.049E+00    9.027E+00    9.004E+00    8.979E+00
     8.953E+00    8.926E+00    8.898E+00    8.868E+00    8.838E+00    8.805E+00    8.772E+00    8.738E+00    8.702E+00    8.665E+00
     8.627E+00    8.587E+00    8.546E+00    8.504E+00    8.461E+00    8.416E+00    8.371E+00    8.324E+00    8.275E+00    8.226E+00
     8.175E+00    8.123E+00    8.070E+00    8.015E+00    7.959E+00    7.902E+00    7.844E+00    7.784E+00    7.723E+00    7.661E+00
     7.598E+00    7.533E+00    7.468E+00    7.400E+00    7.332E+00    7.262E+00    7.192E+00    7.119E+00    7.046E+00    6.971E+00
     6.895E+00    6.818E+00    6.740E+00    6.660E+00    6.579E+00    6.497E+00    6.414E+00    6.329E+00    6.243E+00    6.156E+00
     6.067E+00    5.978E+00    5.887E+00    5.795E+00    5.701E+00    5.606E+00    5.510E+00    5.413E+00    5.315E+00    5.215E+00
     5.114E+00    5.012E+00    4.908E+00    4.804E+00    4.698E+00    4.591E+00    4.482E+00    4.372E+00    4.261E+00    4.149E+00
     4.036E+00    3.921E+00    3.805E+00    3.688E+00    3.570E+00    3.450E+00    3.329E+00    3.207E+00    3.084E+00    2.959E+00
     2.833E+00    2.706E+00    2.578E+00    2.448E+00    2.318E+00    2.186E+00    2.053E+00    1.918E+00
 Ala      Conc. = 1.33E+01
