 LCModel (Version 6.3-1L) Copyright: S.W. Provencher.          Ref.: Magn. Reson. Med. 30:672-679 (1993).                
 Slice#3 Row#10 Col#11  PD_24_press_2_raw_act
 36 lines in following concentration table = NCONC+1
    Conc.  %SD /Cr+PCr  Metabolite                                         
 3.57E+03  24%  25.365 Ala                                                 
   18.668  53%   0.133 Asp                                                 
    0.000 999%   0.000 Cr                                                  
  140.636  52%   1.000 PCr                                                 
   11.118  54% 7.9E-02 GABA                                                
   11.353  53% 8.1E-02 Glc                                                 
 2.89E+03  23%  20.584 Gln                                                 
    0.000 999%   0.000 Glu                                                 
    0.000 999%   0.000 GPC                                                 
   77.561  41%   0.552 PCh                                                 
  160.086  74%   1.138 GSH                                                 
  820.835  44%   5.837 Ins                                                 
    0.000 999%   0.000 Lac                                                 
    0.000 999%   0.000 NAA                                                 
    0.000 999%   0.000 NAAG                                                
    3.957  51% 2.8E-02 Scyllo                                              
   19.453  51%   0.138 Tau                                                 
   14.826 246%   0.105 -CrCH2                                              
   77.561  41%   0.552 GPC+PCh                                             
    0.000 999%   0.000 NAA+NAAG                                            
  140.636  52%   1.000 Cr+PCr                                              
 2.89E+03  23%  20.584 Glu+Gln                                             
    0.000 999%   0.000 Lip13a                                              
  146.693  73%   1.043 Lip13b                                              
    0.000 999%   0.000 Lip09                                               
  571.736  28%   4.065 MM09                                                
    0.000 999%   0.000 Lip20                                               
 1.45E+03  22%  10.288 MM20                                                
 3.32E+03  13%  23.602 MM12                                                
 2.94E+03  20%  20.886 MM14                                                
 3.47E+04   2% 246.788+MM17                                                
  146.693  73%   1.043 Lip13a+Lip13b                                       
 6.40E+03  14%  45.531 MM14+Lip13a+Lip13b+MM12                             
  571.736  28%   4.065 MM09+Lip09                                          
 1.45E+03  22%  10.288 MM20+Lip20                                          
   6 lines in following misc. output table
  FWHM = 0.168 ppm    S/N =  39                                            
  Data shift = 0.260 ppm                                                   
  Ph:  40 deg     130.1 deg/ppm                                            
  alphaB,S = 1.6E+00,   8.7E+01                                            
    9 spline knots.   Ns = 9(2)                                            
  (15) 7 infls.   (13) 3 extrs.                                            
  498 points on ppm-axis = NY
      4.000000     3.992357     3.984714     3.977070     3.969427     3.961784     3.954141     3.946497     3.938854     3.931211
      3.923568     3.915925     3.908281     3.900638     3.892995     3.885352     3.877708     3.870065     3.862422     3.854779
      3.847136     3.839492     3.831849     3.824206     3.816563     3.808919     3.801276     3.793633     3.785990     3.778347
      3.770703     3.763060     3.755417     3.747774     3.740130     3.732487     3.724844     3.717201     3.709558     3.701914
      3.694271     3.686628     3.678985     3.671341     3.663698     3.656055     3.648412     3.640769     3.633125     3.625482
      3.617839     3.610196     3.602552     3.594909     3.587266     3.579623     3.571980     3.564336     3.556693     3.549050
      3.541407     3.533763     3.526120     3.518477     3.510834     3.503191     3.495547     3.487904     3.480261     3.472618
      3.464974     3.457331     3.449688     3.442045     3.434402     3.426758     3.419115     3.411472     3.403829     3.396185
      3.388542     3.380899     3.373256     3.365613     3.357969     3.350326     3.342683     3.335040     3.327396     3.319753
      3.312110     3.304467     3.296824     3.289180     3.281537     3.273894     3.266251     3.258607     3.250964     3.243321
      3.235678     3.228034     3.220391     3.212748     3.205105     3.197462     3.189818     3.182175     3.174532     3.166889
      3.159245     3.151602     3.143959     3.136316     3.128673     3.121029     3.113386     3.105743     3.098100     3.090456
      3.082813     3.075170     3.067527     3.059884     3.052240     3.044597     3.036954     3.029311     3.021667     3.014024
      3.006381     2.998738     2.991095     2.983451     2.975808     2.968165     2.960522     2.952878     2.945235     2.937592
      2.929949     2.922306     2.914662     2.907019     2.899376     2.891733     2.884089     2.876446     2.868803     2.861160
      2.853517     2.845873     2.838230     2.830587     2.822944     2.815300     2.807657     2.800014     2.792371     2.784728
      2.777084     2.769441     2.761798     2.754155     2.746511     2.738868     2.731225     2.723582     2.715939     2.708295
      2.700652     2.693009     2.685366     2.677722     2.670079     2.662436     2.654793     2.647150     2.639506     2.631863
      2.624220     2.616577     2.608933     2.601290     2.593647     2.586004     2.578361     2.570717     2.563074     2.555431
      2.547788     2.540144     2.532501     2.524858     2.517215     2.509572     2.501928     2.494285     2.486642     2.478999
      2.471355     2.463712     2.456069     2.448426     2.440783     2.433139     2.425496     2.417853     2.410210     2.402566
      2.394923     2.387280     2.379637     2.371994     2.364350     2.356707     2.349064     2.341421     2.333777     2.326134
      2.318491     2.310848     2.303205     2.295561     2.287918     2.280275     2.272632     2.264988     2.257345     2.249702
      2.242059     2.234416     2.226772     2.219129     2.211486     2.203843     2.196199     2.188556     2.180913     2.173270
      2.165627     2.157983     2.150340     2.142697     2.135054     2.127410     2.119767     2.112124     2.104481     2.096838
      2.089194     2.081551     2.073908     2.066265     2.058621     2.050978     2.043335     2.035692     2.028049     2.020405
      2.012762     2.005119     1.997476     1.989833     1.982190     1.974546     1.966903     1.959260     1.951617     1.943974
      1.936331     1.928688     1.921045     1.913402     1.905759     1.898115     1.890472     1.882829     1.875186     1.867543
      1.859900     1.852257     1.844614     1.836971     1.829327     1.821684     1.814041     1.806398     1.798755     1.791112
      1.783469     1.775826     1.768183     1.760540     1.752896     1.745253     1.737610     1.729967     1.722324     1.714681
      1.707038     1.699395     1.691752     1.684108     1.676465     1.668822     1.661179     1.653536     1.645893     1.638250
      1.630607     1.622964     1.615321     1.607677     1.600034     1.592391     1.584748     1.577105     1.569462     1.561819
      1.554176     1.546533     1.538890     1.531246     1.523603     1.515960     1.508317     1.500674     1.493031     1.485388
      1.477745     1.470102     1.462458     1.454815     1.447172     1.439529     1.431886     1.424243     1.416600     1.408957
      1.401314     1.393671     1.386027     1.378384     1.370741     1.363098     1.355455     1.347812     1.340169     1.332526
      1.324883     1.317240     1.309596     1.301953     1.294310     1.286667     1.279024     1.271381     1.263738     1.256095
      1.248452     1.240808     1.233165     1.225522     1.217879     1.210236     1.202593     1.194950     1.187307     1.179664
      1.172021     1.164377     1.156734     1.149091     1.141448     1.133805     1.126162     1.118519     1.110876     1.103233
      1.095590     1.087946     1.080303     1.072660     1.065017     1.057374     1.049731     1.042088     1.034445     1.026802
      1.019158     1.011515     1.003872     0.996229     0.988586     0.980943     0.973300     0.965657     0.958014     0.950371
      0.942727     0.935084     0.927441     0.919798     0.912155     0.904512     0.896869     0.889226     0.881583     0.873940
      0.866296     0.858653     0.851010     0.843367     0.835724     0.828081     0.820438     0.812795     0.805152     0.797508
      0.789865     0.782222     0.774579     0.766936     0.759293     0.751650     0.744007     0.736364     0.728721     0.721077
      0.713434     0.705791     0.698148     0.690505     0.682862     0.675219     0.667576     0.659933     0.652290     0.644646
      0.637003     0.629360     0.621717     0.614074     0.606431     0.598788     0.591145     0.583502     0.575858     0.568215
      0.560572     0.552929     0.545286     0.537643     0.530000     0.522357     0.514714     0.507071     0.499427     0.491784
      0.484141     0.476498     0.468855     0.461212     0.453569     0.445925     0.438282     0.430639     0.422996     0.415353
      0.407710     0.400067     0.392424     0.384780     0.377137     0.369494     0.361851     0.354208     0.346565     0.338922
      0.331278     0.323635     0.315992     0.308349     0.300706     0.293063     0.285420     0.277777     0.270133     0.262490
      0.254847     0.247204     0.239561     0.231918     0.224275     0.216631     0.208988     0.201345
 NY phased data points follow
   9.32401E+00  1.50917E+01  1.09428E+01  1.42116E+01  1.29357E+01  1.44188E+01  1.20141E+01  1.46000E+01  1.32068E+01  1.32338E+01
   1.06718E+01  1.33659E+01  1.17863E+01  1.06288E+01  1.15104E+01  1.09602E+01  1.26669E+01  1.43746E+01  1.16079E+01  1.20429E+01
   8.87602E+00  1.39826E+01  9.09329E+00  1.34769E+01  1.02196E+01  1.48133E+01  1.20115E+01  1.23601E+01  1.06246E+01  9.40301E+00
   1.14413E+01  1.14114E+01  1.04472E+01  9.94078E+00  8.60141E+00  1.18589E+01  9.18688E+00  1.04476E+01  1.36445E+01  7.95384E+00
   1.04732E+01  1.18277E+01  8.24094E+00  9.60847E+00  6.92079E+00  9.86408E+00  9.87404E+00  7.85841E+00  8.84435E+00  1.06746E+01
   9.69123E+00  1.01253E+01  8.24466E+00  9.42492E+00  1.05531E+01  8.31152E+00  7.34707E+00  8.50784E+00  9.16640E+00  7.13411E+00
   5.54739E+00  9.35863E+00  5.75164E+00  6.50754E+00  7.22006E+00  6.47453E+00  3.22804E+00  9.69383E+00  6.89288E+00  5.34804E+00
   8.06887E+00  8.08590E+00  6.07011E+00  5.88479E+00  3.57833E+00  5.60290E+00  5.16842E+00  4.04150E+00  3.89688E+00  6.93110E+00
   3.29732E+00  5.24480E+00  3.94027E+00  2.62810E+00  4.28346E+00  2.63747E+00  1.78194E+00  2.21830E+00  8.22353E-01  2.07600E+00
   1.02097E+00  2.21357E+00  4.14070E+00  6.41044E+00  3.71283E+00  3.30420E+00  2.27705E+00  6.10978E-01 -1.06789E+00 -2.96707E+00
  -1.87489E+00 -3.09190E+00 -9.34429E-01 -3.07409E+00 -2.20639E+00 -2.92534E+00 -7.26131E-01 -4.10432E+00  1.17991E-01 -3.02668E+00
  -2.16200E+00 -1.42918E+00 -7.12565E-01 -5.15028E+00 -4.66217E+00 -3.64424E+00 -4.55634E+00 -1.79094E+00 -5.67545E+00 -3.10396E+00
  -6.03789E+00 -6.10215E+00 -6.12264E+00 -4.62065E+00 -7.07828E+00 -6.15729E+00 -5.67057E+00 -7.50776E+00 -7.02366E+00 -6.49614E+00
  -7.70333E+00 -6.46597E+00 -5.41774E+00 -7.72984E+00 -1.05340E+01 -9.30156E+00 -6.92985E+00 -9.73166E+00 -1.03170E+01 -1.34774E+01
  -8.51302E+00 -1.07342E+01 -9.72951E+00 -1.11217E+01 -1.14942E+01 -1.38199E+01 -1.20670E+01 -1.26035E+01 -1.18439E+01 -1.46159E+01
  -1.63358E+01 -1.57346E+01 -1.60725E+01 -1.54435E+01 -1.78376E+01 -1.43038E+01 -1.50926E+01 -1.41811E+01 -1.45873E+01 -1.70155E+01
  -1.83195E+01 -1.96904E+01 -1.51656E+01 -1.92760E+01 -2.05862E+01 -2.08625E+01 -1.81074E+01 -2.36899E+01 -1.91437E+01 -2.15234E+01
  -1.90011E+01 -2.18197E+01 -2.07964E+01 -2.44077E+01 -2.38688E+01 -2.55796E+01 -2.32336E+01 -2.22608E+01 -2.29314E+01 -2.60895E+01
  -2.14518E+01 -2.48393E+01 -2.40532E+01 -2.85002E+01 -2.17577E+01 -2.63976E+01 -2.51324E+01 -2.40800E+01 -2.42635E+01 -2.57855E+01
  -2.28849E+01 -2.48160E+01 -2.30396E+01 -2.32645E+01 -2.35465E+01 -2.20547E+01 -2.47733E+01 -2.06789E+01 -2.33645E+01 -2.48037E+01
  -2.32331E+01 -2.29167E+01 -2.29055E+01 -2.07693E+01 -2.33400E+01 -2.19309E+01 -2.01294E+01 -2.62763E+01 -2.07929E+01 -2.30313E+01
  -2.07456E+01 -2.37718E+01 -2.33791E+01 -1.96001E+01 -1.99337E+01 -2.60662E+01 -2.13723E+01 -2.01745E+01 -1.94015E+01 -2.00379E+01
  -1.85469E+01 -2.17283E+01 -1.80682E+01 -1.93439E+01 -1.63002E+01 -1.78434E+01 -2.09796E+01 -2.49036E+01 -2.77594E+01 -2.59194E+01
  -2.04916E+01 -1.93902E+01 -1.71958E+01 -1.98220E+01 -1.79596E+01 -1.40763E+01 -1.87461E+01 -1.69364E+01 -1.86180E+01 -1.69601E+01
  -1.69755E+01 -1.92252E+01 -1.88226E+01 -1.85740E+01 -1.79795E+01 -1.84899E+01 -2.10416E+01 -2.03804E+01 -1.88337E+01 -1.98137E+01
  -1.90899E+01 -2.23411E+01 -1.86440E+01 -2.28406E+01 -1.79266E+01 -2.06294E+01 -2.28859E+01 -2.45839E+01 -2.34964E+01 -2.29041E+01
  -2.42107E+01 -2.29334E+01 -2.41404E+01 -2.46816E+01 -2.41712E+01 -2.10257E+01 -1.99940E+01 -1.96535E+01 -2.03372E+01 -1.93968E+01
  -1.54862E+01 -1.61719E+01 -1.48585E+01 -1.24203E+01 -8.79965E+00 -6.94334E+00 -2.75563E+00  2.61435E+00  3.99394E+00  8.62677E+00
   1.17631E+01  1.64844E+01  2.41066E+01  2.81565E+01  3.71280E+01  4.19856E+01  4.84978E+01  5.79044E+01  6.66589E+01  7.35083E+01
   8.54643E+01  9.26909E+01  1.03806E+02  1.12870E+02  1.18652E+02  1.29376E+02  1.35952E+02  1.42530E+02  1.48242E+02  1.54753E+02
   1.56647E+02  1.58490E+02  1.58573E+02  1.53475E+02  1.50589E+02  1.46440E+02  1.39301E+02  1.33695E+02  1.24699E+02  1.16919E+02
   1.06252E+02  9.50035E+01  8.52426E+01  7.60154E+01  6.48913E+01  5.96459E+01  4.93295E+01  4.72505E+01  3.84176E+01  3.26702E+01
   2.99425E+01  2.60732E+01  2.22505E+01  1.93176E+01  1.23991E+01  1.17870E+01  9.11285E+00  6.70247E+00  3.28263E+00  3.98394E-02
   1.62302E+00 -1.20585E+00 -3.97979E+00 -4.66314E+00 -6.37728E+00 -7.57571E+00 -8.22539E+00 -1.07457E+01 -7.87429E+00 -1.08787E+01
  -1.25309E+01 -1.47863E+01 -1.41931E+01 -1.10311E+01 -1.14370E+01 -1.32550E+01 -1.10768E+01 -1.06512E+01 -1.16436E+01 -1.23202E+01
  -1.19023E+01 -1.45915E+01 -1.48315E+01 -1.32343E+01 -1.30954E+01 -1.44733E+01 -1.31721E+01 -1.39112E+01 -1.25122E+01 -1.27801E+01
  -1.37534E+01 -1.48627E+01 -1.45862E+01 -1.38774E+01 -1.48805E+01 -1.49528E+01 -1.73205E+01 -1.50506E+01 -1.71336E+01 -1.77870E+01
  -1.62245E+01 -1.58060E+01 -1.82467E+01 -1.64404E+01 -1.86169E+01 -1.56879E+01 -2.06097E+01 -1.75306E+01 -2.01526E+01 -1.76357E+01
  -2.08098E+01 -1.95950E+01 -1.91698E+01 -1.67831E+01 -2.08964E+01 -1.94755E+01 -2.08915E+01 -1.84841E+01 -2.16465E+01 -2.21216E+01
  -2.05638E+01 -2.37225E+01 -1.92703E+01 -2.17578E+01 -2.21955E+01 -2.25856E+01 -2.44648E+01 -2.33290E+01 -2.52509E+01 -2.20510E+01
  -2.47600E+01 -2.35727E+01 -2.50350E+01 -2.33580E+01 -2.30308E+01 -2.51908E+01 -2.21677E+01 -2.55493E+01 -2.46688E+01 -2.14335E+01
  -2.52826E+01 -2.13612E+01 -2.40383E+01 -2.37498E+01 -2.40676E+01 -2.39144E+01 -2.54484E+01 -2.31089E+01 -2.36980E+01 -2.39071E+01
  -2.56237E+01 -2.07645E+01 -2.35960E+01 -2.13795E+01 -2.24213E+01 -2.14987E+01 -2.25647E+01 -2.01139E+01 -2.49183E+01 -2.32047E+01
  -2.24850E+01 -2.32621E+01 -2.26264E+01 -1.86393E+01 -2.40752E+01 -1.97533E+01 -2.04858E+01 -1.96562E+01 -2.12133E+01 -1.88074E+01
  -1.85929E+01 -2.11944E+01 -1.85808E+01 -1.87725E+01 -1.79721E+01 -1.88903E+01 -1.53853E+01 -1.82930E+01 -1.89165E+01 -1.35107E+01
  -1.57763E+01 -1.45294E+01 -1.65484E+01 -1.41036E+01 -1.63108E+01 -1.00902E+01 -1.31136E+01 -1.14148E+01 -1.58082E+01 -1.10256E+01
  -1.07044E+01 -1.13500E+01 -1.19405E+01 -1.21124E+01 -9.81165E+00 -1.06547E+01 -9.44117E+00 -9.59628E+00 -7.87008E+00 -6.59408E+00
  -8.08660E+00 -4.24005E+00 -7.59555E+00 -8.02175E+00 -6.27230E+00 -5.77974E+00 -8.35772E+00 -5.65660E+00 -5.50153E+00 -4.02643E+00
  -3.57433E+00 -2.35362E+00 -3.26558E+00 -9.45046E-01 -3.32581E+00 -2.10064E+00  1.01766E+00  1.19625E+00 -1.59628E+00 -1.41259E+00
   1.04479E+00  1.85365E+00 -7.95701E-01 -6.21899E-01  1.10596E+00  1.41388E+00  9.39262E-01 -9.51841E-01
 NY points of the fit to the data follow
   1.34065E+01  1.34849E+01  1.31910E+01  1.33803E+01  1.31786E+01  1.34472E+01  1.33805E+01  1.38971E+01  1.30379E+01  1.28969E+01
   1.19185E+01  1.18066E+01  1.12932E+01  1.14932E+01  1.13905E+01  1.25532E+01  1.20617E+01  1.27137E+01  1.19307E+01  1.22207E+01
   1.13815E+01  1.19195E+01  1.12044E+01  1.18392E+01  1.13099E+01  1.17880E+01  1.12003E+01  1.15932E+01  1.09989E+01  1.15108E+01
   1.12542E+01  1.17119E+01  1.14445E+01  1.16833E+01  1.12200E+01  1.13409E+01  1.09371E+01  1.09978E+01  1.08607E+01  1.07748E+01
   1.07929E+01  1.10189E+01  1.09240E+01  1.07993E+01  1.05245E+01  1.00132E+01  1.01190E+01  9.86674E+00  9.88740E+00  9.68181E+00
   9.67638E+00  9.36371E+00  9.23493E+00  8.41794E+00  8.41087E+00  8.10647E+00  8.16658E+00  7.87691E+00  7.91206E+00  7.49159E+00
   7.45299E+00  7.13174E+00  6.99399E+00  6.69586E+00  6.64298E+00  6.34792E+00  6.25695E+00  5.86143E+00  5.71567E+00  5.37044E+00
   5.32634E+00  4.97920E+00  4.92631E+00  4.56362E+00  4.49316E+00  4.15334E+00  4.07302E+00  3.71424E+00  3.62390E+00  3.20513E+00
   3.02227E+00  2.59280E+00  2.39590E+00  2.01044E+00  1.88688E+00  1.76198E+00  1.80153E+00  1.42764E+00  1.39558E+00  8.61210E-01
   7.84809E-01  3.47392E-01  3.29021E-01  3.26204E-02  1.48102E-01 -2.21702E-01 -9.14822E-02 -4.74484E-01 -3.05222E-01 -6.89992E-01
  -4.79165E-01 -8.75155E-01 -6.37502E-01 -1.07922E+00 -8.45422E-01 -1.38083E+00 -1.16963E+00 -1.74052E+00 -1.45815E+00 -1.88435E+00
  -1.79731E+00 -2.30507E+00 -2.34268E+00 -2.92510E+00 -3.01100E+00 -3.52932E+00 -3.65711E+00 -4.10479E+00 -4.38912E+00 -4.62527E+00
  -4.93444E+00 -5.07477E+00 -5.42986E+00 -5.59254E+00 -6.04196E+00 -5.95714E+00 -6.38664E+00 -6.29217E+00 -6.79010E+00 -6.72472E+00
  -7.26457E+00 -7.26369E+00 -7.81451E+00 -7.88436E+00 -8.43696E+00 -8.57990E+00 -9.13807E+00 -9.37426E+00 -9.92050E+00 -1.02469E+01
  -1.07532E+01 -1.11679E+01 -1.15461E+01 -1.19299E+01 -1.22802E+01 -1.27014E+01 -1.30765E+01 -1.35784E+01 -1.38089E+01 -1.41729E+01
  -1.43730E+01 -1.47228E+01 -1.49424E+01 -1.52932E+01 -1.55419E+01 -1.58351E+01 -1.60629E+01 -1.63318E+01 -1.65600E+01 -1.68258E+01
  -1.70774E+01 -1.73318E+01 -1.75824E+01 -1.78071E+01 -1.80329E+01 -1.82410E+01 -1.84508E+01 -1.86542E+01 -1.88608E+01 -1.90523E+01
  -1.92429E+01 -1.94241E+01 -1.95867E+01 -1.97444E+01 -1.98895E+01 -2.00649E+01 -2.03275E+01 -2.05807E+01 -2.08912E+01 -2.13099E+01
  -2.15051E+01 -2.18385E+01 -2.19089E+01 -2.20116E+01 -2.17997E+01 -2.18739E+01 -2.18086E+01 -2.19968E+01 -2.19964E+01 -2.24382E+01
  -2.25291E+01 -2.32607E+01 -2.38628E+01 -2.45751E+01 -2.42393E+01 -2.46340E+01 -2.38797E+01 -2.43285E+01 -2.38250E+01 -2.44756E+01
  -2.41470E+01 -2.48355E+01 -2.41145E+01 -2.47765E+01 -2.40371E+01 -2.47700E+01 -2.39906E+01 -2.47853E+01 -2.39203E+01 -2.47004E+01
  -2.38204E+01 -2.45481E+01 -2.35772E+01 -2.43072E+01 -2.32460E+01 -2.39421E+01 -2.29648E+01 -2.35850E+01 -2.29869E+01 -2.35545E+01
  -2.25627E+01 -2.27929E+01 -2.15565E+01 -2.13996E+01 -2.01628E+01 -2.07233E+01 -2.04796E+01 -2.11944E+01 -2.07568E+01 -2.11258E+01
  -2.02890E+01 -2.06471E+01 -2.04595E+01 -2.10478E+01 -2.05823E+01 -2.12202E+01 -2.06632E+01 -2.14404E+01 -2.07429E+01 -2.16402E+01
  -2.07233E+01 -2.16600E+01 -2.06186E+01 -2.15982E+01 -2.05498E+01 -2.15389E+01 -2.04589E+01 -2.13972E+01 -2.02946E+01 -2.11369E+01
  -2.00247E+01 -2.08070E+01 -2.00437E+01 -2.07925E+01 -2.01433E+01 -2.06756E+01 -1.98352E+01 -1.99768E+01 -1.94848E+01 -1.96708E+01
  -1.92032E+01 -1.93484E+01 -1.88847E+01 -1.85238E+01 -1.79192E+01 -1.75974E+01 -1.69149E+01 -1.64128E+01 -1.56315E+01 -1.49144E+01
  -1.39092E+01 -1.29520E+01 -1.16859E+01 -1.02320E+01 -8.45855E+00 -6.43919E+00 -4.02333E+00 -1.22573E+00  1.97162E+00  5.68143E+00
   9.87016E+00  1.46138E+01  1.99567E+01  2.59364E+01  3.25647E+01  3.98419E+01  4.77486E+01  5.62434E+01  6.52508E+01  7.46755E+01
   8.43856E+01  9.42283E+01  1.04022E+02  1.13570E+02  1.22657E+02  1.31069E+02  1.38588E+02  1.45018E+02  1.50180E+02  1.53934E+02
   1.56172E+02  1.56842E+02  1.55933E+02  1.53495E+02  1.49623E+02  1.44471E+02  1.38247E+02  1.31254E+02  1.24025E+02  1.16871E+02
   1.06680E+02  9.71748E+01  8.63812E+01  7.66389E+01  6.70183E+01  5.86304E+01  4.98985E+01  4.53750E+01  3.90700E+01  3.48687E+01
   2.96264E+01  2.56099E+01  2.04086E+01  1.73953E+01  1.27530E+01  1.13236E+01  7.99471E+00  6.84293E+00  3.65781E+00  2.48255E+00
  -4.00244E-01 -1.59755E+00 -3.76705E+00 -4.81210E+00 -6.32286E+00 -7.21165E+00 -8.10268E+00 -9.27850E+00 -9.66239E+00 -1.13644E+01
  -1.13169E+01 -1.30735E+01 -1.18204E+01 -1.25190E+01 -1.14069E+01 -1.25796E+01 -1.18143E+01 -1.36783E+01 -1.18782E+01 -1.28440E+01
  -1.24190E+01 -1.28391E+01 -1.21383E+01 -1.23029E+01 -1.16523E+01 -1.30197E+01 -1.38119E+01 -1.41639E+01 -1.43609E+01 -1.45001E+01
  -1.46207E+01 -1.47358E+01 -1.48491E+01 -1.49594E+01 -1.50682E+01 -1.51783E+01 -1.52975E+01 -1.54339E+01 -1.55978E+01 -1.57967E+01
  -1.60374E+01 -1.63221E+01 -1.66510E+01 -1.70198E+01 -1.74228E+01 -1.78508E+01 -1.82949E+01 -1.87441E+01 -1.91890E+01 -1.96189E+01
  -2.00261E+01 -2.04024E+01 -2.07428E+01 -2.10427E+01 -2.13010E+01 -2.15166E+01 -2.16921E+01 -2.18299E+01 -2.19356E+01 -2.20139E+01
  -2.20721E+01 -2.21161E+01 -2.21534E+01 -2.21894E+01 -2.22304E+01 -2.22803E+01 -2.23432E+01 -2.24202E+01 -2.25129E+01 -2.26200E+01
  -2.27404E+01 -2.28706E+01 -2.30080E+01 -2.31478E+01 -2.32865E+01 -2.34191E+01 -2.35425E+01 -2.36523E+01 -2.37460E+01 -2.38205E+01
  -2.38748E+01 -2.39067E+01 -2.39166E+01 -2.39035E+01 -2.38686E+01 -2.38118E+01 -2.37348E+01 -2.36382E+01 -2.35239E+01 -2.33926E+01
  -2.32464E+01 -2.30857E+01 -2.29127E+01 -2.27274E+01 -2.25320E+01 -2.23263E+01 -2.21120E+01 -2.18891E+01 -2.16590E+01 -2.14214E+01
  -2.11777E+01 -2.09274E+01 -2.06717E+01 -2.04102E+01 -2.01441E+01 -1.98726E+01 -1.95969E+01 -1.93164E+01 -1.90320E+01 -1.87432E+01
  -1.84510E+01 -1.81545E+01 -1.78549E+01 -1.75514E+01 -1.72450E+01 -1.69349E+01 -1.66221E+01 -1.63058E+01 -1.59870E+01 -1.56649E+01
  -1.53406E+01 -1.50131E+01 -1.46834E+01 -1.43509E+01 -1.40162E+01 -1.36789E+01 -1.33396E+01 -1.29977E+01 -1.26541E+01 -1.23079E+01
  -1.19602E+01 -1.16101E+01 -1.12585E+01 -1.09046E+01 -1.05494E+01 -1.01921E+01 -9.83349E+00 -9.47289E+00 -9.11117E+00 -8.74755E+00
  -8.38289E+00 -8.01645E+00 -7.64909E+00 -7.28006E+00 -6.91023E+00 -6.53882E+00 -6.16670E+00 -5.79311E+00 -5.41893E+00 -5.04338E+00
  -4.66734E+00 -4.29002E+00 -3.91230E+00 -3.53340E+00 -3.15421E+00 -2.77395E+00 -2.39348E+00 -2.01202E+00 -1.63044E+00 -1.24796E+00
  -8.65468E-01 -4.82163E-01 -9.88993E-02  2.85116E-01  6.69020E-01  1.05360E+00  1.43803E+00  1.82314E+00
 NY background values follow
     1.026E+01    1.017E+01    1.009E+01    1.000E+01    9.919E+00    9.835E+00    9.752E+00    9.669E+00    9.587E+00    9.504E+00
     9.422E+00    9.340E+00    9.257E+00    9.175E+00    9.093E+00    9.010E+00    8.927E+00    8.844E+00    8.761E+00    8.678E+00
     8.594E+00    8.510E+00    8.426E+00    8.341E+00    8.255E+00    8.169E+00    8.083E+00    7.996E+00    7.908E+00    7.819E+00
     7.730E+00    7.640E+00    7.549E+00    7.457E+00    7.364E+00    7.270E+00    7.176E+00    7.080E+00    6.983E+00    6.885E+00
     6.786E+00    6.685E+00    6.583E+00    6.480E+00    6.376E+00    6.270E+00    6.163E+00    6.054E+00    5.944E+00    5.832E+00
     5.719E+00    5.604E+00    5.487E+00    5.368E+00    5.248E+00    5.126E+00    5.002E+00    4.876E+00    4.748E+00    4.618E+00
     4.486E+00    4.352E+00    4.216E+00    4.078E+00    3.937E+00    3.795E+00    3.650E+00    3.502E+00    3.352E+00    3.200E+00
     3.045E+00    2.888E+00    2.728E+00    2.566E+00    2.401E+00    2.233E+00    2.063E+00    1.890E+00    1.714E+00    1.535E+00
     1.353E+00    1.168E+00    9.805E-01    7.897E-01    5.959E-01    3.991E-01    1.995E-01   -3.061E-03   -2.084E-01   -4.163E-01
    -6.270E-01   -8.401E-01   -1.056E+00   -1.274E+00   -1.494E+00   -1.717E+00   -1.942E+00   -2.169E+00   -2.398E+00   -2.629E+00
    -2.862E+00   -3.097E+00   -3.333E+00   -3.571E+00   -3.811E+00   -4.053E+00   -4.296E+00   -4.540E+00   -4.786E+00   -5.033E+00
    -5.281E+00   -5.530E+00   -5.781E+00   -6.032E+00   -6.284E+00   -6.537E+00   -6.791E+00   -7.046E+00   -7.301E+00   -7.557E+00
    -7.813E+00   -8.069E+00   -8.326E+00   -8.584E+00   -8.841E+00   -9.099E+00   -9.356E+00   -9.614E+00   -9.872E+00   -1.013E+01
    -1.039E+01   -1.064E+01   -1.090E+01   -1.116E+01   -1.141E+01   -1.167E+01   -1.192E+01   -1.217E+01   -1.243E+01   -1.268E+01
    -1.293E+01   -1.318E+01   -1.343E+01   -1.368E+01   -1.392E+01   -1.417E+01   -1.441E+01   -1.465E+01   -1.490E+01   -1.513E+01
    -1.537E+01   -1.561E+01   -1.584E+01   -1.607E+01   -1.630E+01   -1.653E+01   -1.676E+01   -1.698E+01   -1.721E+01   -1.742E+01
    -1.764E+01   -1.786E+01   -1.807E+01   -1.828E+01   -1.849E+01   -1.869E+01   -1.889E+01   -1.909E+01   -1.929E+01   -1.948E+01
    -1.967E+01   -1.986E+01   -2.004E+01   -2.023E+01   -2.041E+01   -2.058E+01   -2.076E+01   -2.093E+01   -2.110E+01   -2.127E+01
    -2.143E+01   -2.160E+01   -2.176E+01   -2.192E+01   -2.207E+01   -2.223E+01   -2.238E+01   -2.253E+01   -2.268E+01   -2.283E+01
    -2.297E+01   -2.312E+01   -2.326E+01   -2.340E+01   -2.354E+01   -2.367E+01   -2.381E+01   -2.394E+01   -2.407E+01   -2.420E+01
    -2.433E+01   -2.446E+01   -2.458E+01   -2.470E+01   -2.483E+01   -2.495E+01   -2.507E+01   -2.519E+01   -2.531E+01   -2.542E+01
    -2.554E+01   -2.565E+01   -2.577E+01   -2.588E+01   -2.599E+01   -2.610E+01   -2.621E+01   -2.632E+01   -2.643E+01   -2.654E+01
    -2.665E+01   -2.676E+01   -2.686E+01   -2.697E+01   -2.707E+01   -2.718E+01   -2.728E+01   -2.739E+01   -2.749E+01   -2.759E+01
    -2.770E+01   -2.780E+01   -2.790E+01   -2.800E+01   -2.811E+01   -2.821E+01   -2.831E+01   -2.841E+01   -2.852E+01   -2.862E+01
    -2.872E+01   -2.883E+01   -2.893E+01   -2.903E+01   -2.914E+01   -2.924E+01   -2.935E+01   -2.945E+01   -2.956E+01   -2.966E+01
    -2.977E+01   -2.988E+01   -2.999E+01   -3.009E+01   -3.020E+01   -3.031E+01   -3.042E+01   -3.053E+01   -3.064E+01   -3.075E+01
    -3.086E+01   -3.097E+01   -3.108E+01   -3.119E+01   -3.130E+01   -3.141E+01   -3.152E+01   -3.163E+01   -3.174E+01   -3.185E+01
    -3.196E+01   -3.207E+01   -3.217E+01   -3.228E+01   -3.239E+01   -3.250E+01   -3.260E+01   -3.271E+01   -3.281E+01   -3.292E+01
    -3.302E+01   -3.313E+01   -3.323E+01   -3.333E+01   -3.343E+01   -3.353E+01   -3.363E+01   -3.373E+01   -3.383E+01   -3.392E+01
    -3.402E+01   -3.411E+01   -3.421E+01   -3.430E+01   -3.439E+01   -3.448E+01   -3.456E+01   -3.465E+01   -3.474E+01   -3.482E+01
    -3.490E+01   -3.498E+01   -3.506E+01   -3.514E+01   -3.521E+01   -3.529E+01   -3.536E+01   -3.543E+01   -3.550E+01   -3.557E+01
    -3.563E+01   -3.570E+01   -3.576E+01   -3.582E+01   -3.587E+01   -3.593E+01   -3.598E+01   -3.603E+01   -3.608E+01   -3.613E+01
    -3.617E+01   -3.621E+01   -3.625E+01   -3.629E+01   -3.633E+01   -3.636E+01   -3.639E+01   -3.641E+01   -3.644E+01   -3.646E+01
    -3.648E+01   -3.650E+01   -3.651E+01   -3.652E+01   -3.653E+01   -3.653E+01   -3.653E+01   -3.653E+01   -3.653E+01   -3.652E+01
    -3.652E+01   -3.650E+01   -3.649E+01   -3.647E+01   -3.645E+01   -3.643E+01   -3.640E+01   -3.637E+01   -3.634E+01   -3.630E+01
    -3.627E+01   -3.623E+01   -3.618E+01   -3.613E+01   -3.608E+01   -3.603E+01   -3.598E+01   -3.592E+01   -3.585E+01   -3.579E+01
    -3.572E+01   -3.565E+01   -3.558E+01   -3.550E+01   -3.542E+01   -3.534E+01   -3.525E+01   -3.516E+01   -3.507E+01   -3.497E+01
    -3.487E+01   -3.477E+01   -3.467E+01   -3.456E+01   -3.445E+01   -3.433E+01   -3.421E+01   -3.409E+01   -3.397E+01   -3.384E+01
    -3.371E+01   -3.358E+01   -3.344E+01   -3.330E+01   -3.315E+01   -3.301E+01   -3.286E+01   -3.270E+01   -3.255E+01   -3.239E+01
    -3.222E+01   -3.206E+01   -3.189E+01   -3.171E+01   -3.154E+01   -3.136E+01   -3.117E+01   -3.099E+01   -3.080E+01   -3.060E+01
    -3.041E+01   -3.021E+01   -3.000E+01   -2.980E+01   -2.958E+01   -2.937E+01   -2.915E+01   -2.893E+01   -2.871E+01   -2.848E+01
    -2.825E+01   -2.801E+01   -2.777E+01   -2.753E+01   -2.729E+01   -2.704E+01   -2.679E+01   -2.653E+01   -2.627E+01   -2.601E+01
    -2.574E+01   -2.547E+01   -2.520E+01   -2.492E+01   -2.464E+01   -2.436E+01   -2.408E+01   -2.379E+01   -2.350E+01   -2.320E+01
    -2.291E+01   -2.261E+01   -2.230E+01   -2.200E+01   -2.169E+01   -2.138E+01   -2.107E+01   -2.075E+01   -2.043E+01   -2.011E+01
    -1.979E+01   -1.946E+01   -1.913E+01   -1.880E+01   -1.847E+01   -1.813E+01   -1.780E+01   -1.746E+01   -1.712E+01   -1.677E+01
    -1.643E+01   -1.608E+01   -1.573E+01   -1.538E+01   -1.502E+01   -1.467E+01   -1.431E+01   -1.395E+01   -1.359E+01   -1.323E+01
    -1.287E+01   -1.250E+01   -1.214E+01   -1.177E+01   -1.140E+01   -1.103E+01   -1.066E+01   -1.029E+01   -9.912E+00   -9.537E+00
    -9.160E+00   -8.783E+00   -8.404E+00   -8.024E+00   -7.644E+00   -7.262E+00   -6.880E+00   -6.497E+00   -6.113E+00   -5.728E+00
    -5.342E+00   -4.956E+00   -4.570E+00   -4.183E+00   -3.795E+00   -3.407E+00   -3.018E+00   -2.629E+00   -2.240E+00   -1.850E+00
    -1.460E+00   -1.070E+00   -6.799E-01   -2.896E-01    1.009E-01    4.913E-01    8.818E-01    1.272E+00
 Ala      Conc. = 3.57E+03
