 LCModel (Version 6.3-1L) Copyright: S.W. Provencher.          Ref.: Magn. Reson. Med. 30:672-679 (1993).                
 Slice#3 Row#7 Col#11  PD_24_press_2_raw_act
 36 lines in following concentration table = NCONC+1
    Conc.  %SD /Cr+PCr  Metabolite                                         
  455.288  40%   0.655 Ala                                                 
   32.566 718% 4.7E-02 Asp                                                 
    0.000 999%   0.000 Cr                                                  
  694.619  11%   1.000 PCr                                                 
   20.681 741% 3.0E-02 GABA                                                
  143.995 101%   0.207 Glc                                                 
 1.52E+03  24%   2.195 Gln                                                 
 1.41E+03  30%   2.024 Glu                                                 
  165.589  17%   0.238 GPC                                                 
    0.000 999%   0.000 PCh                                                 
    0.000 999%   0.000 GSH                                                 
    0.000 999%   0.000 Ins                                                 
  393.629  76%   0.567 Lac                                                 
 2.81E+03   4%   4.051 NAA                                                 
    0.000 999%   0.000 NAAG                                                
  101.514  32%   0.146 Scyllo                                              
  353.317  61%   0.509 Tau                                                 
  801.339  15%   1.154 -CrCH2                                              
  165.589  17%   0.238 GPC+PCh                                             
 2.81E+03   4%   4.051 NAA+NAAG                                            
  694.619  11%   1.000 Cr+PCr                                              
 2.93E+03  20%   4.219 Glu+Gln                                             
    0.000 999%   0.000 Lip13a                                              
 1.14E+03  44%   1.635 Lip13b                                              
  244.255  58%   0.352 Lip09                                               
 2.04E+03  12%   2.943 MM09                                                
  167.781  50%   0.242 Lip20                                               
 3.06E+03  12%   4.409 MM20                                                
  614.002  12%   0.884 MM12                                                
 1.59E+03  11%   2.295 MM14                                                
  796.233  12%   1.146 MM17                                                
 1.14E+03  44%   1.635 Lip13a+Lip13b                                       
 3.34E+03  13%   4.814 MM14+Lip13a+Lip13b+MM12                             
 2.29E+03   9%   3.294 MM09+Lip09                                          
 3.23E+03  10%   4.651 MM20+Lip20                                          
   6 lines in following misc. output table
  FWHM = 0.061 ppm    S/N =   9                                            
  Data shift = 0.015 ppm                                                   
  Ph: -72 deg     -28.5 deg/ppm                                            
  alphaB,S = 8.5E+01,   2.9E+02                                            
   14 spline knots.   Ns = 8(1)                                            
  (10) 4 infls.   ( 5) 1 extrs.                                            
  498 points on ppm-axis = NY
      4.000000     3.992357     3.984714     3.977070     3.969427     3.961784     3.954141     3.946497     3.938854     3.931211
      3.923568     3.915925     3.908281     3.900638     3.892995     3.885352     3.877708     3.870065     3.862422     3.854779
      3.847136     3.839492     3.831849     3.824206     3.816563     3.808919     3.801276     3.793633     3.785990     3.778347
      3.770703     3.763060     3.755417     3.747774     3.740130     3.732487     3.724844     3.717201     3.709558     3.701914
      3.694271     3.686628     3.678985     3.671341     3.663698     3.656055     3.648412     3.640769     3.633125     3.625482
      3.617839     3.610196     3.602552     3.594909     3.587266     3.579623     3.571980     3.564336     3.556693     3.549050
      3.541407     3.533763     3.526120     3.518477     3.510834     3.503191     3.495547     3.487904     3.480261     3.472618
      3.464974     3.457331     3.449688     3.442045     3.434402     3.426758     3.419115     3.411472     3.403829     3.396185
      3.388542     3.380899     3.373256     3.365613     3.357969     3.350326     3.342683     3.335040     3.327396     3.319753
      3.312110     3.304467     3.296824     3.289180     3.281537     3.273894     3.266251     3.258607     3.250964     3.243321
      3.235678     3.228034     3.220391     3.212748     3.205105     3.197462     3.189818     3.182175     3.174532     3.166889
      3.159245     3.151602     3.143959     3.136316     3.128673     3.121029     3.113386     3.105743     3.098100     3.090456
      3.082813     3.075170     3.067527     3.059884     3.052240     3.044597     3.036954     3.029311     3.021667     3.014024
      3.006381     2.998738     2.991095     2.983451     2.975808     2.968165     2.960522     2.952878     2.945235     2.937592
      2.929949     2.922306     2.914662     2.907019     2.899376     2.891733     2.884089     2.876446     2.868803     2.861160
      2.853517     2.845873     2.838230     2.830587     2.822944     2.815300     2.807657     2.800014     2.792371     2.784728
      2.777084     2.769441     2.761798     2.754155     2.746511     2.738868     2.731225     2.723582     2.715939     2.708295
      2.700652     2.693009     2.685366     2.677722     2.670079     2.662436     2.654793     2.647150     2.639506     2.631863
      2.624220     2.616577     2.608933     2.601290     2.593647     2.586004     2.578361     2.570717     2.563074     2.555431
      2.547788     2.540144     2.532501     2.524858     2.517215     2.509572     2.501928     2.494285     2.486642     2.478999
      2.471355     2.463712     2.456069     2.448426     2.440783     2.433139     2.425496     2.417853     2.410210     2.402566
      2.394923     2.387280     2.379637     2.371994     2.364350     2.356707     2.349064     2.341421     2.333777     2.326134
      2.318491     2.310848     2.303205     2.295561     2.287918     2.280275     2.272632     2.264988     2.257345     2.249702
      2.242059     2.234416     2.226772     2.219129     2.211486     2.203843     2.196199     2.188556     2.180913     2.173270
      2.165627     2.157983     2.150340     2.142697     2.135054     2.127410     2.119767     2.112124     2.104481     2.096838
      2.089194     2.081551     2.073908     2.066265     2.058621     2.050978     2.043335     2.035692     2.028049     2.020405
      2.012762     2.005119     1.997476     1.989833     1.982190     1.974546     1.966903     1.959260     1.951617     1.943974
      1.936331     1.928688     1.921045     1.913402     1.905759     1.898115     1.890472     1.882829     1.875186     1.867543
      1.859900     1.852257     1.844614     1.836971     1.829327     1.821684     1.814041     1.806398     1.798755     1.791112
      1.783469     1.775826     1.768183     1.760540     1.752896     1.745253     1.737610     1.729967     1.722324     1.714681
      1.707038     1.699395     1.691752     1.684108     1.676465     1.668822     1.661179     1.653536     1.645893     1.638250
      1.630607     1.622964     1.615321     1.607677     1.600034     1.592391     1.584748     1.577105     1.569462     1.561819
      1.554176     1.546533     1.538890     1.531246     1.523603     1.515960     1.508317     1.500674     1.493031     1.485388
      1.477745     1.470102     1.462458     1.454815     1.447172     1.439529     1.431886     1.424243     1.416600     1.408957
      1.401314     1.393671     1.386027     1.378384     1.370741     1.363098     1.355455     1.347812     1.340169     1.332526
      1.324883     1.317240     1.309596     1.301953     1.294310     1.286667     1.279024     1.271381     1.263738     1.256095
      1.248452     1.240808     1.233165     1.225522     1.217879     1.210236     1.202593     1.194950     1.187307     1.179664
      1.172021     1.164377     1.156734     1.149091     1.141448     1.133805     1.126162     1.118519     1.110876     1.103233
      1.095590     1.087946     1.080303     1.072660     1.065017     1.057374     1.049731     1.042088     1.034445     1.026802
      1.019158     1.011515     1.003872     0.996229     0.988586     0.980943     0.973300     0.965657     0.958014     0.950371
      0.942727     0.935084     0.927441     0.919798     0.912155     0.904512     0.896869     0.889226     0.881583     0.873940
      0.866296     0.858653     0.851010     0.843367     0.835724     0.828081     0.820438     0.812795     0.805152     0.797508
      0.789865     0.782222     0.774579     0.766936     0.759293     0.751650     0.744007     0.736364     0.728721     0.721077
      0.713434     0.705791     0.698148     0.690505     0.682862     0.675219     0.667576     0.659933     0.652290     0.644646
      0.637003     0.629360     0.621717     0.614074     0.606431     0.598788     0.591145     0.583502     0.575858     0.568215
      0.560572     0.552929     0.545286     0.537643     0.530000     0.522357     0.514714     0.507071     0.499427     0.491784
      0.484141     0.476498     0.468855     0.461212     0.453569     0.445925     0.438282     0.430639     0.422996     0.415353
      0.407710     0.400067     0.392424     0.384780     0.377137     0.369494     0.361851     0.354208     0.346565     0.338922
      0.331278     0.323635     0.315992     0.308349     0.300706     0.293063     0.285420     0.277777     0.270133     0.262490
      0.254847     0.247204     0.239561     0.231918     0.224275     0.216631     0.208988     0.201345
 NY phased data points follow
  -1.41738E+01 -1.16153E+01 -8.32084E+00 -1.15453E+01 -6.22352E+00 -9.40111E+00 -8.38562E+00 -9.27180E+00 -3.97053E+00  2.55168E+00
  -3.91454E+00 -5.21413E+00 -1.16923E+01 -8.47312E+00 -8.70815E+00 -1.62807E+01 -1.18949E+01 -1.22533E+01 -1.07881E+01 -1.56010E+01
  -1.09112E+01 -1.26633E+01 -3.94170E+00 -1.15918E+01 -6.86758E+00 -7.80148E+00 -6.07682E+00 -7.89260E+00 -7.31400E+00 -2.90803E+00
  -8.12017E+00 -6.45485E+00 -5.88287E+00 -8.05284E+00 -1.18106E+01 -5.92322E+00 -1.01052E+01 -1.15515E+01 -9.60748E+00 -1.63631E+01
  -1.58727E+00 -6.86586E+00 -6.49114E+00 -8.10223E+00 -9.63165E+00 -6.15821E+00 -8.57868E+00 -6.10114E+00 -3.36669E+00 -5.00661E+00
  -7.80524E+00 -3.86797E+00 -9.81980E+00 -8.31944E+00 -6.45257E+00 -2.82143E+00 -5.32233E+00 -8.92587E+00 -6.01115E+00 -3.22854E+00
  -5.89630E+00 -7.17456E+00 -7.56624E+00 -1.50442E+01 -8.89853E+00 -7.71606E+00 -7.77952E+00 -5.59539E+00 -1.00341E+01 -7.75787E+00
  -8.02976E+00 -8.63560E+00 -3.00538E+00 -1.17066E+00 -8.08388E+00 -7.92146E+00 -6.90709E+00 -9.74049E+00 -7.00866E+00 -5.73507E+00
  -1.01236E+01 -9.25002E+00 -6.34932E+00 -3.81934E+00 -5.24024E+00 -6.83791E+00 -5.11966E+00 -4.36595E+00 -3.58278E+00 -2.60616E+00
  -5.86028E+00 -4.64827E+00 -2.80099E+00 -6.43614E+00 -2.34291E+00 -4.73736E+00 -5.69402E+00 -2.96344E+00 -3.79323E+00 -1.89445E+00
  -2.71871E+00  4.98573E+00  9.09741E+00  1.39706E+01  1.37024E+01  9.36924E+00  1.01345E+01  9.39708E+00 -1.07521E+00 -2.42012E-01
   5.05161E+00  2.88735E-01 -1.62842E+00 -1.13726E+00 -7.02636E+00 -2.47509E+00 -5.65576E+00 -6.63552E-01 -1.97671E+00 -5.11566E+00
  -5.01425E+00 -6.03452E+00 -4.92999E+00 -3.84435E+00  2.34173E+00  6.82879E+00  1.49102E+01  1.70308E+01  2.26123E+01  2.77847E+01
   1.81287E+01  1.71621E+01  1.36007E+01  1.15363E+01  9.78017E+00  8.66935E+00  7.71383E+00  6.69514E+00  6.11809E+00  8.39405E+00
   8.91271E+00  6.31349E+00  1.19161E+01  7.01069E+00  5.07665E+00  7.15035E+00  7.93264E+00  5.03884E+00  3.62226E+00  2.96349E+00
   4.29397E+00  3.41126E+00  7.36080E+00  6.26037E+00  2.26771E+00  3.35701E+00  3.22777E+00 -7.92455E-01  4.08156E-01  1.16172E+01
   8.99159E+00  2.54737E+00  6.01337E+00  4.44103E+00 -4.16822E-01  3.74349E+00  4.34156E+00  1.53415E+00  3.75997E+00 -3.37850E+00
  -3.74599E+00  6.02252E-01 -6.48726E+00 -9.71642E+00 -7.17963E+00 -9.37788E+00 -1.25907E+01 -7.88879E+00 -8.25418E+00 -6.14728E+00
  -9.74927E+00 -6.88646E+00 -1.04874E+01 -4.87392E+00 -3.59422E+00 -6.70090E+00 -7.02660E+00 -1.13748E+01 -9.33134E-01 -4.97922E+00
  -7.76985E+00 -4.58105E+00 -6.07792E-01 -4.12618E+00  5.50241E-01  2.30615E-01 -6.88229E+00 -1.30602E+01 -9.43986E+00 -8.39632E+00
  -1.07895E+01 -1.00841E+01 -4.78705E+00 -7.41904E-01  4.52678E+00 -2.51983E-01  7.45064E-01 -2.83683E+00 -2.08578E+00 -3.63116E+00
  -3.82919E+00 -6.04269E+00 -6.86453E-01  2.84199E+00  1.33823E+01  1.54665E+01  1.84060E+01  1.04481E+01  1.65335E+01  1.34395E+01
   3.54705E+00  1.27085E+00  4.62098E+00  3.97144E+00  3.13668E+00  8.06949E+00  1.18053E+01  6.98654E+00  1.13043E+01  1.11334E+01
   8.16059E+00  9.22045E+00  1.21206E+01  1.11851E+01  1.00714E+01  1.64673E+01  7.14787E+00  1.45770E+01  6.38245E+00  1.14969E+01
   3.98317E+00  1.12382E+01  2.08641E+00  9.32021E+00  8.73411E+00  1.06229E+01  1.03338E+01  1.15548E+01  1.26496E+01  1.26983E+01
   1.81587E+01  1.87820E+01  2.18280E+01  2.56397E+01  2.81443E+01  3.81086E+01  4.60898E+01  5.58856E+01  7.33052E+01  8.71840E+01
   1.01972E+02  1.01497E+02  9.31296E+01  7.33419E+01  5.59679E+01  3.72481E+01  2.88063E+01  2.30468E+01  1.57216E+01  1.50171E+01
   1.03526E+01  8.02305E+00  4.66409E+00  7.50341E+00  2.42754E+00  7.20857E+00  3.01859E+00 -2.99785E+00  2.50834E+00 -2.69903E+00
  -4.40929E+00 -4.30986E+00 -9.09813E+00 -3.54793E+00 -5.71309E+00 -7.34493E+00 -5.72410E+00 -7.90427E+00 -3.89081E+00 -2.81776E+00
  -3.58215E+00  1.10036E+00 -6.58494E+00 -1.52822E+00  2.06053E+00 -1.21159E+00  3.26375E+00  3.96590E+00  5.17033E+00  7.81548E-01
   3.72070E+00  6.19679E+00  7.87562E+00  9.51046E+00  7.10761E+00  1.28575E+01  1.54805E+01  1.18075E+01  1.48437E+01  1.49249E+01
   1.67988E+01  1.50870E+01  1.79375E+01  1.94945E+01  1.65945E+01  1.91395E+01  1.67882E+01  1.65441E+01  2.57480E+01  2.24884E+01
   1.74163E+01  1.58438E+01  1.94844E+01  1.53906E+01  1.54337E+01  1.13770E+01  8.42285E+00  1.42848E+01  1.12262E+01  1.13979E+01
   1.09253E+01  9.25362E+00  1.01971E+01  5.64799E+00  1.73833E+01  1.24776E+01  7.04512E+00  1.40578E+01  3.79142E+00  4.35084E+00
   6.64321E+00  7.49456E+00  9.61970E+00  9.00672E+00  6.49022E+00  8.94911E+00  1.01531E+01  4.85473E+00  2.20774E+00  6.14692E+00
   3.68240E+00  3.28441E+00 -3.57871E+00  3.75112E+00  3.11983E+00 -9.14451E-01  2.32773E-01 -3.89837E+00 -9.03217E-01 -3.21440E+00
  -2.31736E+00 -1.30263E+00  7.28333E-01 -8.80548E-01 -3.69481E+00 -3.52737E+00  1.47556E-01 -3.73486E-01 -3.62345E+00 -2.81575E+00
  -4.46250E+00 -3.90593E+00 -7.55385E+00 -6.01121E+00 -7.08306E+00 -9.63304E-01 -4.16967E+00 -7.78397E+00 -7.77368E+00 -8.33597E+00
  -4.75432E+00 -7.73112E+00 -1.18243E+01 -4.31725E+00 -6.24014E+00 -3.99637E+00 -5.83216E+00 -9.52443E+00 -4.91328E+00 -5.01508E+00
  -6.56267E+00 -1.90624E+00 -6.28256E+00 -8.29241E-01 -4.22985E+00 -5.56764E+00 -1.74326E+00 -4.80395E-01  2.90844E-01 -5.18503E+00
  -6.51335E-01 -3.70763E+00 -7.05140E-01 -4.38295E+00  1.10458E+00 -7.43415E-01 -3.60197E+00 -2.57961E+00 -4.84110E+00 -9.66651E+00
  -6.08156E+00 -3.12419E+00 -3.59503E+00 -6.72909E+00 -7.25950E+00 -7.55201E+00 -5.70095E+00 -4.68928E+00 -1.13361E+01 -9.90424E+00
  -7.34200E+00 -1.08122E+01 -1.12390E+01 -5.28398E+00 -6.01790E+00 -9.99455E+00 -3.59511E+00 -8.27752E+00 -1.07639E+01 -5.98844E+00
  -5.89391E+00 -3.98024E+00 -3.42047E+00 -5.93167E+00 -6.74207E+00 -5.05097E+00 -2.19100E+00 -4.43796E+00 -7.09641E+00 -1.03603E+01
  -9.63660E+00 -4.27338E+00 -7.18585E+00 -1.00115E+01 -2.64092E+00 -9.48934E+00 -6.19981E+00 -6.90936E+00  4.58260E-01 -6.54180E+00
  -3.91218E+00 -2.44595E+00 -3.49106E+00 -6.65144E+00 -1.99327E-02 -6.86778E-01 -1.42007E+00 -4.66702E+00 -2.87552E-01  1.81164E+00
  -3.20084E+00 -3.09635E+00 -1.65318E+00  3.63465E+00 -5.39069E+00 -1.21281E+00 -5.09860E+00 -3.35116E+00 -2.08619E+00  3.58043E+00
  -3.28847E+00  6.94973E-02 -8.76499E-01 -1.67522E+00 -1.88519E-01 -3.89331E+00  1.16129E+00  1.56341E+00 -7.62243E-01 -4.85549E+00
  -6.18885E-01 -8.93852E+00 -1.28029E+00 -4.80081E+00  2.27366E-01 -6.69125E+00 -2.78976E+00 -2.06155E+00 -1.41193E+00 -4.60463E+00
  -1.22316E-01  1.35432E+00 -9.75657E+00  1.07976E+00 -6.87523E+00 -5.03873E-01 -1.93270E+00  2.07328E-01
 NY points of the fit to the data follow
  -1.04102E+01 -1.06819E+01 -1.06903E+01 -1.04904E+01 -1.00441E+01 -9.27625E+00 -8.17076E+00 -6.89662E+00 -5.80707E+00 -5.30568E+00
  -5.59818E+00 -6.57619E+00 -7.89158E+00 -9.13310E+00 -1.00390E+01 -1.05919E+01 -1.09560E+01 -1.12682E+01 -1.14726E+01 -1.12114E+01
  -1.05996E+01 -9.84878E+00 -8.99208E+00 -8.18501E+00 -7.61317E+00 -7.45514E+00 -7.82240E+00 -8.66990E+00 -9.76247E+00 -1.07235E+01
  -1.11546E+01 -1.07954E+01 -9.68464E+00 -8.15438E+00 -6.66579E+00 -5.60315E+00 -5.19841E+00 -5.41411E+00 -5.95531E+00 -6.53734E+00
  -6.96696E+00 -7.18888E+00 -7.18531E+00 -7.01238E+00 -6.76522E+00 -6.49204E+00 -6.22404E+00 -5.99754E+00 -5.82827E+00 -5.69342E+00
  -5.59796E+00 -5.53095E+00 -5.48250E+00 -5.46041E+00 -5.47873E+00 -5.53255E+00 -5.61115E+00 -5.72299E+00 -5.87209E+00 -6.03009E+00
  -6.17466E+00 -6.29322E+00 -6.37215E+00 -6.41454E+00 -6.42647E+00 -6.41784E+00 -6.41831E+00 -6.46499E+00 -6.56021E+00 -6.69202E+00
  -6.83985E+00 -6.96236E+00 -7.01222E+00 -6.96390E+00 -6.82586E+00 -6.65669E+00 -6.56323E+00 -6.66442E+00 -7.01883E+00 -7.50563E+00
  -7.97575E+00 -8.29616E+00 -8.33339E+00 -7.98796E+00 -7.23915E+00 -6.15125E+00 -4.88495E+00 -3.71574E+00 -2.90887E+00 -2.62151E+00
  -2.88497E+00 -3.61474E+00 -4.70618E+00 -6.07778E+00 -7.44388E+00 -8.53064E+00 -9.09745E+00 -8.84490E+00 -7.62048E+00 -5.39892E+00
  -2.35087E+00  1.08559E+00  4.29023E+00  6.68201E+00  7.92873E+00  8.05235E+00  7.36090E+00  6.24743E+00  5.01091E+00  3.78193E+00
   2.51381E+00  1.21946E+00  1.60803E-01 -6.72982E-01 -1.43248E+00 -2.18970E+00 -3.00243E+00 -3.95097E+00 -4.92207E+00 -5.52927E+00
  -5.58767E+00 -4.94288E+00 -3.37443E+00 -6.63597E-01  3.21432E+00  7.89407E+00  1.26139E+01  1.64631E+01  1.87728E+01  1.93635E+01
   1.85517E+01  1.69343E+01  1.50705E+01  1.32626E+01  1.15429E+01  9.86326E+00  8.43715E+00  7.52396E+00  6.90421E+00  6.42976E+00
   6.04251E+00  5.71419E+00  5.42878E+00  5.17676E+00  4.95116E+00  4.74613E+00  4.55703E+00  4.38012E+00  4.21346E+00  4.05979E+00
   3.92423E+00  3.81419E+00  3.73893E+00  3.69556E+00  3.63492E+00  3.52679E+00  3.35467E+00  3.11168E+00  2.81356E+00  2.44791E+00
   2.03632E+00  1.66261E+00  1.43275E+00  1.40306E+00  1.52946E+00  1.67925E+00  1.69726E+00  1.49077E+00  1.06077E+00  4.58920E-01
  -2.16682E-01 -8.92544E-01 -1.59105E+00 -2.31056E+00 -3.05121E+00 -3.72040E+00 -4.18894E+00 -4.43935E+00 -4.50928E+00 -4.49482E+00
  -4.52290E+00 -4.61769E+00 -4.73039E+00 -4.79820E+00 -4.76954E+00 -4.62049E+00 -4.35898E+00 -3.99023E+00 -3.48258E+00 -2.82305E+00
  -2.10623E+00 -1.52091E+00 -1.20980E+00 -1.10171E+00 -1.03190E+00 -8.59004E-01 -4.62912E-01  2.36695E-01  1.22640E+00  2.51301E+00
   3.98662E+00  5.40519E+00  6.40961E+00  6.74044E+00  6.19734E+00  4.65558E+00  2.17778E+00 -7.83227E-01 -3.52406E+00 -5.37796E+00
  -5.91943E+00 -5.02581E+00 -2.94048E+00 -1.68331E-01  2.70832E+00  5.10134E+00  6.53228E+00  6.81181E+00  5.97194E+00  4.25252E+00
   2.12883E+00  3.48030E-01 -5.64635E-01 -4.64670E-01  5.19850E-01  2.14532E+00  4.07212E+00  5.84966E+00  7.08325E+00  7.73718E+00
   7.93950E+00  7.85801E+00  7.64218E+00  7.47876E+00  7.59901E+00  8.16859E+00  9.17921E+00  1.04535E+01  1.16750E+01  1.24855E+01
   1.26611E+01  1.22140E+01  1.14123E+01  1.06587E+01  1.02612E+01  1.03301E+01  1.08642E+01  1.18257E+01  1.30724E+01  1.44923E+01
   1.60194E+01  1.76519E+01  1.98205E+01  2.39387E+01  3.03395E+01  3.88655E+01  4.95638E+01  6.22296E+01  7.57465E+01  8.77401E+01
   9.51287E+01  9.54249E+01  8.81059E+01  7.49263E+01  5.90565E+01  4.37056E+01  3.08876E+01  2.10258E+01  1.34698E+01  7.56622E+00
   3.62926E+00  2.28161E+00  2.04792E+00  1.98679E+00  1.96156E+00  1.91397E+00  1.80246E+00  1.63856E+00  1.43943E+00  1.22874E+00
   1.02978E+00  8.57920E-01  7.17431E-01  6.14879E-01  5.53369E-01  5.25774E-01  5.22359E-01  5.38711E-01  5.74117E-01  6.30475E-01
   7.08438E-01  8.09198E-01  9.37977E-01  1.09928E+00  1.29649E+00  1.53397E+00  1.81556E+00  2.14468E+00  2.52354E+00  2.95459E+00
   3.43950E+00  3.97864E+00  4.57019E+00  5.21069E+00  5.89393E+00  6.61232E+00  7.35632E+00  8.11542E+00  8.87768E+00  9.63094E+00
   1.03628E+01  1.10622E+01  1.17198E+01  1.23294E+01  1.28872E+01  1.33943E+01  1.38567E+01  1.42905E+01  1.47252E+01  1.51462E+01
   1.54382E+01  1.55292E+01  1.53572E+01  1.48333E+01  1.38532E+01  1.23590E+01  1.04540E+01  8.46978E+00  6.75647E+00  5.60508E+00
   5.18889E+00  5.50816E+00  6.38112E+00  7.49483E+00  8.50547E+00  9.15420E+00  9.33942E+00  9.05933E+00  8.42464E+00  7.75319E+00
   7.24686E+00  6.90409E+00  6.66415E+00  6.42905E+00  6.13148E+00  5.71366E+00  5.02173E+00  4.10095E+00  3.15475E+00  2.39085E+00
   1.98138E+00  1.98973E+00  2.32840E+00  2.77461E+00  3.04983E+00  2.93168E+00  2.34516E+00  1.36484E+00  1.00040E-01 -1.27976E+00
  -2.52592E+00 -3.51336E+00 -4.23984E+00 -4.76021E+00 -5.10507E+00 -5.23950E+00 -5.21026E+00 -5.11895E+00 -5.00251E+00 -4.87450E+00
  -4.74109E+00 -4.60397E+00 -4.46287E+00 -4.31606E+00 -4.16174E+00 -3.99798E+00 -3.82362E+00 -3.63779E+00 -3.44059E+00 -3.23246E+00
  -3.01484E+00 -2.78945E+00 -2.55892E+00 -2.32600E+00 -2.09416E+00 -1.86686E+00 -1.64823E+00 -1.44231E+00 -1.25367E+00 -1.08664E+00
  -9.45885E-01 -8.35694E-01 -7.60564E-01 -7.24449E-01 -7.31249E-01 -7.84024E-01 -8.85500E-01 -1.03735E+00 -1.24071E+00 -1.49549E+00
  -1.80080E+00 -2.15439E+00 -2.55319E+00 -2.99280E+00 -3.46819E+00 -3.97320E+00 -4.50123E+00 -5.04487E+00 -5.59671E+00 -6.14899E+00
  -6.69442E+00 -7.22574E+00 -7.73653E+00 -8.22075E+00 -8.67350E+00 -9.09053E+00 -9.46888E+00 -9.80625E+00 -1.01015E+01 -1.03543E+01
  -1.05651E+01 -1.07350E+01 -1.08660E+01 -1.09601E+01 -1.10201E+01 -1.10485E+01 -1.10484E+01 -1.10227E+01 -1.09744E+01 -1.09062E+01
  -1.08208E+01 -1.07206E+01 -1.06079E+01 -1.04847E+01 -1.03529E+01 -1.02140E+01 -1.00696E+01 -9.92067E+00 -9.76844E+00 -9.61369E+00
  -9.45729E+00 -9.29972E+00 -9.14161E+00 -8.98329E+00 -8.82523E+00 -8.66761E+00 -8.51077E+00 -8.35472E+00 -8.19972E+00 -8.04577E+00
  -7.89307E+00 -7.74157E+00 -7.59138E+00 -7.44239E+00 -7.29472E+00 -7.14829E+00 -7.00319E+00 -6.85929E+00 -6.71664E+00 -6.57511E+00
  -6.43477E+00 -6.29551E+00 -6.15740E+00 -6.02029E+00 -5.88423E+00 -5.74906E+00 -5.61488E+00 -5.48157E+00 -5.34917E+00 -5.21753E+00
  -5.08669E+00 -4.95653E+00 -4.82712E+00 -4.69836E+00 -4.57028E+00 -4.44274E+00 -4.31579E+00 -4.18931E+00 -4.06338E+00 -3.93788E+00
  -3.81284E+00 -3.68812E+00 -3.56377E+00 -3.43969E+00 -3.31594E+00 -3.19240E+00 -3.06907E+00 -2.94584E+00 -2.82273E+00 -2.69966E+00
  -2.57664E+00 -2.45354E+00 -2.33034E+00 -2.20690E+00 -2.08325E+00 -1.95923E+00 -1.83483E+00 -1.70985E+00
 NY background values follow
    -3.454E+00   -3.378E+00   -3.303E+00   -3.228E+00   -3.153E+00   -3.078E+00   -3.004E+00   -2.929E+00   -2.855E+00   -2.781E+00
    -2.708E+00   -2.635E+00   -2.562E+00   -2.489E+00   -2.416E+00   -2.344E+00   -2.272E+00   -2.201E+00   -2.129E+00   -2.058E+00
    -1.988E+00   -1.917E+00   -1.847E+00   -1.777E+00   -1.708E+00   -1.639E+00   -1.570E+00   -1.502E+00   -1.434E+00   -1.366E+00
    -1.299E+00   -1.232E+00   -1.166E+00   -1.100E+00   -1.034E+00   -9.686E-01   -9.036E-01   -8.391E-01   -7.749E-01   -7.112E-01
    -6.479E-01   -5.850E-01   -5.225E-01   -4.605E-01   -3.988E-01   -3.377E-01   -2.769E-01   -2.167E-01   -1.568E-01   -9.746E-02
    -3.854E-02    1.992E-02    7.791E-02    1.354E-01    1.925E-01    2.491E-01    3.051E-01    3.607E-01    4.159E-01    4.705E-01
     5.246E-01    5.782E-01    6.314E-01    6.840E-01    7.361E-01    7.877E-01    8.388E-01    8.894E-01    9.394E-01    9.890E-01
     1.038E+00    1.086E+00    1.134E+00    1.182E+00    1.229E+00    1.275E+00    1.321E+00    1.366E+00    1.411E+00    1.455E+00
     1.499E+00    1.542E+00    1.584E+00    1.626E+00    1.667E+00    1.708E+00    1.749E+00    1.788E+00    1.827E+00    1.866E+00
     1.904E+00    1.942E+00    1.978E+00    2.015E+00    2.050E+00    2.086E+00    2.120E+00    2.154E+00    2.188E+00    2.221E+00
     2.253E+00    2.285E+00    2.316E+00    2.346E+00    2.376E+00    2.406E+00    2.434E+00    2.463E+00    2.490E+00    2.517E+00
     2.544E+00    2.570E+00    2.595E+00    2.620E+00    2.644E+00    2.668E+00    2.691E+00    2.713E+00    2.735E+00    2.756E+00
     2.777E+00    2.797E+00    2.817E+00    2.836E+00    2.854E+00    2.872E+00    2.889E+00    2.906E+00    2.922E+00    2.938E+00
     2.952E+00    2.967E+00    2.981E+00    2.994E+00    3.007E+00    3.019E+00    3.030E+00    3.041E+00    3.052E+00    3.062E+00
     3.071E+00    3.080E+00    3.088E+00    3.096E+00    3.103E+00    3.110E+00    3.116E+00    3.121E+00    3.126E+00    3.131E+00
     3.135E+00    3.138E+00    3.141E+00    3.144E+00    3.145E+00    3.147E+00    3.148E+00    3.148E+00    3.148E+00    3.147E+00
     3.146E+00    3.144E+00    3.142E+00    3.139E+00    3.136E+00    3.132E+00    3.128E+00    3.123E+00    3.118E+00    3.113E+00
     3.107E+00    3.100E+00    3.093E+00    3.085E+00    3.078E+00    3.069E+00    3.060E+00    3.051E+00    3.041E+00    3.031E+00
     3.020E+00    3.009E+00    2.998E+00    2.986E+00    2.974E+00    2.961E+00    2.948E+00    2.934E+00    2.921E+00    2.906E+00
     2.891E+00    2.876E+00    2.861E+00    2.845E+00    2.829E+00    2.812E+00    2.795E+00    2.778E+00    2.760E+00    2.742E+00
     2.724E+00    2.705E+00    2.686E+00    2.666E+00    2.647E+00    2.627E+00    2.606E+00    2.586E+00    2.565E+00    2.543E+00
     2.522E+00    2.500E+00    2.478E+00    2.455E+00    2.433E+00    2.410E+00    2.386E+00    2.363E+00    2.339E+00    2.315E+00
     2.291E+00    2.266E+00    2.241E+00    2.216E+00    2.191E+00    2.166E+00    2.140E+00    2.114E+00    2.088E+00    2.062E+00
     2.035E+00    2.009E+00    1.982E+00    1.955E+00    1.928E+00    1.901E+00    1.873E+00    1.845E+00    1.818E+00    1.790E+00
     1.762E+00    1.734E+00    1.705E+00    1.677E+00    1.648E+00    1.620E+00    1.591E+00    1.562E+00    1.533E+00    1.504E+00
     1.475E+00    1.446E+00    1.417E+00    1.387E+00    1.358E+00    1.329E+00    1.299E+00    1.270E+00    1.240E+00    1.211E+00
     1.181E+00    1.152E+00    1.122E+00    1.092E+00    1.063E+00    1.033E+00    1.004E+00    9.741E-01    9.445E-01    9.150E-01
     8.856E-01    8.562E-01    8.268E-01    7.975E-01    7.682E-01    7.390E-01    7.099E-01    6.809E-01    6.519E-01    6.230E-01
     5.942E-01    5.655E-01    5.369E-01    5.084E-01    4.801E-01    4.518E-01    4.237E-01    3.957E-01    3.678E-01    3.401E-01
     3.126E-01    2.851E-01    2.579E-01    2.308E-01    2.038E-01    1.771E-01    1.505E-01    1.241E-01    9.790E-02    7.189E-02
     4.607E-02    2.046E-02   -4.938E-03   -3.012E-02   -5.509E-02   -7.984E-02   -1.043E-01   -1.286E-01   -1.527E-01   -1.765E-01
    -2.000E-01   -2.233E-01   -2.463E-01   -2.691E-01   -2.916E-01   -3.139E-01   -3.358E-01   -3.575E-01   -3.789E-01   -4.000E-01
    -4.208E-01   -4.413E-01   -4.614E-01   -4.813E-01   -5.009E-01   -5.202E-01   -5.391E-01   -5.577E-01   -5.760E-01   -5.939E-01
    -6.115E-01   -6.288E-01   -6.457E-01   -6.623E-01   -6.785E-01   -6.943E-01   -7.098E-01   -7.249E-01   -7.397E-01   -7.541E-01
    -7.681E-01   -7.817E-01   -7.949E-01   -8.078E-01   -8.203E-01   -8.323E-01   -8.440E-01   -8.552E-01   -8.661E-01   -8.766E-01
    -8.866E-01   -8.962E-01   -9.054E-01   -9.142E-01   -9.226E-01   -9.305E-01   -9.380E-01   -9.451E-01   -9.518E-01   -9.580E-01
    -9.637E-01   -9.691E-01   -9.739E-01   -9.784E-01   -9.824E-01   -9.859E-01   -9.890E-01   -9.916E-01   -9.937E-01   -9.954E-01
    -9.967E-01   -9.974E-01   -9.977E-01   -9.976E-01   -9.969E-01   -9.958E-01   -9.942E-01   -9.921E-01   -9.896E-01   -9.866E-01
    -9.831E-01   -9.791E-01   -9.746E-01   -9.697E-01   -9.642E-01   -9.583E-01   -9.519E-01   -9.450E-01   -9.375E-01   -9.297E-01
    -9.213E-01   -9.124E-01   -9.030E-01   -8.931E-01   -8.828E-01   -8.719E-01   -8.605E-01   -8.487E-01   -8.363E-01   -8.235E-01
    -8.101E-01   -7.963E-01   -7.819E-01   -7.671E-01   -7.517E-01   -7.358E-01   -7.195E-01   -7.026E-01   -6.853E-01   -6.675E-01
    -6.491E-01   -6.303E-01   -6.109E-01   -5.911E-01   -5.708E-01   -5.499E-01   -5.286E-01   -5.068E-01   -4.845E-01   -4.617E-01
    -4.384E-01   -4.146E-01   -3.903E-01   -3.656E-01   -3.403E-01   -3.146E-01   -2.884E-01   -2.617E-01   -2.345E-01   -2.068E-01
    -1.787E-01   -1.501E-01   -1.210E-01   -9.141E-02   -6.138E-02   -3.087E-02    9.817E-05    3.153E-02    6.343E-02    9.579E-02
     1.286E-01    1.619E-01    1.956E-01    2.298E-01    2.644E-01    2.995E-01    3.350E-01    3.710E-01    4.074E-01    4.442E-01
     4.815E-01    5.192E-01    5.573E-01    5.958E-01    6.348E-01    6.742E-01    7.140E-01    7.542E-01    7.948E-01    8.359E-01
     8.773E-01    9.191E-01    9.613E-01    1.004E+00    1.047E+00    1.090E+00    1.134E+00    1.178E+00    1.223E+00    1.268E+00
     1.313E+00    1.358E+00    1.404E+00    1.451E+00    1.497E+00    1.544E+00    1.592E+00    1.639E+00    1.687E+00    1.736E+00
     1.784E+00    1.833E+00    1.883E+00    1.932E+00    1.982E+00    2.032E+00    2.083E+00    2.134E+00    2.185E+00    2.236E+00
     2.288E+00    2.339E+00    2.392E+00    2.444E+00    2.497E+00    2.549E+00    2.603E+00    2.656E+00
 Ala      Conc. = 4.55E+02
