 LCModel (Version 6.3-1L) Copyright: S.W. Provencher.          Ref.: Magn. Reson. Med. 30:672-679 (1993).                
 Slice#3 Row#6 Col#5  PD_24_press_2_raw_act
 36 lines in following concentration table = NCONC+1
    Conc.  %SD /Cr+PCr  Metabolite                                         
    5.397 999% 3.8E-03 Ala                                                 
   49.908 602% 3.5E-02 Asp                                                 
    0.000 999%   0.000 Cr                                                  
 1.43E+03   9%   1.000 PCr                                                 
  137.241 133% 9.6E-02 GABA                                                
  316.246  59%   0.221 Glc                                                 
  407.513 113%   0.285 Gln                                                 
 1.11E+03  47%   0.774 Glu                                                 
  686.483  29%   0.480 GPC                                                 
   27.348 723% 1.9E-02 PCh                                                 
  373.203  45%   0.261 GSH                                                 
 2.31E+03  25%   1.616 Ins                                                 
  187.855 136%   0.131 Lac                                                 
 2.66E+03   5%   1.859 NAA                                                 
    0.000 999%   0.000 NAAG                                                
  177.113  27%   0.124 Scyllo                                              
  699.075  42%   0.489 Tau                                                 
  418.227  53%   0.292 -CrCH2                                              
  713.831   7%   0.499 GPC+PCh                                             
 2.66E+03   5%   1.859 NAA+NAAG                                            
 1.43E+03   9%   1.000 Cr+PCr                                              
 1.51E+03  45%   1.059 Glu+Gln                                             
 1.24E+03 102%   0.864 Lip13a                                              
  303.566 146%   0.212 Lip13b                                              
  411.588  68%   0.288 Lip09                                               
   82.944 299% 5.8E-02 MM09                                                
  236.082  71%   0.165 Lip20                                               
  126.311 310% 8.8E-02 MM20                                                
   25.214 336% 1.8E-02 MM12                                                
   81.537 314% 5.7E-02 MM14                                                
    0.000 999%   0.000 MM17                                                
 1.54E+03  62%   1.077 Lip13a+Lip13b                                       
 1.65E+03  56%   1.151 MM14+Lip13a+Lip13b+MM12                             
  494.532  63%   0.346 MM09+Lip09                                          
  362.393 108%   0.253 MM20+Lip20                                          
   6 lines in following misc. output table
  FWHM = 0.054 ppm    S/N =   5                                            
  Data shift = 0.015 ppm                                                   
  Ph: -58 deg     -14.7 deg/ppm                                            
  alphaB,S = 1.1E+00,   1.9E+01                                            
   14 spline knots.   Ns = 5(1)                                            
   2 inflections.     1 extrema                                            
  498 points on ppm-axis = NY
      4.000000     3.992357     3.984714     3.977070     3.969427     3.961784     3.954141     3.946497     3.938854     3.931211
      3.923568     3.915925     3.908281     3.900638     3.892995     3.885352     3.877708     3.870065     3.862422     3.854779
      3.847136     3.839492     3.831849     3.824206     3.816563     3.808919     3.801276     3.793633     3.785990     3.778347
      3.770703     3.763060     3.755417     3.747774     3.740130     3.732487     3.724844     3.717201     3.709558     3.701914
      3.694271     3.686628     3.678985     3.671341     3.663698     3.656055     3.648412     3.640769     3.633125     3.625482
      3.617839     3.610196     3.602552     3.594909     3.587266     3.579623     3.571980     3.564336     3.556693     3.549050
      3.541407     3.533763     3.526120     3.518477     3.510834     3.503191     3.495547     3.487904     3.480261     3.472618
      3.464974     3.457331     3.449688     3.442045     3.434402     3.426758     3.419115     3.411472     3.403829     3.396185
      3.388542     3.380899     3.373256     3.365613     3.357969     3.350326     3.342683     3.335040     3.327396     3.319753
      3.312110     3.304467     3.296824     3.289180     3.281537     3.273894     3.266251     3.258607     3.250964     3.243321
      3.235678     3.228034     3.220391     3.212748     3.205105     3.197462     3.189818     3.182175     3.174532     3.166889
      3.159245     3.151602     3.143959     3.136316     3.128673     3.121029     3.113386     3.105743     3.098100     3.090456
      3.082813     3.075170     3.067527     3.059884     3.052240     3.044597     3.036954     3.029311     3.021667     3.014024
      3.006381     2.998738     2.991095     2.983451     2.975808     2.968165     2.960522     2.952878     2.945235     2.937592
      2.929949     2.922306     2.914662     2.907019     2.899376     2.891733     2.884089     2.876446     2.868803     2.861160
      2.853517     2.845873     2.838230     2.830587     2.822944     2.815300     2.807657     2.800014     2.792371     2.784728
      2.777084     2.769441     2.761798     2.754155     2.746511     2.738868     2.731225     2.723582     2.715939     2.708295
      2.700652     2.693009     2.685366     2.677722     2.670079     2.662436     2.654793     2.647150     2.639506     2.631863
      2.624220     2.616577     2.608933     2.601290     2.593647     2.586004     2.578361     2.570717     2.563074     2.555431
      2.547788     2.540144     2.532501     2.524858     2.517215     2.509572     2.501928     2.494285     2.486642     2.478999
      2.471355     2.463712     2.456069     2.448426     2.440783     2.433139     2.425496     2.417853     2.410210     2.402566
      2.394923     2.387280     2.379637     2.371994     2.364350     2.356707     2.349064     2.341421     2.333777     2.326134
      2.318491     2.310848     2.303205     2.295561     2.287918     2.280275     2.272632     2.264988     2.257345     2.249702
      2.242059     2.234416     2.226772     2.219129     2.211486     2.203843     2.196199     2.188556     2.180913     2.173270
      2.165627     2.157983     2.150340     2.142697     2.135054     2.127410     2.119767     2.112124     2.104481     2.096838
      2.089194     2.081551     2.073908     2.066265     2.058621     2.050978     2.043335     2.035692     2.028049     2.020405
      2.012762     2.005119     1.997476     1.989833     1.982190     1.974546     1.966903     1.959260     1.951617     1.943974
      1.936331     1.928688     1.921045     1.913402     1.905759     1.898115     1.890472     1.882829     1.875186     1.867543
      1.859900     1.852257     1.844614     1.836971     1.829327     1.821684     1.814041     1.806398     1.798755     1.791112
      1.783469     1.775826     1.768183     1.760540     1.752896     1.745253     1.737610     1.729967     1.722324     1.714681
      1.707038     1.699395     1.691752     1.684108     1.676465     1.668822     1.661179     1.653536     1.645893     1.638250
      1.630607     1.622964     1.615321     1.607677     1.600034     1.592391     1.584748     1.577105     1.569462     1.561819
      1.554176     1.546533     1.538890     1.531246     1.523603     1.515960     1.508317     1.500674     1.493031     1.485388
      1.477745     1.470102     1.462458     1.454815     1.447172     1.439529     1.431886     1.424243     1.416600     1.408957
      1.401314     1.393671     1.386027     1.378384     1.370741     1.363098     1.355455     1.347812     1.340169     1.332526
      1.324883     1.317240     1.309596     1.301953     1.294310     1.286667     1.279024     1.271381     1.263738     1.256095
      1.248452     1.240808     1.233165     1.225522     1.217879     1.210236     1.202593     1.194950     1.187307     1.179664
      1.172021     1.164377     1.156734     1.149091     1.141448     1.133805     1.126162     1.118519     1.110876     1.103233
      1.095590     1.087946     1.080303     1.072660     1.065017     1.057374     1.049731     1.042088     1.034445     1.026802
      1.019158     1.011515     1.003872     0.996229     0.988586     0.980943     0.973300     0.965657     0.958014     0.950371
      0.942727     0.935084     0.927441     0.919798     0.912155     0.904512     0.896869     0.889226     0.881583     0.873940
      0.866296     0.858653     0.851010     0.843367     0.835724     0.828081     0.820438     0.812795     0.805152     0.797508
      0.789865     0.782222     0.774579     0.766936     0.759293     0.751650     0.744007     0.736364     0.728721     0.721077
      0.713434     0.705791     0.698148     0.690505     0.682862     0.675219     0.667576     0.659933     0.652290     0.644646
      0.637003     0.629360     0.621717     0.614074     0.606431     0.598788     0.591145     0.583502     0.575858     0.568215
      0.560572     0.552929     0.545286     0.537643     0.530000     0.522357     0.514714     0.507071     0.499427     0.491784
      0.484141     0.476498     0.468855     0.461212     0.453569     0.445925     0.438282     0.430639     0.422996     0.415353
      0.407710     0.400067     0.392424     0.384780     0.377137     0.369494     0.361851     0.354208     0.346565     0.338922
      0.331278     0.323635     0.315992     0.308349     0.300706     0.293063     0.285420     0.277777     0.270133     0.262490
      0.254847     0.247204     0.239561     0.231918     0.224275     0.216631     0.208988     0.201345
 NY phased data points follow
  -1.86680E+02 -1.98336E+02 -1.78711E+02 -1.93346E+02 -1.60292E+02 -1.73386E+02 -1.24785E+02 -1.49384E+02 -1.14760E+02 -1.33148E+02
  -1.16873E+02 -1.44637E+02 -1.15484E+02 -1.54053E+02 -1.31393E+02 -1.55807E+02 -1.49780E+02 -1.61132E+02 -1.42072E+02 -1.68728E+02
  -1.25407E+02 -1.49904E+02 -1.24119E+02 -1.54670E+02 -1.20283E+02 -1.41876E+02 -1.06532E+02 -1.38790E+02 -1.21778E+02 -1.27816E+02
  -1.17794E+02 -1.37732E+02 -1.14092E+02 -1.31829E+02 -1.16443E+02 -1.27913E+02 -1.17244E+02 -1.23010E+02 -1.07169E+02 -1.27377E+02
  -1.10944E+02 -1.26391E+02 -1.02328E+02 -1.09364E+02 -9.71672E+01 -1.16936E+02 -8.93473E+01 -1.06566E+02 -8.68492E+01 -1.12228E+02
  -9.49349E+01 -1.00081E+02 -9.21999E+01 -1.18472E+02 -9.14124E+01 -1.16595E+02 -8.00990E+01 -1.06532E+02 -7.45172E+01 -9.48561E+01
  -9.27984E+01 -1.04983E+02 -9.07761E+01 -1.07174E+02 -8.86558E+01 -9.57686E+01 -8.18888E+01 -1.09510E+02 -8.72469E+01 -1.00233E+02
  -9.08456E+01 -9.10311E+01 -6.13327E+01 -8.04353E+01 -8.37965E+01 -8.63138E+01 -7.50698E+01 -9.22915E+01 -6.49965E+01 -9.35090E+01
  -7.09986E+01 -8.36875E+01 -6.42972E+01 -7.82722E+01 -6.01275E+01 -7.46829E+01 -6.23506E+01 -7.71810E+01 -5.75485E+01 -8.63696E+01
  -6.72193E+01 -9.06839E+01 -6.75938E+01 -8.22155E+01 -6.43369E+01 -6.63770E+01 -5.36378E+01 -8.01694E+01 -5.43779E+01 -5.07253E+01
  -2.09560E+01 -4.26168E+00  5.24571E+00  9.11785E+00  7.41014E+00 -3.01495E+01 -3.59024E+01 -4.95310E+01 -4.70230E+01 -6.45215E+01
  -4.93295E+01 -6.42554E+01 -5.90002E+01 -7.35832E+01 -5.97329E+01 -7.01645E+01 -5.88033E+01 -7.81716E+01 -4.92313E+01 -8.42424E+01
  -6.18162E+01 -7.82524E+01 -5.51066E+01 -5.07793E+01 -3.61405E+01 -3.00017E+01  1.11284E+01 -9.39061E+00 -9.69539E-01 -1.75344E+01
  -8.23547E+00 -3.80640E+01 -4.42197E+01 -5.45969E+01 -4.20900E+01 -5.25785E+01 -5.62884E+01 -5.50199E+01 -4.49153E+01 -5.20195E+01
  -4.60187E+01 -6.19212E+01 -3.84780E+01 -5.46328E+01 -3.53943E+01 -5.50678E+01 -4.30016E+01 -6.04850E+01 -4.54802E+01 -5.50310E+01
  -3.37233E+01 -5.19817E+01 -3.91097E+01 -3.97991E+01 -5.07855E+01 -4.72282E+01 -3.57485E+01 -5.44920E+01 -3.79878E+01 -6.31153E+01
  -2.93450E+01 -3.59270E+01 -3.16793E+01 -4.49215E+01 -4.76524E+01 -4.12351E+01 -3.56170E+01 -4.67606E+01 -2.86681E+01 -4.80264E+01
  -3.56520E+01 -4.32847E+01 -3.71597E+01 -4.26766E+01 -3.84194E+01 -6.44443E+01 -2.99693E+01 -4.37669E+01 -5.00618E+01 -5.41767E+01
  -4.01808E+01 -4.81161E+01 -4.45043E+01 -6.30747E+01 -3.74627E+01 -5.63103E+01 -4.47030E+01 -3.84097E+01 -2.57945E+01 -3.92681E+01
  -1.80666E+01 -2.00090E+01 -1.01279E+01 -2.41008E+01 -1.20579E+01 -3.03831E+01 -2.41015E+01 -2.84190E+01 -1.47575E+01 -3.49225E+01
  -1.80713E+01 -2.79096E+01 -1.81037E+01 -2.81874E+01 -1.04703E+01 -2.52646E+01 -1.93906E+01 -2.76037E+01 -2.63292E+01 -3.86557E+01
  -3.47887E+01 -3.22280E+01 -1.72800E+01 -1.71391E+01 -1.09979E+01 -1.75890E+01 -1.73021E+01 -1.72118E+01  5.02458E+00 -2.57789E+01
  -1.30085E+01 -2.09409E+01 -2.27998E+01 -3.14513E+01 -1.36376E+01 -2.21119E+01 -5.80433E+00 -9.81351E+00  7.43239E-01 -1.64037E+01
  -3.66003E+00 -2.39739E+01 -1.71772E+01 -2.08685E+01 -4.79273E+00 -1.28137E+01 -1.45230E+00 -1.37501E+01 -1.49021E+01 -2.65396E+01
  -1.49800E+01 -2.62155E+01 -1.00345E+01 -1.72487E+01 -1.30987E+01 -2.45118E+01 -2.21523E+01 -8.97762E+00 -1.04271E+01 -5.26843E+00
  -4.92459E+00 -1.33191E+01 -2.07668E+01 -2.33030E+01 -3.86200E+00 -1.41647E+01  9.59263E+00  3.25968E+01  4.24244E+01  6.81419E+01
   8.20585E+01  8.80048E+01  7.67419E+01  6.61603E+01  4.20744E+01  1.46808E+01  1.56003E+01 -1.17375E+01 -7.15604E+00 -1.21870E+01
  -5.31846E+00 -1.14183E+01 -1.14007E+01 -1.74677E+01 -2.01764E+01 -2.24375E+01 -1.01362E+01 -2.55044E+01 -7.10266E+00 -2.76875E+01
  -1.18672E+01 -1.51253E+01 -2.53684E+00 -1.26362E+01 -6.52038E+00 -1.47119E+01 -1.29097E+01 -6.09480E+00 -7.65900E+00 -1.26337E+01
  -2.03251E+01 -1.19607E+01 -7.45613E+00 -1.33128E+01 -7.63362E+00 -2.34695E+01 -2.46363E+00 -1.10479E+01 -1.53309E+01 -1.27276E+01
  -1.20936E+01 -1.68463E+00 -4.98798E+00 -1.43519E+01 -6.61407E+00 -2.12096E+01 -9.35015E+00 -1.29182E+01 -7.23062E+00 -2.68303E+01
   6.12429E-01 -1.79631E+01 -3.97077E-01 -1.82345E+01 -1.19265E+00 -2.06306E+01  2.00360E+00 -6.34546E+00  5.66891E+00 -1.48097E+01
   6.52779E+00 -9.70722E-01 -1.50514E+00 -1.28183E+01 -9.30874E+00 -5.19192E+00 -4.75702E+00 -7.19235E-01 -2.30537E+00 -1.76587E+01
   1.20728E+01 -8.24506E+00  2.05753E+00 -9.05514E+00  1.26779E+01 -8.85680E+00  3.62476E+00  7.16124E+00  6.33555E+00  3.22048E-01
  -7.52155E+00 -6.19665E+00 -2.64229E+00 -1.32072E+00  5.11964E+00 -9.45658E-01  6.34430E+00 -1.21757E+01  3.79586E+00 -5.30385E-01
   1.51809E+00 -1.12317E+00 -4.44637E-01  5.80163E+00  9.55832E+00  9.81322E+00  1.43114E+01  3.30025E+00  3.64968E+00 -2.03831E-02
   1.16622E+01  1.27171E+01  7.23704E+00  3.03328E+00 -1.03640E+01  1.95358E+00  2.24621E+00 -5.57107E+00  3.28452E+00 -4.08667E-01
   6.21945E+00 -5.84966E-01  5.50222E+00  5.08414E-01  5.43361E+00  2.39961E+00  1.15482E+01  3.72983E+00  1.00648E+01 -2.28146E+00
   2.91795E+00 -8.25220E+00  3.64330E+00 -1.80823E+00  3.34651E+00 -5.56926E-01 -2.27578E+00 -7.56820E+00 -9.71964E+00 -5.12108E-01
   1.10077E+01  2.82303E+00  5.22878E+00  1.03562E+01  1.69954E+01 -6.07844E+00 -4.04451E+00 -1.26033E+00 -9.04294E+00 -1.44647E+00
  -3.54019E+00  9.20750E+00  8.46322E+00  2.70284E+00  1.29089E+01  8.07595E+00  6.00027E+00  1.85221E+01  1.80559E+01 -5.93425E+00
   3.62063E+00 -5.93681E+00  1.01319E+01  2.99374E+00  1.08778E+01 -2.57121E+00  3.47095E+00 -4.13311E+00  3.27263E+00 -3.17551E+00
   1.68728E+00  8.24262E+00 -3.97889E+00  7.95910E+00  1.79015E+01  2.14867E-01  7.96694E+00 -4.99596E+00 -3.93694E+00  6.75516E+00
  -1.23851E+00  1.44071E+00  1.23908E+01  1.21965E+01  1.17521E+01 -3.88467E+00  1.55839E+00  3.81814E-01  6.70827E+00 -5.51627E-01
   8.40251E+00  9.96806E-01  8.29567E+00 -5.16490E+00  1.14999E+01 -1.30814E+00  1.26395E+01 -5.87141E+00 -4.28178E+00  7.76574E+00
   1.61264E+01 -1.44138E+00  6.54291E+00 -6.78705E+00 -4.04603E+00  1.29293E+01  5.75569E+00  4.44026E+00  9.12489E+00  3.52553E+00
   1.42614E+01 -6.12222E+00  8.56722E+00  3.57191E+00  2.76053E+00  9.80848E+00  8.32017E+00  9.83290E+00  7.79461E+00  2.47352E+00
   6.03769E+00  7.45196E+00  3.05063E+00  2.51085E+00  8.17672E+00  1.41017E+01  8.33452E+00  2.16002E+01  7.17329E+00  8.26398E+00
   4.57071E+00  1.48997E+01  6.73961E+00  9.48422E+00  8.74952E+00  1.74749E+01  2.87022E+00  1.12645E+01  7.16972E+00  1.48429E+01
   6.40865E+00  5.29560E+00  1.19941E+01  1.26347E+01  1.65342E+01  7.33979E+00  1.74842E+01  9.69890E+00
 NY points of the fit to the data follow
  -1.62226E+02 -1.61824E+02 -1.60858E+02 -1.59132E+02 -1.56346E+02 -1.51171E+02 -1.44013E+02 -1.36636E+02 -1.29889E+02 -1.25763E+02
  -1.25144E+02 -1.27335E+02 -1.31438E+02 -1.36054E+02 -1.39560E+02 -1.42071E+02 -1.43443E+02 -1.43273E+02 -1.42763E+02 -1.42126E+02
  -1.41418E+02 -1.40595E+02 -1.39694E+02 -1.38766E+02 -1.37850E+02 -1.36449E+02 -1.34041E+02 -1.31110E+02 -1.27603E+02 -1.23976E+02
  -1.21014E+02 -1.19010E+02 -1.18160E+02 -1.18298E+02 -1.18847E+02 -1.19703E+02 -1.20886E+02 -1.21691E+02 -1.22158E+02 -1.22201E+02
  -1.21823E+02 -1.20776E+02 -1.18438E+02 -1.14461E+02 -1.09061E+02 -1.03169E+02 -9.81743E+01 -9.52950E+01 -9.51690E+01 -9.75657E+01
  -1.01352E+02 -1.05295E+02 -1.08325E+02 -1.09991E+02 -1.10107E+02 -1.08614E+02 -1.06103E+02 -1.03094E+02 -1.00083E+02 -9.76709E+01
  -9.62217E+01 -9.58625E+01 -9.63791E+01 -9.71637E+01 -9.77082E+01 -9.76441E+01 -9.69466E+01 -9.56235E+01 -9.37927E+01 -9.19027E+01
  -9.01040E+01 -8.81702E+01 -8.62348E+01 -8.45993E+01 -8.32494E+01 -8.26976E+01 -8.28922E+01 -8.35892E+01 -8.44639E+01 -8.49913E+01
  -8.47308E+01 -8.34022E+01 -8.06841E+01 -7.74541E+01 -7.47354E+01 -7.31618E+01 -7.32249E+01 -7.45413E+01 -7.63431E+01 -7.80235E+01
  -7.90224E+01 -7.90826E+01 -7.87148E+01 -7.78344E+01 -7.64848E+01 -7.49035E+01 -7.30456E+01 -6.93168E+01 -5.97322E+01 -4.32341E+01
  -2.47966E+01 -7.06405E+00  4.55841E+00  6.31511E+00 -7.41317E-01 -1.44636E+01 -3.08383E+01 -4.49722E+01 -5.55312E+01 -6.28711E+01
  -6.50250E+01 -6.53866E+01 -6.53200E+01 -6.50483E+01 -6.47368E+01 -6.43573E+01 -6.39776E+01 -6.35827E+01 -6.31339E+01 -6.25758E+01
  -6.17553E+01 -6.02316E+01 -5.61867E+01 -4.64243E+01 -3.32801E+01 -1.95786E+01 -7.86381E+00 -2.32656E+00 -3.88155E+00 -1.09821E+01
  -2.16934E+01 -3.28970E+01 -4.16068E+01 -4.87916E+01 -5.29342E+01 -5.43549E+01 -5.49449E+01 -5.48122E+01 -5.39237E+01 -5.25936E+01
  -5.11043E+01 -4.97049E+01 -4.87080E+01 -4.81280E+01 -4.78198E+01 -4.76948E+01 -4.75721E+01 -4.73932E+01 -4.71504E+01 -4.68370E+01
  -4.65096E+01 -4.61734E+01 -4.58015E+01 -4.53740E+01 -4.48816E+01 -4.43443E+01 -4.38520E+01 -4.36381E+01 -4.37232E+01 -4.39355E+01
  -4.40763E+01 -4.37716E+01 -4.30303E+01 -4.20862E+01 -4.11091E+01 -4.04277E+01 -4.02198E+01 -4.03236E+01 -4.06172E+01 -4.09668E+01
  -4.11506E+01 -4.12814E+01 -4.14770E+01 -4.17305E+01 -4.18378E+01 -4.16997E+01 -4.12223E+01 -4.05151E+01 -3.97991E+01 -3.90980E+01
  -3.85284E+01 -3.81258E+01 -3.78223E+01 -3.76320E+01 -3.74996E+01 -3.69285E+01 -3.58572E+01 -3.41440E+01 -3.19213E+01 -2.97179E+01
  -2.78314E+01 -2.65348E+01 -2.60385E+01 -2.61312E+01 -2.66143E+01 -2.72604E+01 -2.76730E+01 -2.77255E+01 -2.73620E+01 -2.65415E+01
  -2.51944E+01 -2.35448E+01 -2.18612E+01 -2.05505E+01 -1.99224E+01 -2.02365E+01 -2.16382E+01 -2.36356E+01 -2.57340E+01 -2.75764E+01
  -2.85956E+01 -2.82765E+01 -2.64815E+01 -2.36586E+01 -2.06075E+01 -1.81513E+01 -1.68453E+01 -1.71890E+01 -1.91915E+01 -2.21214E+01
  -2.49481E+01 -2.67600E+01 -2.71771E+01 -2.59147E+01 -2.34298E+01 -2.06301E+01 -1.81841E+01 -1.67118E+01 -1.62399E+01 -1.64228E+01
  -1.69688E+01 -1.74283E+01 -1.73970E+01 -1.68105E+01 -1.58596E+01 -1.48813E+01 -1.41355E+01 -1.37963E+01 -1.40003E+01 -1.48323E+01
  -1.58663E+01 -1.67315E+01 -1.71202E+01 -1.69616E+01 -1.62342E+01 -1.51523E+01 -1.40848E+01 -1.32795E+01 -1.28845E+01 -1.26267E+01
  -1.24015E+01 -1.20126E+01 -1.12782E+01 -1.00898E+01 -8.34797E+00 -4.53653E+00  6.23611E+00  2.64318E+01  4.93971E+01  7.16254E+01
   8.66678E+01  8.88061E+01  7.90875E+01  6.06194E+01  3.81763E+01  1.82792E+01  3.51752E+00 -7.28247E+00 -1.11541E+01 -1.22328E+01
  -1.26456E+01 -1.27108E+01 -1.24788E+01 -1.20973E+01 -1.16597E+01 -1.12570E+01 -1.09667E+01 -1.08531E+01 -1.08703E+01 -1.09749E+01
  -1.11181E+01 -1.12167E+01 -1.12351E+01 -1.11752E+01 -1.10410E+01 -1.08598E+01 -1.06657E+01 -1.04734E+01 -1.03035E+01 -1.01581E+01
  -1.00339E+01 -9.92558E+00 -9.82810E+00 -9.73346E+00 -9.63431E+00 -9.52971E+00 -9.42018E+00 -9.30324E+00 -9.18020E+00 -9.05530E+00
  -8.92657E+00 -8.79664E+00 -8.66605E+00 -8.53527E+00 -8.40462E+00 -8.27407E+00 -8.14341E+00 -8.01230E+00 -7.88002E+00 -7.74643E+00
  -7.61114E+00 -7.47361E+00 -7.33382E+00 -7.19166E+00 -7.04692E+00 -6.89941E+00 -6.74866E+00 -6.59437E+00 -6.43611E+00 -6.27357E+00
  -6.10612E+00 -5.93263E+00 -5.75076E+00 -5.55946E+00 -5.36613E+00 -5.17607E+00 -4.99090E+00 -4.81243E+00 -4.63550E+00 -4.45310E+00
  -4.25829E+00 -4.03848E+00 -3.78679E+00 -3.50831E+00 -3.20296E+00 -2.87898E+00 -2.54573E+00 -2.20268E+00 -1.84552E+00 -1.46367E+00
  -1.03501E+00 -5.23871E-01  1.44824E-01  1.02194E+00  1.84880E+00  2.41090E+00  2.63985E+00  2.44321E+00  1.96039E+00  1.42297E+00
   1.08329E+00  1.36712E+00  2.32851E+00  3.71807E+00  5.37447E+00  6.87913E+00  7.83460E+00  8.16765E+00  7.89393E+00  7.17531E+00
   6.27789E+00  5.26631E+00  4.33663E+00  3.58140E+00  2.95022E+00  2.42417E+00  1.99229E+00  1.64220E+00  1.36034E+00  1.13330E+00
   9.49575E-01  7.99979E-01  6.78051E-01  5.79349E-01  5.01226E-01  4.42012E-01  4.00910E-01  3.77381E-01  3.71212E-01  3.82071E-01
   4.09772E-01  4.53994E-01  5.14615E-01  5.91396E-01  6.84251E-01  7.92907E-01  9.17209E-01  1.05681E+00  1.21146E+00  1.38060E+00
   1.56359E+00  1.75935E+00  1.96662E+00  2.18369E+00  2.40859E+00  2.63884E+00  2.87166E+00  3.10377E+00  3.33182E+00  3.55211E+00
   3.76112E+00  3.95520E+00  4.13107E+00  4.28571E+00  4.41679E+00  4.52250E+00  4.60192E+00  4.65473E+00  4.68155E+00  4.68364E+00
   4.66313E+00  4.62260E+00  4.56526E+00  4.49442E+00  4.41374E+00  4.32673E+00  4.23696E+00  4.14757E+00  4.06150E+00  3.98111E+00
   3.90845E+00  3.84499E+00  3.79193E+00  3.74987E+00  3.71920E+00  3.69978E+00  3.69144E+00  3.69363E+00  3.70583E+00  3.72728E+00
   3.75726E+00  3.79493E+00  3.83962E+00  3.89056E+00  3.94715E+00  4.00869E+00  4.07469E+00  4.14456E+00  4.21795E+00  4.29441E+00
   4.37368E+00  4.45539E+00  4.53934E+00  4.62525E+00  4.71301E+00  4.80240E+00  4.89335E+00  4.98566E+00  5.07928E+00  5.17406E+00
   5.27003E+00  5.36703E+00  5.46509E+00  5.56406E+00  5.66397E+00  5.76470E+00  5.86628E+00  5.96860E+00  6.07166E+00  6.17535E+00
   6.27971E+00  6.38464E+00  6.49021E+00  6.59630E+00  6.70295E+00  6.81006E+00  6.91767E+00  7.02572E+00  7.13425E+00  7.24315E+00
   7.35248E+00  7.46214E+00  7.57221E+00  7.68260E+00  7.79337E+00  7.90442E+00  8.01579E+00  8.12741E+00  8.23936E+00  8.35154E+00
   8.46401E+00  8.57668E+00  8.68960E+00  8.80271E+00  8.91609E+00  9.02964E+00  9.14344E+00  9.25737E+00  9.37153E+00  9.48584E+00
   9.60040E+00  9.71510E+00  9.83002E+00  9.94509E+00  1.00604E+01  1.01759E+01  1.02916E+01  1.04076E+01
 NY background values follow
    -1.677E+02   -1.667E+02   -1.657E+02   -1.646E+02   -1.636E+02   -1.626E+02   -1.615E+02   -1.605E+02   -1.595E+02   -1.584E+02
    -1.574E+02   -1.563E+02   -1.553E+02   -1.543E+02   -1.532E+02   -1.522E+02   -1.512E+02   -1.502E+02   -1.491E+02   -1.481E+02
    -1.471E+02   -1.460E+02   -1.450E+02   -1.440E+02   -1.430E+02   -1.420E+02   -1.409E+02   -1.399E+02   -1.389E+02   -1.379E+02
    -1.369E+02   -1.359E+02   -1.349E+02   -1.339E+02   -1.329E+02   -1.319E+02   -1.309E+02   -1.299E+02   -1.289E+02   -1.280E+02
    -1.270E+02   -1.260E+02   -1.250E+02   -1.241E+02   -1.231E+02   -1.221E+02   -1.212E+02   -1.202E+02   -1.193E+02   -1.183E+02
    -1.174E+02   -1.164E+02   -1.155E+02   -1.146E+02   -1.136E+02   -1.127E+02   -1.118E+02   -1.109E+02   -1.100E+02   -1.091E+02
    -1.082E+02   -1.073E+02   -1.064E+02   -1.055E+02   -1.046E+02   -1.037E+02   -1.029E+02   -1.020E+02   -1.011E+02   -1.003E+02
    -9.942E+01   -9.856E+01   -9.772E+01   -9.688E+01   -9.604E+01   -9.521E+01   -9.438E+01   -9.356E+01   -9.275E+01   -9.193E+01
    -9.113E+01   -9.033E+01   -8.953E+01   -8.874E+01   -8.795E+01   -8.717E+01   -8.640E+01   -8.563E+01   -8.486E+01   -8.411E+01
    -8.335E+01   -8.260E+01   -8.186E+01   -8.112E+01   -8.039E+01   -7.967E+01   -7.895E+01   -7.823E+01   -7.752E+01   -7.682E+01
    -7.612E+01   -7.542E+01   -7.473E+01   -7.405E+01   -7.337E+01   -7.269E+01   -7.203E+01   -7.136E+01   -7.070E+01   -7.005E+01
    -6.940E+01   -6.875E+01   -6.812E+01   -6.748E+01   -6.685E+01   -6.623E+01   -6.560E+01   -6.499E+01   -6.438E+01   -6.377E+01
    -6.317E+01   -6.257E+01   -6.198E+01   -6.139E+01   -6.081E+01   -6.023E+01   -5.965E+01   -5.908E+01   -5.851E+01   -5.795E+01
    -5.739E+01   -5.684E+01   -5.629E+01   -5.574E+01   -5.520E+01   -5.466E+01   -5.413E+01   -5.360E+01   -5.308E+01   -5.255E+01
    -5.204E+01   -5.152E+01   -5.101E+01   -5.051E+01   -5.000E+01   -4.951E+01   -4.901E+01   -4.852E+01   -4.804E+01   -4.755E+01
    -4.707E+01   -4.660E+01   -4.613E+01   -4.566E+01   -4.519E+01   -4.473E+01   -4.428E+01   -4.382E+01   -4.337E+01   -4.293E+01
    -4.248E+01   -4.205E+01   -4.161E+01   -4.118E+01   -4.075E+01   -4.032E+01   -3.990E+01   -3.948E+01   -3.907E+01   -3.866E+01
    -3.825E+01   -3.784E+01   -3.744E+01   -3.704E+01   -3.665E+01   -3.626E+01   -3.587E+01   -3.548E+01   -3.510E+01   -3.472E+01
    -3.435E+01   -3.397E+01   -3.361E+01   -3.324E+01   -3.288E+01   -3.252E+01   -3.216E+01   -3.181E+01   -3.145E+01   -3.111E+01
    -3.076E+01   -3.042E+01   -3.008E+01   -2.975E+01   -2.942E+01   -2.909E+01   -2.876E+01   -2.844E+01   -2.812E+01   -2.781E+01
    -2.749E+01   -2.718E+01   -2.688E+01   -2.658E+01   -2.628E+01   -2.598E+01   -2.569E+01   -2.540E+01   -2.511E+01   -2.483E+01
    -2.455E+01   -2.427E+01   -2.399E+01   -2.372E+01   -2.346E+01   -2.319E+01   -2.293E+01   -2.267E+01   -2.242E+01   -2.217E+01
    -2.192E+01   -2.168E+01   -2.143E+01   -2.120E+01   -2.096E+01   -2.073E+01   -2.050E+01   -2.028E+01   -2.006E+01   -1.984E+01
    -1.962E+01   -1.941E+01   -1.920E+01   -1.900E+01   -1.879E+01   -1.859E+01   -1.839E+01   -1.820E+01   -1.801E+01   -1.782E+01
    -1.763E+01   -1.745E+01   -1.726E+01   -1.709E+01   -1.691E+01   -1.673E+01   -1.656E+01   -1.639E+01   -1.622E+01   -1.606E+01
    -1.589E+01   -1.573E+01   -1.557E+01   -1.541E+01   -1.526E+01   -1.510E+01   -1.495E+01   -1.480E+01   -1.465E+01   -1.450E+01
    -1.436E+01   -1.421E+01   -1.407E+01   -1.393E+01   -1.378E+01   -1.365E+01   -1.351E+01   -1.337E+01   -1.323E+01   -1.310E+01
    -1.296E+01   -1.283E+01   -1.270E+01   -1.257E+01   -1.244E+01   -1.231E+01   -1.218E+01   -1.205E+01   -1.192E+01   -1.180E+01
    -1.167E+01   -1.155E+01   -1.142E+01   -1.130E+01   -1.117E+01   -1.105E+01   -1.093E+01   -1.081E+01   -1.069E+01   -1.057E+01
    -1.045E+01   -1.033E+01   -1.021E+01   -1.010E+01   -9.981E+00   -9.865E+00   -9.749E+00   -9.634E+00   -9.520E+00   -9.406E+00
    -9.292E+00   -9.179E+00   -9.067E+00   -8.954E+00   -8.843E+00   -8.731E+00   -8.621E+00   -8.510E+00   -8.400E+00   -8.290E+00
    -8.181E+00   -8.072E+00   -7.963E+00   -7.854E+00   -7.746E+00   -7.638E+00   -7.531E+00   -7.423E+00   -7.316E+00   -7.209E+00
    -7.103E+00   -6.996E+00   -6.890E+00   -6.784E+00   -6.679E+00   -6.573E+00   -6.468E+00   -6.363E+00   -6.259E+00   -6.154E+00
    -6.050E+00   -5.947E+00   -5.843E+00   -5.740E+00   -5.637E+00   -5.534E+00   -5.432E+00   -5.329E+00   -5.227E+00   -5.126E+00
    -5.024E+00   -4.923E+00   -4.823E+00   -4.722E+00   -4.622E+00   -4.522E+00   -4.422E+00   -4.323E+00   -4.223E+00   -4.124E+00
    -4.026E+00   -3.928E+00   -3.830E+00   -3.732E+00   -3.634E+00   -3.537E+00   -3.440E+00   -3.344E+00   -3.247E+00   -3.151E+00
    -3.056E+00   -2.960E+00   -2.865E+00   -2.770E+00   -2.676E+00   -2.582E+00   -2.487E+00   -2.394E+00   -2.300E+00   -2.207E+00
    -2.114E+00   -2.021E+00   -1.928E+00   -1.836E+00   -1.744E+00   -1.652E+00   -1.560E+00   -1.468E+00   -1.376E+00   -1.285E+00
    -1.193E+00   -1.102E+00   -1.011E+00   -9.198E-01   -8.289E-01   -7.380E-01   -6.471E-01   -5.564E-01   -4.657E-01   -3.750E-01
    -2.843E-01   -1.937E-01   -1.031E-01   -1.244E-02    7.820E-02    1.689E-01    2.595E-01    3.503E-01    4.410E-01    5.319E-01
     6.228E-01    7.137E-01    8.048E-01    8.960E-01    9.872E-01    1.079E+00    1.170E+00    1.262E+00    1.354E+00    1.446E+00
     1.538E+00    1.630E+00    1.722E+00    1.815E+00    1.908E+00    2.001E+00    2.094E+00    2.187E+00    2.281E+00    2.375E+00
     2.469E+00    2.563E+00    2.658E+00    2.752E+00    2.847E+00    2.943E+00    3.038E+00    3.134E+00    3.230E+00    3.326E+00
     3.423E+00    3.520E+00    3.617E+00    3.715E+00    3.813E+00    3.911E+00    4.009E+00    4.108E+00    4.207E+00    4.307E+00
     4.407E+00    4.507E+00    4.608E+00    4.709E+00    4.810E+00    4.912E+00    5.014E+00    5.117E+00    5.220E+00    5.323E+00
     5.427E+00    5.531E+00    5.636E+00    5.741E+00    5.846E+00    5.952E+00    6.059E+00    6.165E+00    6.272E+00    6.380E+00
     6.488E+00    6.596E+00    6.705E+00    6.813E+00    6.923E+00    7.032E+00    7.142E+00    7.252E+00    7.362E+00    7.473E+00
     7.584E+00    7.695E+00    7.806E+00    7.917E+00    8.029E+00    8.141E+00    8.253E+00    8.365E+00    8.477E+00    8.590E+00
     8.703E+00    8.815E+00    8.928E+00    9.041E+00    9.154E+00    9.267E+00    9.380E+00    9.494E+00    9.607E+00    9.720E+00
     9.833E+00    9.947E+00    1.006E+01    1.017E+01    1.029E+01    1.040E+01    1.051E+01    1.063E+01
 Ala      Conc. = 5.40E+00
