 LCModel (Version 6.3-1L) Copyright: S.W. Provencher.          Ref.: Magn. Reson. Med. 30:672-679 (1993).                
 Slice#1 Row#3 Col#8  PD_24_press_2_raw_act
 36 lines in following concentration table = NCONC+1
    Conc.  %SD /Cr+PCr  Metabolite                                         
    0.000 999%   0.000 Ala                                                 
  156.309 154%   0.181 Asp                                                 
  862.019  20%   1.000 Cr                                                  
    0.000 999%   0.000 PCr                                                 
  141.777 104%   0.164 GABA                                                
  113.944 129%   0.132 Glc                                                 
 2.56E+03  54%   2.971 Gln                                                 
 2.11E+03  77%   2.452 Glu                                                 
  234.055 159%   0.272 GPC                                                 
  223.302 166%   0.259 PCh                                                 
    0.000 999%   0.000 GSH                                                 
  232.701 302%   0.270 Ins                                                 
 4.45E+03  26%   5.158 Lac                                                 
    0.000 999%   0.000 NAA                                                 
 2.86E+03   9%   3.315 NAAG                                                
   64.830  69% 7.5E-02 Scyllo                                              
  298.185  78%   0.346 Tau                                                 
  214.287  88%   0.249 -CrCH2                                              
  457.357  14%   0.531 GPC+PCh                                             
 2.86E+03   9%   3.315 NAA+NAAG                                            
  862.019  20%   1.000 Cr+PCr                                              
 4.68E+03  52%   5.424 Glu+Gln                                             
  690.579  95%   0.801 Lip13a                                              
    0.000 999%   0.000 Lip13b                                              
    0.000 999%   0.000 Lip09                                               
 2.26E+03  15%   2.617 MM09                                                
  116.260 235%   0.135 Lip20                                               
 3.25E+03  25%   3.773 MM20                                                
  871.288  30%   1.011 MM12                                                
 1.72E+03  42%   1.997 MM14                                                
 2.84E+03  17%   3.294 MM17                                                
  690.579  95%   0.801 Lip13a+Lip13b                                       
 3.28E+03  29%   3.809 MM14+Lip13a+Lip13b+MM12                             
 2.26E+03  15%   2.617 MM09+Lip09                                          
 3.37E+03  24%   3.908 MM20+Lip20                                          
   6 lines in following misc. output table
  FWHM = 0.138 ppm    S/N =   4                                            
  Data shift = 0.031 ppm                                                   
  Ph: -34 deg       5.7 deg/ppm                                            
  alphaB,S = 8.5E+01,   1.0E+02                                            
   14 spline knots.   Ns = 7(2)                                            
   2 inflections.     1 extrema                                            
  498 points on ppm-axis = NY
      4.000000     3.992357     3.984714     3.977070     3.969427     3.961784     3.954141     3.946497     3.938854     3.931211
      3.923568     3.915925     3.908281     3.900638     3.892995     3.885352     3.877708     3.870065     3.862422     3.854779
      3.847136     3.839492     3.831849     3.824206     3.816563     3.808919     3.801276     3.793633     3.785990     3.778347
      3.770703     3.763060     3.755417     3.747774     3.740130     3.732487     3.724844     3.717201     3.709558     3.701914
      3.694271     3.686628     3.678985     3.671341     3.663698     3.656055     3.648412     3.640769     3.633125     3.625482
      3.617839     3.610196     3.602552     3.594909     3.587266     3.579623     3.571980     3.564336     3.556693     3.549050
      3.541407     3.533763     3.526120     3.518477     3.510834     3.503191     3.495547     3.487904     3.480261     3.472618
      3.464974     3.457331     3.449688     3.442045     3.434402     3.426758     3.419115     3.411472     3.403829     3.396185
      3.388542     3.380899     3.373256     3.365613     3.357969     3.350326     3.342683     3.335040     3.327396     3.319753
      3.312110     3.304467     3.296824     3.289180     3.281537     3.273894     3.266251     3.258607     3.250964     3.243321
      3.235678     3.228034     3.220391     3.212748     3.205105     3.197462     3.189818     3.182175     3.174532     3.166889
      3.159245     3.151602     3.143959     3.136316     3.128673     3.121029     3.113386     3.105743     3.098100     3.090456
      3.082813     3.075170     3.067527     3.059884     3.052240     3.044597     3.036954     3.029311     3.021667     3.014024
      3.006381     2.998738     2.991095     2.983451     2.975808     2.968165     2.960522     2.952878     2.945235     2.937592
      2.929949     2.922306     2.914662     2.907019     2.899376     2.891733     2.884089     2.876446     2.868803     2.861160
      2.853517     2.845873     2.838230     2.830587     2.822944     2.815300     2.807657     2.800014     2.792371     2.784728
      2.777084     2.769441     2.761798     2.754155     2.746511     2.738868     2.731225     2.723582     2.715939     2.708295
      2.700652     2.693009     2.685366     2.677722     2.670079     2.662436     2.654793     2.647150     2.639506     2.631863
      2.624220     2.616577     2.608933     2.601290     2.593647     2.586004     2.578361     2.570717     2.563074     2.555431
      2.547788     2.540144     2.532501     2.524858     2.517215     2.509572     2.501928     2.494285     2.486642     2.478999
      2.471355     2.463712     2.456069     2.448426     2.440783     2.433139     2.425496     2.417853     2.410210     2.402566
      2.394923     2.387280     2.379637     2.371994     2.364350     2.356707     2.349064     2.341421     2.333777     2.326134
      2.318491     2.310848     2.303205     2.295561     2.287918     2.280275     2.272632     2.264988     2.257345     2.249702
      2.242059     2.234416     2.226772     2.219129     2.211486     2.203843     2.196199     2.188556     2.180913     2.173270
      2.165627     2.157983     2.150340     2.142697     2.135054     2.127410     2.119767     2.112124     2.104481     2.096838
      2.089194     2.081551     2.073908     2.066265     2.058621     2.050978     2.043335     2.035692     2.028049     2.020405
      2.012762     2.005119     1.997476     1.989833     1.982190     1.974546     1.966903     1.959260     1.951617     1.943974
      1.936331     1.928688     1.921045     1.913402     1.905759     1.898115     1.890472     1.882829     1.875186     1.867543
      1.859900     1.852257     1.844614     1.836971     1.829327     1.821684     1.814041     1.806398     1.798755     1.791112
      1.783469     1.775826     1.768183     1.760540     1.752896     1.745253     1.737610     1.729967     1.722324     1.714681
      1.707038     1.699395     1.691752     1.684108     1.676465     1.668822     1.661179     1.653536     1.645893     1.638250
      1.630607     1.622964     1.615321     1.607677     1.600034     1.592391     1.584748     1.577105     1.569462     1.561819
      1.554176     1.546533     1.538890     1.531246     1.523603     1.515960     1.508317     1.500674     1.493031     1.485388
      1.477745     1.470102     1.462458     1.454815     1.447172     1.439529     1.431886     1.424243     1.416600     1.408957
      1.401314     1.393671     1.386027     1.378384     1.370741     1.363098     1.355455     1.347812     1.340169     1.332526
      1.324883     1.317240     1.309596     1.301953     1.294310     1.286667     1.279024     1.271381     1.263738     1.256095
      1.248452     1.240808     1.233165     1.225522     1.217879     1.210236     1.202593     1.194950     1.187307     1.179664
      1.172021     1.164377     1.156734     1.149091     1.141448     1.133805     1.126162     1.118519     1.110876     1.103233
      1.095590     1.087946     1.080303     1.072660     1.065017     1.057374     1.049731     1.042088     1.034445     1.026802
      1.019158     1.011515     1.003872     0.996229     0.988586     0.980943     0.973300     0.965657     0.958014     0.950371
      0.942727     0.935084     0.927441     0.919798     0.912155     0.904512     0.896869     0.889226     0.881583     0.873940
      0.866296     0.858653     0.851010     0.843367     0.835724     0.828081     0.820438     0.812795     0.805152     0.797508
      0.789865     0.782222     0.774579     0.766936     0.759293     0.751650     0.744007     0.736364     0.728721     0.721077
      0.713434     0.705791     0.698148     0.690505     0.682862     0.675219     0.667576     0.659933     0.652290     0.644646
      0.637003     0.629360     0.621717     0.614074     0.606431     0.598788     0.591145     0.583502     0.575858     0.568215
      0.560572     0.552929     0.545286     0.537643     0.530000     0.522357     0.514714     0.507071     0.499427     0.491784
      0.484141     0.476498     0.468855     0.461212     0.453569     0.445925     0.438282     0.430639     0.422996     0.415353
      0.407710     0.400067     0.392424     0.384780     0.377137     0.369494     0.361851     0.354208     0.346565     0.338922
      0.331278     0.323635     0.315992     0.308349     0.300706     0.293063     0.285420     0.277777     0.270133     0.262490
      0.254847     0.247204     0.239561     0.231918     0.224275     0.216631     0.208988     0.201345
 NY phased data points follow
  -3.91206E+00 -1.60814E+01 -2.12473E+00  1.02799E+01  8.29370E+00  7.38880E+00  1.45367E+00 -3.67029E+00  2.74332E+00  7.40685E+00
   1.22289E+01  3.41051E+00  1.28238E+00  1.24555E+01  7.59738E+00  1.81653E+01  1.91345E+01  6.59537E+00  1.28246E+01  8.75159E+00
   1.20025E+01  7.81127E+00 -3.95631E+00 -8.70904E+00  2.51376E-01 -9.52603E+00  8.79774E-01  1.97314E+00  4.64900E+00  6.80139E+00
   1.96777E+00 -1.19362E+00  1.18276E+00 -8.74774E-01  3.11572E+00  1.79650E+01  2.24117E+00  5.09870E+00  6.22974E+00 -4.60619E+00
  -2.29782E-01 -2.73683E+00  9.63614E+00  1.36452E+01  6.39397E-01  1.31022E+01  2.46897E+00  1.75358E+01  9.58285E+00  6.01383E+00
  -4.73673E+00  3.31966E+00  9.25274E+00  8.81165E+00  7.31998E+00  4.84726E-01  6.69445E+00  2.45898E+00  2.36010E+00 -2.13283E+00
   5.16886E+00  2.81577E+00 -9.23453E+00  9.15103E-01 -4.26189E+00  9.00741E+00 -5.32844E-01  3.65207E+00 -3.86025E+00  8.70519E+00
  -5.53076E-02  3.91661E+00 -1.93062E+00 -4.76856E+00 -5.94428E-02 -2.12840E+00 -2.85953E-01  1.08939E+01 -1.56876E+01 -2.36049E+00
   1.29533E+01  1.26615E+00  4.23971E+00 -2.40128E+00  1.64540E+00 -1.01279E+01 -9.65020E+00  5.73029E+00  1.46873E+00  4.59867E-01
   3.11096E+00  9.09702E+00  1.53638E+01  1.48642E+01  1.85367E+01  1.54239E+01  2.07954E+01  5.04520E+00  7.32921E+00  7.56345E+00
   1.69826E+01  2.75943E+01  3.39748E+01  2.79544E+01  1.08567E+01  1.50529E+01  2.02255E+01  8.70115E+00  2.28652E+01  1.61979E+01
   7.12028E+00  1.40914E+01  1.71774E+01  6.19560E-01  1.04364E+01  9.19256E+00 -6.65431E-01  6.63163E+00  1.67384E+01  2.61565E+00
   8.09865E+00  1.52646E+01  7.12209E+00  1.23001E+01  1.13519E+00  1.55781E+01  2.02648E+01  3.25955E+01  2.14454E+01  1.22114E+01
   1.05457E+01  6.06316E+00  1.95371E+01  4.88387E+00  9.31087E+00  6.06362E+00 -5.11885E-01  4.03803E+00 -2.74773E-01  8.14935E+00
   1.46098E+00  6.82573E+00  4.32753E-01 -9.64987E+00 -1.03730E+01 -3.15377E+00 -7.09726E+00  2.93531E+00  1.05771E+01  3.23352E+00
   9.34620E+00  5.59450E-01  1.42000E+00 -3.51646E+00  7.13909E+00 -2.60418E+00  5.55987E+00 -1.11470E+01 -5.62261E+00  2.88201E+00
  -2.68882E-01 -5.61309E+00 -1.23183E+01 -6.23364E-01 -1.40271E+00 -5.03912E+00 -3.13389E+00 -3.29433E+00 -6.39656E+00 -1.37784E+01
  -9.55165E+00 -1.38822E+01 -5.32962E+00 -9.74852E+00 -4.60622E+00 -4.71433E+00 -1.97222E+01 -1.18984E+01 -1.73168E+01 -2.21148E+01
  -5.57838E+00 -8.67424E+00 -1.02127E+01 -5.16841E+00 -7.93211E+00 -3.26618E+00 -8.05471E+00 -5.01981E+00 -7.26328E+00 -1.45895E+01
  -2.09391E+00  3.88842E+00 -2.14481E+00 -1.42801E+01 -2.02287E+01  8.16680E+00 -5.31632E+00  2.09311E+00  6.15632E-01 -2.40797E+00
  -1.64286E+00 -6.87729E+00  6.91983E+00 -8.88604E-01 -1.07045E+01 -4.63305E+00  5.46515E+00  5.28804E+00 -5.66688E-02  5.88203E+00
   1.00122E+01 -2.15979E+00 -6.90946E+00 -7.91572E+00 -2.15328E+00  4.69465E+00  1.22957E+01  5.00082E+00  1.15995E+01  9.88559E+00
   2.12430E+00  4.39885E+00  5.17225E+00 -5.82999E-01 -3.19215E+00 -2.40871E+00 -3.16278E+00  1.00657E+01  1.44162E+01  2.15611E+00
   4.76544E+00  1.32581E+00  6.81442E-01 -6.96806E+00  1.15383E+01  4.29293E+00  7.78027E+00  1.08205E+01  1.13575E+01  1.06221E+01
   2.91872E+00  1.62221E+01  2.76150E+00  8.27722E+00  1.40003E+01  2.23664E+01  1.63637E+01  2.28346E+01  3.09103E+01  2.89237E+01
   3.94950E+01  4.15849E+01  3.93665E+01  4.43635E+01  5.14934E+01  4.70096E+01  3.36178E+01  4.07819E+01  6.20165E+01  6.39502E+01
   7.58941E+01  5.70120E+01  4.97388E+01  4.32166E+01  3.76842E+01  2.56275E+01  2.41650E+01  1.92772E+01  9.41833E+00  1.35341E+01
   1.07545E+01 -8.63473E+00  1.34747E+01 -7.77563E+00  1.33491E+01  3.69254E+00 -1.15160E+00  1.10940E+01  5.85080E+00  6.56076E+00
   3.05529E+00  1.78149E+01  1.12588E+01  1.09175E+01  9.02672E+00 -2.53224E+00 -8.04096E+00  1.41069E+01  1.75388E+00  1.66986E-01
  -5.46915E+00 -3.62358E+00 -8.33931E+00  9.24182E+00 -7.55012E-01  1.21533E+01  2.19945E+00  5.97190E+00  1.33228E+01  6.05148E+00
   3.65833E+00  9.96052E+00  1.39050E+01  5.34426E+00  2.39512E+01  1.40661E+01  8.64485E+00  1.21021E+01  2.41252E+01  2.45714E+01
   1.69739E+01  1.40619E+01  1.22384E+01  3.80370E+01  2.49324E+01  2.18040E+01  2.60079E+01  2.30828E+01  1.30993E+01  1.75223E+01
   2.12569E+01  2.28579E+01  1.82038E+01  3.12751E+01  2.84563E+01  2.83981E+01  1.98652E+01  2.19456E+01  1.00701E+01  8.18713E+00
   1.60882E+01  7.17872E+00  9.95470E+00  1.68121E+01  3.04937E+01  1.93054E+01  1.88438E+01  1.46693E+01  1.47090E+01  1.79554E+01
   2.24237E+01  2.33451E+01  1.54913E+01  5.09765E+00  1.68702E+01 -3.40180E+00  2.28241E+01  9.27048E+00  4.00460E+00  7.45032E+00
   1.19099E+01  1.51878E+01  1.36870E+01  4.98415E+00  1.12025E+01  2.07120E+00  9.41719E+00  8.24853E-01  3.91705E+00  1.12578E+01
   2.03190E+00  9.76724E+00  1.33269E+01  3.09977E+01  3.05707E+01  2.57741E+01  1.62808E+01  9.23670E+00  2.25282E+01  9.97018E+00
   1.23301E+01  2.04275E+01  1.17593E+01  1.28282E+01  1.30683E+01  1.58070E+01  1.55939E+01 -3.14549E+00  1.26769E+01  6.45880E+00
   8.32911E+00 -7.51952E+00 -3.29101E+00  5.86519E+00  1.37989E+01 -3.83099E-01  1.98446E+00  1.15679E+01  7.04543E+00 -3.92401E+00
  -3.46324E+00 -4.83593E+00 -8.91613E-01  1.08037E+01 -1.33611E+01  1.68552E+01  1.63773E+01  9.39820E+00  1.16275E+01  1.38526E+01
  -4.79934E+00  5.41970E+00  6.05229E+00  1.46049E+01  1.04032E+01  1.99911E+01  4.64722E+00  1.43045E+01  1.21570E+01  8.82956E+00
   1.70208E+01  1.45744E+01  1.20035E+01  7.78112E+00  1.25319E+01  1.27185E+01 -4.63655E+00 -6.04220E+00  3.04522E+00 -1.10620E+00
  -2.21886E+00  3.74549E+00  4.15277E+00  1.60307E+01 -1.19046E+01  1.25192E+01 -2.03799E+00  1.95878E+00 -1.05211E+00 -5.40412E+00
   2.23883E+00  1.86003E+01  2.91585E+00  1.49064E+00  6.18977E+00 -7.43898E+00  5.13288E+00  2.88397E+00  1.77477E+00  1.57803E+01
   2.99424E+00 -7.71270E+00 -5.84904E+00 -9.11719E+00 -8.43059E-01 -4.88144E+00 -2.38675E+00 -7.20246E+00 -4.34698E+00 -5.82798E-01
  -2.53667E+00 -6.12318E+00  3.81291E+00  7.48611E+00 -1.08140E+01 -1.00475E+01 -9.43588E+00 -6.92047E+00 -5.99958E+00 -8.86741E+00
  -1.85459E+01 -8.91574E+00 -1.55500E+01 -1.00365E+01 -1.29361E+00 -3.37063E+00 -6.60556E+00  1.46704E-01 -6.88408E+00 -7.14751E+00
  -6.91822E-01 -8.65047E+00 -7.12133E+00 -9.40047E+00 -1.11490E+01 -2.74940E+01  3.51800E-01 -2.42141E+00 -3.54725E+00 -3.39582E+00
  -1.04258E+01 -1.85285E+01 -1.51936E+01 -1.63653E+01 -1.01246E+01 -4.76658E+00 -1.29474E+01 -1.81358E-01 -5.08447E+00 -8.17977E-01
  -7.15508E+00 -1.83310E+00 -6.79085E+00 -1.11416E+01 -1.51488E+01 -2.47459E+00 -7.36618E+00  3.15524E+00
 NY points of the fit to the data follow
   3.57510E+00  4.24800E+00  3.96646E+00  4.50672E+00  4.43290E+00  5.05293E+00  5.28356E+00  5.95101E+00  6.50516E+00  7.15815E+00
   7.84484E+00  8.33220E+00  8.96216E+00  9.37605E+00  9.69665E+00  9.73734E+00  9.53955E+00  9.05610E+00  8.62416E+00  7.89139E+00
   7.38917E+00  6.51262E+00  6.04911E+00  5.27057E+00  4.95908E+00  4.41652E+00  4.37613E+00  4.08918E+00  4.10797E+00  3.75464E+00
   3.76635E+00  3.32299E+00  3.56165E+00  3.28311E+00  4.03623E+00  3.80680E+00  4.71103E+00  4.29546E+00  4.83386E+00  4.16492E+00
   4.25618E+00  3.64020E+00  3.51829E+00  3.11110E+00  3.06218E+00  2.86038E+00  2.95566E+00  2.88266E+00  3.12125E+00  3.00300E+00
   3.15251E+00  2.89562E+00  2.85373E+00  2.48350E+00  2.30855E+00  1.98905E+00  1.77458E+00  1.55517E+00  1.34437E+00  1.22033E+00
   1.01098E+00  1.00140E+00  8.26675E-01  9.00836E-01  7.57919E-01  8.46990E-01  7.08310E-01  7.87266E-01  6.57327E-01  7.31127E-01
   6.07516E-01  6.87046E-01  6.36453E-01  7.22813E-01  7.68459E-01  8.32730E-01  9.61430E-01  1.00023E+00  1.20041E+00  1.15506E+00
   1.35752E+00  1.19417E+00  1.32119E+00  1.09462E+00  1.21092E+00  1.01124E+00  1.11909E+00  1.02673E+00  1.36393E+00  2.13904E+00
   2.84597E+00  4.34359E+00  5.23885E+00  7.08788E+00  8.08296E+00  1.00985E+01  1.11411E+01  1.31014E+01  1.40903E+01  1.55829E+01
   1.64544E+01  1.76236E+01  1.83803E+01  1.91779E+01  1.98139E+01  2.04446E+01  2.07892E+01  2.03630E+01  1.99715E+01  1.78813E+01
   1.67189E+01  1.36388E+01  1.22454E+01  9.55747E+00  8.41107E+00  7.06905E+00  6.38928E+00  6.50803E+00  6.28868E+00  7.75600E+00
   7.76471E+00  9.79333E+00  9.64104E+00  1.15394E+01  1.11347E+01  1.29074E+01  1.22805E+01  1.38799E+01  1.31055E+01  1.46880E+01
   1.36062E+01  1.45195E+01  1.29603E+01  1.26670E+01  1.08092E+01  9.59012E+00  7.75743E+00  6.07595E+00  4.61355E+00  3.12317E+00
   2.12775E+00  1.08506E+00  5.34205E-01  3.80635E-02 -2.28874E-01 -4.79406E-01 -6.70312E-01 -8.98195E-01 -1.08361E+00 -1.32487E+00
  -1.51514E+00 -1.76247E+00 -1.98860E+00 -2.24700E+00 -2.53067E+00 -2.82778E+00 -3.21177E+00 -3.51717E+00 -3.88373E+00 -4.12797E+00
  -4.38975E+00 -4.55966E+00 -4.84030E+00 -4.97480E+00 -5.30544E+00 -5.41584E+00 -5.75091E+00 -5.85870E+00 -6.22526E+00 -6.34857E+00
  -6.62149E+00 -6.69529E+00 -6.79000E+00 -6.76324E+00 -6.60018E+00 -6.47304E+00 -6.09191E+00 -5.94012E+00 -5.43640E+00 -5.25238E+00
  -4.77560E+00 -4.58422E+00 -4.25350E+00 -4.10473E+00 -3.93773E+00 -3.82607E+00 -3.65131E+00 -3.41114E+00 -3.13167E+00 -2.68184E+00
  -2.38789E+00 -1.71435E+00 -1.53894E+00 -7.40538E-01 -8.39413E-01 -3.31136E-01 -1.12053E+00 -8.50671E-01 -2.18749E+00 -1.92097E+00
  -3.27090E+00 -2.75209E+00 -3.61948E+00 -2.80258E+00 -3.09518E+00 -2.20084E+00 -2.18534E+00 -1.67499E+00 -1.91219E+00 -2.06825E+00
  -2.57609E+00 -3.35657E+00 -3.93333E+00 -4.49822E+00 -4.35743E+00 -4.22595E+00 -2.97288E+00 -2.34727E+00 -3.16918E-01  1.69578E-01
   2.09915E+00  1.94931E+00  2.97028E+00  2.38648E+00  2.45275E+00  2.05748E+00  1.74167E+00  2.36292E+00  2.08250E+00  3.56013E+00
   3.31859E+00  5.11456E+00  4.80764E+00  6.31484E+00  5.71337E+00  6.69440E+00  5.87670E+00  6.49394E+00  5.71592E+00  6.42158E+00
   6.08001E+00  7.54326E+00  9.64103E+00  1.16834E+01  1.58853E+01  1.76170E+01  2.33442E+01  2.43545E+01  3.12438E+01  3.15880E+01
   3.89773E+01  3.84809E+01  4.52102E+01  4.41227E+01  5.02396E+01  4.86591E+01  5.39195E+01  5.18337E+01  5.66059E+01  5.32842E+01
   5.55918E+01  5.04987E+01  4.88661E+01  4.26808E+01  3.82935E+01  3.21714E+01  2.65914E+01  2.16002E+01  1.68707E+01  1.34938E+01
   1.03869E+01  8.50070E+00  7.26342E+00  6.23390E+00  5.80754E+00  5.07763E+00  4.85519E+00  4.21844E+00  4.13851E+00  3.49211E+00
   3.48558E+00  2.81795E+00  2.86237E+00  2.24476E+00  2.35965E+00  1.84727E+00  2.07195E+00  1.69342E+00  2.02642E+00  1.77222E+00
   2.18258E+00  2.06523E+00  2.53421E+00  2.56858E+00  3.14045E+00  3.40561E+00  4.12896E+00  4.66913E+00  5.56423E+00  6.38013E+00
   7.45245E+00  8.50132E+00  9.72461E+00  1.09548E+01  1.22815E+01  1.36224E+01  1.49678E+01  1.62966E+01  1.75480E+01  1.87243E+01
   1.97437E+01  2.06243E+01  2.12933E+01  2.17798E+01  2.20365E+01  2.20974E+01  2.19495E+01  2.16316E+01  2.11516E+01  2.05556E+01
   1.98598E+01  1.91137E+01  1.83360E+01  1.75726E+01  1.68401E+01  1.61763E+01  1.55929E+01  1.51210E+01  1.47707E+01  1.45754E+01
   1.45599E+01  1.47998E+01  1.54539E+01  1.68855E+01  1.80012E+01  1.93879E+01  2.05610E+01  2.08324E+01  2.18083E+01  2.03567E+01
   2.07902E+01  1.83030E+01  1.89895E+01  1.55223E+01  1.70767E+01  1.32213E+01  1.57472E+01  1.16391E+01  1.52138E+01  1.10341E+01
   1.50629E+01  8.96625E+00  1.26404E+01  5.15176E+00  8.93536E+00  2.33826E+00  6.66310E+00  3.06563E+00  8.77910E+00  8.04186E+00
   1.41797E+01  1.40703E+01  1.88103E+01  1.81413E+01  2.05494E+01  1.83326E+01  1.83696E+01  1.54751E+01  1.42086E+01  1.16525E+01
   1.00417E+01  8.49528E+00  7.35465E+00  6.48842E+00  5.77554E+00  5.17950E+00  4.66674E+00  4.23442E+00  3.86516E+00  3.56509E+00
   3.32223E+00  3.14617E+00  3.02711E+00  2.97595E+00  2.98367E+00  3.06150E+00  3.20042E+00  3.41127E+00  3.68415E+00  4.02851E+00
   4.43261E+00  4.90357E+00  5.42683E+00  6.00625E+00  6.62358E+00  7.27874E+00  7.94954E+00  8.63220E+00  9.30125E+00  9.95029E+00
   1.05521E+01  1.10999E+01  1.15671E+01  1.19492E+01  1.22233E+01  1.23896E+01  1.24313E+01  1.23554E+01  1.21523E+01  1.18364E+01
   1.14050E+01  1.08791E+01  1.02613E+01  9.57666E+00  8.83087E+00  8.05028E+00  7.24066E+00  6.42711E+00  5.61311E+00  4.82066E+00
   4.04957E+00  3.31787E+00  2.62127E+00  1.97382E+00  1.36757E+00  8.13355E-01  3.00510E-01 -1.62367E-01 -5.87678E-01 -9.68070E-01
  -1.31674E+00 -1.62673E+00 -1.91136E+00 -2.16359E+00 -2.39651E+00 -2.60269E+00 -2.79476E+00 -2.96477E+00 -3.12490E+00 -3.26672E+00
  -3.40199E+00 -3.52188E+00 -3.63776E+00 -3.74045E+00 -3.84105E+00 -3.93014E+00 -4.01863E+00 -4.09688E+00 -4.17562E+00 -4.24508E+00
  -4.31589E+00 -4.37817E+00 -4.44248E+00 -4.49884E+00 -4.55773E+00 -4.60912E+00 -4.66345E+00 -4.71067E+00 -4.76116E+00 -4.80482E+00
  -4.85200E+00 -4.89259E+00 -4.93693E+00 -4.97490E+00 -5.01679E+00 -5.05246E+00 -5.09219E+00 -5.12584E+00 -5.16368E+00 -5.19557E+00
  -5.23176E+00 -5.26207E+00 -5.29676E+00 -5.32567E+00 -5.35905E+00 -5.38672E+00 -5.41893E+00 -5.44546E+00 -5.47659E+00 -5.50211E+00
  -5.53229E+00 -5.55689E+00 -5.58618E+00 -5.60992E+00 -5.63840E+00 -5.66137E+00 -5.68912E+00 -5.71137E+00 -5.73840E+00 -5.75996E+00
  -5.78633E+00 -5.80725E+00 -5.83299E+00 -5.85326E+00 -5.87835E+00 -5.89797E+00 -5.92241E+00 -5.94136E+00
 NY background values follow
     1.247E-01    1.114E-01    9.818E-02    8.492E-02    7.166E-02    5.840E-02    4.514E-02    3.187E-02    1.861E-02    5.350E-03
    -7.912E-03   -2.117E-02   -3.444E-02   -4.770E-02   -6.096E-02   -7.423E-02   -8.749E-02   -1.008E-01   -1.140E-01   -1.273E-01
    -1.405E-01   -1.538E-01   -1.671E-01   -1.803E-01   -1.936E-01   -2.069E-01   -2.201E-01   -2.334E-01   -2.467E-01   -2.599E-01
    -2.732E-01   -2.865E-01   -2.998E-01   -3.130E-01   -3.263E-01   -3.396E-01   -3.528E-01   -3.661E-01   -3.794E-01   -3.926E-01
    -4.059E-01   -4.192E-01   -4.324E-01   -4.457E-01   -4.590E-01   -4.723E-01   -4.855E-01   -4.988E-01   -5.121E-01   -5.254E-01
    -5.386E-01   -5.519E-01   -5.652E-01   -5.784E-01   -5.917E-01   -6.050E-01   -6.183E-01   -6.315E-01   -6.448E-01   -6.581E-01
    -6.714E-01   -6.846E-01   -6.979E-01   -7.112E-01   -7.245E-01   -7.378E-01   -7.510E-01   -7.643E-01   -7.776E-01   -7.909E-01
    -8.041E-01   -8.174E-01   -8.307E-01   -8.440E-01   -8.573E-01   -8.705E-01   -8.838E-01   -8.971E-01   -9.104E-01   -9.237E-01
    -9.369E-01   -9.502E-01   -9.635E-01   -9.768E-01   -9.901E-01   -1.003E+00   -1.017E+00   -1.030E+00   -1.043E+00   -1.056E+00
    -1.070E+00   -1.083E+00   -1.096E+00   -1.110E+00   -1.123E+00   -1.136E+00   -1.149E+00   -1.163E+00   -1.176E+00   -1.189E+00
    -1.203E+00   -1.216E+00   -1.229E+00   -1.242E+00   -1.256E+00   -1.269E+00   -1.282E+00   -1.296E+00   -1.309E+00   -1.322E+00
    -1.335E+00   -1.349E+00   -1.362E+00   -1.375E+00   -1.389E+00   -1.402E+00   -1.415E+00   -1.428E+00   -1.442E+00   -1.455E+00
    -1.468E+00   -1.482E+00   -1.495E+00   -1.508E+00   -1.522E+00   -1.535E+00   -1.548E+00   -1.561E+00   -1.575E+00   -1.588E+00
    -1.601E+00   -1.615E+00   -1.628E+00   -1.641E+00   -1.654E+00   -1.668E+00   -1.681E+00   -1.694E+00   -1.708E+00   -1.721E+00
    -1.734E+00   -1.748E+00   -1.761E+00   -1.774E+00   -1.787E+00   -1.801E+00   -1.814E+00   -1.827E+00   -1.841E+00   -1.854E+00
    -1.867E+00   -1.880E+00   -1.894E+00   -1.907E+00   -1.920E+00   -1.934E+00   -1.947E+00   -1.960E+00   -1.974E+00   -1.987E+00
    -2.000E+00   -2.013E+00   -2.027E+00   -2.040E+00   -2.053E+00   -2.067E+00   -2.080E+00   -2.093E+00   -2.107E+00   -2.120E+00
    -2.133E+00   -2.146E+00   -2.160E+00   -2.173E+00   -2.186E+00   -2.200E+00   -2.213E+00   -2.226E+00   -2.240E+00   -2.253E+00
    -2.266E+00   -2.279E+00   -2.293E+00   -2.306E+00   -2.319E+00   -2.333E+00   -2.346E+00   -2.359E+00   -2.373E+00   -2.386E+00
    -2.399E+00   -2.412E+00   -2.426E+00   -2.439E+00   -2.452E+00   -2.466E+00   -2.479E+00   -2.492E+00   -2.506E+00   -2.519E+00
    -2.532E+00   -2.546E+00   -2.559E+00   -2.572E+00   -2.585E+00   -2.599E+00   -2.612E+00   -2.625E+00   -2.639E+00   -2.652E+00
    -2.665E+00   -2.679E+00   -2.692E+00   -2.705E+00   -2.719E+00   -2.732E+00   -2.745E+00   -2.758E+00   -2.772E+00   -2.785E+00
    -2.798E+00   -2.812E+00   -2.825E+00   -2.838E+00   -2.852E+00   -2.865E+00   -2.878E+00   -2.892E+00   -2.905E+00   -2.918E+00
    -2.931E+00   -2.945E+00   -2.958E+00   -2.971E+00   -2.985E+00   -2.998E+00   -3.011E+00   -3.025E+00   -3.038E+00   -3.051E+00
    -3.065E+00   -3.078E+00   -3.091E+00   -3.105E+00   -3.118E+00   -3.131E+00   -3.144E+00   -3.158E+00   -3.171E+00   -3.184E+00
    -3.198E+00   -3.211E+00   -3.224E+00   -3.238E+00   -3.251E+00   -3.264E+00   -3.278E+00   -3.291E+00   -3.304E+00   -3.318E+00
    -3.331E+00   -3.344E+00   -3.358E+00   -3.371E+00   -3.384E+00   -3.397E+00   -3.411E+00   -3.424E+00   -3.437E+00   -3.451E+00
    -3.464E+00   -3.477E+00   -3.491E+00   -3.504E+00   -3.517E+00   -3.531E+00   -3.544E+00   -3.557E+00   -3.571E+00   -3.584E+00
    -3.597E+00   -3.611E+00   -3.624E+00   -3.637E+00   -3.650E+00   -3.664E+00   -3.677E+00   -3.690E+00   -3.704E+00   -3.717E+00
    -3.730E+00   -3.744E+00   -3.757E+00   -3.770E+00   -3.784E+00   -3.797E+00   -3.810E+00   -3.824E+00   -3.837E+00   -3.850E+00
    -3.864E+00   -3.877E+00   -3.890E+00   -3.904E+00   -3.917E+00   -3.930E+00   -3.944E+00   -3.957E+00   -3.970E+00   -3.983E+00
    -3.997E+00   -4.010E+00   -4.023E+00   -4.037E+00   -4.050E+00   -4.063E+00   -4.077E+00   -4.090E+00   -4.103E+00   -4.117E+00
    -4.130E+00   -4.143E+00   -4.157E+00   -4.170E+00   -4.183E+00   -4.197E+00   -4.210E+00   -4.223E+00   -4.237E+00   -4.250E+00
    -4.263E+00   -4.277E+00   -4.290E+00   -4.303E+00   -4.317E+00   -4.330E+00   -4.343E+00   -4.357E+00   -4.370E+00   -4.383E+00
    -4.396E+00   -4.410E+00   -4.423E+00   -4.436E+00   -4.450E+00   -4.463E+00   -4.476E+00   -4.490E+00   -4.503E+00   -4.516E+00
    -4.530E+00   -4.543E+00   -4.556E+00   -4.570E+00   -4.583E+00   -4.596E+00   -4.610E+00   -4.623E+00   -4.636E+00   -4.650E+00
    -4.663E+00   -4.676E+00   -4.690E+00   -4.703E+00   -4.716E+00   -4.730E+00   -4.743E+00   -4.756E+00   -4.770E+00   -4.783E+00
    -4.796E+00   -4.810E+00   -4.823E+00   -4.836E+00   -4.850E+00   -4.863E+00   -4.876E+00   -4.890E+00   -4.903E+00   -4.916E+00
    -4.930E+00   -4.943E+00   -4.956E+00   -4.969E+00   -4.983E+00   -4.996E+00   -5.009E+00   -5.023E+00   -5.036E+00   -5.049E+00
    -5.063E+00   -5.076E+00   -5.089E+00   -5.103E+00   -5.116E+00   -5.129E+00   -5.143E+00   -5.156E+00   -5.169E+00   -5.183E+00
    -5.196E+00   -5.209E+00   -5.223E+00   -5.236E+00   -5.249E+00   -5.263E+00   -5.276E+00   -5.289E+00   -5.303E+00   -5.316E+00
    -5.329E+00   -5.343E+00   -5.356E+00   -5.369E+00   -5.383E+00   -5.396E+00   -5.409E+00   -5.423E+00   -5.436E+00   -5.449E+00
    -5.463E+00   -5.476E+00   -5.489E+00   -5.503E+00   -5.516E+00   -5.529E+00   -5.543E+00   -5.556E+00   -5.569E+00   -5.583E+00
    -5.596E+00   -5.609E+00   -5.623E+00   -5.636E+00   -5.649E+00   -5.662E+00   -5.676E+00   -5.689E+00   -5.702E+00   -5.716E+00
    -5.729E+00   -5.742E+00   -5.756E+00   -5.769E+00   -5.782E+00   -5.796E+00   -5.809E+00   -5.822E+00   -5.836E+00   -5.849E+00
    -5.862E+00   -5.876E+00   -5.889E+00   -5.902E+00   -5.916E+00   -5.929E+00   -5.942E+00   -5.956E+00   -5.969E+00   -5.982E+00
    -5.996E+00   -6.009E+00   -6.022E+00   -6.036E+00   -6.049E+00   -6.062E+00   -6.076E+00   -6.089E+00   -6.102E+00   -6.116E+00
    -6.129E+00   -6.142E+00   -6.156E+00   -6.169E+00   -6.182E+00   -6.196E+00   -6.209E+00   -6.222E+00   -6.236E+00   -6.249E+00
    -6.262E+00   -6.276E+00   -6.289E+00   -6.302E+00   -6.315E+00   -6.329E+00   -6.342E+00   -6.355E+00   -6.369E+00   -6.382E+00
    -6.395E+00   -6.409E+00   -6.422E+00   -6.435E+00   -6.449E+00   -6.462E+00   -6.475E+00   -6.489E+00
 Asp      Conc. = 1.56E+02
