 LCModel (Version 6.3-1L) Copyright: S.W. Provencher.          Ref.: Magn. Reson. Med. 30:672-679 (1993).                
 Slice#1 Row#3 Col#11  PD_24_press_2_raw_act
 36 lines in following concentration table = NCONC+1
    Conc.  %SD /Cr+PCr  Metabolite                                         
    4.892 642%   0.138 Ala                                                 
    5.080 999%   0.143 Asp                                                 
    0.000 999%   0.000 Cr                                                  
   35.471  71%   1.000 PCr                                                 
   16.354 174%   0.461 GABA                                                
    0.000 999%   0.000 Glc                                                 
   22.602 255%   0.637 Gln                                                 
    0.000 999%   0.000 Glu                                                 
    0.000 999%   0.000 GPC                                                 
   11.107  77%   0.313 PCh                                                 
   14.583 175%   0.411 GSH                                                 
   88.565  92%   2.497 Ins                                                 
   47.376  71%   1.336 Lac                                                 
    0.000 999%   0.000 NAA                                                 
   56.214  48%   1.585 NAAG                                                
    2.525 329% 7.1E-02 Scyllo                                              
    0.000 999%   0.000 Tau                                                 
   65.060  65%   1.834 -CrCH2                                              
   11.107  77%   0.313 GPC+PCh                                             
   56.214  48%   1.585 NAA+NAAG                                            
   35.471  71%   1.000 Cr+PCr                                              
   22.602 255%   0.637 Glu+Gln                                             
 8.75E+03  15% 246.714 Lip13a                                              
    0.000 999%   0.000 Lip13b                                              
 3.50E+03  13%  98.596 Lip09                                               
 3.50E+03  10%  98.800 MM09                                                
 1.89E+03  20%  53.370 Lip20                                               
 5.80E+03   9% 163.440 MM20                                                
 1.02E+03  16%  28.811 MM12                                                
 2.85E+03  11%  80.350 MM14                                                
    0.000 999%   0.000-MM17                                                
 8.75E+03  15% 246.714 Lip13a+Lip13b                                       
 1.26E+04   9% 355.875 MM14+Lip13a+Lip13b+MM12                             
 7.00E+03   8% 197.396 MM09+Lip09                                          
 7.69E+03   7% 216.810 MM20+Lip20                                          
   6 lines in following misc. output table
  FWHM = 0.031 ppm    S/N =   2                                            
  Data shift =-0.031 ppm                                                   
  Ph: -93 deg     126.7 deg/ppm                                            
  alphaB,S = 5.4E-01,   2.9E+00                                            
   14 spline knots.   Ns = 5(1)                                            
   2 inflections.     2 extrema                                            
  498 points on ppm-axis = NY
      4.000000     3.992357     3.984714     3.977070     3.969427     3.961784     3.954141     3.946497     3.938854     3.931211
      3.923568     3.915925     3.908281     3.900638     3.892995     3.885352     3.877708     3.870065     3.862422     3.854779
      3.847136     3.839492     3.831849     3.824206     3.816563     3.808919     3.801276     3.793633     3.785990     3.778347
      3.770703     3.763060     3.755417     3.747774     3.740130     3.732487     3.724844     3.717201     3.709558     3.701914
      3.694271     3.686628     3.678985     3.671341     3.663698     3.656055     3.648412     3.640769     3.633125     3.625482
      3.617839     3.610196     3.602552     3.594909     3.587266     3.579623     3.571980     3.564336     3.556693     3.549050
      3.541407     3.533763     3.526120     3.518477     3.510834     3.503191     3.495547     3.487904     3.480261     3.472618
      3.464974     3.457331     3.449688     3.442045     3.434402     3.426758     3.419115     3.411472     3.403829     3.396185
      3.388542     3.380899     3.373256     3.365613     3.357969     3.350326     3.342683     3.335040     3.327396     3.319753
      3.312110     3.304467     3.296824     3.289180     3.281537     3.273894     3.266251     3.258607     3.250964     3.243321
      3.235678     3.228034     3.220391     3.212748     3.205105     3.197462     3.189818     3.182175     3.174532     3.166889
      3.159245     3.151602     3.143959     3.136316     3.128673     3.121029     3.113386     3.105743     3.098100     3.090456
      3.082813     3.075170     3.067527     3.059884     3.052240     3.044597     3.036954     3.029311     3.021667     3.014024
      3.006381     2.998738     2.991095     2.983451     2.975808     2.968165     2.960522     2.952878     2.945235     2.937592
      2.929949     2.922306     2.914662     2.907019     2.899376     2.891733     2.884089     2.876446     2.868803     2.861160
      2.853517     2.845873     2.838230     2.830587     2.822944     2.815300     2.807657     2.800014     2.792371     2.784728
      2.777084     2.769441     2.761798     2.754155     2.746511     2.738868     2.731225     2.723582     2.715939     2.708295
      2.700652     2.693009     2.685366     2.677722     2.670079     2.662436     2.654793     2.647150     2.639506     2.631863
      2.624220     2.616577     2.608933     2.601290     2.593647     2.586004     2.578361     2.570717     2.563074     2.555431
      2.547788     2.540144     2.532501     2.524858     2.517215     2.509572     2.501928     2.494285     2.486642     2.478999
      2.471355     2.463712     2.456069     2.448426     2.440783     2.433139     2.425496     2.417853     2.410210     2.402566
      2.394923     2.387280     2.379637     2.371994     2.364350     2.356707     2.349064     2.341421     2.333777     2.326134
      2.318491     2.310848     2.303205     2.295561     2.287918     2.280275     2.272632     2.264988     2.257345     2.249702
      2.242059     2.234416     2.226772     2.219129     2.211486     2.203843     2.196199     2.188556     2.180913     2.173270
      2.165627     2.157983     2.150340     2.142697     2.135054     2.127410     2.119767     2.112124     2.104481     2.096838
      2.089194     2.081551     2.073908     2.066265     2.058621     2.050978     2.043335     2.035692     2.028049     2.020405
      2.012762     2.005119     1.997476     1.989833     1.982190     1.974546     1.966903     1.959260     1.951617     1.943974
      1.936331     1.928688     1.921045     1.913402     1.905759     1.898115     1.890472     1.882829     1.875186     1.867543
      1.859900     1.852257     1.844614     1.836971     1.829327     1.821684     1.814041     1.806398     1.798755     1.791112
      1.783469     1.775826     1.768183     1.760540     1.752896     1.745253     1.737610     1.729967     1.722324     1.714681
      1.707038     1.699395     1.691752     1.684108     1.676465     1.668822     1.661179     1.653536     1.645893     1.638250
      1.630607     1.622964     1.615321     1.607677     1.600034     1.592391     1.584748     1.577105     1.569462     1.561819
      1.554176     1.546533     1.538890     1.531246     1.523603     1.515960     1.508317     1.500674     1.493031     1.485388
      1.477745     1.470102     1.462458     1.454815     1.447172     1.439529     1.431886     1.424243     1.416600     1.408957
      1.401314     1.393671     1.386027     1.378384     1.370741     1.363098     1.355455     1.347812     1.340169     1.332526
      1.324883     1.317240     1.309596     1.301953     1.294310     1.286667     1.279024     1.271381     1.263738     1.256095
      1.248452     1.240808     1.233165     1.225522     1.217879     1.210236     1.202593     1.194950     1.187307     1.179664
      1.172021     1.164377     1.156734     1.149091     1.141448     1.133805     1.126162     1.118519     1.110876     1.103233
      1.095590     1.087946     1.080303     1.072660     1.065017     1.057374     1.049731     1.042088     1.034445     1.026802
      1.019158     1.011515     1.003872     0.996229     0.988586     0.980943     0.973300     0.965657     0.958014     0.950371
      0.942727     0.935084     0.927441     0.919798     0.912155     0.904512     0.896869     0.889226     0.881583     0.873940
      0.866296     0.858653     0.851010     0.843367     0.835724     0.828081     0.820438     0.812795     0.805152     0.797508
      0.789865     0.782222     0.774579     0.766936     0.759293     0.751650     0.744007     0.736364     0.728721     0.721077
      0.713434     0.705791     0.698148     0.690505     0.682862     0.675219     0.667576     0.659933     0.652290     0.644646
      0.637003     0.629360     0.621717     0.614074     0.606431     0.598788     0.591145     0.583502     0.575858     0.568215
      0.560572     0.552929     0.545286     0.537643     0.530000     0.522357     0.514714     0.507071     0.499427     0.491784
      0.484141     0.476498     0.468855     0.461212     0.453569     0.445925     0.438282     0.430639     0.422996     0.415353
      0.407710     0.400067     0.392424     0.384780     0.377137     0.369494     0.361851     0.354208     0.346565     0.338922
      0.331278     0.323635     0.315992     0.308349     0.300706     0.293063     0.285420     0.277777     0.270133     0.262490
      0.254847     0.247204     0.239561     0.231918     0.224275     0.216631     0.208988     0.201345
 NY phased data points follow
   9.08620E+00  9.98626E+00 -7.56348E-01 -2.97246E+00  4.15340E+00 -3.24517E+00  6.76857E+00  3.35789E+00 -2.99028E+00 -8.91112E-01
  -1.37015E+00 -4.41447E+00 -1.48620E+00  3.44645E+00  6.95844E-01  7.38936E-01  6.96124E+00  6.43268E+00  7.51721E+00  4.14515E+00
   6.04836E+00 -1.55550E+00 -6.79145E-01  3.82392E+00  2.64087E+00 -3.91747E+00 -6.56866E+00  9.56904E-01 -2.16068E+00 -1.33906E+00
   3.96987E+00 -6.68982E+00  2.55427E+00  1.33778E-01  2.90268E+00  1.16092E+00  1.53901E+00 -3.61882E+00 -4.78349E+00 -3.25362E+00
  -1.39159E+00  5.49934E+00 -1.59164E+00 -6.78853E+00 -1.68123E+00 -5.10737E+00 -5.86971E+00 -3.35651E-01 -6.35514E+00 -8.51450E-01
   6.57613E+00  8.72165E+00 -2.56865E+00  1.11413E+00 -2.63440E+00 -5.67354E-01 -8.43236E+00 -1.63661E-01  5.56061E-01  9.05628E+00
   6.02452E+00  7.84421E+00  8.05880E+00  1.29558E+01 -4.72822E+00 -1.96139E-02 -4.89827E-01  9.74334E-02 -6.34766E+00  1.49675E+00
  -3.49996E-01  2.93281E-01 -1.63752E+00  1.20672E+00 -8.74555E-01  3.02428E+00 -3.19634E+00  6.71741E+00 -9.34646E+00 -1.33676E+00
   2.65156E+00 -1.24981E+00  4.76804E+00 -4.82243E+00 -1.07685E+01  6.38392E-01 -1.80273E+00  4.08613E+00  4.20922E+00 -8.86348E-01
   3.97910E+00 -4.57434E+00 -5.81002E+00  5.77879E+00 -3.38953E+00 -1.60913E+00 -5.07480E+00  2.06011E+00 -1.00845E+00 -1.57662E+00
   8.19564E+00  3.03244E+00 -2.19239E+00  5.53921E+00  5.24118E+00  8.93584E+00  1.51917E+01  7.30176E+00 -1.76819E+00  2.76936E+00
   5.79834E+00  7.60853E+00  2.73907E+00  5.11328E+00  4.82153E+00  9.30012E+00  2.06156E+00  2.30056E+00  2.92655E+00  4.68662E+00
   3.72351E+00  3.76978E+00  1.88167E+00  9.97657E-01  9.31190E+00  8.11779E+00  3.00512E+00  8.61156E+00  1.30414E+01  1.76460E+01
   1.19694E+01  1.18320E+01  3.63096E+00 -1.21698E+00  9.54076E+00  9.73318E+00  7.23814E+00  2.72094E+00  9.05793E+00  5.45953E+00
   7.59253E+00  2.93320E+00  5.10967E+00  6.59960E+00  1.22720E+01  7.54259E+00  6.46542E+00  1.24786E+01  5.63637E+00  1.66541E+01
   1.23134E+01  5.79387E+00  1.09731E+01  9.85180E+00  6.52436E+00  4.49413E+00  9.00437E+00  1.03090E+01  4.43355E+00  3.89332E+00
   8.62850E+00  5.70648E+00  8.14717E+00  4.03358E+00 -1.63772E+00  4.56780E+00  8.91576E-01  8.71432E+00  5.06199E-01  6.11230E+00
  -1.84952E+00 -3.20116E+00  2.33204E+00  1.09765E+01  1.04465E+01  1.82780E+00  1.72748E+00  3.80646E+00  4.67834E+00  9.34027E+00
   2.44228E+00  8.03627E-01  3.28351E+00  7.98540E+00  4.08091E-01 -1.90387E-01 -6.52965E-01  3.55735E+00  3.25310E+00  8.33851E+00
   3.10088E+00 -4.13617E+00  8.11211E+00  6.02121E+00  3.53033E+00  5.41933E+00  9.22256E+00  3.92677E+00 -5.18052E+00  2.84549E+00
   5.14195E+00  8.42748E+00  3.59202E+00  8.52186E+00  1.23984E+01  1.63116E+01  7.01167E+00  5.07093E+00  3.25088E+00  8.12456E+00
  -9.82568E-01  9.19691E+00  8.08970E+00  1.47774E+01  6.99693E+00  8.53865E+00  8.51892E+00  7.71284E+00  9.86468E+00  7.93099E+00
   8.57558E+00 -6.61561E+00  5.84283E+00 -2.97042E+00  1.06943E+01  1.47286E+01  9.57160E+00  6.97864E+00  2.70034E+00  6.84403E+00
   1.22431E+01  9.98602E+00  1.44880E+00  5.16837E+00  6.65993E+00  1.58735E+01 -2.94032E+00  7.20868E+00  9.73347E+00  1.45736E+01
   1.02046E+01  1.06689E+01  1.63821E+01  1.31376E+01  7.69835E+00  1.07941E+01  1.55995E+01  1.30513E+01  2.15921E+01  1.59569E+01
   1.12025E+01  1.57466E+01  1.33266E+01  1.12414E+01  1.47481E+01  1.13077E+01  1.49968E+01  2.47762E+01  2.43557E+01  2.22365E+01
   1.55980E+01  1.58228E+01  1.40010E+00  6.16354E+00 -5.04952E+00  2.67701E+00  6.36925E+00  5.02784E+00  4.61653E+00  4.02070E+00
   7.34206E+00  8.35757E+00  8.83547E+00  8.27739E+00  8.69439E+00  3.64497E+00 -7.83982E+00  8.05764E-02  3.01947E+00 -1.54017E+00
   4.42899E+00 -3.11000E+00 -1.02631E+01 -1.02006E+01 -1.46065E+01 -1.54187E+01 -2.36053E+01 -2.07297E+01 -1.82585E+01 -1.73122E+01
  -2.31232E+01 -2.06581E+01 -3.49402E+01 -2.10636E+01 -2.31893E+01 -3.29880E+01 -3.66680E+01 -2.60834E+01 -3.20172E+01 -2.77239E+01
  -3.56050E+01 -3.41524E+01 -3.02818E+01 -3.11436E+01 -3.81315E+01 -3.85613E+01 -4.27737E+01 -4.68130E+01 -3.67297E+01 -2.82574E+01
  -3.72698E+01 -3.80413E+01 -3.57940E+01 -2.43547E+01 -3.67007E+01 -3.11249E+01 -3.37910E+01 -3.16056E+01 -3.07904E+01 -2.58943E+01
  -2.32789E+01 -2.65766E+01 -3.07890E+01 -1.60714E+01 -2.64816E+01 -1.85642E+01 -1.92623E+01 -2.60254E+01 -1.96265E+01 -2.27775E+01
  -4.64426E+00 -1.13128E+01 -1.72660E+01 -8.51214E+00 -1.39101E+01 -4.55891E+00 -3.23415E+00 -1.27074E+01 -1.37762E+01  5.33426E+00
  -6.12305E+00 -5.99173E+00 -5.07128E+00 -8.24033E+00 -3.75797E+00 -4.34525E+00 -8.65750E+00 -8.68239E+00 -5.10598E+00  2.88756E+00
   3.43784E+00 -8.07821E+00 -2.57171E+00 -1.21757E+01 -9.04811E+00 -3.84030E+00 -9.50692E+00 -1.22789E+01 -1.87053E-01 -4.15807E+00
  -3.46424E-01  1.70248E+00 -9.43787E+00 -3.64753E+00 -1.18204E+01 -3.00968E+00 -8.33002E+00 -6.37044E+00 -1.16391E+01 -1.07152E+01
  -1.27040E+01 -1.18576E+01 -1.09083E+01 -1.03232E+01 -2.99485E+00 -3.31966E+00 -4.37238E+00 -9.48978E+00 -1.42754E+01 -5.00457E+00
  -8.26388E+00 -1.96179E+00 -7.49065E-01  1.55869E+00 -1.27328E+01 -6.10707E+00  1.23028E-01  7.45258E-01 -4.27055E+00  7.36735E+00
  -2.04848E+00  4.75427E+00 -7.84941E+00 -1.04097E+01 -8.56640E+00 -6.53953E-01  1.55992E+00  4.52816E+00 -3.56790E+00  2.49128E+00
   1.31349E+00  5.05674E+00 -7.00698E+00 -2.95950E+00  2.52737E+00  1.37046E+00 -1.10522E+01 -5.87415E-01  3.15010E+00 -1.56287E+00
  -1.58498E-03 -1.92077E+00  1.59726E+00 -4.80070E+00 -3.02580E+00  2.68332E+00  2.97440E+00 -1.83428E+00  5.25302E-01 -4.04063E+00
   1.14500E+00 -6.13562E+00  3.76435E+00  5.09569E+00 -5.64194E+00  7.98358E+00  4.59108E+00  4.14507E+00 -1.49468E-02  3.60869E+00
   9.02822E+00  1.28649E+01  1.60628E+01  6.64165E+00  1.26693E+01  8.44505E+00  1.31475E+01  1.16637E+01  2.06678E+01  2.19011E+00
   1.02412E+01  8.32126E+00  1.31873E+01  7.42078E+00  1.84039E+01  1.63921E+01  1.40038E+01  1.45120E+01  1.15293E+01  1.88573E+01
   1.27940E+01  1.65414E+01  1.72554E+01  2.22468E+01  1.66841E+01  1.16705E+01  1.46469E+01  1.45695E+01  2.50040E+01  1.37789E+01
   2.01181E+01  1.81295E+01  1.40384E+01  1.15535E+01  1.37337E+01  1.47146E+01  1.35469E+01  1.40990E+01  9.04610E+00  1.27831E+01
   1.88400E+01  2.23433E+00  7.71613E+00  1.28058E+01  9.51239E+00  7.71807E+00  1.60952E+01  6.95945E+00  6.70907E+00  3.47352E+00
   2.25051E+00  1.16002E+01  8.11192E+00  9.31577E+00  4.65050E+00 -3.97369E+00  1.10791E+00  1.51267E+01  1.02691E+01  2.04611E+00
   1.02703E+01  4.86906E+00  1.10131E+01  3.35930E+00  3.89361E+00  7.52718E+00  1.21911E+01  3.54858E+00
 NY points of the fit to the data follow
   2.54281E+00  2.51915E+00  2.69076E+00  3.02924E+00  3.33806E+00  3.25105E+00  2.81769E+00  2.13178E+00  1.12540E+00 -2.27850E-02
  -6.78746E-01 -2.49345E-01  1.17735E+00  2.73363E+00  3.54400E+00  3.53825E+00  3.26917E+00  3.04746E+00  2.90584E+00  2.80495E+00
   2.75150E+00  2.76741E+00  2.80620E+00  2.76890E+00  2.57143E+00  2.20113E+00  1.93592E+00  1.88402E+00  2.12661E+00  2.76164E+00
   3.68658E+00  4.46526E+00  4.59104E+00  3.93570E+00  2.95841E+00  2.24988E+00  2.01592E+00  2.10955E+00  2.36279E+00  2.55053E+00
   2.47453E+00  2.06985E+00  1.44933E+00  9.46912E-01  9.47344E-01  1.47498E+00  2.35804E+00  3.55003E+00  4.89650E+00  5.80917E+00
   5.58824E+00  4.13097E+00  2.24268E+00  9.91208E-01  7.11120E-01  9.68591E-01  1.33814E+00  1.67156E+00  2.03977E+00  2.49545E+00
   3.02419E+00  3.52866E+00  3.79528E+00  3.62718E+00  3.06742E+00  2.39342E+00  1.91797E+00  1.74382E+00  1.89122E+00  2.25067E+00
   2.64073E+00  2.95164E+00  3.17892E+00  3.34435E+00  3.41770E+00  3.34053E+00  3.14286E+00  2.94684E+00  2.87061E+00  2.89545E+00
   2.93077E+00  2.92639E+00  3.00961E+00  3.20460E+00  3.44367E+00  3.69959E+00  3.93996E+00  4.00698E+00  3.71750E+00  3.09465E+00
   2.48793E+00  2.28874E+00  2.58020E+00  3.13205E+00  3.66190E+00  4.03573E+00  4.22340E+00  4.12526E+00  3.48187E+00  2.71448E+00
   2.48077E+00  2.81592E+00  3.91823E+00  6.00529E+00  8.49760E+00  1.01146E+01  9.84926E+00  7.98034E+00  5.94936E+00  4.98401E+00
   5.00046E+00  5.29567E+00  5.59116E+00  5.86676E+00  6.13062E+00  6.38695E+00  6.60730E+00  6.78500E+00  6.93031E+00  6.99548E+00
   6.89943E+00  6.44818E+00  5.63685E+00  5.27999E+00  5.54705E+00  6.35123E+00  8.03936E+00  1.06331E+01  1.30837E+01  1.39309E+01
   1.26396E+01  1.02262E+01  8.35582E+00  7.71392E+00  7.59442E+00  7.39290E+00  7.01539E+00  6.53703E+00  6.12903E+00  5.94312E+00
   6.01142E+00  6.24168E+00  6.49436E+00  6.62457E+00  6.57288E+00  6.40174E+00  6.20261E+00  6.03059E+00  5.90404E+00  5.81827E+00
   5.73736E+00  5.62835E+00  5.48514E+00  5.28635E+00  5.02639E+00  4.77000E+00  4.57449E+00  4.49952E+00  4.55226E+00  4.62842E+00
   4.58125E+00  4.36004E+00  4.02868E+00  3.70619E+00  3.47415E+00  3.31743E+00  3.12788E+00  2.89113E+00  2.64251E+00  2.37995E+00
   2.12694E+00  1.93287E+00  1.84471E+00  1.87046E+00  1.89092E+00  1.75285E+00  1.44503E+00  1.12701E+00  9.20665E-01  7.92039E-01
   6.87246E-01  5.29191E-01  2.81085E-01  1.73060E-02 -1.53624E-01 -1.88415E-01 -1.50527E-01 -1.65242E-01 -2.49898E-01 -3.17408E-01
  -2.82935E-01 -1.05142E-01  1.71371E-01  3.92952E-01  3.30391E-01 -8.05900E-02 -6.80456E-01 -1.27626E+00 -1.72507E+00 -1.92712E+00
  -1.82603E+00 -1.42202E+00 -8.82236E-01 -4.34685E-01 -1.60574E-01  2.27411E-03  5.60596E-02 -1.82019E-02 -2.20563E-01 -5.85677E-01
  -1.06072E+00 -1.40962E+00 -1.38019E+00 -9.21800E-01 -2.63750E-01  2.81482E-01  5.77974E-01  7.08543E-01  7.78009E-01  8.35178E-01
   9.25735E-01  1.09078E+00  1.34043E+00  1.70028E+00  2.17703E+00  2.75009E+00  3.34160E+00  3.78522E+00  3.98181E+00  3.99642E+00
   3.90925E+00  3.77943E+00  3.65153E+00  3.66563E+00  4.03151E+00  4.78064E+00  5.69366E+00  6.59246E+00  7.45093E+00  8.28369E+00
   9.10785E+00  9.86586E+00  1.04656E+01  1.09220E+01  1.13483E+01  1.18607E+01  1.25355E+01  1.33288E+01  1.40643E+01  1.45682E+01
   1.44992E+01  1.32804E+01  1.18599E+01  1.09236E+01  1.04383E+01  1.09952E+01  1.34462E+01  1.73168E+01  2.04891E+01  2.06897E+01
   1.77281E+01  1.36732E+01  1.06670E+01  8.83882E+00  7.49860E+00  6.30629E+00  5.14103E+00  3.94859E+00  2.72387E+00  1.45592E+00
   1.42448E-01 -1.17176E+00 -2.40376E+00 -3.49582E+00 -4.45381E+00 -5.33417E+00 -6.19301E+00 -7.06205E+00 -7.97225E+00 -8.92470E+00
  -9.87448E+00 -1.07852E+01 -1.16390E+01 -1.24337E+01 -1.31756E+01 -1.38626E+01 -1.44977E+01 -1.51092E+01 -1.57138E+01 -1.63091E+01
  -1.69042E+01 -1.74997E+01 -1.80690E+01 -1.85855E+01 -1.90442E+01 -1.94751E+01 -1.99182E+01 -2.03843E+01 -2.08626E+01 -2.13484E+01
  -2.18452E+01 -2.23442E+01 -2.28267E+01 -2.32814E+01 -2.37159E+01 -2.41444E+01 -2.45713E+01 -2.49919E+01 -2.54017E+01 -2.57940E+01
  -2.61619E+01 -2.64970E+01 -2.67906E+01 -2.70316E+01 -2.72094E+01 -2.73114E+01 -2.73252E+01 -2.72371E+01 -2.70348E+01 -2.67064E+01
  -2.62441E+01 -2.56462E+01 -2.49268E+01 -2.40689E+01 -2.30292E+01 -2.18188E+01 -2.04508E+01 -1.89224E+01 -1.72767E+01 -1.56174E+01
  -1.40791E+01 -1.27457E+01 -1.15428E+01 -1.03843E+01 -9.29014E+00 -8.30246E+00 -7.38828E+00 -6.50485E+00 -5.69076E+00 -5.06151E+00
  -4.71474E+00 -4.68177E+00 -5.06703E+00 -5.68035E+00 -5.99398E+00 -5.96551E+00 -5.52678E+00 -4.38087E+00 -2.59673E+00 -8.97011E-01
  -5.54613E-01 -2.04921E+00 -4.33037E+00 -6.30696E+00 -7.74910E+00 -8.65354E+00 -8.53474E+00 -7.09746E+00 -4.94191E+00 -3.19950E+00
  -2.50066E+00 -2.48973E+00 -2.57423E+00 -2.60552E+00 -2.62925E+00 -2.67946E+00 -2.77396E+00 -2.92068E+00 -3.12285E+00 -3.37883E+00
  -3.68510E+00 -4.03503E+00 -4.42077E+00 -4.83162E+00 -5.25599E+00 -5.68025E+00 -6.09100E+00 -6.47366E+00 -6.81442E+00 -7.09876E+00
  -7.31367E+00 -7.44662E+00 -7.48790E+00 -7.42927E+00 -7.26594E+00 -6.99519E+00 -6.61851E+00 -6.14025E+00 -5.56940E+00 -4.91769E+00
  -4.20083E+00 -3.43643E+00 -2.64512E+00 -1.84834E+00 -1.06899E+00 -3.28807E-01  3.51072E-01  9.52524E-01  1.45950E+00  1.86022E+00
   2.14617E+00  2.31408E+00  2.36449E+00  2.30306E+00  2.13870E+00  1.88468E+00  1.55668E+00  1.17380E+00  7.56370E-01  3.26644E-01
  -9.33938E-02 -4.81148E-01 -8.15416E-01 -1.07549E+00 -1.24329E+00 -1.30253E+00 -1.24071E+00 -1.04801E+00 -7.19080E-01 -2.51923E-01
   3.50391E-01  1.08099E+00  1.92799E+00  2.87623E+00  3.90640E+00  4.99700E+00  6.12364E+00  7.26136E+00  8.38428E+00  9.46807E+00
   1.04895E+01  1.14287E+01  1.22681E+01  1.29950E+01  1.36000E+01  1.40785E+01  1.44298E+01  1.46573E+01  1.47670E+01  1.47685E+01
   1.46727E+01  1.44927E+01  1.42416E+01  1.39334E+01  1.35810E+01  1.31971E+01  1.27928E+01  1.23787E+01  1.19632E+01  1.15538E+01
   1.11562E+01  1.07753E+01  1.04143E+01  1.00760E+01  9.76186E+00  9.47284E+00  9.20902E+00  8.97056E+00  8.75682E+00  8.56739E+00
   8.40113E+00  8.25728E+00  8.13458E+00  8.03230E+00  7.94924E+00  7.88465E+00  7.83729E+00  7.80648E+00  7.79115E+00  7.79080E+00
   7.80449E+00  7.83172E+00  7.87159E+00  7.92370E+00  7.98733E+00  8.06224E+00  8.14773E+00  8.24353E+00  8.34898E+00  8.46393E+00
   8.58786E+00  8.72068E+00  8.86184E+00  9.01122E+00  9.16833E+00  9.33314E+00  9.50527E+00  9.68469E+00  9.87097E+00  1.00641E+01
   1.02636E+01  1.04696E+01  1.06818E+01  1.09002E+01  1.11243E+01  1.13544E+01  1.15899E+01  1.18311E+01
 NY background values follow
    -4.415E+00   -4.460E+00   -4.504E+00   -4.546E+00   -4.588E+00   -4.629E+00   -4.668E+00   -4.707E+00   -4.745E+00   -4.782E+00
    -4.818E+00   -4.853E+00   -4.886E+00   -4.919E+00   -4.951E+00   -4.982E+00   -5.012E+00   -5.042E+00   -5.070E+00   -5.097E+00
    -5.123E+00   -5.148E+00   -5.173E+00   -5.196E+00   -5.218E+00   -5.240E+00   -5.260E+00   -5.280E+00   -5.299E+00   -5.316E+00
    -5.333E+00   -5.349E+00   -5.364E+00   -5.378E+00   -5.391E+00   -5.403E+00   -5.414E+00   -5.424E+00   -5.434E+00   -5.442E+00
    -5.450E+00   -5.456E+00   -5.462E+00   -5.467E+00   -5.471E+00   -5.474E+00   -5.476E+00   -5.478E+00   -5.478E+00   -5.478E+00
    -5.477E+00   -5.474E+00   -5.471E+00   -5.468E+00   -5.463E+00   -5.458E+00   -5.451E+00   -5.444E+00   -5.437E+00   -5.428E+00
    -5.419E+00   -5.409E+00   -5.398E+00   -5.386E+00   -5.374E+00   -5.361E+00   -5.348E+00   -5.333E+00   -5.318E+00   -5.303E+00
    -5.286E+00   -5.269E+00   -5.252E+00   -5.233E+00   -5.215E+00   -5.195E+00   -5.175E+00   -5.155E+00   -5.133E+00   -5.112E+00
    -5.090E+00   -5.067E+00   -5.044E+00   -5.020E+00   -4.996E+00   -4.971E+00   -4.946E+00   -4.921E+00   -4.895E+00   -4.868E+00
    -4.842E+00   -4.815E+00   -4.787E+00   -4.759E+00   -4.731E+00   -4.703E+00   -4.674E+00   -4.645E+00   -4.616E+00   -4.587E+00
    -4.558E+00   -4.528E+00   -4.498E+00   -4.469E+00   -4.439E+00   -4.409E+00   -4.379E+00   -4.349E+00   -4.319E+00   -4.289E+00
    -4.260E+00   -4.230E+00   -4.201E+00   -4.171E+00   -4.142E+00   -4.113E+00   -4.085E+00   -4.056E+00   -4.028E+00   -4.001E+00
    -3.973E+00   -3.946E+00   -3.920E+00   -3.894E+00   -3.868E+00   -3.843E+00   -3.818E+00   -3.794E+00   -3.771E+00   -3.748E+00
    -3.726E+00   -3.704E+00   -3.684E+00   -3.663E+00   -3.644E+00   -3.626E+00   -3.608E+00   -3.591E+00   -3.575E+00   -3.560E+00
    -3.546E+00   -3.532E+00   -3.520E+00   -3.509E+00   -3.499E+00   -3.490E+00   -3.482E+00   -3.475E+00   -3.469E+00   -3.464E+00
    -3.461E+00   -3.459E+00   -3.458E+00   -3.459E+00   -3.461E+00   -3.464E+00   -3.468E+00   -3.474E+00   -3.482E+00   -3.491E+00
    -3.501E+00   -3.513E+00   -3.526E+00   -3.541E+00   -3.558E+00   -3.576E+00   -3.596E+00   -3.618E+00   -3.641E+00   -3.666E+00
    -3.693E+00   -3.722E+00   -3.752E+00   -3.784E+00   -3.818E+00   -3.854E+00   -3.892E+00   -3.932E+00   -3.974E+00   -4.018E+00
    -4.063E+00   -4.111E+00   -4.161E+00   -4.213E+00   -4.267E+00   -4.323E+00   -4.381E+00   -4.441E+00   -4.503E+00   -4.567E+00
    -4.633E+00   -4.702E+00   -4.772E+00   -4.844E+00   -4.919E+00   -4.995E+00   -5.074E+00   -5.154E+00   -5.237E+00   -5.322E+00
    -5.409E+00   -5.497E+00   -5.588E+00   -5.681E+00   -5.776E+00   -5.873E+00   -5.972E+00   -6.072E+00   -6.175E+00   -6.280E+00
    -6.387E+00   -6.496E+00   -6.607E+00   -6.719E+00   -6.834E+00   -6.951E+00   -7.069E+00   -7.190E+00   -7.312E+00   -7.437E+00
    -7.563E+00   -7.691E+00   -7.821E+00   -7.953E+00   -8.086E+00   -8.222E+00   -8.359E+00   -8.498E+00   -8.639E+00   -8.782E+00
    -8.926E+00   -9.072E+00   -9.219E+00   -9.368E+00   -9.519E+00   -9.671E+00   -9.824E+00   -9.979E+00   -1.014E+01   -1.029E+01
    -1.045E+01   -1.061E+01   -1.077E+01   -1.094E+01   -1.110E+01   -1.126E+01   -1.143E+01   -1.159E+01   -1.176E+01   -1.193E+01
    -1.210E+01   -1.227E+01   -1.244E+01   -1.261E+01   -1.278E+01   -1.296E+01   -1.313E+01   -1.330E+01   -1.348E+01   -1.365E+01
    -1.383E+01   -1.400E+01   -1.418E+01   -1.435E+01   -1.453E+01   -1.471E+01   -1.488E+01   -1.506E+01   -1.523E+01   -1.541E+01
    -1.559E+01   -1.576E+01   -1.594E+01   -1.611E+01   -1.629E+01   -1.646E+01   -1.664E+01   -1.681E+01   -1.699E+01   -1.716E+01
    -1.733E+01   -1.751E+01   -1.768E+01   -1.785E+01   -1.802E+01   -1.819E+01   -1.836E+01   -1.852E+01   -1.869E+01   -1.886E+01
    -1.902E+01   -1.918E+01   -1.935E+01   -1.951E+01   -1.967E+01   -1.983E+01   -1.999E+01   -2.014E+01   -2.030E+01   -2.045E+01
    -2.061E+01   -2.076E+01   -2.091E+01   -2.105E+01   -2.120E+01   -2.135E+01   -2.149E+01   -2.163E+01   -2.177E+01   -2.191E+01
    -2.204E+01   -2.218E+01   -2.231E+01   -2.244E+01   -2.257E+01   -2.270E+01   -2.282E+01   -2.294E+01   -2.306E+01   -2.318E+01
    -2.330E+01   -2.341E+01   -2.352E+01   -2.363E+01   -2.374E+01   -2.384E+01   -2.394E+01   -2.404E+01   -2.414E+01   -2.424E+01
    -2.433E+01   -2.442E+01   -2.451E+01   -2.460E+01   -2.468E+01   -2.476E+01   -2.484E+01   -2.492E+01   -2.499E+01   -2.506E+01
    -2.513E+01   -2.520E+01   -2.526E+01   -2.532E+01   -2.538E+01   -2.544E+01   -2.549E+01   -2.554E+01   -2.559E+01   -2.564E+01
    -2.568E+01   -2.572E+01   -2.576E+01   -2.579E+01   -2.583E+01   -2.586E+01   -2.588E+01   -2.591E+01   -2.593E+01   -2.595E+01
    -2.596E+01   -2.598E+01   -2.599E+01   -2.600E+01   -2.600E+01   -2.600E+01   -2.600E+01   -2.600E+01   -2.599E+01   -2.598E+01
    -2.597E+01   -2.596E+01   -2.594E+01   -2.592E+01   -2.590E+01   -2.587E+01   -2.584E+01   -2.581E+01   -2.577E+01   -2.573E+01
    -2.569E+01   -2.565E+01   -2.560E+01   -2.555E+01   -2.550E+01   -2.544E+01   -2.538E+01   -2.532E+01   -2.526E+01   -2.519E+01
    -2.512E+01   -2.504E+01   -2.497E+01   -2.489E+01   -2.480E+01   -2.472E+01   -2.463E+01   -2.454E+01   -2.444E+01   -2.434E+01
    -2.424E+01   -2.414E+01   -2.403E+01   -2.392E+01   -2.381E+01   -2.369E+01   -2.357E+01   -2.345E+01   -2.332E+01   -2.319E+01
    -2.306E+01   -2.293E+01   -2.279E+01   -2.265E+01   -2.250E+01   -2.236E+01   -2.221E+01   -2.205E+01   -2.190E+01   -2.174E+01
    -2.157E+01   -2.141E+01   -2.124E+01   -2.107E+01   -2.089E+01   -2.072E+01   -2.053E+01   -2.035E+01   -2.016E+01   -1.997E+01
    -1.978E+01   -1.958E+01   -1.938E+01   -1.918E+01   -1.898E+01   -1.877E+01   -1.856E+01   -1.834E+01   -1.813E+01   -1.791E+01
    -1.768E+01   -1.745E+01   -1.723E+01   -1.699E+01   -1.676E+01   -1.652E+01   -1.628E+01   -1.603E+01   -1.579E+01   -1.553E+01
    -1.528E+01   -1.502E+01   -1.477E+01   -1.450E+01   -1.424E+01   -1.397E+01   -1.370E+01   -1.342E+01   -1.315E+01   -1.287E+01
    -1.258E+01   -1.230E+01   -1.201E+01   -1.172E+01   -1.142E+01   -1.113E+01   -1.083E+01   -1.052E+01   -1.022E+01   -9.907E+00
    -9.596E+00   -9.281E+00   -8.964E+00   -8.643E+00   -8.320E+00   -7.994E+00   -7.666E+00   -7.334E+00   -7.000E+00   -6.663E+00
    -6.323E+00   -5.981E+00   -5.635E+00   -5.287E+00   -4.936E+00   -4.583E+00   -4.227E+00   -3.868E+00   -3.506E+00   -3.142E+00
    -2.775E+00   -2.406E+00   -2.033E+00   -1.659E+00   -1.281E+00   -9.010E-01   -5.183E-01   -1.331E-01
 Ala      Conc. = 4.89E+00
