 LCModel (Version 6.3-1L) Copyright: S.W. Provencher.          Ref.: Magn. Reson. Med. 30:672-679 (1993).                
 Slice#2 Row#1 Col#9  PD_24_press_2_raw_act
 36 lines in following concentration table = NCONC+1
    Conc.  %SD /Cr+PCr  Metabolite                                         
    0.000 999%   0.000 Ala                                                 
   13.221  59%   0.420 Asp                                                 
    0.000 999%   0.000 Cr                                                  
   31.459 238%   1.000 PCr                                                 
    7.920  59%   0.252 GABA                                                
    7.919  59%   0.252 Glc                                                 
  642.995  55%  20.439 Gln                                                 
  479.537  74%  15.243 Glu                                                 
    0.000 999%   0.000 GPC                                                 
    0.000 999%   0.000 PCh                                                 
   55.597 196%   1.767 GSH                                                 
    0.000 999%   0.000 Ins                                                 
    0.000 999%   0.000 Lac                                                 
   38.180 275%   1.214 NAA                                                 
  194.289  51%   6.176 NAAG                                                
    2.642  59% 8.4E-02 Scyllo                                              
   13.133  60%   0.417 Tau                                                 
    3.102 249% 9.9E-02 -CrCH2                                              
    0.000 999%   0.000 GPC+PCh                                             
  232.469  50%   7.390 NAA+NAAG                                            
   31.459 238%   1.000 Cr+PCr                                              
 1.12E+03  47%  35.682 Glu+Gln                                             
  332.572 149%  10.572 Lip13a                                              
    0.000 999%   0.000 Lip13b                                              
   22.991 792%   0.731 Lip09                                               
 1.09E+03  24%  34.696 MM09                                                
   35.183 334%   1.118 Lip20                                               
 1.91E+03  22%  60.801 MM20                                                
  338.397  34%  10.757 MM12                                                
 1.19E+03  28%  37.831 MM14                                                
    0.000 999%   0.000 MM17                                                
  332.572 149%  10.572 Lip13a+Lip13b                                       
 1.86E+03  24%  59.159 MM14+Lip13a+Lip13b+MM12                             
 1.11E+03  20%  35.427 MM09+Lip09                                          
 1.95E+03  20%  61.920 MM20+Lip20                                          
   6 lines in following misc. output table
  FWHM = 0.046 ppm    S/N =   1                                            
  Data shift = 0.008 ppm                                                   
  Ph:-144 deg     -50.5 deg/ppm                                            
  alphaB,S = 8.5E+01,   2.6E+01                                            
   14 spline knots.   Ns = 5(1)                                            
   2 inflections.     1 extrema                                            
  498 points on ppm-axis = NY
      4.000000     3.992357     3.984714     3.977070     3.969427     3.961784     3.954141     3.946497     3.938854     3.931211
      3.923568     3.915925     3.908281     3.900638     3.892995     3.885352     3.877708     3.870065     3.862422     3.854779
      3.847136     3.839492     3.831849     3.824206     3.816563     3.808919     3.801276     3.793633     3.785990     3.778347
      3.770703     3.763060     3.755417     3.747774     3.740130     3.732487     3.724844     3.717201     3.709558     3.701914
      3.694271     3.686628     3.678985     3.671341     3.663698     3.656055     3.648412     3.640769     3.633125     3.625482
      3.617839     3.610196     3.602552     3.594909     3.587266     3.579623     3.571980     3.564336     3.556693     3.549050
      3.541407     3.533763     3.526120     3.518477     3.510834     3.503191     3.495547     3.487904     3.480261     3.472618
      3.464974     3.457331     3.449688     3.442045     3.434402     3.426758     3.419115     3.411472     3.403829     3.396185
      3.388542     3.380899     3.373256     3.365613     3.357969     3.350326     3.342683     3.335040     3.327396     3.319753
      3.312110     3.304467     3.296824     3.289180     3.281537     3.273894     3.266251     3.258607     3.250964     3.243321
      3.235678     3.228034     3.220391     3.212748     3.205105     3.197462     3.189818     3.182175     3.174532     3.166889
      3.159245     3.151602     3.143959     3.136316     3.128673     3.121029     3.113386     3.105743     3.098100     3.090456
      3.082813     3.075170     3.067527     3.059884     3.052240     3.044597     3.036954     3.029311     3.021667     3.014024
      3.006381     2.998738     2.991095     2.983451     2.975808     2.968165     2.960522     2.952878     2.945235     2.937592
      2.929949     2.922306     2.914662     2.907019     2.899376     2.891733     2.884089     2.876446     2.868803     2.861160
      2.853517     2.845873     2.838230     2.830587     2.822944     2.815300     2.807657     2.800014     2.792371     2.784728
      2.777084     2.769441     2.761798     2.754155     2.746511     2.738868     2.731225     2.723582     2.715939     2.708295
      2.700652     2.693009     2.685366     2.677722     2.670079     2.662436     2.654793     2.647150     2.639506     2.631863
      2.624220     2.616577     2.608933     2.601290     2.593647     2.586004     2.578361     2.570717     2.563074     2.555431
      2.547788     2.540144     2.532501     2.524858     2.517215     2.509572     2.501928     2.494285     2.486642     2.478999
      2.471355     2.463712     2.456069     2.448426     2.440783     2.433139     2.425496     2.417853     2.410210     2.402566
      2.394923     2.387280     2.379637     2.371994     2.364350     2.356707     2.349064     2.341421     2.333777     2.326134
      2.318491     2.310848     2.303205     2.295561     2.287918     2.280275     2.272632     2.264988     2.257345     2.249702
      2.242059     2.234416     2.226772     2.219129     2.211486     2.203843     2.196199     2.188556     2.180913     2.173270
      2.165627     2.157983     2.150340     2.142697     2.135054     2.127410     2.119767     2.112124     2.104481     2.096838
      2.089194     2.081551     2.073908     2.066265     2.058621     2.050978     2.043335     2.035692     2.028049     2.020405
      2.012762     2.005119     1.997476     1.989833     1.982190     1.974546     1.966903     1.959260     1.951617     1.943974
      1.936331     1.928688     1.921045     1.913402     1.905759     1.898115     1.890472     1.882829     1.875186     1.867543
      1.859900     1.852257     1.844614     1.836971     1.829327     1.821684     1.814041     1.806398     1.798755     1.791112
      1.783469     1.775826     1.768183     1.760540     1.752896     1.745253     1.737610     1.729967     1.722324     1.714681
      1.707038     1.699395     1.691752     1.684108     1.676465     1.668822     1.661179     1.653536     1.645893     1.638250
      1.630607     1.622964     1.615321     1.607677     1.600034     1.592391     1.584748     1.577105     1.569462     1.561819
      1.554176     1.546533     1.538890     1.531246     1.523603     1.515960     1.508317     1.500674     1.493031     1.485388
      1.477745     1.470102     1.462458     1.454815     1.447172     1.439529     1.431886     1.424243     1.416600     1.408957
      1.401314     1.393671     1.386027     1.378384     1.370741     1.363098     1.355455     1.347812     1.340169     1.332526
      1.324883     1.317240     1.309596     1.301953     1.294310     1.286667     1.279024     1.271381     1.263738     1.256095
      1.248452     1.240808     1.233165     1.225522     1.217879     1.210236     1.202593     1.194950     1.187307     1.179664
      1.172021     1.164377     1.156734     1.149091     1.141448     1.133805     1.126162     1.118519     1.110876     1.103233
      1.095590     1.087946     1.080303     1.072660     1.065017     1.057374     1.049731     1.042088     1.034445     1.026802
      1.019158     1.011515     1.003872     0.996229     0.988586     0.980943     0.973300     0.965657     0.958014     0.950371
      0.942727     0.935084     0.927441     0.919798     0.912155     0.904512     0.896869     0.889226     0.881583     0.873940
      0.866296     0.858653     0.851010     0.843367     0.835724     0.828081     0.820438     0.812795     0.805152     0.797508
      0.789865     0.782222     0.774579     0.766936     0.759293     0.751650     0.744007     0.736364     0.728721     0.721077
      0.713434     0.705791     0.698148     0.690505     0.682862     0.675219     0.667576     0.659933     0.652290     0.644646
      0.637003     0.629360     0.621717     0.614074     0.606431     0.598788     0.591145     0.583502     0.575858     0.568215
      0.560572     0.552929     0.545286     0.537643     0.530000     0.522357     0.514714     0.507071     0.499427     0.491784
      0.484141     0.476498     0.468855     0.461212     0.453569     0.445925     0.438282     0.430639     0.422996     0.415353
      0.407710     0.400067     0.392424     0.384780     0.377137     0.369494     0.361851     0.354208     0.346565     0.338922
      0.331278     0.323635     0.315992     0.308349     0.300706     0.293063     0.285420     0.277777     0.270133     0.262490
      0.254847     0.247204     0.239561     0.231918     0.224275     0.216631     0.208988     0.201345
 NY phased data points follow
  -3.29074E+01 -3.88493E+00 -5.48041E+00 -8.14758E-01  9.02344E+00 -5.37120E+00 -1.80461E+01 -3.54263E+01 -3.05307E+01 -5.03746E+00
  -3.75227E+00  1.10545E+01 -1.69450E+00 -1.98568E+01 -6.69134E+00 -1.45883E+01 -1.87937E+01 -1.27681E+01 -1.36865E+01 -1.59631E+01
  -1.78666E+01 -1.00962E+01 -3.82954E+00 -3.87168E-01  1.76865E+00  2.24683E+00  8.69414E-01 -1.96015E+01 -1.49140E+01 -2.39878E+01
  -1.08556E+01 -1.54051E+01 -7.64267E+00 -4.50367E+00 -8.33595E+00  5.71607E+00 -5.34914E+00 -9.38137E+00 -2.29524E+01 -1.64875E+01
  -1.26305E+01 -5.50957E+00 -4.22049E+00  5.30804E-01 -1.21819E+01 -9.03300E+00 -1.35800E+01 -2.01985E+01 -1.14523E+01 -1.52862E+01
  -9.86641E+00 -1.76370E+01 -1.31865E+01 -1.41818E+01 -1.05037E+01 -1.82205E+01 -1.26664E+01 -6.77480E+00 -1.02396E+01 -1.51253E+01
  -1.59398E+01 -1.74904E+00 -7.12156E+00 -1.14932E+01 -1.02086E+01 -3.59232E+00 -1.05685E+01 -1.34730E+01 -1.22151E+01 -1.26102E+00
  -1.68966E+01 -9.21891E+00 -1.48135E+01 -1.37652E+01 -1.51275E+01 -8.11656E+00 -1.62884E+01 -7.24563E+00 -1.61239E+01  7.75970E-01
  -8.91518E+00 -3.31975E+00 -4.08410E+00 -1.01474E+01 -7.04237E+00 -7.89537E+00 -1.72712E+01 -6.21432E+00 -4.74249E+00 -1.69751E+01
  -4.07515E+00 -9.64851E+00 -1.14088E+01 -8.00098E+00 -4.48273E+00 -8.41950E+00 -7.52654E+00 -9.82590E+00 -1.39090E+00 -1.06477E+01
  -9.50793E+00 -1.26955E+01 -1.53208E+01 -1.26183E+01 -2.58434E+01 -1.80476E+01 -1.06018E+01 -8.45490E+00 -4.48307E+00 -5.53600E+00
  -2.48439E+01 -1.57083E+01 -1.92823E+01 -7.70868E+00 -1.83665E+01 -6.28213E+00 -1.00925E+01 -1.59769E+01 -2.29155E+01 -1.50032E+01
  -7.84409E+00 -9.92101E+00 -1.68969E+01 -1.14311E+00  2.04979E+00 -5.06667E+00 -8.31830E+00 -2.97220E-01 -9.32130E+00 -6.30107E+00
  -1.62424E+01 -1.21727E+01 -1.16523E+01 -1.20312E+01 -1.54626E+01 -7.33880E+00 -7.22456E-02 -3.65054E+00 -1.21163E+01 -2.05381E+01
  -7.11754E+00  1.50441E+00 -1.50303E+01 -1.26980E+01 -1.78004E+01 -6.48655E+00 -4.75421E+00 -7.67969E+00 -1.03015E+01 -1.51960E+01
  -1.15584E+01 -1.16743E+01 -2.32863E+01 -4.70800E+00 -1.53365E+01 -1.46630E+01 -2.34122E+01 -1.32066E+01 -1.26625E+01 -1.66149E+01
  -5.38512E+00 -7.66878E+00 -2.04871E+01 -9.45452E+00 -1.74635E+01 -7.47171E+00 -1.45510E+01 -1.65430E+01 -6.87649E+00 -1.50769E+01
  -7.31134E+00 -6.79453E+00 -1.87332E+01 -1.69403E+01 -1.93226E+01 -8.69878E+00 -1.18802E+01 -2.21886E+01 -1.26613E+01 -1.29991E+01
  -1.93941E+01 -1.38342E+01 -1.63264E+01 -7.90137E+00 -7.82589E+00 -1.51549E+01 -1.05889E+01 -1.46007E+01 -1.61812E+01 -1.16181E+01
  -1.38842E+01 -7.08490E+00 -1.42760E+01 -9.16609E+00  3.08979E+00 -1.34726E+01 -1.67738E+01 -6.75558E+00 -8.02114E+00 -2.09341E+00
  -7.66074E+00 -4.53959E+00 -3.89064E+00 -2.48915E+00 -8.34028E+00 -4.56553E+00  2.43533E+00  3.43808E+00 -4.38209E+00 -3.59728E+00
  -3.21654E+00 -1.11630E+01 -5.39754E+00 -6.19324E+00 -1.01087E+01 -7.49088E+00  1.31151E+00 -3.22739E+00 -2.27780E+00  1.00632E-01
   5.59421E-01  2.09148E+00 -3.25919E+00 -1.29310E+01 -9.80710E-01  6.96973E+00  2.24284E+00  2.48772E+00  2.36866E+00  1.66423E-01
   1.18572E+00  4.68991E+00 -1.07528E+00  3.15758E+00 -1.56925E+00  5.28809E+00  1.06288E+01  6.56565E+00  6.95261E+00  4.12471E+00
   4.92230E+00  1.94893E+00  8.02779E+00  7.61436E-01  7.13729E+00  9.10719E+00  5.40766E+00  5.12684E+00  6.42457E-01  6.14708E+00
   1.30743E+01  1.67376E+01 -1.15068E+01  8.11385E-01  1.07117E+01  1.65566E+00  1.40309E+01  2.34906E+00  6.45295E+00  1.54372E+01
   1.02948E+01  1.19226E+01  3.94294E+00  2.60705E+00 -7.63119E+00  7.84050E-01  1.31700E+00  3.86993E+00  7.04297E+00  1.99327E+00
   1.84810E+00  3.36021E+00 -4.68934E+00  4.64059E+00  1.96379E+00  8.07229E+00  2.26996E+00  6.72934E-03  5.56408E+00  3.80458E+00
  -1.23088E+01 -1.05474E+01  1.19909E+00 -2.01681E+00 -6.13791E+00  2.60215E+00  3.31178E+00 -3.80429E+00 -7.26965E+00  7.10985E-01
   1.50854E+00 -5.19308E+00 -1.09843E+01 -2.22857E+00 -3.29714E+00 -1.08903E+01 -3.50066E+00 -8.06319E+00 -1.04588E+01 -1.45889E+01
  -5.55293E+00 -8.34565E-01 -2.81686E+00 -1.21851E+01 -5.79144E+00 -1.01887E+00 -1.27632E+01 -1.53385E+01  4.25198E+00 -1.00914E+01
  -2.25210E+00 -1.22251E+01  8.87469E-01 -3.53294E+00  9.62948E+00  1.31758E+00  2.67806E+00  5.81094E-01  7.47853E+00 -8.67824E+00
   1.73657E+00 -1.59380E-01  9.25885E+00  5.47141E+00  6.86501E+00 -3.51187E+00  3.84677E+00  6.32048E-01  9.07295E+00  5.02200E+00
   1.90419E+01  7.18398E+00  6.12156E+00  1.16220E+01 -4.96610E+00  9.63397E+00  1.38411E+01  8.45660E+00  4.40289E+00  7.64703E+00
   4.34737E+00 -1.16834E+00  3.45547E+00  4.23246E+00  3.59908E+00  1.22660E+00  1.31841E+00  1.68189E+01  2.50107E+00  7.94712E+00
   8.47940E+00  1.59598E+00  1.67038E+00  5.24209E+00  4.25157E+00  1.29205E+01  5.94240E+00  3.47218E+00 -2.62776E-01 -4.69566E+00
  -4.54434E-01 -1.46444E+00  1.47454E+00  5.63803E+00  5.71702E-01  1.03704E+01  1.33997E+01  7.67511E-04  6.90565E+00  3.66345E+00
   4.29835E+00 -7.22775E+00  8.83511E+00  1.59912E+00  1.70255E+01  1.43791E+00  1.17105E+01 -8.44697E+00  5.61438E+00 -5.99273E+00
   6.79801E+00  1.03864E+01  1.57967E+01  5.90784E+00  3.24887E+00  5.00086E+00 -4.83368E+00 -8.52145E-01 -8.75546E+00 -1.96594E-01
   9.97716E+00 -1.95413E+00  6.32505E+00  9.70842E+00  1.31507E+01  5.12277E+00 -2.52428E+00  1.47059E+01 -7.46017E+00  9.27738E+00
   1.44083E+01  2.56582E+00  2.68621E+00  7.72154E+00  2.25888E+00  6.30840E+00  1.50214E+01  1.18160E+01  8.71724E+00  1.39108E+01
   6.74626E+00  1.45977E+00 -5.24204E-01  7.01661E+00  9.56320E+00 -2.81379E+00  1.65072E+01  4.33117E+00 -4.71094E+00  3.91343E+00
   6.57261E+00  1.60119E+00  1.91562E+00  6.39426E+00  1.66583E+00 -7.02317E+00  7.34152E+00  3.19685E+00  4.35077E+00  1.70416E+01
   5.80989E+00 -2.71270E-01  1.49142E+00  8.32329E+00  2.64644E+00  4.35669E+00  8.12726E+00  9.59647E+00  5.64622E-01  9.23423E+00
   4.97408E+00  9.17716E+00 -6.51810E+00 -8.97390E+00  1.78189E+00  7.03978E-01  1.23529E+01  6.86360E+00 -4.10194E+00  1.74409E+00
   5.92412E+00  6.40589E+00  2.87808E+00  4.97702E+00  5.94413E+00 -2.92732E+00  2.61297E+00 -3.68781E+00  1.76408E+01 -2.75060E+00
   1.78644E+01  1.96290E+00  3.98611E+00  4.44682E+00 -9.58429E-01  5.50117E-01  9.27800E+00  3.13293E-01  7.64785E+00 -5.44477E+00
  -3.41275E+00  5.21158E+00  1.00639E+01 -5.23510E+00  2.96792E+00  1.77019E+00  6.55933E+00  5.84664E+00  4.88683E+00  1.06983E+00
   3.00809E+00  1.44582E+00 -4.85099E+00  9.36854E+00  4.15495E+00 -4.85306E+00  2.66001E+00  5.24070E+00 -1.40309E+00  5.81981E+00
  -5.60816E+00  7.24653E+00 -8.61139E+00  4.62990E+00 -1.69186E+00  8.71864E+00  3.36221E+00 -2.43018E+00
 NY points of the fit to the data follow
  -1.30527E+01 -1.30102E+01 -1.29658E+01 -1.29148E+01 -1.28470E+01 -1.27664E+01 -1.26591E+01 -1.25054E+01 -1.23093E+01 -1.21007E+01
  -1.19283E+01 -1.18349E+01 -1.18415E+01 -1.19420E+01 -1.20928E+01 -1.22116E+01 -1.22184E+01 -1.21529E+01 -1.20591E+01 -1.19386E+01
  -1.17815E+01 -1.15939E+01 -1.13977E+01 -1.11901E+01 -1.10268E+01 -1.10274E+01 -1.13091E+01 -1.18082E+01 -1.23130E+01 -1.25427E+01
  -1.21614E+01 -1.10134E+01 -9.27839E+00 -7.61513E+00 -6.82859E+00 -7.27331E+00 -8.79883E+00 -1.08414E+01 -1.27113E+01 -1.36571E+01
  -1.34630E+01 -1.25822E+01 -1.14916E+01 -1.05967E+01 -1.01713E+01 -1.02700E+01 -1.05726E+01 -1.07858E+01 -1.09169E+01 -1.10001E+01
  -1.10515E+01 -1.10816E+01 -1.10975E+01 -1.11042E+01 -1.11049E+01 -1.11002E+01 -1.10896E+01 -1.10744E+01 -1.10560E+01 -1.10350E+01
  -1.10120E+01 -1.09860E+01 -1.09561E+01 -1.09230E+01 -1.08872E+01 -1.08511E+01 -1.08156E+01 -1.07812E+01 -1.07500E+01 -1.07235E+01
  -1.06994E+01 -1.06741E+01 -1.06436E+01 -1.06017E+01 -1.05474E+01 -1.04875E+01 -1.04290E+01 -1.03841E+01 -1.03594E+01 -1.03518E+01
  -1.03521E+01 -1.03458E+01 -1.03165E+01 -1.02587E+01 -1.01799E+01 -1.00889E+01 -9.99805E+00 -9.92284E+00 -9.87317E+00 -9.85018E+00
  -9.85237E+00 -9.87253E+00 -9.89247E+00 -9.88904E+00 -9.86652E+00 -9.83974E+00 -9.80450E+00 -9.75324E+00 -9.68323E+00 -9.59894E+00
  -9.51413E+00 -9.44236E+00 -9.38737E+00 -9.34486E+00 -9.30539E+00 -9.25419E+00 -9.18464E+00 -9.10533E+00 -9.01996E+00 -8.93004E+00
  -8.84071E+00 -8.75322E+00 -8.66408E+00 -8.57251E+00 -8.47765E+00 -8.37744E+00 -8.27358E+00 -8.16846E+00 -8.06502E+00 -7.96475E+00
  -7.86627E+00 -7.75985E+00 -7.62767E+00 -7.47111E+00 -7.25428E+00 -6.94476E+00 -6.56142E+00 -6.17463E+00 -5.87407E+00 -5.73173E+00
  -5.78600E+00 -6.00823E+00 -6.30331E+00 -6.53884E+00 -6.63641E+00 -6.71852E+00 -6.86194E+00 -7.04873E+00 -7.23204E+00 -7.34522E+00
  -7.33298E+00 -7.20283E+00 -7.04074E+00 -6.92034E+00 -6.87511E+00 -6.91455E+00 -7.01019E+00 -7.11811E+00 -7.21448E+00 -7.28309E+00
  -7.34154E+00 -7.39780E+00 -7.46051E+00 -7.53240E+00 -7.60766E+00 -7.67267E+00 -7.70064E+00 -7.67862E+00 -7.61518E+00 -7.53597E+00
  -7.47961E+00 -7.48498E+00 -7.55172E+00 -7.63564E+00 -7.70120E+00 -7.72671E+00 -7.70991E+00 -7.69221E+00 -7.69799E+00 -7.71358E+00
  -7.71548E+00 -7.68211E+00 -7.60430E+00 -7.50543E+00 -7.41652E+00 -7.36507E+00 -7.36912E+00 -7.42150E+00 -7.46895E+00 -7.46160E+00
  -7.41291E+00 -7.35059E+00 -7.29975E+00 -7.25554E+00 -7.17492E+00 -7.04125E+00 -6.86507E+00 -6.66698E+00 -6.47883E+00 -6.32634E+00
  -6.19586E+00 -6.07115E+00 -6.02479E+00 -6.13126E+00 -6.43301E+00 -6.91256E+00 -7.47456E+00 -7.93559E+00 -8.09306E+00 -7.78713E+00
  -6.96539E+00 -5.75854E+00 -4.37892E+00 -3.10315E+00 -2.27452E+00 -2.10687E+00 -2.64539E+00 -3.86469E+00 -5.68456E+00 -7.74665E+00
  -9.57973E+00 -1.06379E+01 -1.04285E+01 -8.79020E+00 -6.07966E+00 -2.97100E+00 -4.66174E-01  5.45786E-01  1.74076E-01 -9.60288E-01
  -2.61775E+00 -4.43493E+00 -5.81657E+00 -6.30090E+00 -5.98587E+00 -5.00385E+00 -3.55358E+00 -1.97719E+00 -7.31919E-01 -1.62396E-01
  -1.69740E-01 -4.29899E-01 -7.30967E-01 -1.00668E+00 -1.21940E+00 -1.34305E+00 -1.28429E+00 -9.70124E-01 -4.30510E-01  3.92087E-01
   1.43423E+00  2.44920E+00  3.06044E+00  2.92751E+00  2.22097E+00  1.38175E+00  6.99206E-01  3.92959E-01  6.05470E-01  1.16957E+00
   1.77062E+00  2.60848E+00  3.66740E+00  4.94568E+00  6.57307E+00  8.48646E+00  1.02362E+01  1.12556E+01  1.13105E+01  1.03937E+01
   8.64534E+00  6.47990E+00  4.63838E+00  3.76501E+00  3.30631E+00  2.66729E+00  1.88000E+00  1.19815E+00  7.22144E-01  3.36447E-01
   2.17706E-02 -2.11780E-01 -3.97838E-01 -5.25875E-01 -5.89268E-01 -6.36469E-01 -7.12112E-01 -8.44896E-01 -1.04100E+00 -1.27539E+00
  -1.49829E+00 -1.66591E+00 -1.76951E+00 -1.82607E+00 -1.86087E+00 -1.88506E+00 -1.90826E+00 -1.94427E+00 -1.99859E+00 -2.05956E+00
  -2.10871E+00 -2.13402E+00 -2.13638E+00 -2.11540E+00 -2.07930E+00 -2.03896E+00 -2.00482E+00 -1.98578E+00 -1.98128E+00 -1.97604E+00
  -1.96089E+00 -1.93251E+00 -1.88818E+00 -1.82666E+00 -1.75001E+00 -1.66442E+00 -1.57718E+00 -1.48648E+00 -1.38837E+00 -1.28080E+00
  -1.16124E+00 -1.02825E+00 -8.80772E-01 -7.17408E-01 -5.37002E-01 -3.38643E-01 -1.21562E-01  1.14768E-01  3.70588E-01  6.45764E-01
   9.39541E-01  1.25033E+00  1.57599E+00  1.91374E+00  2.26022E+00  2.61145E+00  2.96298E+00  3.30988E+00  3.64698E+00  3.96895E+00
   4.27057E+00  4.54691E+00  4.79354E+00  5.00665E+00  5.18327E+00  5.32138E+00  5.42003E+00  5.47937E+00  5.50064E+00  5.48606E+00
   5.43878E+00  5.36269E+00  5.26230E+00  5.14246E+00  5.00818E+00  4.86438E+00  4.71573E+00  4.56649E+00  4.42035E+00  4.28034E+00
   4.14874E+00  4.02708E+00  3.91616E+00  3.81615E+00  3.72661E+00  3.64661E+00  3.57485E+00  3.50978E+00  3.44974E+00  3.39306E+00
   3.33816E+00  3.28364E+00  3.22833E+00  3.17138E+00  3.11227E+00  3.05085E+00  2.98729E+00  2.92213E+00  2.85617E+00  2.79053E+00
   2.72657E+00  2.66583E+00  2.61002E+00  2.56095E+00  2.52051E+00  2.49067E+00  2.47342E+00  2.47076E+00  2.48470E+00  2.51722E+00
   2.57027E+00  2.64580E+00  2.74564E+00  2.87155E+00  3.02508E+00  3.20755E+00  3.41997E+00  3.66287E+00  3.93625E+00  4.23937E+00
   4.57064E+00  4.92754E+00  5.30651E+00  5.70286E+00  6.11082E+00  6.52353E+00  6.93325E+00  7.33149E+00  7.70935E+00  8.05783E+00
   8.36815E+00  8.63217E+00  8.84282E+00  8.99440E+00  9.08289E+00  9.10614E+00  9.06399E+00  8.95829E+00  8.79277E+00  8.57284E+00
   8.30531E+00  7.99802E+00  7.65948E+00  7.29843E+00  6.92353E+00  6.54299E+00  6.16429E+00  5.79399E+00  5.43756E+00  5.09936E+00
   4.78265E+00  4.48960E+00  4.22143E+00  3.97851E+00  3.76051E+00  3.56656E+00  3.39539E+00  3.24548E+00  3.11509E+00  3.00246E+00
   2.90581E+00  2.82343E+00  2.75374E+00  2.69524E+00  2.64659E+00  2.60658E+00  2.57412E+00  2.54830E+00  2.52828E+00  2.51336E+00
   2.50291E+00  2.49639E+00  2.49334E+00  2.49338E+00  2.49616E+00  2.50137E+00  2.50875E+00  2.51808E+00  2.52917E+00  2.54183E+00
   2.55592E+00  2.57131E+00  2.58787E+00  2.60550E+00  2.62411E+00  2.64363E+00  2.66398E+00  2.68509E+00  2.70689E+00  2.72934E+00
   2.75239E+00  2.77599E+00  2.80011E+00  2.82470E+00  2.84973E+00  2.87519E+00  2.90104E+00  2.92726E+00  2.95382E+00  2.98070E+00
   3.00787E+00  3.03532E+00  3.06303E+00  3.09100E+00  3.11920E+00  3.14763E+00  3.17626E+00  3.20510E+00  3.23413E+00  3.26333E+00
   3.29270E+00  3.32223E+00  3.35191E+00  3.38174E+00  3.41172E+00  3.44182E+00  3.47204E+00  3.50238E+00  3.53285E+00  3.56342E+00
   3.59411E+00  3.62488E+00  3.65576E+00  3.68673E+00  3.71780E+00  3.74895E+00  3.78019E+00  3.81151E+00
 NY background values follow
    -1.317E+01   -1.314E+01   -1.310E+01   -1.307E+01   -1.303E+01   -1.300E+01   -1.297E+01   -1.293E+01   -1.290E+01   -1.286E+01
    -1.283E+01   -1.280E+01   -1.276E+01   -1.273E+01   -1.270E+01   -1.266E+01   -1.263E+01   -1.259E+01   -1.256E+01   -1.253E+01
    -1.249E+01   -1.246E+01   -1.242E+01   -1.239E+01   -1.236E+01   -1.232E+01   -1.229E+01   -1.225E+01   -1.222E+01   -1.219E+01
    -1.215E+01   -1.212E+01   -1.209E+01   -1.205E+01   -1.202E+01   -1.198E+01   -1.195E+01   -1.192E+01   -1.188E+01   -1.185E+01
    -1.181E+01   -1.178E+01   -1.175E+01   -1.171E+01   -1.168E+01   -1.165E+01   -1.161E+01   -1.158E+01   -1.154E+01   -1.151E+01
    -1.148E+01   -1.144E+01   -1.141E+01   -1.137E+01   -1.134E+01   -1.131E+01   -1.127E+01   -1.124E+01   -1.121E+01   -1.117E+01
    -1.114E+01   -1.110E+01   -1.107E+01   -1.104E+01   -1.100E+01   -1.097E+01   -1.093E+01   -1.090E+01   -1.087E+01   -1.083E+01
    -1.080E+01   -1.077E+01   -1.073E+01   -1.070E+01   -1.066E+01   -1.063E+01   -1.060E+01   -1.056E+01   -1.053E+01   -1.049E+01
    -1.046E+01   -1.043E+01   -1.039E+01   -1.036E+01   -1.032E+01   -1.029E+01   -1.026E+01   -1.022E+01   -1.019E+01   -1.016E+01
    -1.012E+01   -1.009E+01   -1.005E+01   -1.002E+01   -9.986E+00   -9.952E+00   -9.918E+00   -9.885E+00   -9.851E+00   -9.817E+00
    -9.783E+00   -9.749E+00   -9.715E+00   -9.681E+00   -9.648E+00   -9.614E+00   -9.580E+00   -9.546E+00   -9.512E+00   -9.478E+00
    -9.444E+00   -9.411E+00   -9.377E+00   -9.343E+00   -9.309E+00   -9.275E+00   -9.241E+00   -9.207E+00   -9.174E+00   -9.140E+00
    -9.106E+00   -9.072E+00   -9.038E+00   -9.004E+00   -8.970E+00   -8.937E+00   -8.903E+00   -8.869E+00   -8.835E+00   -8.801E+00
    -8.767E+00   -8.733E+00   -8.699E+00   -8.666E+00   -8.632E+00   -8.598E+00   -8.564E+00   -8.530E+00   -8.496E+00   -8.462E+00
    -8.429E+00   -8.395E+00   -8.361E+00   -8.327E+00   -8.293E+00   -8.259E+00   -8.225E+00   -8.192E+00   -8.158E+00   -8.124E+00
    -8.090E+00   -8.056E+00   -8.022E+00   -7.988E+00   -7.955E+00   -7.921E+00   -7.887E+00   -7.853E+00   -7.819E+00   -7.785E+00
    -7.751E+00   -7.718E+00   -7.684E+00   -7.650E+00   -7.616E+00   -7.582E+00   -7.548E+00   -7.514E+00   -7.480E+00   -7.447E+00
    -7.413E+00   -7.379E+00   -7.345E+00   -7.311E+00   -7.277E+00   -7.243E+00   -7.210E+00   -7.176E+00   -7.142E+00   -7.108E+00
    -7.074E+00   -7.040E+00   -7.006E+00   -6.973E+00   -6.939E+00   -6.905E+00   -6.871E+00   -6.837E+00   -6.803E+00   -6.769E+00
    -6.735E+00   -6.702E+00   -6.668E+00   -6.634E+00   -6.600E+00   -6.566E+00   -6.532E+00   -6.498E+00   -6.465E+00   -6.431E+00
    -6.397E+00   -6.363E+00   -6.329E+00   -6.295E+00   -6.261E+00   -6.228E+00   -6.194E+00   -6.160E+00   -6.126E+00   -6.092E+00
    -6.058E+00   -6.024E+00   -5.990E+00   -5.957E+00   -5.923E+00   -5.889E+00   -5.855E+00   -5.821E+00   -5.787E+00   -5.753E+00
    -5.720E+00   -5.686E+00   -5.652E+00   -5.618E+00   -5.584E+00   -5.550E+00   -5.516E+00   -5.483E+00   -5.449E+00   -5.415E+00
    -5.381E+00   -5.347E+00   -5.313E+00   -5.279E+00   -5.245E+00   -5.212E+00   -5.178E+00   -5.144E+00   -5.110E+00   -5.076E+00
    -5.042E+00   -5.008E+00   -4.975E+00   -4.941E+00   -4.907E+00   -4.873E+00   -4.839E+00   -4.805E+00   -4.771E+00   -4.738E+00
    -4.704E+00   -4.670E+00   -4.636E+00   -4.602E+00   -4.568E+00   -4.534E+00   -4.500E+00   -4.467E+00   -4.433E+00   -4.399E+00
    -4.365E+00   -4.331E+00   -4.297E+00   -4.263E+00   -4.230E+00   -4.196E+00   -4.162E+00   -4.128E+00   -4.094E+00   -4.060E+00
    -4.026E+00   -3.993E+00   -3.959E+00   -3.925E+00   -3.891E+00   -3.857E+00   -3.823E+00   -3.789E+00   -3.755E+00   -3.722E+00
    -3.688E+00   -3.654E+00   -3.620E+00   -3.586E+00   -3.552E+00   -3.518E+00   -3.485E+00   -3.451E+00   -3.417E+00   -3.383E+00
    -3.349E+00   -3.315E+00   -3.281E+00   -3.248E+00   -3.214E+00   -3.180E+00   -3.146E+00   -3.112E+00   -3.078E+00   -3.044E+00
    -3.010E+00   -2.977E+00   -2.943E+00   -2.909E+00   -2.875E+00   -2.841E+00   -2.807E+00   -2.773E+00   -2.740E+00   -2.706E+00
    -2.672E+00   -2.638E+00   -2.604E+00   -2.570E+00   -2.536E+00   -2.503E+00   -2.469E+00   -2.435E+00   -2.401E+00   -2.367E+00
    -2.333E+00   -2.299E+00   -2.265E+00   -2.232E+00   -2.198E+00   -2.164E+00   -2.130E+00   -2.096E+00   -2.062E+00   -2.028E+00
    -1.995E+00   -1.961E+00   -1.927E+00   -1.893E+00   -1.859E+00   -1.825E+00   -1.791E+00   -1.758E+00   -1.724E+00   -1.690E+00
    -1.656E+00   -1.622E+00   -1.588E+00   -1.554E+00   -1.520E+00   -1.487E+00   -1.453E+00   -1.419E+00   -1.385E+00   -1.351E+00
    -1.317E+00   -1.283E+00   -1.250E+00   -1.216E+00   -1.182E+00   -1.148E+00   -1.114E+00   -1.080E+00   -1.046E+00   -1.013E+00
    -9.786E-01   -9.448E-01   -9.109E-01   -8.770E-01   -8.432E-01   -8.093E-01   -7.755E-01   -7.416E-01   -7.077E-01   -6.739E-01
    -6.400E-01   -6.061E-01   -5.723E-01   -5.384E-01   -5.045E-01   -4.707E-01   -4.368E-01   -4.030E-01   -3.691E-01   -3.352E-01
    -3.014E-01   -2.675E-01   -2.336E-01   -1.998E-01   -1.659E-01   -1.320E-01   -9.818E-02   -6.431E-02   -3.045E-02    3.414E-03
     3.728E-02    7.114E-02    1.050E-01    1.389E-01    1.727E-01    2.066E-01    2.405E-01    2.743E-01    3.082E-01    3.421E-01
     3.759E-01    4.098E-01    4.436E-01    4.775E-01    5.114E-01    5.452E-01    5.791E-01    6.130E-01    6.468E-01    6.807E-01
     7.146E-01    7.484E-01    7.823E-01    8.161E-01    8.500E-01    8.839E-01    9.177E-01    9.516E-01    9.855E-01    1.019E+00
     1.053E+00    1.087E+00    1.121E+00    1.155E+00    1.189E+00    1.223E+00    1.256E+00    1.290E+00    1.324E+00    1.358E+00
     1.392E+00    1.426E+00    1.460E+00    1.493E+00    1.527E+00    1.561E+00    1.595E+00    1.629E+00    1.663E+00    1.697E+00
     1.730E+00    1.764E+00    1.798E+00    1.832E+00    1.866E+00    1.900E+00    1.934E+00    1.968E+00    2.001E+00    2.035E+00
     2.069E+00    2.103E+00    2.137E+00    2.171E+00    2.205E+00    2.238E+00    2.272E+00    2.306E+00    2.340E+00    2.374E+00
     2.408E+00    2.442E+00    2.475E+00    2.509E+00    2.543E+00    2.577E+00    2.611E+00    2.645E+00    2.679E+00    2.713E+00
     2.746E+00    2.780E+00    2.814E+00    2.848E+00    2.882E+00    2.916E+00    2.950E+00    2.983E+00    3.017E+00    3.051E+00
     3.085E+00    3.119E+00    3.153E+00    3.187E+00    3.220E+00    3.254E+00    3.288E+00    3.322E+00    3.356E+00    3.390E+00
     3.424E+00    3.458E+00    3.491E+00    3.525E+00    3.559E+00    3.593E+00    3.627E+00    3.661E+00
 Asp      Conc. = 1.32E+01
