 LCModel (Version 6.3-1L) Copyright: S.W. Provencher.          Ref.: Magn. Reson. Med. 30:672-679 (1993).                
 Slice#3 Row#2 Col#1  PD_24_press_2_raw_act
 36 lines in following concentration table = NCONC+1
    Conc.  %SD /Cr+PCr  Metabolite                                         
 1.19E+03  94%  12.978 Ala                                                 
    9.848 108%   0.107 Asp                                                 
    0.000 999%   0.000 Cr                                                  
   91.812 119%   1.000 PCr                                                 
    5.877 109% 6.4E-02 GABA                                                
    5.893 108% 6.4E-02 Glc                                                 
 1.46E+03  77%  15.886 Gln                                                 
    0.000 999%   0.000 Glu                                                 
    0.000 999%   0.000 GPC                                                 
   34.657 126%   0.377 PCh                                                 
  111.521 181%   1.215 GSH                                                 
  519.598  87%   5.659 Ins                                                 
  771.784 124%   8.406 Lac                                                 
    0.000 999%   0.000 NAA                                                 
    0.000 999%   0.000 NAAG                                                
    1.986 107% 2.2E-02 Scyllo                                              
    9.849 108%   0.107 Tau                                                 
    9.194 132%   0.100 -CrCH2                                              
   34.657 126%   0.377 GPC+PCh                                             
    0.000 999%   0.000 NAA+NAAG                                            
   91.812 119%   1.000 Cr+PCr                                              
 1.46E+03  77%  15.886 Glu+Gln                                             
    0.000 999%   0.000 Lip13a                                              
    0.000 999%   0.000 Lip13b                                              
    0.000 999%   0.000 Lip09                                               
  569.835  28%   6.207 MM09                                                
    0.000 999%   0.000 Lip20                                               
    0.000 999%   0.000 MM20                                                
  156.272 106%   1.702 MM12                                                
 1.46E+03  30%  15.884 MM14                                                
 2.48E+03  10%  27.044+MM17                                                
    0.000 999%   0.000 Lip13a+Lip13b                                       
 1.61E+03  31%  17.586 MM14+Lip13a+Lip13b+MM12                             
  569.835  28%   6.207 MM09+Lip09                                          
    0.000 999%   0.000 MM20+Lip20                                          
   6 lines in following misc. output table
  FWHM = 0.168 ppm    S/N =   3                                            
  Data shift = 0.069 ppm                                                   
  Ph: -27 deg      33.4 deg/ppm                                            
  alphaB,S = 8.5E+01,   3.1E+02                                            
    7 spline knots.   Ns = 9(2)                                            
   2 inflections.     1 extrema                                            
  498 points on ppm-axis = NY
      4.000000     3.992357     3.984714     3.977070     3.969427     3.961784     3.954141     3.946497     3.938854     3.931211
      3.923568     3.915925     3.908281     3.900638     3.892995     3.885352     3.877708     3.870065     3.862422     3.854779
      3.847136     3.839492     3.831849     3.824206     3.816563     3.808919     3.801276     3.793633     3.785990     3.778347
      3.770703     3.763060     3.755417     3.747774     3.740130     3.732487     3.724844     3.717201     3.709558     3.701914
      3.694271     3.686628     3.678985     3.671341     3.663698     3.656055     3.648412     3.640769     3.633125     3.625482
      3.617839     3.610196     3.602552     3.594909     3.587266     3.579623     3.571980     3.564336     3.556693     3.549050
      3.541407     3.533763     3.526120     3.518477     3.510834     3.503191     3.495547     3.487904     3.480261     3.472618
      3.464974     3.457331     3.449688     3.442045     3.434402     3.426758     3.419115     3.411472     3.403829     3.396185
      3.388542     3.380899     3.373256     3.365613     3.357969     3.350326     3.342683     3.335040     3.327396     3.319753
      3.312110     3.304467     3.296824     3.289180     3.281537     3.273894     3.266251     3.258607     3.250964     3.243321
      3.235678     3.228034     3.220391     3.212748     3.205105     3.197462     3.189818     3.182175     3.174532     3.166889
      3.159245     3.151602     3.143959     3.136316     3.128673     3.121029     3.113386     3.105743     3.098100     3.090456
      3.082813     3.075170     3.067527     3.059884     3.052240     3.044597     3.036954     3.029311     3.021667     3.014024
      3.006381     2.998738     2.991095     2.983451     2.975808     2.968165     2.960522     2.952878     2.945235     2.937592
      2.929949     2.922306     2.914662     2.907019     2.899376     2.891733     2.884089     2.876446     2.868803     2.861160
      2.853517     2.845873     2.838230     2.830587     2.822944     2.815300     2.807657     2.800014     2.792371     2.784728
      2.777084     2.769441     2.761798     2.754155     2.746511     2.738868     2.731225     2.723582     2.715939     2.708295
      2.700652     2.693009     2.685366     2.677722     2.670079     2.662436     2.654793     2.647150     2.639506     2.631863
      2.624220     2.616577     2.608933     2.601290     2.593647     2.586004     2.578361     2.570717     2.563074     2.555431
      2.547788     2.540144     2.532501     2.524858     2.517215     2.509572     2.501928     2.494285     2.486642     2.478999
      2.471355     2.463712     2.456069     2.448426     2.440783     2.433139     2.425496     2.417853     2.410210     2.402566
      2.394923     2.387280     2.379637     2.371994     2.364350     2.356707     2.349064     2.341421     2.333777     2.326134
      2.318491     2.310848     2.303205     2.295561     2.287918     2.280275     2.272632     2.264988     2.257345     2.249702
      2.242059     2.234416     2.226772     2.219129     2.211486     2.203843     2.196199     2.188556     2.180913     2.173270
      2.165627     2.157983     2.150340     2.142697     2.135054     2.127410     2.119767     2.112124     2.104481     2.096838
      2.089194     2.081551     2.073908     2.066265     2.058621     2.050978     2.043335     2.035692     2.028049     2.020405
      2.012762     2.005119     1.997476     1.989833     1.982190     1.974546     1.966903     1.959260     1.951617     1.943974
      1.936331     1.928688     1.921045     1.913402     1.905759     1.898115     1.890472     1.882829     1.875186     1.867543
      1.859900     1.852257     1.844614     1.836971     1.829327     1.821684     1.814041     1.806398     1.798755     1.791112
      1.783469     1.775826     1.768183     1.760540     1.752896     1.745253     1.737610     1.729967     1.722324     1.714681
      1.707038     1.699395     1.691752     1.684108     1.676465     1.668822     1.661179     1.653536     1.645893     1.638250
      1.630607     1.622964     1.615321     1.607677     1.600034     1.592391     1.584748     1.577105     1.569462     1.561819
      1.554176     1.546533     1.538890     1.531246     1.523603     1.515960     1.508317     1.500674     1.493031     1.485388
      1.477745     1.470102     1.462458     1.454815     1.447172     1.439529     1.431886     1.424243     1.416600     1.408957
      1.401314     1.393671     1.386027     1.378384     1.370741     1.363098     1.355455     1.347812     1.340169     1.332526
      1.324883     1.317240     1.309596     1.301953     1.294310     1.286667     1.279024     1.271381     1.263738     1.256095
      1.248452     1.240808     1.233165     1.225522     1.217879     1.210236     1.202593     1.194950     1.187307     1.179664
      1.172021     1.164377     1.156734     1.149091     1.141448     1.133805     1.126162     1.118519     1.110876     1.103233
      1.095590     1.087946     1.080303     1.072660     1.065017     1.057374     1.049731     1.042088     1.034445     1.026802
      1.019158     1.011515     1.003872     0.996229     0.988586     0.980943     0.973300     0.965657     0.958014     0.950371
      0.942727     0.935084     0.927441     0.919798     0.912155     0.904512     0.896869     0.889226     0.881583     0.873940
      0.866296     0.858653     0.851010     0.843367     0.835724     0.828081     0.820438     0.812795     0.805152     0.797508
      0.789865     0.782222     0.774579     0.766936     0.759293     0.751650     0.744007     0.736364     0.728721     0.721077
      0.713434     0.705791     0.698148     0.690505     0.682862     0.675219     0.667576     0.659933     0.652290     0.644646
      0.637003     0.629360     0.621717     0.614074     0.606431     0.598788     0.591145     0.583502     0.575858     0.568215
      0.560572     0.552929     0.545286     0.537643     0.530000     0.522357     0.514714     0.507071     0.499427     0.491784
      0.484141     0.476498     0.468855     0.461212     0.453569     0.445925     0.438282     0.430639     0.422996     0.415353
      0.407710     0.400067     0.392424     0.384780     0.377137     0.369494     0.361851     0.354208     0.346565     0.338922
      0.331278     0.323635     0.315992     0.308349     0.300706     0.293063     0.285420     0.277777     0.270133     0.262490
      0.254847     0.247204     0.239561     0.231918     0.224275     0.216631     0.208988     0.201345
 NY phased data points follow
  -2.69948E+00 -1.12416E+00  6.10507E+00  1.60989E+00  4.88964E-01  7.27027E+00  3.38673E+00 -2.54743E+00 -1.71293E-01  2.56057E+00
   6.57007E-02 -1.04206E+01  4.92003E+00  4.52521E+00 -1.07055E+01 -5.27257E+00  1.00625E-01  5.40729E+00  7.63279E+00 -3.79507E+00
   1.74743E+00 -2.48146E+00 -1.87658E-02 -7.75712E-01 -6.69903E-01  7.84594E-01  7.85980E+00  7.14172E+00  5.11915E+00 -3.33283E-01
   6.97043E+00  2.57038E+00  5.44364E-01  2.80859E+00  1.91374E+00 -5.88948E+00  2.75797E+00 -4.65424E+00  2.47637E-01 -1.40134E+00
   2.38531E-01  3.21575E+00  9.36689E-01 -4.08876E+00 -5.75834E-01  1.65336E+00  3.01369E-01 -5.42124E-01 -2.96539E-01 -2.76561E+00
   3.25150E+00 -3.04146E+00  9.18520E+00 -1.83865E+00  4.05781E+00 -1.72203E+00  1.70728E+00 -5.92661E+00  4.84442E+00  2.38550E+00
  -1.12865E+00  2.50304E+00  1.32583E+00 -1.08952E+00 -3.59345E+00  9.88371E-01  4.76094E+00 -1.04597E+00 -1.20724E+00 -2.63238E+00
  -1.85433E-01  1.38381E+00  1.37996E+00  5.52335E+00 -8.36844E+00  2.23372E+00  7.98640E+00 -2.73663E+00  1.13937E-01 -1.43411E+00
   2.65847E+00  3.27789E+00 -3.17643E-01 -3.45452E+00 -5.61473E+00  1.23698E+00  5.79178E+00 -2.28104E-01 -2.60907E+00  5.28257E+00
  -2.21939E+00  6.21419E-01  8.31705E+00  6.52649E+00  5.16138E+00  2.26032E-01  3.56827E-01  3.69816E+00  1.48015E+00 -7.55986E+00
  -1.62358E+00 -5.92788E+00 -1.74399E+00  1.99469E+00 -3.78353E+00 -5.87930E+00  9.64014E-01 -6.81423E+00 -6.01791E-01 -3.29681E+00
   1.23962E+00 -5.67530E+00 -5.20044E+00  1.66743E+00  1.16125E+00  4.76159E+00  5.18977E+00  8.75111E+00  9.64862E+00  2.13062E+00
   1.25174E+00  9.56949E-01  5.58620E+00 -2.01307E+00 -9.07120E+00 -7.98191E-01 -3.86179E+00 -2.91289E+00 -2.15207E+00  9.75550E-01
  -1.81927E+00 -7.30182E-01 -9.04934E+00 -6.86131E-01  3.84219E+00 -3.59958E-01  2.31965E+00  1.44462E+00  2.87005E+00  6.71995E+00
  -4.97659E+00 -6.39267E+00 -2.29861E-01 -4.06520E+00 -1.32967E-01 -6.41008E+00 -4.70858E+00 -2.11919E+00 -1.03938E+01 -1.99845E+00
   8.94789E-02 -4.63510E-01 -4.97427E+00 -3.77059E+00 -2.12208E+00 -8.46334E+00 -2.10284E+00  2.04032E+00 -3.18288E+00 -3.32903E+00
   2.98831E+00  9.75403E-02 -5.09427E+00  1.78112E+00 -2.17661E+00 -1.13717E+00  2.93861E+00 -3.42962E+00 -1.80322E+00 -7.56719E+00
  -6.22192E-01  2.61219E+00  7.67088E+00 -4.72971E+00  3.27231E+00 -6.14105E-01  8.52097E+00 -3.46044E+00  2.96807E+00 -3.21033E+00
  -2.11945E+00  8.62645E-01  1.45791E-01  4.33760E+00  6.63842E+00 -1.30740E-01 -2.77546E+00 -2.56827E+00  8.05772E-01  3.39505E+00
  -3.89363E-01  2.18639E+00 -5.48391E+00 -4.07274E+00 -4.23563E+00  3.11828E+00 -6.74577E+00  1.68416E-01  1.33056E+00  1.50432E-01
   6.24190E+00 -2.08765E+00 -1.04226E+01 -1.31557E+00  3.62906E-01 -5.10271E+00 -5.58391E+00 -3.21004E+00 -1.27994E+00 -3.00429E+00
  -8.63458E+00 -6.43447E-01 -8.61588E+00  4.51130E+00 -9.23579E-01  1.81267E+00 -4.59650E+00  3.56545E+00  1.29856E+01  3.38075E+00
   8.19523E-01  4.11277E+00  8.00827E+00 -3.49332E+00  1.58313E+00  3.01812E+00  2.47882E+00  2.86390E+00  1.85966E+00 -5.33432E-01
  -6.22354E+00  1.09933E+00 -1.12722E+00 -1.07686E+00  9.61563E-01 -8.29488E-02  2.08805E+00  2.71623E+00 -3.43164E+00 -1.33575E+00
   3.68168E-01  1.29499E+00  1.97977E+00  4.39032E+00  2.16829E-01 -1.77593E-01  8.31247E+00  1.31341E+01  9.21024E+00  3.13148E+00
   7.77468E+00 -4.44763E+00  7.02379E-01  1.41907E+00 -9.56392E+00 -8.43097E+00 -7.06818E+00 -5.49864E+00 -4.24690E+00 -6.37754E+00
  -4.71845E+00 -8.71300E+00 -3.63302E+00 -8.76842E+00  2.86726E+00  3.33522E+00 -5.18143E+00  4.59308E-01 -1.36913E+00 -4.54194E+00
  -5.16854E+00 -1.60460E+00 -9.38232E+00  1.76829E+00 -2.73478E+00 -1.23730E-01 -8.40133E+00 -6.27879E+00 -5.82429E+00 -4.92440E+00
  -9.27236E-01 -8.62405E-01  2.01881E+00 -3.36228E+00 -7.91252E+00  3.38764E+00 -3.54866E+00 -9.64523E-01  1.21121E+00 -6.21410E+00
  -3.31584E+00  8.90707E-01  8.72803E-01  1.30928E+01  2.79733E+00  6.10557E-01  4.09556E+00  1.20438E+01  1.47688E+01  1.04121E+01
   1.59103E+01  1.35288E+01  1.69927E+01  2.05340E+01  1.86968E+01  1.96524E+01  2.66468E+01  2.72300E+01  2.74436E+01  2.27305E+01
   3.25068E+01  2.86694E+01  2.69562E+01  2.36162E+01  2.69530E+01  8.95613E+00  2.47976E+01  1.50800E+01  1.55498E+01  1.83571E+01
   1.51937E+01  1.33162E+01  1.75510E+01  1.01428E+01  7.10470E+00  8.05953E+00  1.72301E+01  1.20866E+01  6.19865E+00  1.20106E+01
   1.25395E+01  1.20419E+01  8.74108E+00  1.21068E+01  1.03079E+01  1.25508E+01  1.53607E+01  1.36785E+01  8.96008E+00  1.21407E+01
   1.37749E+01 -1.56034E+00  1.10407E+01  3.21326E+00  1.34449E+01  5.35134E+00  4.05747E+00  6.53663E+00  4.42146E+00  1.92852E+00
   6.49257E+00  9.75684E-01 -1.51592E+00  9.83795E+00  6.10900E+00  9.07949E+00  1.11017E+00 -1.92853E+00  8.96403E+00  4.06694E+00
   8.24453E+00  7.85662E+00  1.52185E+00  5.93977E+00 -2.44616E+00 -6.61552E-01  5.39820E+00 -1.91213E+00  7.07651E+00  4.89411E+00
   7.94967E+00 -8.79793E-01  8.58624E-01  1.32218E+00  9.62913E-01  3.36727E+00 -5.62473E+00 -1.97833E+00  7.63491E+00  6.01077E+00
   3.68463E+00  8.66748E-01  1.02092E+00  4.99274E+00  5.62656E+00  1.14160E+01  3.21622E+00  7.31104E+00  8.32475E-01  7.49240E+00
   8.51885E+00  2.86302E-01  9.38034E+00  2.35021E+00  4.87379E+00  7.89941E+00  2.83661E-01  6.05779E+00  8.21533E+00  7.23869E+00
   8.85412E+00  4.23386E+00  2.28647E+00 -1.49312E+00  1.23942E-01  7.53982E+00 -3.93738E+00  1.64531E+00  9.34539E+00  2.43703E+00
  -1.18401E+00  3.62840E+00  1.06522E+00 -5.68125E-01  1.11203E+00 -3.12756E+00 -3.26408E+00 -1.60327E-01 -6.39868E+00  7.13410E+00
   2.27748E+00  2.57300E+00 -2.27034E+00  4.16496E+00  5.55072E+00 -1.92868E+00 -7.86214E+00 -4.50714E-01  1.46427E+00 -1.11143E-01
   4.82832E+00  5.73611E-01 -6.96774E-01  2.33609E+00  6.09767E+00 -1.88139E+00  1.54009E+00 -1.74034E+00  1.06964E+00 -1.50009E+00
   8.71401E+00 -5.29857E-01  6.07261E+00 -2.39631E+00  2.39694E-01 -3.20063E-01  4.81422E+00  2.11041E+00 -1.65504E+00 -9.80242E-01
  -2.03200E+00 -2.17467E+00  1.06468E+01 -2.94054E+00  4.52839E+00  2.44858E+00  4.48378E+00  3.15988E+00  3.25469E+00  5.72972E+00
  -9.79168E-02  1.61929E+00  2.54244E+00  9.43645E-01 -2.11995E+00  1.52868E-01  2.23393E+00 -4.66209E+00  7.44134E+00 -1.05821E+00
   4.09596E-02 -6.94031E+00  3.00014E+00  3.74881E+00 -2.17054E+00 -4.15968E+00 -1.32539E+00 -2.46968E+00  2.59408E+00  6.55045E-01
  -5.71402E+00  1.25814E+00  5.84334E+00 -2.19032E+00  2.42330E+00  2.06755E+00 -8.94673E-02  2.02409E+00 -1.93141E+00  1.18066E+00
   1.69590E+00  3.78480E+00  3.50125E+00  2.32809E+00 -1.10567E+00  3.12318E+00  1.26317E+00 -3.52644E+00
 NY points of the fit to the data follow
   4.26796E-01  5.96496E-01  3.99479E-01  5.64083E-01  3.76123E-01  5.44986E-01  3.79349E-01  5.64620E-01  3.55637E-01  5.01555E-01
   2.43184E-01  3.63078E-01  1.22740E-01  2.64883E-01  1.42597E-01  2.83603E-01  3.03337E-01  3.67482E-01  5.17473E-01  4.36398E-01
   7.00643E-01  4.99004E-01  8.70472E-01  5.37537E-01  1.00770E+00  5.54423E-01  1.10671E+00  5.57596E-01  1.17550E+00  6.00004E-01
   1.28643E+00  7.15565E-01  1.40721E+00  8.21312E-01  1.48065E+00  8.90646E-01  1.49756E+00  9.21681E-01  1.46336E+00  9.19455E-01
   1.38029E+00  9.07131E-01  1.30245E+00  9.21419E-01  1.23612E+00  9.47315E-01  1.15210E+00  9.38613E-01  9.84526E-01  7.88325E-01
   7.58186E-01  6.22455E-01  5.95677E-01  5.17000E-01  5.41057E-01  4.77327E-01  5.27407E-01  4.39140E-01  4.84087E-01  3.71312E-01
   4.12056E-01  3.03140E-01  3.32822E-01  2.09083E-01  2.45147E-01  1.26061E-01  1.76049E-01  7.37168E-02  1.41706E-01  5.56434E-02
   1.29204E-01  1.86477E-02  6.22339E-02 -7.87106E-02 -5.57641E-02 -2.12641E-01 -1.97950E-01 -3.58626E-01 -3.39477E-01 -4.94669E-01
  -4.73264E-01 -6.16446E-01 -5.89775E-01 -7.24681E-01 -6.93794E-01 -7.88174E-01 -7.30822E-01 -8.00478E-01 -7.12143E-01 -7.69865E-01
  -6.48110E-01 -7.05612E-01 -5.51084E-01 -6.18736E-01 -4.30738E-01 -5.17682E-01 -3.08225E-01 -4.20428E-01 -1.99233E-01 -3.36954E-01
  -1.14797E-01 -2.74288E-01 -6.18698E-02 -2.37745E-01 -4.37294E-02 -2.30135E-01 -5.94710E-02 -2.47982E-01 -8.40678E-02 -2.31884E-01
  -9.31834E-02 -1.91469E-01 -8.79714E-02 -1.29788E-01 -6.82974E-02 -4.66720E-02 -3.11431E-02  4.12203E-02 -1.47738E-03  1.10857E-01
   1.44523E-03  1.49246E-01 -1.03087E-02  1.74087E-01 -7.19603E-03  2.07419E-01  2.64143E-02  2.17822E-01  3.26929E-02  1.91417E-01
   1.04166E-02  1.34371E-01 -3.54530E-02  5.30811E-02 -1.02011E-01 -5.11972E-02 -1.89992E-01 -1.78603E-01 -2.98521E-01 -3.24737E-01
  -4.23731E-01 -4.84010E-01 -5.59227E-01 -6.43215E-01 -6.90127E-01 -7.82301E-01 -7.97831E-01 -8.77766E-01 -8.62751E-01 -9.08839E-01
  -8.93307E-01 -9.29263E-01 -9.17622E-01 -9.43979E-01 -9.36089E-01 -9.53553E-01 -9.51524E-01 -9.69861E-01 -9.77604E-01 -9.93611E-01
  -1.00667E+00 -1.01549E+00 -1.02633E+00 -1.02879E+00 -1.03541E+00 -1.03660E+00 -1.04054E+00 -1.04400E+00 -1.04603E+00 -1.05124E+00
  -1.05120E+00 -1.05685E+00 -1.05037E+00 -1.05261E+00 -1.03698E+00 -1.04444E+00 -1.04345E+00 -1.05910E+00 -1.11212E+00 -1.14120E+00
  -1.25656E+00 -1.28169E+00 -1.43985E+00 -1.39963E+00 -1.55207E+00 -1.42470E+00 -1.57099E+00 -1.32875E+00 -1.49372E+00 -1.16618E+00
  -1.39503E+00 -1.07944E+00 -1.48937E+00 -1.12067E+00 -1.65606E+00 -1.20113E+00 -1.82877E+00 -1.27867E+00 -1.97531E+00 -1.33839E+00
  -2.08054E+00 -1.36742E+00 -2.12207E+00 -1.34209E+00 -2.06722E+00 -1.23667E+00 -1.89765E+00 -1.04574E+00 -1.62294E+00 -7.81614E-01
  -1.26909E+00 -4.74192E-01 -8.80170E-01 -1.71157E-01 -5.23411E-01  7.44015E-02 -2.49697E-01  2.02724E-01 -1.47831E-01  2.21836E-01
  -9.31016E-02  2.71878E-01  5.63247E-02  4.96616E-01  3.38817E-01  7.60879E-01  5.76923E-01  9.16246E-01  6.40397E-01  8.45041E-01
   4.54615E-01  5.27620E-01  5.40670E-02  1.34858E-01 -2.81726E-01 -1.97678E-01 -5.50351E-01 -4.69696E-01 -7.60233E-01 -6.92822E-01
  -9.16720E-01 -8.76769E-01 -1.02109E+00 -1.00605E+00 -1.06254E+00 -1.07381E+00 -1.04364E+00 -1.08850E+00 -9.83148E-01 -1.06868E+00
  -9.00248E-01 -1.03125E+00 -8.17173E-01 -9.88766E-01 -7.50197E-01 -9.42513E-01 -6.94810E-01 -8.87864E-01 -6.60323E-01 -7.82143E-01
  -5.33845E-01 -5.89272E-01 -3.44803E-01 -3.60924E-01 -1.78156E-01 -2.34414E-01 -1.05989E-01 -1.88526E-01 -1.04751E-01 -1.85383E-01
  -1.18524E-01 -1.77116E-01 -1.07825E-01 -1.21654E-01 -5.46736E-02 -3.99483E-02  1.51673E-02  4.63831E-02  8.63260E-02  1.25558E-01
   1.65989E-01  2.14844E-01  2.77135E-01  3.57135E-01  4.62086E-01  5.97975E-01  7.75490E-01  1.00370E+00  1.29520E+00  1.66250E+00
   2.11974E+00  2.68051E+00  3.35814E+00  4.16410E+00  5.10658E+00  6.18993E+00  7.41248E+00  8.76640E+00  1.02362E+01  1.17983E+01
   1.34218E+01  1.50688E+01  1.66962E+01  1.82577E+01  1.97071E+01  2.10014E+01  2.21054E+01  2.29983E+01  2.36905E+01  2.42300E+01
   2.43702E+01  2.43096E+01  2.38810E+01  2.31755E+01  2.22790E+01  2.09948E+01  1.97549E+01  1.81823E+01  1.70893E+01  1.53977E+01
   1.47099E+01  1.29822E+01  1.28286E+01  1.11169E+01  1.15370E+01  9.87328E+00  1.08427E+01  9.24423E+00  1.07182E+01  9.26033E+00
   1.10468E+01  9.53092E+00  1.14283E+01  9.74053E+00  1.15799E+01  9.64368E+00  1.12916E+01  9.27840E+00  1.07869E+01  8.77052E+00
   1.01430E+01  8.18379E+00  9.43569E+00  7.61388E+00  8.75170E+00  7.14464E+00  8.16448E+00  6.82183E+00  7.69698E+00  6.59228E+00
   7.19406E+00  6.08501E+00  6.43018E+00  5.39000E+00  5.53287E+00  4.60499E+00  4.64905E+00  3.92506E+00  4.09980E+00  3.50397E+00
   3.70363E+00  3.21584E+00  3.41978E+00  3.04567E+00  3.24228E+00  2.98301E+00  3.16142E+00  3.00855E+00  3.15058E+00  3.06248E+00
   3.09615E+00  2.90532E+00  2.84401E+00  2.61333E+00  2.49481E+00  2.29175E+00  2.17229E+00  2.11057E+00  2.08374E+00  2.08465E+00
   2.10961E+00  2.15765E+00  2.22758E+00  2.31941E+00  2.43212E+00  2.56542E+00  2.71759E+00  2.88738E+00  3.07193E+00  3.26869E+00
   3.47341E+00  3.68220E+00  3.88960E+00  4.09070E+00  4.27940E+00  4.45055E+00  4.59822E+00  4.71797E+00  4.80509E+00  4.85680E+00
   4.87050E+00  4.84575E+00  4.78244E+00  4.68269E+00  4.54879E+00  4.38499E+00  4.19538E+00  3.98552E+00  3.76030E+00  3.52560E+00
   3.28612E+00  3.04714E+00  2.81240E+00  2.58597E+00  2.37020E+00  2.16771E+00  1.97945E+00  1.80671E+00  1.64925E+00  1.50734E+00
   1.37992E+00  1.26664E+00  1.16601E+00  1.07739E+00  9.99156E-01  9.30649E-01  8.70295E-01  8.17560E-01  7.71036E-01  7.30371E-01
   6.94341E-01  6.62779E-01  6.34637E-01  6.09917E-01  5.87718E-01  5.68168E-01  5.50478E-01  5.34870E-01  5.20637E-01  5.08081E-01
   4.96549E-01  4.86393E-01  4.76997E-01  4.68752E-01  4.61071E-01  4.54375E-01  4.48098E-01  4.42674E-01  4.37552E-01  4.33181E-01
   4.29023E-01  4.25540E-01  4.22200E-01  4.19467E-01  4.16818E-01  4.14725E-01  4.12673E-01  4.11135E-01  4.09600E-01  4.08541E-01
   4.07452E-01  4.06812E-01  4.06118E-01  4.05849E-01  4.05502E-01  4.05556E-01  4.05516E-01  4.05861E-01  4.06096E-01  4.06701E-01
   4.07182E-01  4.08018E-01  4.08719E-01  4.09765E-01  4.10668E-01  4.11906E-01  4.12990E-01  4.14401E-01  4.15651E-01  4.17224E-01
   4.18629E-01  4.20351E-01  4.21898E-01  4.23758E-01  4.25441E-01  4.27435E-01  4.29249E-01  4.31371E-01  4.33313E-01  4.35564E-01
   4.37637E-01  4.40022E-01  4.42233E-01  4.44764E-01  4.47133E-01  4.49838E-01  4.52402E-01  4.55336E-01
 NY background values follow
    -1.442E+00   -1.438E+00   -1.435E+00   -1.431E+00   -1.428E+00   -1.424E+00   -1.420E+00   -1.417E+00   -1.413E+00   -1.409E+00
    -1.406E+00   -1.402E+00   -1.398E+00   -1.395E+00   -1.391E+00   -1.388E+00   -1.384E+00   -1.380E+00   -1.377E+00   -1.373E+00
    -1.369E+00   -1.366E+00   -1.362E+00   -1.359E+00   -1.355E+00   -1.351E+00   -1.348E+00   -1.344E+00   -1.340E+00   -1.337E+00
    -1.333E+00   -1.330E+00   -1.326E+00   -1.322E+00   -1.319E+00   -1.315E+00   -1.311E+00   -1.308E+00   -1.304E+00   -1.301E+00
    -1.297E+00   -1.293E+00   -1.290E+00   -1.286E+00   -1.282E+00   -1.279E+00   -1.275E+00   -1.272E+00   -1.268E+00   -1.264E+00
    -1.261E+00   -1.257E+00   -1.253E+00   -1.250E+00   -1.246E+00   -1.243E+00   -1.239E+00   -1.235E+00   -1.232E+00   -1.228E+00
    -1.224E+00   -1.221E+00   -1.217E+00   -1.214E+00   -1.210E+00   -1.206E+00   -1.203E+00   -1.199E+00   -1.195E+00   -1.192E+00
    -1.188E+00   -1.185E+00   -1.181E+00   -1.177E+00   -1.174E+00   -1.170E+00   -1.166E+00   -1.163E+00   -1.159E+00   -1.156E+00
    -1.152E+00   -1.148E+00   -1.145E+00   -1.141E+00   -1.137E+00   -1.134E+00   -1.130E+00   -1.126E+00   -1.123E+00   -1.119E+00
    -1.116E+00   -1.112E+00   -1.108E+00   -1.105E+00   -1.101E+00   -1.097E+00   -1.094E+00   -1.090E+00   -1.087E+00   -1.083E+00
    -1.079E+00   -1.076E+00   -1.072E+00   -1.068E+00   -1.065E+00   -1.061E+00   -1.058E+00   -1.054E+00   -1.050E+00   -1.047E+00
    -1.043E+00   -1.039E+00   -1.036E+00   -1.032E+00   -1.029E+00   -1.025E+00   -1.021E+00   -1.018E+00   -1.014E+00   -1.010E+00
    -1.007E+00   -1.003E+00   -9.995E-01   -9.959E-01   -9.923E-01   -9.887E-01   -9.850E-01   -9.814E-01   -9.778E-01   -9.741E-01
    -9.705E-01   -9.669E-01   -9.633E-01   -9.596E-01   -9.560E-01   -9.524E-01   -9.487E-01   -9.451E-01   -9.415E-01   -9.379E-01
    -9.342E-01   -9.306E-01   -9.270E-01   -9.233E-01   -9.197E-01   -9.161E-01   -9.125E-01   -9.088E-01   -9.052E-01   -9.016E-01
    -8.979E-01   -8.943E-01   -8.907E-01   -8.871E-01   -8.834E-01   -8.798E-01   -8.762E-01   -8.725E-01   -8.689E-01   -8.653E-01
    -8.617E-01   -8.580E-01   -8.544E-01   -8.508E-01   -8.471E-01   -8.435E-01   -8.399E-01   -8.362E-01   -8.326E-01   -8.290E-01
    -8.254E-01   -8.217E-01   -8.181E-01   -8.145E-01   -8.108E-01   -8.072E-01   -8.036E-01   -7.999E-01   -7.963E-01   -7.927E-01
    -7.890E-01   -7.854E-01   -7.818E-01   -7.782E-01   -7.745E-01   -7.709E-01   -7.673E-01   -7.636E-01   -7.600E-01   -7.564E-01
    -7.527E-01   -7.491E-01   -7.455E-01   -7.418E-01   -7.382E-01   -7.346E-01   -7.309E-01   -7.273E-01   -7.237E-01   -7.200E-01
    -7.164E-01   -7.128E-01   -7.091E-01   -7.055E-01   -7.019E-01   -6.982E-01   -6.946E-01   -6.910E-01   -6.873E-01   -6.837E-01
    -6.801E-01   -6.764E-01   -6.728E-01   -6.692E-01   -6.655E-01   -6.619E-01   -6.583E-01   -6.546E-01   -6.510E-01   -6.474E-01
    -6.437E-01   -6.401E-01   -6.365E-01   -6.328E-01   -6.292E-01   -6.256E-01   -6.219E-01   -6.183E-01   -6.147E-01   -6.110E-01
    -6.074E-01   -6.037E-01   -6.001E-01   -5.965E-01   -5.928E-01   -5.892E-01   -5.856E-01   -5.819E-01   -5.783E-01   -5.747E-01
    -5.710E-01   -5.674E-01   -5.637E-01   -5.601E-01   -5.565E-01   -5.528E-01   -5.492E-01   -5.455E-01   -5.419E-01   -5.383E-01
    -5.346E-01   -5.310E-01   -5.274E-01   -5.237E-01   -5.201E-01   -5.164E-01   -5.128E-01   -5.092E-01   -5.055E-01   -5.019E-01
    -4.982E-01   -4.946E-01   -4.910E-01   -4.873E-01   -4.837E-01   -4.800E-01   -4.764E-01   -4.728E-01   -4.691E-01   -4.655E-01
    -4.618E-01   -4.582E-01   -4.546E-01   -4.509E-01   -4.473E-01   -4.436E-01   -4.400E-01   -4.363E-01   -4.327E-01   -4.291E-01
    -4.254E-01   -4.218E-01   -4.181E-01   -4.145E-01   -4.108E-01   -4.072E-01   -4.036E-01   -3.999E-01   -3.963E-01   -3.926E-01
    -3.890E-01   -3.853E-01   -3.817E-01   -3.781E-01   -3.744E-01   -3.708E-01   -3.671E-01   -3.635E-01   -3.598E-01   -3.562E-01
    -3.525E-01   -3.489E-01   -3.453E-01   -3.416E-01   -3.380E-01   -3.343E-01   -3.307E-01   -3.270E-01   -3.234E-01   -3.197E-01
    -3.161E-01   -3.124E-01   -3.088E-01   -3.052E-01   -3.015E-01   -2.979E-01   -2.942E-01   -2.906E-01   -2.869E-01   -2.833E-01
    -2.796E-01   -2.760E-01   -2.723E-01   -2.687E-01   -2.650E-01   -2.614E-01   -2.577E-01   -2.541E-01   -2.504E-01   -2.468E-01
    -2.431E-01   -2.395E-01   -2.359E-01   -2.322E-01   -2.286E-01   -2.249E-01   -2.213E-01   -2.176E-01   -2.140E-01   -2.103E-01
    -2.067E-01   -2.030E-01   -1.994E-01   -1.957E-01   -1.921E-01   -1.884E-01   -1.848E-01   -1.811E-01   -1.775E-01   -1.738E-01
    -1.702E-01   -1.665E-01   -1.629E-01   -1.592E-01   -1.556E-01   -1.519E-01   -1.483E-01   -1.446E-01   -1.410E-01   -1.373E-01
    -1.337E-01   -1.300E-01   -1.264E-01   -1.227E-01   -1.191E-01   -1.154E-01   -1.117E-01   -1.081E-01   -1.044E-01   -1.008E-01
    -9.714E-02   -9.349E-02   -8.983E-02   -8.618E-02   -8.253E-02   -7.888E-02   -7.522E-02   -7.157E-02   -6.792E-02   -6.427E-02
    -6.061E-02   -5.696E-02   -5.331E-02   -4.965E-02   -4.600E-02   -4.235E-02   -3.869E-02   -3.504E-02   -3.139E-02   -2.773E-02
    -2.408E-02   -2.042E-02   -1.677E-02   -1.312E-02   -9.463E-03   -5.808E-03   -2.154E-03    1.500E-03    5.155E-03    8.809E-03
     1.246E-02    1.612E-02    1.977E-02    2.343E-02    2.708E-02    3.074E-02    3.439E-02    3.805E-02    4.170E-02    4.536E-02
     4.901E-02    5.267E-02    5.632E-02    5.998E-02    6.363E-02    6.729E-02    7.094E-02    7.460E-02    7.826E-02    8.191E-02
     8.557E-02    8.922E-02    9.288E-02    9.653E-02    1.002E-01    1.038E-01    1.075E-01    1.112E-01    1.148E-01    1.185E-01
     1.221E-01    1.258E-01    1.294E-01    1.331E-01    1.368E-01    1.404E-01    1.441E-01    1.477E-01    1.514E-01    1.550E-01
     1.587E-01    1.623E-01    1.660E-01    1.697E-01    1.733E-01    1.770E-01    1.806E-01    1.843E-01    1.879E-01    1.916E-01
     1.953E-01    1.989E-01    2.026E-01    2.062E-01    2.099E-01    2.135E-01    2.172E-01    2.209E-01    2.245E-01    2.282E-01
     2.318E-01    2.355E-01    2.391E-01    2.428E-01    2.465E-01    2.501E-01    2.538E-01    2.574E-01    2.611E-01    2.647E-01
     2.684E-01    2.721E-01    2.757E-01    2.794E-01    2.830E-01    2.867E-01    2.903E-01    2.940E-01    2.977E-01    3.013E-01
     3.050E-01    3.086E-01    3.123E-01    3.159E-01    3.196E-01    3.233E-01    3.269E-01    3.306E-01    3.342E-01    3.379E-01
     3.415E-01    3.452E-01    3.489E-01    3.525E-01    3.562E-01    3.598E-01    3.635E-01    3.671E-01
 Ala      Conc. = 1.19E+03
