 LCModel (Version 6.3-1L) Copyright: S.W. Provencher.          Ref.: Magn. Reson. Med. 30:672-679 (1993).                
 Slice#3 Row#8 Col#7  PD_24_press_2_raw_act
 36 lines in following concentration table = NCONC+1
    Conc.  %SD /Cr+PCr  Metabolite                                         
   61.026 202% 2.3E-02 Ala                                                 
    0.000 999%   0.000 Asp                                                 
  629.985  39%   0.236 Cr                                                  
 2.04E+03  12%   0.764 PCr                                                 
    0.000 999%   0.000 GABA                                                
   65.672 318% 2.5E-02 Glc                                                 
  452.368  55%   0.169 Gln                                                 
 1.80E+03  15%   0.675 Glu                                                 
  774.656   4%   0.290 GPC                                                 
    0.000 999%   0.000 PCh                                                 
  740.637  13%   0.277 GSH                                                 
 1.85E+03  16%   0.691 Ins                                                 
  152.069  92% 5.7E-02 Lac                                                 
 3.01E+03   3%   1.126 NAA                                                 
    0.000 999%   0.000 NAAG                                                
  127.508  28% 4.8E-02 Scyllo                                              
  313.022  87%   0.117 Tau                                                 
    0.000 999%   0.000 -CrCH2                                              
  774.656   4%   0.290 GPC+PCh                                             
 3.01E+03   3%   1.126 NAA+NAAG                                            
 2.67E+03   3%   1.000 Cr+PCr                                              
 2.26E+03  16%   0.844 Glu+Gln                                             
    0.000 999%   0.000 Lip13a                                              
  465.984  51%   0.174 Lip13b                                              
    0.000 999%   0.000 Lip09                                               
 1.46E+03  17%   0.544 MM09                                                
   98.091  95% 3.7E-02 Lip20                                               
 3.36E+03  13%   1.255 MM20                                                
  480.430  30%   0.180 MM12                                                
 1.69E+03  21%   0.632 MM14                                                
  391.875  66%   0.147 MM17                                                
  465.984  51%   0.174 Lip13a+Lip13b                                       
 2.64E+03  16%   0.986 MM14+Lip13a+Lip13b+MM12                             
 1.46E+03  17%   0.544 MM09+Lip09                                          
 3.45E+03  13%   1.291 MM20+Lip20                                          
   6 lines in following misc. output table
  FWHM = 0.038 ppm    S/N =  12                                            
  Data shift = 0.015 ppm                                                   
  Ph: -18 deg     -11.1 deg/ppm                                            
  alphaB,S = 4.4E+00,   3.9E+01                                            
   14 spline knots.   Ns = 5(1)                                            
  ( 7) 3 infls.   ( 1) 1 extrs.                                            
  498 points on ppm-axis = NY
      4.000000     3.992357     3.984714     3.977070     3.969427     3.961784     3.954141     3.946497     3.938854     3.931211
      3.923568     3.915925     3.908281     3.900638     3.892995     3.885352     3.877708     3.870065     3.862422     3.854779
      3.847136     3.839492     3.831849     3.824206     3.816563     3.808919     3.801276     3.793633     3.785990     3.778347
      3.770703     3.763060     3.755417     3.747774     3.740130     3.732487     3.724844     3.717201     3.709558     3.701914
      3.694271     3.686628     3.678985     3.671341     3.663698     3.656055     3.648412     3.640769     3.633125     3.625482
      3.617839     3.610196     3.602552     3.594909     3.587266     3.579623     3.571980     3.564336     3.556693     3.549050
      3.541407     3.533763     3.526120     3.518477     3.510834     3.503191     3.495547     3.487904     3.480261     3.472618
      3.464974     3.457331     3.449688     3.442045     3.434402     3.426758     3.419115     3.411472     3.403829     3.396185
      3.388542     3.380899     3.373256     3.365613     3.357969     3.350326     3.342683     3.335040     3.327396     3.319753
      3.312110     3.304467     3.296824     3.289180     3.281537     3.273894     3.266251     3.258607     3.250964     3.243321
      3.235678     3.228034     3.220391     3.212748     3.205105     3.197462     3.189818     3.182175     3.174532     3.166889
      3.159245     3.151602     3.143959     3.136316     3.128673     3.121029     3.113386     3.105743     3.098100     3.090456
      3.082813     3.075170     3.067527     3.059884     3.052240     3.044597     3.036954     3.029311     3.021667     3.014024
      3.006381     2.998738     2.991095     2.983451     2.975808     2.968165     2.960522     2.952878     2.945235     2.937592
      2.929949     2.922306     2.914662     2.907019     2.899376     2.891733     2.884089     2.876446     2.868803     2.861160
      2.853517     2.845873     2.838230     2.830587     2.822944     2.815300     2.807657     2.800014     2.792371     2.784728
      2.777084     2.769441     2.761798     2.754155     2.746511     2.738868     2.731225     2.723582     2.715939     2.708295
      2.700652     2.693009     2.685366     2.677722     2.670079     2.662436     2.654793     2.647150     2.639506     2.631863
      2.624220     2.616577     2.608933     2.601290     2.593647     2.586004     2.578361     2.570717     2.563074     2.555431
      2.547788     2.540144     2.532501     2.524858     2.517215     2.509572     2.501928     2.494285     2.486642     2.478999
      2.471355     2.463712     2.456069     2.448426     2.440783     2.433139     2.425496     2.417853     2.410210     2.402566
      2.394923     2.387280     2.379637     2.371994     2.364350     2.356707     2.349064     2.341421     2.333777     2.326134
      2.318491     2.310848     2.303205     2.295561     2.287918     2.280275     2.272632     2.264988     2.257345     2.249702
      2.242059     2.234416     2.226772     2.219129     2.211486     2.203843     2.196199     2.188556     2.180913     2.173270
      2.165627     2.157983     2.150340     2.142697     2.135054     2.127410     2.119767     2.112124     2.104481     2.096838
      2.089194     2.081551     2.073908     2.066265     2.058621     2.050978     2.043335     2.035692     2.028049     2.020405
      2.012762     2.005119     1.997476     1.989833     1.982190     1.974546     1.966903     1.959260     1.951617     1.943974
      1.936331     1.928688     1.921045     1.913402     1.905759     1.898115     1.890472     1.882829     1.875186     1.867543
      1.859900     1.852257     1.844614     1.836971     1.829327     1.821684     1.814041     1.806398     1.798755     1.791112
      1.783469     1.775826     1.768183     1.760540     1.752896     1.745253     1.737610     1.729967     1.722324     1.714681
      1.707038     1.699395     1.691752     1.684108     1.676465     1.668822     1.661179     1.653536     1.645893     1.638250
      1.630607     1.622964     1.615321     1.607677     1.600034     1.592391     1.584748     1.577105     1.569462     1.561819
      1.554176     1.546533     1.538890     1.531246     1.523603     1.515960     1.508317     1.500674     1.493031     1.485388
      1.477745     1.470102     1.462458     1.454815     1.447172     1.439529     1.431886     1.424243     1.416600     1.408957
      1.401314     1.393671     1.386027     1.378384     1.370741     1.363098     1.355455     1.347812     1.340169     1.332526
      1.324883     1.317240     1.309596     1.301953     1.294310     1.286667     1.279024     1.271381     1.263738     1.256095
      1.248452     1.240808     1.233165     1.225522     1.217879     1.210236     1.202593     1.194950     1.187307     1.179664
      1.172021     1.164377     1.156734     1.149091     1.141448     1.133805     1.126162     1.118519     1.110876     1.103233
      1.095590     1.087946     1.080303     1.072660     1.065017     1.057374     1.049731     1.042088     1.034445     1.026802
      1.019158     1.011515     1.003872     0.996229     0.988586     0.980943     0.973300     0.965657     0.958014     0.950371
      0.942727     0.935084     0.927441     0.919798     0.912155     0.904512     0.896869     0.889226     0.881583     0.873940
      0.866296     0.858653     0.851010     0.843367     0.835724     0.828081     0.820438     0.812795     0.805152     0.797508
      0.789865     0.782222     0.774579     0.766936     0.759293     0.751650     0.744007     0.736364     0.728721     0.721077
      0.713434     0.705791     0.698148     0.690505     0.682862     0.675219     0.667576     0.659933     0.652290     0.644646
      0.637003     0.629360     0.621717     0.614074     0.606431     0.598788     0.591145     0.583502     0.575858     0.568215
      0.560572     0.552929     0.545286     0.537643     0.530000     0.522357     0.514714     0.507071     0.499427     0.491784
      0.484141     0.476498     0.468855     0.461212     0.453569     0.445925     0.438282     0.430639     0.422996     0.415353
      0.407710     0.400067     0.392424     0.384780     0.377137     0.369494     0.361851     0.354208     0.346565     0.338922
      0.331278     0.323635     0.315992     0.308349     0.300706     0.293063     0.285420     0.277777     0.270133     0.262490
      0.254847     0.247204     0.239561     0.231918     0.224275     0.216631     0.208988     0.201345
 NY phased data points follow
   5.77293E+00  5.97037E+00  5.93363E+00  3.25163E-01  1.51463E+01  3.28440E+01  3.87718E+01  5.42047E+01  6.67337E+01  7.46856E+01
   7.86828E+01  7.74907E+01  7.01308E+01  5.70692E+01  4.47423E+01  3.22953E+01  2.22821E+01  1.60738E+01  1.71795E+01  1.13612E+01
   6.34014E+00  8.05711E+00  1.46040E+01  1.65394E+01  1.80770E+01  1.51240E+01  2.42738E+01  1.92674E+01  3.01696E+01  3.74486E+01
   3.36637E+01  3.75630E+01  3.05914E+01  3.05226E+01  2.86367E+01  2.52725E+01  2.02708E+01  1.80380E+01  1.72448E+01  2.59731E+01
   2.16043E+01  2.34315E+01  2.66573E+01  2.36528E+01  3.50606E+01  2.29735E+01  2.90701E+01  4.09850E+01  3.93605E+01  3.69250E+01
   2.90706E+01  2.52857E+01  2.34797E+01  2.02078E+01  2.48371E+01  1.87730E+01  2.16501E+01  2.13789E+01  2.78937E+01  2.76959E+01
   1.58815E+01  1.84517E+01  1.51302E+01  1.50194E+01  1.16738E+01  1.69901E+01  1.21000E+01  1.04204E+01  1.33644E+01  1.51886E+01
   1.17180E+01  1.95984E+01  1.55216E+01  1.67433E+01  1.19603E+01  1.73230E+01  1.47968E+01  2.30309E+01  8.58387E+00  1.41486E+01
   8.68577E+00  1.89954E+01  1.36627E+01  1.34779E+01  1.57977E+01  2.20006E+01  1.84230E+01  1.80657E+01  1.86944E+01  2.25725E+01
   1.17655E+01  2.13086E+01  1.45378E+01  2.14444E+01  2.49035E+01  2.29353E+01  1.64042E+01  2.69223E+01  3.55572E+01  4.06790E+01
   5.58065E+01  7.01266E+01  8.66075E+01  9.61651E+01  1.00347E+02  8.16841E+01  6.33344E+01  4.55079E+01  3.20457E+01  3.11634E+01
   2.94532E+01  2.87893E+01  2.27928E+01  1.29452E+01  1.85566E+01  2.14797E+01  2.03985E+01  2.30684E+01  1.84178E+01  1.83438E+01
   1.85446E+01  2.74272E+01  3.73040E+01  4.98856E+01  5.64902E+01  8.98370E+01  1.04007E+02  1.22734E+02  1.17651E+02  1.09029E+02
   8.01063E+01  5.69472E+01  3.93162E+01  3.89869E+01  2.92545E+01  2.94815E+01  2.36906E+01  1.98840E+01  1.61498E+01  1.51419E+01
   2.08479E+01  2.34204E+01  1.63528E+01  2.25068E+01  1.43026E+01  1.89510E+01  1.19346E+01  1.85369E+01  1.88233E+01  1.61207E+01
   2.08524E+01  2.08801E+01  1.52931E+01  1.77192E+01  1.82052E+01  1.39734E+01  1.59937E+01  1.69794E+01  1.16255E+01  1.62479E+01
   2.40420E+01  1.29094E+01  1.48184E+01  9.22111E+00  1.39403E+01  2.06237E+01  2.24478E+01  2.31278E+01  2.16160E+01  1.09261E+01
   8.76943E+00  5.95703E+00  9.85905E+00  2.96241E+00 -1.08822E+00  1.59831E+00 -5.06231E+00  1.78285E+00 -3.08696E+00  6.28018E+00
   1.11530E+00  3.20973E+00 -6.49137E+00  1.46220E+00  8.37928E-01  8.74747E+00  1.85898E+00  2.50554E+00  1.25255E+01  7.60647E+00
   1.54296E+01  2.31296E+01  2.01535E+01  2.65314E+01  2.23914E+01  1.53276E+01  1.79335E+01  2.42746E+01  1.59122E+01  1.34759E+01
   1.04438E+01  1.25343E+01  1.40413E+01  2.03320E+01  1.70550E+01  2.20732E+01  1.11352E+01  1.45475E+01  2.04299E+01  4.23167E+00
   3.89317E+00  1.58343E+01  1.10981E+01  2.13448E+01  2.72490E+01  2.90553E+01  3.45522E+01  2.92813E+01  2.56863E+01  1.83004E+01
   1.94259E+01  1.31300E+01  5.45702E+00  1.20949E+01  1.08908E+01  1.65234E+01  2.62112E+01  3.07902E+01  2.98758E+01  2.58261E+01
   3.25634E+01  3.50034E+01  2.22649E+01  2.82846E+01  2.89238E+01  2.96589E+01  2.51651E+01  2.67418E+01  2.13311E+01  2.83276E+01
   2.43327E+01  2.00814E+01  1.92392E+01  2.65718E+01  1.57245E+01  2.74686E+01  2.33801E+01  3.88698E+01  3.36771E+01  3.67632E+01
   3.92948E+01  3.71443E+01  2.73795E+01  4.03779E+01  4.27120E+01  4.36146E+01  5.38328E+01  7.67205E+01  9.72124E+01  1.16845E+02
   1.41818E+02  1.50888E+02  1.40448E+02  1.02113E+02  6.73727E+01  4.65488E+01  3.31686E+01  3.48701E+01  3.08778E+01  2.62092E+01
   1.94018E+01  2.48484E+01  2.64199E+01  2.75430E+01  2.95943E+01  2.28354E+01  1.36415E+01  2.57407E+01  2.23979E+01  1.80468E+01
   1.70784E+01  1.59475E+01  2.39164E+01  2.38305E+01  1.44387E+01  2.30235E+01  1.19060E+01  1.20701E+01  2.02053E+01  1.24343E+01
   1.91516E+01  1.64046E+01  1.63745E+01  1.72394E+01  1.10293E+01  1.70603E+01  1.70889E+01  1.60434E+01  1.83958E+01  1.81605E+01
   1.31626E+01  1.89534E+01  1.90334E+01  2.08542E+01  1.79251E+01  2.31595E+01  1.65934E+01  2.45609E+01  1.85175E+01  2.08500E+01
   2.26723E+01  2.52502E+01  2.39032E+01  2.43556E+01  2.02960E+01  2.29834E+01  2.25116E+01  2.83977E+01  2.29650E+01  2.30503E+01
   1.80155E+01  2.75707E+01  1.96349E+01  1.87608E+01  2.94905E+01  3.03326E+01  2.28852E+01  3.37103E+01  3.05923E+01  2.65647E+01
   2.34806E+01  2.62159E+01  2.35558E+01  3.19597E+01  2.43175E+01  2.58853E+01  3.25684E+01  2.82082E+01  3.68257E+01  2.47380E+01
   2.03091E+01  1.99409E+01  2.17894E+01  1.53497E+01  2.28761E+01  3.20199E+01  2.51447E+01  2.26339E+01  2.51675E+01  2.60228E+01
   2.02197E+01  2.45227E+01  1.56115E+01  2.29680E+01  3.52620E+01  2.59684E+01  2.74729E+01  3.08838E+01  2.37350E+01  2.81906E+01
   2.67499E+01  2.81454E+01  2.65344E+01  2.39331E+01  2.62247E+01  2.35701E+01  1.92024E+01  2.53373E+01  2.29071E+01  2.35716E+01
   2.47163E+01  2.02222E+01  2.33913E+01  2.17334E+01  2.48763E+01  2.28232E+01  2.12434E+01  2.62954E+01  2.02660E+01  1.49815E+01
   2.02786E+01  2.12219E+01  1.55831E+01  2.05466E+01  1.78204E+01  1.03325E+01  2.66609E+01  1.56574E+01  1.60682E+01  2.59372E+01
   1.87535E+01  2.04266E+01  2.30201E+01  2.36236E+01  1.70514E+01  2.24870E+01  2.34482E+01  1.67460E+01  2.35298E+01  2.14511E+01
   2.51289E+01  2.52487E+01  1.94618E+01  3.10945E+01  1.84735E+01  2.56811E+01  2.71437E+01  2.57564E+01  2.62901E+01  2.43657E+01
   2.32516E+01  2.83678E+01  2.32477E+01  2.61930E+01  3.06663E+01  2.14979E+01  2.00780E+01  2.21744E+01  2.81242E+01  3.42012E+01
   2.20643E+01  2.62998E+01  1.85027E+01  2.80413E+01  1.74795E+01  1.75332E+01  2.99435E+01  2.07963E+01  2.23465E+01  1.72031E+01
   2.12670E+01  1.90533E+01  1.70577E+01  2.32913E+01  2.18513E+01  2.13328E+01  2.12656E+01  1.97260E+01  2.32521E+01  1.91886E+01
   7.32319E+00  2.20414E+01  2.56956E+01  2.17627E+01  2.09319E+01  2.40916E+01  2.27096E+01  2.48761E+01  2.15237E+01  1.90722E+01
   1.77858E+01  2.30855E+01  2.38472E+01  2.75219E+01  2.41635E+01  2.03027E+01  1.92661E+01  2.22159E+01  1.25152E+01  2.03565E+01
   2.41314E+01  1.95647E+01  1.72535E+01  2.83971E+01  1.97468E+01  2.39763E+01  1.82347E+01  2.28914E+01  2.26592E+01  2.62384E+01
   1.89108E+01  1.95230E+01  1.78301E+01  1.23810E+01  1.70257E+01  2.13961E+01  1.76882E+01  2.02408E+01  1.54012E+01  1.65758E+01
   2.12667E+01  1.45418E+01  2.11400E+01  2.10287E+01  1.58802E+01  2.01013E+01  1.63798E+01  2.49685E+01  1.72226E+01  1.75728E+01
   1.37053E+01  1.67465E+01  2.23364E+01  1.34807E+01  1.95203E+01  1.81913E+01  1.76010E+01  1.65723E+01
 NY points of the fit to the data follow
   1.14481E+01  1.09137E+01  1.10483E+01  1.28840E+01  1.88497E+01  2.70252E+01  3.69982E+01  4.98525E+01  6.38102E+01  7.58516E+01
   8.17786E+01  7.82514E+01  6.69109E+01  5.33390E+01  4.13531E+01  3.17624E+01  2.60502E+01  2.30611E+01  2.11572E+01  1.98604E+01
   1.88889E+01  1.81533E+01  1.75000E+01  1.65702E+01  1.60729E+01  1.72983E+01  1.91358E+01  2.16243E+01  2.54824E+01  3.04210E+01
   3.53275E+01  3.80863E+01  3.73597E+01  3.38320E+01  2.96253E+01  2.56765E+01  2.17243E+01  1.88241E+01  1.72100E+01  1.63734E+01
   1.61440E+01  1.70200E+01  1.92850E+01  2.20958E+01  2.48834E+01  2.78129E+01  3.08117E+01  3.32575E+01  3.36983E+01  3.11622E+01
   2.65792E+01  2.19191E+01  1.84070E+01  1.62795E+01  1.56362E+01  1.61120E+01  1.71490E+01  1.83975E+01  1.96160E+01  2.07199E+01
   2.14041E+01  2.12053E+01  2.00290E+01  1.82580E+01  1.66485E+01  1.55860E+01  1.54130E+01  1.60638E+01  1.70102E+01  1.78785E+01
   1.86356E+01  1.93276E+01  1.97695E+01  1.98936E+01  1.97261E+01  1.92700E+01  1.87509E+01  1.81124E+01  1.72349E+01  1.63807E+01
   1.59139E+01  1.60932E+01  1.70129E+01  1.79446E+01  1.87408E+01  1.95046E+01  2.00139E+01  1.98934E+01  1.87966E+01  1.69142E+01
   1.52053E+01  1.45846E+01  1.46733E+01  1.48497E+01  1.52016E+01  1.55055E+01  1.62553E+01  2.00736E+01  2.98320E+01  4.14780E+01
   5.48225E+01  7.13069E+01  8.81599E+01  9.96654E+01  9.92087E+01  8.46129E+01  6.28917E+01  4.43314E+01  3.21107E+01  2.40908E+01
   2.03599E+01  1.88367E+01  1.80165E+01  1.75306E+01  1.71871E+01  1.69249E+01  1.67401E+01  1.66333E+01  1.66271E+01  1.68494E+01
   1.77666E+01  2.18800E+01  3.37402E+01  4.85254E+01  6.47609E+01  8.47890E+01  1.05988E+02  1.21402E+02  1.23002E+02  1.07019E+02
   8.05560E+01  5.70307E+01  4.17245E+01  3.12269E+01  2.53023E+01  2.16827E+01  1.86890E+01  1.68699E+01  1.65959E+01  1.76048E+01
   1.93090E+01  2.10150E+01  2.19706E+01  2.19346E+01  2.11640E+01  2.00501E+01  1.90526E+01  1.83083E+01  1.77543E+01  1.73476E+01
   1.69566E+01  1.65751E+01  1.62333E+01  1.59793E+01  1.58485E+01  1.57903E+01  1.55760E+01  1.52727E+01  1.49133E+01  1.43927E+01
   1.38753E+01  1.33594E+01  1.31116E+01  1.35563E+01  1.44550E+01  1.50485E+01  1.48088E+01  1.38490E+01  1.26153E+01  1.16588E+01
   1.10632E+01  1.04463E+01  9.84092E+00  9.44298E+00  8.98746E+00  8.46676E+00  8.03490E+00  8.10169E+00  8.83393E+00  9.67066E+00
   9.86444E+00  9.35813E+00  8.65571E+00  8.42251E+00  8.72109E+00  9.22987E+00  9.97115E+00  1.14430E+01  1.37793E+01  1.66739E+01
   1.94397E+01  2.11121E+01  2.12230E+01  1.99511E+01  1.80776E+01  1.62398E+01  1.49030E+01  1.42576E+01  1.44518E+01  1.57039E+01
   1.77231E+01  1.99821E+01  2.19023E+01  2.31914E+01  2.37855E+01  2.29812E+01  2.10200E+01  1.82881E+01  1.51568E+01  1.26044E+01
   1.13610E+01  1.21094E+01  1.44741E+01  1.77658E+01  2.16199E+01  2.53501E+01  2.78130E+01  2.71926E+01  2.31828E+01  1.76081E+01
   1.24471E+01  8.61953E+00  6.61462E+00  7.23215E+00  1.06692E+01  1.58717E+01  2.08013E+01  2.38983E+01  2.52552E+01  2.53525E+01
   2.44665E+01  2.32564E+01  2.28436E+01  2.35271E+01  2.49465E+01  2.65822E+01  2.78799E+01  2.85303E+01  2.80446E+01  2.64429E+01
   2.43957E+01  2.27861E+01  2.21865E+01  2.28005E+01  2.46131E+01  2.72771E+01  2.99628E+01  3.17434E+01  3.23712E+01  3.22774E+01
   3.18285E+01  3.14066E+01  3.15409E+01  3.25970E+01  3.55367E+01  4.55282E+01  6.20188E+01  7.83787E+01  9.77005E+01  1.20587E+02
   1.40703E+02  1.48502E+02  1.36151E+02  1.06196E+02  7.37004E+01  5.09730E+01  3.66529E+01  2.80239E+01  2.49929E+01  2.36727E+01
   2.27748E+01  2.21260E+01  2.17556E+01  2.15812E+01  2.15657E+01  2.15631E+01  2.14088E+01  2.10846E+01  2.06764E+01  2.02414E+01
   1.98170E+01  1.94506E+01  1.91774E+01  1.90004E+01  1.88884E+01  1.88015E+01  1.87232E+01  1.86554E+01  1.85954E+01  1.85527E+01
   1.85338E+01  1.85420E+01  1.85758E+01  1.86321E+01  1.87107E+01  1.88087E+01  1.89200E+01  1.90423E+01  1.91768E+01  1.93224E+01
   1.94763E+01  1.96368E+01  1.98017E+01  1.99693E+01  2.01374E+01  2.03033E+01  2.04649E+01  2.06230E+01  2.07796E+01  2.09368E+01
   2.10970E+01  2.12628E+01  2.14363E+01  2.16201E+01  2.18173E+01  2.20316E+01  2.22661E+01  2.25233E+01  2.28050E+01  2.31136E+01
   2.34535E+01  2.38368E+01  2.42802E+01  2.47111E+01  2.50858E+01  2.54282E+01  2.56920E+01  2.58034E+01  2.57233E+01  2.54883E+01
   2.52921E+01  2.53036E+01  2.54653E+01  2.57030E+01  2.60234E+01  2.63912E+01  2.67015E+01  2.68350E+01  2.67188E+01  2.64312E+01
   2.61286E+01  2.59002E+01  2.58267E+01  2.58007E+01  2.56917E+01  2.55921E+01  2.54327E+01  2.50512E+01  2.43578E+01  2.34613E+01
   2.28782E+01  2.29536E+01  2.35920E+01  2.45875E+01  2.58367E+01  2.71532E+01  2.81673E+01  2.85464E+01  2.81851E+01  2.73548E+01
   2.63903E+01  2.53846E+01  2.44346E+01  2.36098E+01  2.28963E+01  2.22946E+01  2.18040E+01  2.14167E+01  2.11185E+01  2.08929E+01
   2.07232E+01  2.05951E+01  2.04972E+01  2.04214E+01  2.03624E+01  2.03175E+01  2.02858E+01  2.02676E+01  2.02638E+01  2.02757E+01
   2.03047E+01  2.03522E+01  2.04199E+01  2.05095E+01  2.06221E+01  2.07592E+01  2.09215E+01  2.11104E+01  2.13266E+01  2.15707E+01
   2.18429E+01  2.21427E+01  2.24692E+01  2.28209E+01  2.31957E+01  2.35904E+01  2.40006E+01  2.44212E+01  2.48461E+01  2.52685E+01
   2.56806E+01  2.60743E+01  2.64408E+01  2.67714E+01  2.70581E+01  2.72934E+01  2.74707E+01  2.75847E+01  2.76319E+01  2.76102E+01
   2.75200E+01  2.73632E+01  2.71436E+01  2.68666E+01  2.65389E+01  2.61683E+01  2.57637E+01  2.53340E+01  2.48880E+01  2.44342E+01
   2.39806E+01  2.35345E+01  2.31019E+01  2.26881E+01  2.22967E+01  2.19306E+01  2.15915E+01  2.12805E+01  2.09977E+01  2.07424E+01
   2.05136E+01  2.03098E+01  2.01293E+01  1.99704E+01  1.98312E+01  1.97098E+01  1.96042E+01  1.95127E+01  1.94338E+01  1.93662E+01
   1.93084E+01  1.92592E+01  1.92175E+01  1.91823E+01  1.91531E+01  1.91291E+01  1.91096E+01  1.90940E+01  1.90818E+01  1.90727E+01
   1.90664E+01  1.90625E+01  1.90608E+01  1.90609E+01  1.90626E+01  1.90659E+01  1.90706E+01  1.90766E+01  1.90837E+01  1.90917E+01
   1.91005E+01  1.91103E+01  1.91208E+01  1.91321E+01  1.91439E+01  1.91562E+01  1.91690E+01  1.91824E+01  1.91964E+01  1.92106E+01
   1.92252E+01  1.92401E+01  1.92554E+01  1.92712E+01  1.92872E+01  1.93035E+01  1.93200E+01  1.93367E+01  1.93538E+01  1.93713E+01
   1.93889E+01  1.94067E+01  1.94246E+01  1.94429E+01  1.94616E+01  1.94805E+01  1.94996E+01  1.95188E+01  1.95384E+01  1.95583E+01
   1.95787E+01  1.95993E+01  1.96202E+01  1.96414E+01  1.96630E+01  1.96852E+01  1.97080E+01  1.97312E+01
 NY background values follow
     1.016E+01    1.020E+01    1.023E+01    1.027E+01    1.031E+01    1.034E+01    1.038E+01    1.042E+01    1.045E+01    1.049E+01
     1.053E+01    1.057E+01    1.060E+01    1.064E+01    1.068E+01    1.071E+01    1.075E+01    1.079E+01    1.082E+01    1.086E+01
     1.089E+01    1.093E+01    1.097E+01    1.100E+01    1.104E+01    1.108E+01    1.111E+01    1.115E+01    1.118E+01    1.122E+01
     1.125E+01    1.129E+01    1.132E+01    1.136E+01    1.139E+01    1.143E+01    1.146E+01    1.150E+01    1.153E+01    1.156E+01
     1.160E+01    1.163E+01    1.167E+01    1.170E+01    1.173E+01    1.176E+01    1.180E+01    1.183E+01    1.186E+01    1.189E+01
     1.193E+01    1.196E+01    1.199E+01    1.202E+01    1.205E+01    1.208E+01    1.211E+01    1.214E+01    1.217E+01    1.220E+01
     1.223E+01    1.226E+01    1.229E+01    1.232E+01    1.235E+01    1.238E+01    1.240E+01    1.243E+01    1.246E+01    1.249E+01
     1.251E+01    1.254E+01    1.257E+01    1.259E+01    1.262E+01    1.265E+01    1.267E+01    1.270E+01    1.272E+01    1.275E+01
     1.277E+01    1.280E+01    1.282E+01    1.285E+01    1.287E+01    1.289E+01    1.292E+01    1.294E+01    1.296E+01    1.298E+01
     1.300E+01    1.303E+01    1.305E+01    1.307E+01    1.309E+01    1.311E+01    1.313E+01    1.315E+01    1.317E+01    1.319E+01
     1.321E+01    1.323E+01    1.325E+01    1.327E+01    1.328E+01    1.330E+01    1.332E+01    1.334E+01    1.335E+01    1.337E+01
     1.339E+01    1.340E+01    1.342E+01    1.344E+01    1.345E+01    1.347E+01    1.348E+01    1.350E+01    1.351E+01    1.353E+01
     1.354E+01    1.355E+01    1.357E+01    1.358E+01    1.360E+01    1.361E+01    1.362E+01    1.363E+01    1.365E+01    1.366E+01
     1.367E+01    1.368E+01    1.369E+01    1.371E+01    1.372E+01    1.373E+01    1.374E+01    1.375E+01    1.376E+01    1.377E+01
     1.378E+01    1.379E+01    1.380E+01    1.381E+01    1.382E+01    1.383E+01    1.384E+01    1.385E+01    1.385E+01    1.386E+01
     1.387E+01    1.388E+01    1.389E+01    1.390E+01    1.391E+01    1.392E+01    1.392E+01    1.393E+01    1.394E+01    1.395E+01
     1.396E+01    1.397E+01    1.398E+01    1.399E+01    1.400E+01    1.400E+01    1.401E+01    1.402E+01    1.403E+01    1.404E+01
     1.405E+01    1.406E+01    1.407E+01    1.408E+01    1.409E+01    1.410E+01    1.412E+01    1.413E+01    1.414E+01    1.415E+01
     1.416E+01    1.417E+01    1.419E+01    1.420E+01    1.421E+01    1.423E+01    1.424E+01    1.425E+01    1.427E+01    1.428E+01
     1.430E+01    1.431E+01    1.433E+01    1.434E+01    1.436E+01    1.437E+01    1.439E+01    1.440E+01    1.442E+01    1.444E+01
     1.445E+01    1.447E+01    1.449E+01    1.450E+01    1.452E+01    1.454E+01    1.456E+01    1.457E+01    1.459E+01    1.461E+01
     1.463E+01    1.464E+01    1.466E+01    1.468E+01    1.470E+01    1.471E+01    1.473E+01    1.475E+01    1.477E+01    1.479E+01
     1.481E+01    1.482E+01    1.484E+01    1.486E+01    1.488E+01    1.490E+01    1.492E+01    1.493E+01    1.495E+01    1.497E+01
     1.499E+01    1.501E+01    1.503E+01    1.504E+01    1.506E+01    1.508E+01    1.510E+01    1.512E+01    1.513E+01    1.515E+01
     1.517E+01    1.519E+01    1.521E+01    1.522E+01    1.524E+01    1.526E+01    1.528E+01    1.530E+01    1.531E+01    1.533E+01
     1.535E+01    1.537E+01    1.539E+01    1.540E+01    1.542E+01    1.544E+01    1.546E+01    1.548E+01    1.549E+01    1.551E+01
     1.553E+01    1.555E+01    1.557E+01    1.558E+01    1.560E+01    1.562E+01    1.564E+01    1.566E+01    1.567E+01    1.569E+01
     1.571E+01    1.573E+01    1.575E+01    1.576E+01    1.578E+01    1.580E+01    1.582E+01    1.584E+01    1.586E+01    1.587E+01
     1.589E+01    1.591E+01    1.593E+01    1.595E+01    1.596E+01    1.598E+01    1.600E+01    1.602E+01    1.604E+01    1.606E+01
     1.607E+01    1.609E+01    1.611E+01    1.613E+01    1.615E+01    1.617E+01    1.618E+01    1.620E+01    1.622E+01    1.624E+01
     1.626E+01    1.628E+01    1.629E+01    1.631E+01    1.633E+01    1.635E+01    1.637E+01    1.639E+01    1.641E+01    1.643E+01
     1.644E+01    1.646E+01    1.648E+01    1.650E+01    1.652E+01    1.654E+01    1.656E+01    1.658E+01    1.660E+01    1.662E+01
     1.664E+01    1.665E+01    1.667E+01    1.669E+01    1.671E+01    1.673E+01    1.675E+01    1.677E+01    1.679E+01    1.681E+01
     1.683E+01    1.685E+01    1.687E+01    1.689E+01    1.691E+01    1.693E+01    1.695E+01    1.697E+01    1.699E+01    1.701E+01
     1.703E+01    1.705E+01    1.707E+01    1.709E+01    1.711E+01    1.713E+01    1.715E+01    1.717E+01    1.719E+01    1.721E+01
     1.723E+01    1.725E+01    1.727E+01    1.729E+01    1.731E+01    1.733E+01    1.735E+01    1.737E+01    1.739E+01    1.741E+01
     1.743E+01    1.745E+01    1.747E+01    1.749E+01    1.752E+01    1.754E+01    1.756E+01    1.758E+01    1.760E+01    1.762E+01
     1.764E+01    1.766E+01    1.768E+01    1.770E+01    1.773E+01    1.775E+01    1.777E+01    1.779E+01    1.781E+01    1.783E+01
     1.785E+01    1.787E+01    1.790E+01    1.792E+01    1.794E+01    1.796E+01    1.798E+01    1.801E+01    1.803E+01    1.805E+01
     1.807E+01    1.809E+01    1.812E+01    1.814E+01    1.816E+01    1.818E+01    1.821E+01    1.823E+01    1.825E+01    1.827E+01
     1.830E+01    1.832E+01    1.834E+01    1.837E+01    1.839E+01    1.841E+01    1.844E+01    1.846E+01    1.848E+01    1.851E+01
     1.853E+01    1.856E+01    1.858E+01    1.860E+01    1.863E+01    1.865E+01    1.868E+01    1.870E+01    1.872E+01    1.875E+01
     1.877E+01    1.880E+01    1.882E+01    1.885E+01    1.887E+01    1.890E+01    1.892E+01    1.894E+01    1.897E+01    1.899E+01
     1.902E+01    1.904E+01    1.907E+01    1.909E+01    1.911E+01    1.914E+01    1.916E+01    1.919E+01    1.921E+01    1.923E+01
     1.926E+01    1.928E+01    1.930E+01    1.933E+01    1.935E+01    1.937E+01    1.940E+01    1.942E+01    1.944E+01    1.947E+01
     1.949E+01    1.951E+01    1.953E+01    1.955E+01    1.958E+01    1.960E+01    1.962E+01    1.964E+01    1.966E+01    1.968E+01
     1.971E+01    1.973E+01    1.975E+01    1.977E+01    1.979E+01    1.981E+01    1.983E+01    1.985E+01    1.987E+01    1.989E+01
     1.991E+01    1.993E+01    1.995E+01    1.997E+01    1.999E+01    2.001E+01    2.003E+01    2.005E+01    2.007E+01    2.009E+01
     2.011E+01    2.012E+01    2.014E+01    2.016E+01    2.018E+01    2.020E+01    2.022E+01    2.024E+01    2.026E+01    2.028E+01
     2.029E+01    2.031E+01    2.033E+01    2.035E+01    2.037E+01    2.039E+01    2.041E+01    2.043E+01
 Ala      Conc. = 6.10E+01
