 LCModel (Version 6.3-1L) Copyright: S.W. Provencher.          Ref.: Magn. Reson. Med. 30:672-679 (1993).                
 Slice#2 Row#5 Col#1  PD_24_press_2_raw_act
 36 lines in following concentration table = NCONC+1
    Conc.  %SD /Cr+PCr  Metabolite                                         
  192.835  63%   0.550 Ala                                                 
   27.367 225% 7.8E-02 Asp                                                 
    0.000 999%   0.000 Cr                                                  
  350.393  18%   1.000 PCr                                                 
   23.865 155% 6.8E-02 GABA                                                
   25.584 145% 7.3E-02 Glc                                                 
    3.642 999% 1.0E-02 Gln                                                 
  237.507 109%   0.678 Glu                                                 
  103.409  23%   0.295 GPC                                                 
    0.000 999%   0.000 PCh                                                 
  312.420  28%   0.892 GSH                                                 
  876.539  34%   2.502 Ins                                                 
    0.000 999%   0.000 Lac                                                 
  232.412  30%   0.663 NAA                                                 
    0.000 999%   0.000 NAAG                                                
   14.498  82% 4.1E-02 Scyllo                                              
   42.474 144%   0.121 Tau                                                 
  274.580  35%   0.784 -CrCH2                                              
  103.409  23%   0.295 GPC+PCh                                             
  232.412  30%   0.663 NAA+NAAG                                            
  350.393  18%   1.000 Cr+PCr                                              
  241.149 142%   0.688 Glu+Gln                                             
    0.000 999%   0.000 Lip13a                                              
    0.000 999%   0.000 Lip13b                                              
    0.000 999%   0.000 Lip09                                               
 1.04E+03  20%   2.973 MM09                                                
    0.000 999%   0.000 Lip20                                               
 1.44E+03  23%   4.097 MM20                                                
  301.468  30%   0.860 MM12                                                
 1.30E+03  18%   3.712 MM14                                                
  894.569  17%   2.553 MM17                                                
    0.000 999%   0.000 Lip13a+Lip13b                                       
 1.60E+03  18%   4.573 MM14+Lip13a+Lip13b+MM12                             
 1.04E+03  20%   2.973 MM09+Lip09                                          
 1.44E+03  23%   4.097 MM20+Lip20                                          
   6 lines in following misc. output table
  FWHM = 0.046 ppm    S/N =   2                                            
  Data shift = 0.031 ppm                                                   
  Ph:   0 deg     -26.4 deg/ppm                                            
  alphaB,S = 9.0E-01,   3.9E+01                                            
   14 spline knots.   Ns = 5(1)                                            
  ( 3) 2 infls.   ( 1) 1 extrs.                                            
  498 points on ppm-axis = NY
      4.000000     3.992357     3.984714     3.977070     3.969427     3.961784     3.954141     3.946497     3.938854     3.931211
      3.923568     3.915925     3.908281     3.900638     3.892995     3.885352     3.877708     3.870065     3.862422     3.854779
      3.847136     3.839492     3.831849     3.824206     3.816563     3.808919     3.801276     3.793633     3.785990     3.778347
      3.770703     3.763060     3.755417     3.747774     3.740130     3.732487     3.724844     3.717201     3.709558     3.701914
      3.694271     3.686628     3.678985     3.671341     3.663698     3.656055     3.648412     3.640769     3.633125     3.625482
      3.617839     3.610196     3.602552     3.594909     3.587266     3.579623     3.571980     3.564336     3.556693     3.549050
      3.541407     3.533763     3.526120     3.518477     3.510834     3.503191     3.495547     3.487904     3.480261     3.472618
      3.464974     3.457331     3.449688     3.442045     3.434402     3.426758     3.419115     3.411472     3.403829     3.396185
      3.388542     3.380899     3.373256     3.365613     3.357969     3.350326     3.342683     3.335040     3.327396     3.319753
      3.312110     3.304467     3.296824     3.289180     3.281537     3.273894     3.266251     3.258607     3.250964     3.243321
      3.235678     3.228034     3.220391     3.212748     3.205105     3.197462     3.189818     3.182175     3.174532     3.166889
      3.159245     3.151602     3.143959     3.136316     3.128673     3.121029     3.113386     3.105743     3.098100     3.090456
      3.082813     3.075170     3.067527     3.059884     3.052240     3.044597     3.036954     3.029311     3.021667     3.014024
      3.006381     2.998738     2.991095     2.983451     2.975808     2.968165     2.960522     2.952878     2.945235     2.937592
      2.929949     2.922306     2.914662     2.907019     2.899376     2.891733     2.884089     2.876446     2.868803     2.861160
      2.853517     2.845873     2.838230     2.830587     2.822944     2.815300     2.807657     2.800014     2.792371     2.784728
      2.777084     2.769441     2.761798     2.754155     2.746511     2.738868     2.731225     2.723582     2.715939     2.708295
      2.700652     2.693009     2.685366     2.677722     2.670079     2.662436     2.654793     2.647150     2.639506     2.631863
      2.624220     2.616577     2.608933     2.601290     2.593647     2.586004     2.578361     2.570717     2.563074     2.555431
      2.547788     2.540144     2.532501     2.524858     2.517215     2.509572     2.501928     2.494285     2.486642     2.478999
      2.471355     2.463712     2.456069     2.448426     2.440783     2.433139     2.425496     2.417853     2.410210     2.402566
      2.394923     2.387280     2.379637     2.371994     2.364350     2.356707     2.349064     2.341421     2.333777     2.326134
      2.318491     2.310848     2.303205     2.295561     2.287918     2.280275     2.272632     2.264988     2.257345     2.249702
      2.242059     2.234416     2.226772     2.219129     2.211486     2.203843     2.196199     2.188556     2.180913     2.173270
      2.165627     2.157983     2.150340     2.142697     2.135054     2.127410     2.119767     2.112124     2.104481     2.096838
      2.089194     2.081551     2.073908     2.066265     2.058621     2.050978     2.043335     2.035692     2.028049     2.020405
      2.012762     2.005119     1.997476     1.989833     1.982190     1.974546     1.966903     1.959260     1.951617     1.943974
      1.936331     1.928688     1.921045     1.913402     1.905759     1.898115     1.890472     1.882829     1.875186     1.867543
      1.859900     1.852257     1.844614     1.836971     1.829327     1.821684     1.814041     1.806398     1.798755     1.791112
      1.783469     1.775826     1.768183     1.760540     1.752896     1.745253     1.737610     1.729967     1.722324     1.714681
      1.707038     1.699395     1.691752     1.684108     1.676465     1.668822     1.661179     1.653536     1.645893     1.638250
      1.630607     1.622964     1.615321     1.607677     1.600034     1.592391     1.584748     1.577105     1.569462     1.561819
      1.554176     1.546533     1.538890     1.531246     1.523603     1.515960     1.508317     1.500674     1.493031     1.485388
      1.477745     1.470102     1.462458     1.454815     1.447172     1.439529     1.431886     1.424243     1.416600     1.408957
      1.401314     1.393671     1.386027     1.378384     1.370741     1.363098     1.355455     1.347812     1.340169     1.332526
      1.324883     1.317240     1.309596     1.301953     1.294310     1.286667     1.279024     1.271381     1.263738     1.256095
      1.248452     1.240808     1.233165     1.225522     1.217879     1.210236     1.202593     1.194950     1.187307     1.179664
      1.172021     1.164377     1.156734     1.149091     1.141448     1.133805     1.126162     1.118519     1.110876     1.103233
      1.095590     1.087946     1.080303     1.072660     1.065017     1.057374     1.049731     1.042088     1.034445     1.026802
      1.019158     1.011515     1.003872     0.996229     0.988586     0.980943     0.973300     0.965657     0.958014     0.950371
      0.942727     0.935084     0.927441     0.919798     0.912155     0.904512     0.896869     0.889226     0.881583     0.873940
      0.866296     0.858653     0.851010     0.843367     0.835724     0.828081     0.820438     0.812795     0.805152     0.797508
      0.789865     0.782222     0.774579     0.766936     0.759293     0.751650     0.744007     0.736364     0.728721     0.721077
      0.713434     0.705791     0.698148     0.690505     0.682862     0.675219     0.667576     0.659933     0.652290     0.644646
      0.637003     0.629360     0.621717     0.614074     0.606431     0.598788     0.591145     0.583502     0.575858     0.568215
      0.560572     0.552929     0.545286     0.537643     0.530000     0.522357     0.514714     0.507071     0.499427     0.491784
      0.484141     0.476498     0.468855     0.461212     0.453569     0.445925     0.438282     0.430639     0.422996     0.415353
      0.407710     0.400067     0.392424     0.384780     0.377137     0.369494     0.361851     0.354208     0.346565     0.338922
      0.331278     0.323635     0.315992     0.308349     0.300706     0.293063     0.285420     0.277777     0.270133     0.262490
      0.254847     0.247204     0.239561     0.231918     0.224275     0.216631     0.208988     0.201345
 NY phased data points follow
  -2.52743E+01 -3.33657E+01 -1.99349E+01 -3.18145E+01 -2.63136E+01 -2.90151E+01 -1.08042E+01 -2.90551E+01 -1.48995E+01 -1.87757E+01
  -7.32793E+00 -1.69518E+01 -1.36161E+01 -1.25438E+01 -1.54015E+01 -2.11404E+01 -7.59568E+00 -1.49883E+01 -9.94647E+00 -1.29451E+01
  -4.70535E+00 -9.80721E+00 -6.66635E+00 -9.31107E+00 -1.34662E+00 -2.38653E+00  3.47060E+00  1.83176E+00 -1.00729E+01 -1.72800E-01
   7.28715E+00  6.88744E+00  1.03004E+01 -2.05687E+00  8.20707E+00  8.28086E-01  6.71301E+00  6.65530E+00  3.14788E+00  9.43661E+00
   7.71936E+00  1.15899E+01  1.08060E+01  7.38612E+00  1.07070E+01  1.36505E+01  7.87273E+00  1.50446E+01  1.28382E+01  1.87428E+01
   1.86206E+01  1.26084E+01  9.99130E+00  9.42370E+00  1.48934E+01  1.41505E+01  1.51709E+01  7.21031E+00  9.94891E+00  1.57936E+01
   2.06906E+01  1.38182E+01  1.07529E+01  1.40081E+01  1.65391E+01  2.20394E+01  1.73035E+01  1.79948E+01  1.40878E+01  1.83661E+01
   1.85699E+01  1.41053E+01  2.38505E+01  1.71171E+01  1.77071E+01  2.01746E+01  1.68128E+01  2.02382E+01  2.63046E+01  1.71810E+01
   1.63453E+01  2.08039E+01  1.78085E+01  1.45947E+01  2.35057E+01  2.06709E+01  2.38396E+01  2.77886E+01  2.01756E+01  3.00962E+01
   2.92708E+01  2.09998E+01  2.74089E+01  2.48795E+01  2.57066E+01  3.11946E+01  2.17559E+01  2.04473E+01  2.28151E+01  3.15837E+01
   2.55709E+01  2.40137E+01  2.53943E+01  3.81791E+01  4.11628E+01  4.25041E+01  3.84555E+01  3.73177E+01  3.30617E+01  2.50124E+01
   2.95392E+01  2.41885E+01  3.37034E+01  3.58855E+01  3.18110E+01  2.74284E+01  4.31705E+01  3.04424E+01  3.71643E+01  3.34472E+01
   3.17297E+01  3.21331E+01  3.46254E+01  3.44489E+01  4.43915E+01  3.54430E+01  4.28388E+01  5.58109E+01  4.88452E+01  5.31365E+01
   4.05469E+01  4.47147E+01  4.16832E+01  3.28258E+01  2.83173E+01  4.49148E+01  3.00835E+01  4.19903E+01  4.06286E+01  3.22404E+01
   3.40383E+01  4.47637E+01  4.13347E+01  4.10893E+01  3.57208E+01  3.97073E+01  3.54068E+01  3.44172E+01  4.18981E+01  4.04043E+01
   4.09904E+01  3.85239E+01  3.76774E+01  3.42302E+01  4.14698E+01  3.20068E+01  3.26875E+01  4.24179E+01  4.26053E+01  3.56721E+01
   4.30512E+01  4.06658E+01  4.69200E+01  3.89460E+01  3.86254E+01  3.54355E+01  3.64763E+01  3.85050E+01  3.40640E+01  3.52943E+01
   3.09400E+01  3.54519E+01  4.59380E+01  3.35187E+01  4.19655E+01  3.52438E+01  2.61825E+01  3.82477E+01  3.16776E+01  3.62780E+01
   3.94503E+01  3.24948E+01  4.16412E+01  4.03768E+01  3.62026E+01  3.15789E+01  3.34774E+01  3.54454E+01  3.82056E+01  3.84201E+01
   3.65273E+01  3.55495E+01  3.58952E+01  3.45771E+01  3.45672E+01  4.60775E+01  3.62830E+01  3.98632E+01  4.40329E+01  4.70387E+01
   4.43965E+01  2.82304E+01  3.34648E+01  4.36095E+01  4.32057E+01  4.57417E+01  3.35234E+01  4.32160E+01  4.93003E+01  4.62942E+01
   4.60431E+01  4.73377E+01  3.99333E+01  4.74905E+01  4.85867E+01  4.44918E+01  4.41953E+01  5.05500E+01  4.67321E+01  4.78655E+01
   4.57137E+01  4.44800E+01  4.42324E+01  4.06603E+01  5.63969E+01  5.03813E+01  5.17046E+01  4.75423E+01  4.68373E+01  5.22953E+01
   5.15830E+01  5.17243E+01  4.78038E+01  5.41321E+01  4.75250E+01  4.85857E+01  5.18524E+01  4.77666E+01  4.51456E+01  5.32691E+01
   4.12841E+01  4.74952E+01  4.36594E+01  3.97181E+01  4.76521E+01  4.17325E+01  4.82316E+01  5.16623E+01  3.56937E+01  5.13143E+01
   4.39982E+01  4.22973E+01  5.20209E+01  5.09852E+01  4.59791E+01  4.36460E+01  4.83699E+01  5.29954E+01  5.05784E+01  5.51859E+01
   6.45954E+01  6.03343E+01  5.49706E+01  5.49284E+01  5.55422E+01  4.55460E+01  5.47016E+01  5.22225E+01  4.95639E+01  4.77293E+01
   4.89671E+01  4.88506E+01  4.99809E+01  5.28877E+01  4.81684E+01  5.26797E+01  5.33520E+01  5.24092E+01  5.04378E+01  5.12098E+01
   5.11566E+01  4.96740E+01  4.67671E+01  4.26721E+01  4.23045E+01  4.71639E+01  4.60768E+01  4.09826E+01  4.41347E+01  3.56379E+01
   4.43773E+01  4.72768E+01  4.25467E+01  4.41848E+01  4.46392E+01  5.07062E+01  4.58133E+01  4.84026E+01  4.41047E+01  4.48179E+01
   4.52829E+01  4.77304E+01  4.32587E+01  5.22003E+01  4.98538E+01  5.19013E+01  5.89744E+01  4.73403E+01  5.60304E+01  5.67408E+01
   5.91473E+01  6.45950E+01  6.04359E+01  6.11723E+01  5.72254E+01  6.11974E+01  6.11067E+01  5.90051E+01  5.30407E+01  6.15478E+01
   5.30471E+01  5.10891E+01  5.57177E+01  6.01729E+01  5.80289E+01  5.88175E+01  6.12558E+01  6.62533E+01  4.73277E+01  5.75273E+01
   5.09018E+01  4.64901E+01  5.22120E+01  4.49172E+01  5.30812E+01  5.10688E+01  5.06455E+01  4.52692E+01  5.05424E+01  4.89890E+01
   4.45498E+01  4.10501E+01  4.55505E+01  4.69388E+01  4.55509E+01  4.79587E+01  4.37711E+01  4.01103E+01  3.86122E+01  4.24797E+01
   4.20477E+01  4.45353E+01  4.22569E+01  4.36807E+01  4.49039E+01  3.99229E+01  3.96872E+01  3.65967E+01  4.51900E+01  4.60757E+01
   4.28462E+01  4.90274E+01  4.10565E+01  4.32268E+01  3.51190E+01  4.72756E+01  4.49573E+01  3.92289E+01  3.93952E+01  4.78982E+01
   3.70054E+01  4.90496E+01  3.95149E+01  3.93424E+01  4.51572E+01  3.99727E+01  3.98909E+01  4.26939E+01  4.40175E+01  4.35876E+01
   4.44628E+01  4.09183E+01  3.97729E+01  4.81410E+01  3.69905E+01  4.90751E+01  4.94678E+01  3.75314E+01  4.41713E+01  4.61279E+01
   4.59186E+01  4.43944E+01  4.42086E+01  4.47871E+01  3.94958E+01  4.76722E+01  4.00478E+01  4.57430E+01  4.84475E+01  3.88829E+01
   4.25441E+01  5.54254E+01  4.11421E+01  5.03878E+01  4.77442E+01  4.54998E+01  4.02536E+01  4.51160E+01  4.55543E+01  4.60658E+01
   4.09148E+01  4.01458E+01  3.57257E+01  4.43632E+01  4.12414E+01  3.91495E+01  4.08412E+01  4.09702E+01  3.36341E+01  4.01134E+01
   4.09840E+01  3.62152E+01  3.40010E+01  4.29382E+01  4.64291E+01  4.23625E+01  4.09279E+01  4.02591E+01  4.29870E+01  4.08996E+01
   3.84134E+01  3.73970E+01  3.37434E+01  4.28917E+01  4.39882E+01  3.59947E+01  3.63160E+01  3.57201E+01  3.47995E+01  3.16756E+01
   4.17548E+01  3.83276E+01  4.40911E+01  3.91090E+01  3.21932E+01  3.86113E+01  4.14686E+01  4.46107E+01  4.14854E+01  4.50310E+01
   3.23486E+01  3.84606E+01  2.94492E+01  3.61396E+01  3.26767E+01  3.73622E+01  3.09892E+01  4.11931E+01  4.13363E+01  2.65035E+01
   3.97459E+01  4.12187E+01  3.28837E+01  3.20381E+01  4.00277E+01  3.57666E+01  3.47178E+01  4.05813E+01  3.76115E+01  2.87714E+01
   3.47372E+01  3.49118E+01  3.03936E+01  4.32009E+01  4.31875E+01  3.21818E+01  3.44592E+01  2.89993E+01  3.33361E+01  3.59798E+01
   4.06874E+01  3.68313E+01  3.22541E+01  3.58895E+01  3.38777E+01  3.98236E+01  3.92949E+01  2.86217E+01  3.86609E+01  3.63595E+01
   3.51269E+01  3.53213E+01  4.07584E+01  3.65136E+01  3.66819E+01  3.14837E+01  3.49667E+01  3.14888E+01
 NY points of the fit to the data follow
  -2.03951E+01 -2.03616E+01 -2.01355E+01 -1.97534E+01 -1.92058E+01 -1.84243E+01 -1.75754E+01 -1.66981E+01 -1.56165E+01 -1.43115E+01
  -1.30802E+01 -1.21952E+01 -1.17017E+01 -1.15258E+01 -1.15355E+01 -1.15556E+01 -1.13114E+01 -1.07838E+01 -1.01857E+01 -9.55661E+00
  -8.88434E+00 -8.18103E+00 -7.51899E+00 -6.94890E+00 -6.37646E+00 -5.48203E+00 -4.28209E+00 -2.86418E+00 -9.29209E-01  1.66694E+00
   4.26134E+00  5.94701E+00  6.44066E+00  5.94912E+00  4.77813E+00  3.41876E+00  2.50436E+00  2.33812E+00  2.47580E+00  2.56574E+00
   2.63493E+00  2.85080E+00  3.46794E+00  4.62488E+00  6.23593E+00  8.20001E+00  1.04370E+01  1.25775E+01  1.39216E+01  1.40194E+01
   1.30009E+01  1.13761E+01  9.72695E+00  8.62822E+00  8.48873E+00  9.19278E+00  1.02835E+01  1.14809E+01  1.27209E+01  1.39315E+01
   1.49459E+01  1.55825E+01  1.57717E+01  1.55800E+01  1.51933E+01  1.48776E+01  1.49067E+01  1.53880E+01  1.61992E+01  1.71390E+01
   1.80594E+01  1.88981E+01  1.95707E+01  2.00291E+01  2.03130E+01  2.04813E+01  2.05846E+01  2.06604E+01  2.07732E+01  2.09639E+01
   2.12064E+01  2.14996E+01  2.18055E+01  2.20626E+01  2.22412E+01  2.23248E+01  2.22558E+01  2.20288E+01  2.17822E+01  2.17276E+01
   2.19951E+01  2.26153E+01  2.34959E+01  2.44496E+01  2.52722E+01  2.58534E+01  2.61865E+01  2.63679E+01  2.67661E+01  2.77307E+01
   2.91078E+01  3.09803E+01  3.35787E+01  3.64897E+01  3.85657E+01  3.89914E+01  3.78133E+01  3.56085E+01  3.31148E+01  3.10908E+01
   3.01146E+01  3.00529E+01  3.02629E+01  3.05348E+01  3.08182E+01  3.10927E+01  3.13526E+01  3.16036E+01  3.18454E+01  3.20918E+01
   3.23993E+01  3.29584E+01  3.42195E+01  3.60799E+01  3.83140E+01  4.11351E+01  4.44826E+01  4.73465E+01  4.85787E+01  4.78631E+01
   4.56270E+01  4.26649E+01  3.98591E+01  3.78974E+01  3.69089E+01  3.61972E+01  3.54275E+01  3.48087E+01  3.45774E+01  3.48803E+01
   3.56892E+01  3.67314E+01  3.76044E+01  3.80878E+01  3.81758E+01  3.79772E+01  3.76675E+01  3.73941E+01  3.72252E+01  3.71586E+01
   3.71181E+01  3.70815E+01  3.70535E+01  3.70397E+01  3.70505E+01  3.71046E+01  3.72009E+01  3.73151E+01  3.74219E+01  3.75008E+01
   3.75480E+01  3.75759E+01  3.76171E+01  3.77077E+01  3.78433E+01  3.79857E+01  3.81019E+01  3.81806E+01  3.82302E+01  3.82739E+01
   3.83254E+01  3.83849E+01  3.84481E+01  3.85028E+01  3.85322E+01  3.85327E+01  3.85248E+01  3.85483E+01  3.86190E+01  3.87169E+01
   3.87964E+01  3.88405E+01  3.88600E+01  3.88699E+01  3.88938E+01  3.89790E+01  3.91777E+01  3.95357E+01  4.00667E+01  4.07482E+01
   4.14900E+01  4.21116E+01  4.23920E+01  4.22235E+01  4.17262E+01  4.10880E+01  4.04638E+01  4.00386E+01  4.00145E+01  4.04405E+01
   4.11533E+01  4.19367E+01  4.26310E+01  4.31382E+01  4.34020E+01  4.34435E+01  4.33915E+01  4.33122E+01  4.32152E+01  4.31282E+01
   4.31099E+01  4.32308E+01  4.34704E+01  4.38063E+01  4.42375E+01  4.47064E+01  4.50359E+01  4.50559E+01  4.47686E+01  4.43016E+01
   4.37879E+01  4.33643E+01  4.32164E+01  4.34781E+01  4.40729E+01  4.48283E+01  4.55408E+01  4.60519E+01  4.63049E+01  4.62951E+01
   4.61063E+01  4.59376E+01  4.60170E+01  4.64541E+01  4.71588E+01  4.79725E+01  4.87420E+01  4.92367E+01  4.91993E+01  4.86301E+01
   4.78354E+01  4.71565E+01  4.68143E+01  4.69570E+01  4.76314E+01  4.86597E+01  4.96923E+01  5.04727E+01  5.09022E+01  5.09737E+01
   5.07622E+01  5.04305E+01  5.01616E+01  5.00499E+01  5.01387E+01  5.06268E+01  5.15660E+01  5.26939E+01  5.40485E+01  5.57835E+01
   5.75097E+01  5.83933E+01  5.79591E+01  5.63504E+01  5.40449E+01  5.16145E+01  4.96517E+01  4.85496E+01  4.81011E+01  4.78325E+01
   4.76265E+01  4.74697E+01  4.73550E+01  4.72805E+01  4.72362E+01  4.71982E+01  4.71446E+01  4.70633E+01  4.69536E+01  4.68240E+01
   4.66918E+01  4.65727E+01  4.64739E+01  4.63989E+01  4.63480E+01  4.63183E+01  4.63044E+01  4.63009E+01  4.63061E+01  4.63220E+01
   4.63509E+01  4.63967E+01  4.64650E+01  4.65618E+01  4.66915E+01  4.68589E+01  4.70697E+01  4.73289E+01  4.76400E+01  4.80061E+01
   4.84286E+01  4.89068E+01  4.94380E+01  5.00169E+01  5.06353E+01  5.12827E+01  5.19460E+01  5.26109E+01  5.32616E+01  5.38823E+01
   5.44577E+01  5.49741E+01  5.54199E+01  5.57872E+01  5.60713E+01  5.62722E+01  5.63933E+01  5.64425E+01  5.64312E+01  5.63756E+01
   5.62989E+01  5.62419E+01  5.62592E+01  5.62655E+01  5.61657E+01  5.59801E+01  5.56286E+01  5.48630E+01  5.35460E+01  5.18463E+01
   5.01839E+01  4.89231E+01  4.81751E+01  4.80180E+01  4.84903E+01  4.93238E+01  5.01152E+01  5.05681E+01  5.05322E+01  5.00119E+01
   4.91242E+01  4.80921E+01  4.71984E+01  4.65341E+01  4.60001E+01  4.55471E+01  4.51558E+01  4.48167E+01  4.45234E+01  4.42713E+01
   4.40561E+01  4.38738E+01  4.37205E+01  4.35925E+01  4.34860E+01  4.33977E+01  4.33241E+01  4.32620E+01  4.32085E+01  4.31610E+01
   4.31173E+01  4.30753E+01  4.30333E+01  4.29902E+01  4.29450E+01  4.28972E+01  4.28465E+01  4.27933E+01  4.27381E+01  4.26816E+01
   4.26251E+01  4.25700E+01  4.25178E+01  4.24705E+01  4.24299E+01  4.23981E+01  4.23771E+01  4.23693E+01  4.23765E+01  4.24011E+01
   4.24449E+01  4.25098E+01  4.25974E+01  4.27090E+01  4.28456E+01  4.30076E+01  4.31948E+01  4.34064E+01  4.36406E+01  4.38948E+01
   4.41654E+01  4.44478E+01  4.47362E+01  4.50242E+01  4.53044E+01  4.55690E+01  4.58097E+01  4.60184E+01  4.61872E+01  4.63093E+01
   4.63785E+01  4.63903E+01  4.63419E+01  4.62322E+01  4.60619E+01  4.58338E+01  4.55522E+01  4.52231E+01  4.48535E+01  4.44515E+01
   4.40253E+01  4.35836E+01  4.31346E+01  4.26860E+01  4.22447E+01  4.18167E+01  4.14068E+01  4.10186E+01  4.06548E+01  4.03168E+01
   4.00054E+01  3.97203E+01  3.94609E+01  3.92258E+01  3.90135E+01  3.88222E+01  3.86499E+01  3.84948E+01  3.83549E+01  3.82284E+01
   3.81138E+01  3.80094E+01  3.79140E+01  3.78263E+01  3.77454E+01  3.76702E+01  3.76000E+01  3.75342E+01  3.74720E+01  3.74131E+01
   3.73570E+01  3.73032E+01  3.72516E+01  3.72018E+01  3.71535E+01  3.71067E+01  3.70610E+01  3.70163E+01  3.69725E+01  3.69295E+01
   3.68871E+01  3.68452E+01  3.68038E+01  3.67628E+01  3.67221E+01  3.66817E+01  3.66415E+01  3.66016E+01  3.65618E+01  3.65223E+01
   3.64828E+01  3.64435E+01  3.64042E+01  3.63651E+01  3.63260E+01  3.62870E+01  3.62481E+01  3.62093E+01  3.61704E+01  3.61317E+01
   3.60929E+01  3.60543E+01  3.60156E+01  3.59770E+01  3.59384E+01  3.58999E+01  3.58614E+01  3.58230E+01  3.57846E+01  3.57463E+01
   3.57080E+01  3.56698E+01  3.56316E+01  3.55935E+01  3.55555E+01  3.55176E+01  3.54797E+01  3.54419E+01  3.54043E+01  3.53667E+01
   3.53293E+01  3.52920E+01  3.52548E+01  3.52178E+01  3.51809E+01  3.51442E+01  3.51076E+01  3.50713E+01
 NY background values follow
    -2.255E+01   -2.194E+01   -2.132E+01   -2.071E+01   -2.009E+01   -1.948E+01   -1.886E+01   -1.825E+01   -1.763E+01   -1.702E+01
    -1.640E+01   -1.579E+01   -1.518E+01   -1.457E+01   -1.396E+01   -1.335E+01   -1.274E+01   -1.213E+01   -1.153E+01   -1.093E+01
    -1.033E+01   -9.726E+00   -9.128E+00   -8.533E+00   -7.939E+00   -7.348E+00   -6.759E+00   -6.173E+00   -5.589E+00   -5.008E+00
    -4.429E+00   -3.854E+00   -3.281E+00   -2.712E+00   -2.146E+00   -1.583E+00   -1.023E+00   -4.675E-01    8.470E-02    6.331E-01
     1.178E+00    1.718E+00    2.255E+00    2.787E+00    3.315E+00    3.838E+00    4.357E+00    4.872E+00    5.382E+00    5.887E+00
     6.388E+00    6.884E+00    7.376E+00    7.864E+00    8.347E+00    8.826E+00    9.300E+00    9.770E+00    1.024E+01    1.070E+01
     1.115E+01    1.161E+01    1.205E+01    1.250E+01    1.294E+01    1.337E+01    1.380E+01    1.423E+01    1.465E+01    1.507E+01
     1.549E+01    1.590E+01    1.630E+01    1.670E+01    1.710E+01    1.750E+01    1.789E+01    1.827E+01    1.865E+01    1.903E+01
     1.940E+01    1.977E+01    2.014E+01    2.050E+01    2.086E+01    2.121E+01    2.156E+01    2.190E+01    2.225E+01    2.258E+01
     2.292E+01    2.325E+01    2.357E+01    2.390E+01    2.421E+01    2.453E+01    2.484E+01    2.515E+01    2.545E+01    2.575E+01
     2.604E+01    2.634E+01    2.662E+01    2.691E+01    2.719E+01    2.747E+01    2.774E+01    2.801E+01    2.827E+01    2.854E+01
     2.879E+01    2.905E+01    2.930E+01    2.955E+01    2.979E+01    3.003E+01    3.026E+01    3.050E+01    3.072E+01    3.095E+01
     3.117E+01    3.139E+01    3.160E+01    3.181E+01    3.202E+01    3.222E+01    3.242E+01    3.262E+01    3.281E+01    3.300E+01
     3.319E+01    3.337E+01    3.355E+01    3.372E+01    3.389E+01    3.406E+01    3.422E+01    3.438E+01    3.454E+01    3.470E+01
     3.485E+01    3.499E+01    3.514E+01    3.528E+01    3.542E+01    3.555E+01    3.569E+01    3.582E+01    3.595E+01    3.607E+01
     3.619E+01    3.632E+01    3.643E+01    3.655E+01    3.666E+01    3.678E+01    3.689E+01    3.700E+01    3.710E+01    3.721E+01
     3.731E+01    3.741E+01    3.751E+01    3.761E+01    3.771E+01    3.781E+01    3.791E+01    3.800E+01    3.810E+01    3.819E+01
     3.828E+01    3.837E+01    3.847E+01    3.856E+01    3.865E+01    3.874E+01    3.883E+01    3.892E+01    3.901E+01    3.910E+01
     3.919E+01    3.928E+01    3.937E+01    3.946E+01    3.955E+01    3.964E+01    3.973E+01    3.983E+01    3.992E+01    4.001E+01
     4.010E+01    4.019E+01    4.028E+01    4.037E+01    4.047E+01    4.056E+01    4.065E+01    4.074E+01    4.083E+01    4.092E+01
     4.101E+01    4.110E+01    4.118E+01    4.127E+01    4.136E+01    4.145E+01    4.153E+01    4.162E+01    4.170E+01    4.179E+01
     4.187E+01    4.196E+01    4.204E+01    4.212E+01    4.220E+01    4.228E+01    4.236E+01    4.244E+01    4.251E+01    4.259E+01
     4.267E+01    4.274E+01    4.281E+01    4.288E+01    4.295E+01    4.302E+01    4.309E+01    4.316E+01    4.322E+01    4.329E+01
     4.335E+01    4.341E+01    4.347E+01    4.353E+01    4.359E+01    4.365E+01    4.370E+01    4.376E+01    4.381E+01    4.386E+01
     4.392E+01    4.396E+01    4.401E+01    4.406E+01    4.411E+01    4.415E+01    4.419E+01    4.424E+01    4.428E+01    4.432E+01
     4.436E+01    4.439E+01    4.443E+01    4.447E+01    4.450E+01    4.453E+01    4.457E+01    4.460E+01    4.463E+01    4.465E+01
     4.468E+01    4.471E+01    4.473E+01    4.476E+01    4.478E+01    4.480E+01    4.482E+01    4.484E+01    4.486E+01    4.488E+01
     4.489E+01    4.491E+01    4.492E+01    4.494E+01    4.495E+01    4.496E+01    4.497E+01    4.498E+01    4.499E+01    4.499E+01
     4.500E+01    4.500E+01    4.500E+01    4.501E+01    4.501E+01    4.500E+01    4.500E+01    4.500E+01    4.499E+01    4.499E+01
     4.498E+01    4.497E+01    4.496E+01    4.495E+01    4.494E+01    4.492E+01    4.491E+01    4.489E+01    4.487E+01    4.485E+01
     4.483E+01    4.481E+01    4.479E+01    4.476E+01    4.474E+01    4.471E+01    4.468E+01    4.465E+01    4.461E+01    4.458E+01
     4.454E+01    4.451E+01    4.447E+01    4.443E+01    4.438E+01    4.434E+01    4.429E+01    4.425E+01    4.420E+01    4.415E+01
     4.410E+01    4.404E+01    4.399E+01    4.393E+01    4.388E+01    4.382E+01    4.376E+01    4.370E+01    4.363E+01    4.357E+01
     4.351E+01    4.344E+01    4.338E+01    4.331E+01    4.324E+01    4.317E+01    4.310E+01    4.303E+01    4.296E+01    4.289E+01
     4.282E+01    4.275E+01    4.268E+01    4.260E+01    4.253E+01    4.246E+01    4.239E+01    4.231E+01    4.224E+01    4.216E+01
     4.209E+01    4.202E+01    4.194E+01    4.187E+01    4.180E+01    4.172E+01    4.165E+01    4.158E+01    4.150E+01    4.143E+01
     4.136E+01    4.129E+01    4.122E+01    4.115E+01    4.108E+01    4.101E+01    4.095E+01    4.088E+01    4.081E+01    4.074E+01
     4.068E+01    4.061E+01    4.055E+01    4.049E+01    4.042E+01    4.036E+01    4.030E+01    4.024E+01    4.018E+01    4.012E+01
     4.006E+01    4.000E+01    3.994E+01    3.988E+01    3.982E+01    3.977E+01    3.971E+01    3.966E+01    3.960E+01    3.955E+01
     3.949E+01    3.944E+01    3.939E+01    3.934E+01    3.929E+01    3.923E+01    3.918E+01    3.913E+01    3.909E+01    3.904E+01
     3.899E+01    3.894E+01    3.890E+01    3.885E+01    3.881E+01    3.876E+01    3.872E+01    3.867E+01    3.863E+01    3.859E+01
     3.855E+01    3.850E+01    3.846E+01    3.842E+01    3.838E+01    3.834E+01    3.831E+01    3.827E+01    3.823E+01    3.819E+01
     3.815E+01    3.812E+01    3.808E+01    3.804E+01    3.801E+01    3.797E+01    3.794E+01    3.790E+01    3.787E+01    3.783E+01
     3.780E+01    3.776E+01    3.773E+01    3.770E+01    3.766E+01    3.763E+01    3.759E+01    3.756E+01    3.753E+01    3.749E+01
     3.746E+01    3.743E+01    3.739E+01    3.736E+01    3.732E+01    3.729E+01    3.726E+01    3.722E+01    3.719E+01    3.715E+01
     3.712E+01    3.708E+01    3.705E+01    3.701E+01    3.698E+01    3.694E+01    3.691E+01    3.687E+01    3.683E+01    3.680E+01
     3.676E+01    3.672E+01    3.669E+01    3.665E+01    3.661E+01    3.658E+01    3.654E+01    3.650E+01    3.646E+01    3.643E+01
     3.639E+01    3.635E+01    3.631E+01    3.627E+01    3.624E+01    3.620E+01    3.616E+01    3.612E+01    3.608E+01    3.604E+01
     3.601E+01    3.597E+01    3.593E+01    3.589E+01    3.585E+01    3.581E+01    3.577E+01    3.574E+01    3.570E+01    3.566E+01
     3.562E+01    3.558E+01    3.554E+01    3.551E+01    3.547E+01    3.543E+01    3.539E+01    3.535E+01
 Ala      Conc. = 1.93E+02
