 LCModel (Version 6.3-1L) Copyright: S.W. Provencher.          Ref.: Magn. Reson. Med. 30:672-679 (1993).                
 Slice#3 Row#6 Col#10  PD_24_press_2_raw_act
 36 lines in following concentration table = NCONC+1
    Conc.  %SD /Cr+PCr  Metabolite                                         
  211.889  93%   0.100 Ala                                                 
    0.000 999%   0.000 Asp                                                 
   51.750 999% 2.4E-02 Cr                                                  
 2.06E+03  28%   0.976 PCr                                                 
    0.000 999%   0.000 GABA                                                
  122.364 198% 5.8E-02 Glc                                                 
 1.36E+03  31%   0.643 Gln                                                 
 1.79E+03  26%   0.845 Glu                                                 
  895.440   5%   0.423 GPC                                                 
    0.000 999%   0.000 PCh                                                 
  350.037  37%   0.166 GSH                                                 
 2.15E+03  19%   1.015 Ins                                                 
    0.000 999%   0.000 Lac                                                 
 2.65E+03   8%   1.253 NAA                                                 
  565.791  40%   0.268 NAAG                                                
  195.023  24% 9.2E-02 Scyllo                                              
   91.620 361% 4.3E-02 Tau                                                 
 1.58E+03  11%   0.748 -CrCH2                                              
  895.440   5%   0.423 GPC+PCh                                             
 3.21E+03   4%   1.520 NAA+NAAG                                            
 2.11E+03   5%   1.000 Cr+PCr                                              
 3.15E+03  21%   1.488 Glu+Gln                                             
    0.000 999%   0.000 Lip13a                                              
    0.000 999%   0.000 Lip13b                                              
    0.000 999%   0.000 Lip09                                               
 1.95E+03  13%   0.920 MM09                                                
 5.44E-02 999% 2.6E-05 Lip20                                               
 4.59E+03  11%   2.172 MM20                                                
  434.008  42%   0.205 MM12                                                
 1.83E+03  23%   0.866 MM14                                                
 2.22E+03  17%   1.049 MM17                                                
    0.000 999%   0.000 Lip13a+Lip13b                                       
 2.27E+03  20%   1.072 MM14+Lip13a+Lip13b+MM12                             
 1.95E+03  13%   0.920 MM09+Lip09                                          
 4.59E+03  11%   2.173 MM20+Lip20                                          
   6 lines in following misc. output table
  FWHM = 0.061 ppm    S/N =   9                                            
  Data shift = 0.023 ppm                                                   
  Ph: -18 deg      -0.5 deg/ppm                                            
  alphaB,S = 8.5E+01,   1.3E+02                                            
   14 spline knots.   Ns = 7(1)                                            
   6 inflections.     1 extrema                                            
  498 points on ppm-axis = NY
      4.000000     3.992357     3.984714     3.977070     3.969427     3.961784     3.954141     3.946497     3.938854     3.931211
      3.923568     3.915925     3.908281     3.900638     3.892995     3.885352     3.877708     3.870065     3.862422     3.854779
      3.847136     3.839492     3.831849     3.824206     3.816563     3.808919     3.801276     3.793633     3.785990     3.778347
      3.770703     3.763060     3.755417     3.747774     3.740130     3.732487     3.724844     3.717201     3.709558     3.701914
      3.694271     3.686628     3.678985     3.671341     3.663698     3.656055     3.648412     3.640769     3.633125     3.625482
      3.617839     3.610196     3.602552     3.594909     3.587266     3.579623     3.571980     3.564336     3.556693     3.549050
      3.541407     3.533763     3.526120     3.518477     3.510834     3.503191     3.495547     3.487904     3.480261     3.472618
      3.464974     3.457331     3.449688     3.442045     3.434402     3.426758     3.419115     3.411472     3.403829     3.396185
      3.388542     3.380899     3.373256     3.365613     3.357969     3.350326     3.342683     3.335040     3.327396     3.319753
      3.312110     3.304467     3.296824     3.289180     3.281537     3.273894     3.266251     3.258607     3.250964     3.243321
      3.235678     3.228034     3.220391     3.212748     3.205105     3.197462     3.189818     3.182175     3.174532     3.166889
      3.159245     3.151602     3.143959     3.136316     3.128673     3.121029     3.113386     3.105743     3.098100     3.090456
      3.082813     3.075170     3.067527     3.059884     3.052240     3.044597     3.036954     3.029311     3.021667     3.014024
      3.006381     2.998738     2.991095     2.983451     2.975808     2.968165     2.960522     2.952878     2.945235     2.937592
      2.929949     2.922306     2.914662     2.907019     2.899376     2.891733     2.884089     2.876446     2.868803     2.861160
      2.853517     2.845873     2.838230     2.830587     2.822944     2.815300     2.807657     2.800014     2.792371     2.784728
      2.777084     2.769441     2.761798     2.754155     2.746511     2.738868     2.731225     2.723582     2.715939     2.708295
      2.700652     2.693009     2.685366     2.677722     2.670079     2.662436     2.654793     2.647150     2.639506     2.631863
      2.624220     2.616577     2.608933     2.601290     2.593647     2.586004     2.578361     2.570717     2.563074     2.555431
      2.547788     2.540144     2.532501     2.524858     2.517215     2.509572     2.501928     2.494285     2.486642     2.478999
      2.471355     2.463712     2.456069     2.448426     2.440783     2.433139     2.425496     2.417853     2.410210     2.402566
      2.394923     2.387280     2.379637     2.371994     2.364350     2.356707     2.349064     2.341421     2.333777     2.326134
      2.318491     2.310848     2.303205     2.295561     2.287918     2.280275     2.272632     2.264988     2.257345     2.249702
      2.242059     2.234416     2.226772     2.219129     2.211486     2.203843     2.196199     2.188556     2.180913     2.173270
      2.165627     2.157983     2.150340     2.142697     2.135054     2.127410     2.119767     2.112124     2.104481     2.096838
      2.089194     2.081551     2.073908     2.066265     2.058621     2.050978     2.043335     2.035692     2.028049     2.020405
      2.012762     2.005119     1.997476     1.989833     1.982190     1.974546     1.966903     1.959260     1.951617     1.943974
      1.936331     1.928688     1.921045     1.913402     1.905759     1.898115     1.890472     1.882829     1.875186     1.867543
      1.859900     1.852257     1.844614     1.836971     1.829327     1.821684     1.814041     1.806398     1.798755     1.791112
      1.783469     1.775826     1.768183     1.760540     1.752896     1.745253     1.737610     1.729967     1.722324     1.714681
      1.707038     1.699395     1.691752     1.684108     1.676465     1.668822     1.661179     1.653536     1.645893     1.638250
      1.630607     1.622964     1.615321     1.607677     1.600034     1.592391     1.584748     1.577105     1.569462     1.561819
      1.554176     1.546533     1.538890     1.531246     1.523603     1.515960     1.508317     1.500674     1.493031     1.485388
      1.477745     1.470102     1.462458     1.454815     1.447172     1.439529     1.431886     1.424243     1.416600     1.408957
      1.401314     1.393671     1.386027     1.378384     1.370741     1.363098     1.355455     1.347812     1.340169     1.332526
      1.324883     1.317240     1.309596     1.301953     1.294310     1.286667     1.279024     1.271381     1.263738     1.256095
      1.248452     1.240808     1.233165     1.225522     1.217879     1.210236     1.202593     1.194950     1.187307     1.179664
      1.172021     1.164377     1.156734     1.149091     1.141448     1.133805     1.126162     1.118519     1.110876     1.103233
      1.095590     1.087946     1.080303     1.072660     1.065017     1.057374     1.049731     1.042088     1.034445     1.026802
      1.019158     1.011515     1.003872     0.996229     0.988586     0.980943     0.973300     0.965657     0.958014     0.950371
      0.942727     0.935084     0.927441     0.919798     0.912155     0.904512     0.896869     0.889226     0.881583     0.873940
      0.866296     0.858653     0.851010     0.843367     0.835724     0.828081     0.820438     0.812795     0.805152     0.797508
      0.789865     0.782222     0.774579     0.766936     0.759293     0.751650     0.744007     0.736364     0.728721     0.721077
      0.713434     0.705791     0.698148     0.690505     0.682862     0.675219     0.667576     0.659933     0.652290     0.644646
      0.637003     0.629360     0.621717     0.614074     0.606431     0.598788     0.591145     0.583502     0.575858     0.568215
      0.560572     0.552929     0.545286     0.537643     0.530000     0.522357     0.514714     0.507071     0.499427     0.491784
      0.484141     0.476498     0.468855     0.461212     0.453569     0.445925     0.438282     0.430639     0.422996     0.415353
      0.407710     0.400067     0.392424     0.384780     0.377137     0.369494     0.361851     0.354208     0.346565     0.338922
      0.331278     0.323635     0.315992     0.308349     0.300706     0.293063     0.285420     0.277777     0.270133     0.262490
      0.254847     0.247204     0.239561     0.231918     0.224275     0.216631     0.208988     0.201345
 NY phased data points follow
   1.46572E+01  1.95500E+01  1.80129E+01  2.10702E+01  1.57339E+01  2.03861E+01  2.18246E+01  2.13515E+01  1.79294E+01  2.02810E+01
   2.57552E+01  2.31710E+01  2.76676E+01  1.73563E+01  2.12941E+01  1.44176E+01  1.37146E+01  8.31233E+00  1.15220E+01  1.60000E+01
   1.81736E+01  1.16424E+01  1.75153E+01  2.48812E+01  2.04453E+01  1.48948E+01  1.45182E+01  1.75726E+01  1.15251E+01  1.77653E+01
   1.18494E+01  1.74097E+01  1.76947E+01  1.93696E+01  1.11310E+01  1.11597E+01  1.98663E+01  1.69346E+01  2.43315E+01  1.72883E+01
   1.86139E+01  1.63744E+01  1.71522E+01  2.26397E+01  2.66948E+01  2.98486E+01  2.88859E+01  2.65676E+01  2.92601E+01  2.77128E+01
   2.17588E+01  1.89175E+01  1.42980E+01  1.92409E+01  1.59386E+01  1.45975E+01  1.44608E+01  1.99542E+01  8.62486E+00  7.58410E+00
   1.14949E+01  5.42740E+00  2.44935E+00  1.02161E+01  8.68277E+00  1.11919E+01  7.51946E+00  1.73070E-01  1.54815E+01  4.10757E+00
   4.44132E+00  3.41839E+00  1.25906E+01  1.34484E+01  7.46738E+00  8.94714E+00  8.73886E+00  9.04415E+00  1.45846E+01  1.62178E+01
   1.04938E+01  1.36165E+01  8.24989E+00  1.02966E+01  1.42044E+01  2.12710E+01  1.58786E+01  1.15351E+01  1.70856E+01  8.07636E+00
   1.83354E+01  1.54438E+01  1.95489E+01  8.97100E+00  2.17194E+01  2.07080E+01  2.95660E+01  3.25457E+01  4.14332E+01  4.73477E+01
   6.71291E+01  7.75908E+01  7.41754E+01  8.23360E+01  8.08532E+01  6.32475E+01  4.80939E+01  3.26765E+01  2.63979E+01  1.92920E+01
   1.67908E+01  1.51531E+01  1.81107E+01  5.09452E+00  6.17234E+00  5.04751E+00  1.21489E+01  1.78024E+01  1.52362E+01  1.63349E+01
   1.04420E+01  1.52584E+01  3.03893E+01  3.51303E+01  4.60741E+01  6.54120E+01  7.51800E+01  7.62442E+01  7.14369E+01  6.46520E+01
   4.01100E+01  3.42850E+01  2.47390E+01  2.62295E+01  1.60655E+01  1.44160E+01  1.92449E+01  1.24626E+01  1.68399E+01  9.41505E+00
   1.08325E+01  1.44916E+01  1.36173E+01  9.38999E+00  1.03471E+01  2.26112E+00  6.66368E+00  5.85884E+00  8.71933E+00  3.65975E+00
   7.31654E+00  4.68845E+00  1.10130E+01  7.44374E+00 -9.71321E-01  9.24409E-01  7.28980E-01  3.51855E+00  1.75738E+01  3.32058E+00
   7.19540E+00  3.89586E+00 -4.35104E+00 -6.42745E-01 -7.15545E+00  3.20130E+00  1.03904E+00 -4.05155E+00 -6.75767E+00 -1.29081E+01
  -5.61820E+00 -1.21531E+01 -9.61590E+00 -9.90103E+00 -2.00231E+01 -1.59185E+01 -1.23196E+01 -1.44795E+01 -1.63457E+01 -1.65852E+00
  -9.76674E+00 -1.07737E+01 -9.79740E+00 -1.18605E+01 -4.92909E+00 -4.59858E+00 -1.57484E+01 -1.08815E+01 -7.42667E+00 -4.46520E+00
   3.96805E+00 -4.65109E+00  2.78865E+00 -5.60020E-02  1.39819E+00 -1.99845E-02 -7.55030E+00 -4.22233E+00 -6.25259E+00 -8.78482E+00
  -1.15363E+00 -7.17358E-01  2.50898E+00  6.64327E+00  5.03642E+00  4.67231E+00  4.61234E+00  5.02109E+00 -3.17331E+00  3.14525E+00
   5.66589E+00  8.56843E+00  5.12295E+00  1.35178E+01  2.65993E+01  2.55531E+01  2.28449E+01  1.86365E+01  1.68953E+01  1.45482E+01
   8.34548E+00  1.24309E+01  3.00266E-01  1.05513E+01  2.41376E+00  1.27211E+01  1.51902E+01  2.14411E+01  1.94325E+01  1.60873E+01
   1.52818E+01  1.15629E+01  1.43929E+01  1.32852E+01  1.72492E+01  1.64980E+01  1.58135E+01  3.79948E+00  1.40113E+01  1.19863E+01
   1.10470E+01  8.25937E+00  1.04179E+01  1.37029E+01  5.27967E+00  1.38593E+01  1.64857E+01  2.24853E+01  1.72496E+01  2.27110E+01
   2.01633E+01  3.05468E+01  3.11232E+01  3.83287E+01  5.32853E+01  6.37897E+01  7.81626E+01  8.25930E+01  8.77054E+01  1.09987E+02
   1.12623E+02  1.07578E+02  9.11563E+01  7.63795E+01  4.38231E+01  3.52344E+01  3.26655E+01  2.78900E+01  1.90182E+01  1.65986E+01
   1.80685E+01  1.58924E+01  1.93931E+01  1.65011E+01  1.13684E+01  6.48303E+00  1.03301E+01  1.77556E+01  1.64860E+01  7.38331E+00
   5.09270E+00  9.22733E+00  8.27853E+00  6.07521E+00  2.75953E+00  8.66351E+00 -7.71642E-01  5.86314E+00  6.54706E+00  6.38576E+00
   1.30397E+01  1.14190E+01  1.33264E+01  1.53894E+01  1.77028E+01  1.65133E+01  1.62316E+01  9.41052E+00  4.20841E+00  1.63649E+01
   1.76220E+01  1.47097E+01  1.31649E+01  1.55142E+01  2.90056E+01  2.22320E+01  2.52413E+01  1.85367E+01  1.34130E+01  1.65200E+01
   2.19616E+01  1.56751E+01  1.66699E+01  1.83285E+01  1.66461E+01  1.72977E+01  1.37734E+01  2.24123E+01  2.07666E+01  1.73174E+01
   2.32334E+01  1.85680E+01  2.03597E+01  1.61287E+01  2.06634E+01  1.64403E+01  2.13848E+01  1.19116E+01  1.15869E+01  1.64741E+01
   9.52481E+00  1.61053E+01  4.91952E+00  6.01683E+00  4.20602E+00  9.57097E+00  9.38449E+00  7.08984E-02  6.97364E+00  8.34166E-01
   2.10197E+00  4.29482E+00  5.28522E+00  2.69404E+00  1.77082E+00  5.52939E+00  7.42888E+00  8.78214E+00  7.90903E-01  5.10892E+00
  -9.23333E-01 -3.60472E+00  3.38190E+00  2.59695E+00 -1.60401E+00  5.35573E+00  5.55670E+00  2.84165E+00  2.07262E+00  6.22395E+00
   4.81794E+00 -2.63022E+00  1.02922E+01  5.36285E+00  8.48914E+00  5.28392E+00  7.29195E+00  1.73557E+00 -5.89301E-01 -6.15980E-01
   1.95747E+00 -5.27245E-01 -2.28419E+00  5.29165E+00  6.35327E+00  1.90593E-01 -2.54310E+00  1.10431E+00  4.61603E+00  3.08919E+00
   2.42115E+00 -3.88046E+00 -2.69879E+00  5.29176E+00 -3.66118E+00 -2.56658E+00 -7.21190E+00 -3.64429E+00 -6.60266E-02  2.47922E-01
   6.12356E+00  5.16971E+00  3.37236E+00  1.23402E+01  1.39049E+01  1.14156E+01  9.22970E+00  8.50670E+00  1.05492E+01  1.24334E+01
   8.15505E+00  1.09285E+01  7.71376E+00  1.29967E+01  1.34041E+01  1.06580E+01  1.52785E+01  1.43147E+01  1.30467E+01  1.40704E+01
   1.16672E+01  1.24722E+01  9.74929E+00  7.13730E+00  1.20375E+01  1.60071E+01  4.90909E+00  1.21709E+01  9.53568E+00  6.63364E+00
   3.41263E-01  6.36005E+00  2.21057E+00  3.44944E+00  6.50937E+00 -1.79073E+00  4.74308E-01  1.79469E+00  7.03735E+00 -9.40179E-01
   5.40380E+00  5.02304E+00 -2.22531E-01 -1.90451E+00 -4.16603E-01  2.84483E+00  6.12180E+00  8.41889E-01  3.45279E+00 -3.95944E+00
   6.07110E+00  7.71685E-01  5.86637E+00 -6.51625E-01  5.51900E+00 -3.34498E+00  3.19937E+00  4.37081E+00  7.79577E-01 -1.79000E+00
   4.75650E+00 -3.31691E+00  4.67832E+00  2.98594E+00 -2.37300E+00  4.41302E+00 -4.14849E+00 -2.20076E+00  1.85364E+00  1.26358E+00
  -5.20739E+00 -1.00220E+00 -4.25532E+00 -6.14461E+00  1.20958E+00 -2.74244E+00 -2.64195E+00 -3.80842E+00 -4.24916E-01  1.78025E+00
  -4.57743E-01  1.11025E-01  2.78647E+00 -1.52023E-01  8.39870E-01  4.28119E+00 -2.51770E+00  2.62998E-01 -3.90206E+00 -1.81697E+00
  -1.56931E+00  3.61271E+00  6.73649E+00  6.24525E+00 -1.02236E+01  5.35027E+00 -1.11051E+00  3.98047E+00 -3.12448E+00 -7.53107E+00
   2.78946E+00 -4.99335E+00  1.06880E+00  5.59833E-01  6.85380E+00 -3.70980E-01 -7.61945E+00  1.89315E+00
 NY points of the fit to the data follow
   1.37076E+01  1.35042E+01  1.40653E+01  1.53479E+01  1.69793E+01  1.88520E+01  2.08057E+01  2.26430E+01  2.41366E+01  2.49548E+01
   2.48632E+01  2.38176E+01  2.20895E+01  2.01930E+01  1.85633E+01  1.73672E+01  1.64105E+01  1.55524E+01  1.48088E+01  1.43180E+01
   1.39134E+01  1.34539E+01  1.30752E+01  1.29558E+01  1.29589E+01  1.31986E+01  1.38780E+01  1.51253E+01  1.69592E+01  1.90640E+01
   2.10320E+01  2.23356E+01  2.25330E+01  2.15251E+01  1.97010E+01  1.76146E+01  1.57686E+01  1.42076E+01  1.31692E+01  1.30033E+01
   1.37274E+01  1.53175E+01  1.73851E+01  1.96314E+01  2.19418E+01  2.40966E+01  2.57360E+01  2.63591E+01  2.55268E+01  2.31287E+01
   1.96569E+01  1.61181E+01  1.35352E+01  1.21273E+01  1.15203E+01  1.13871E+01  1.16464E+01  1.22943E+01  1.30814E+01  1.36651E+01
   1.38114E+01  1.33804E+01  1.24141E+01  1.11664E+01  1.00822E+01  9.57767E+00  9.64999E+00  1.00373E+01  1.06060E+01  1.12726E+01
   1.19114E+01  1.24126E+01  1.26744E+01  1.26618E+01  1.23895E+01  1.19309E+01  1.14406E+01  1.10220E+01  1.07537E+01  1.08337E+01
   1.14632E+01  1.22879E+01  1.30621E+01  1.38647E+01  1.47546E+01  1.54660E+01  1.55606E+01  1.48130E+01  1.33452E+01  1.16319E+01
   1.02989E+01  9.73384E+00  9.87436E+00  1.03338E+01  1.11630E+01  1.42148E+01  2.17005E+01  3.11785E+01  4.10769E+01  5.19683E+01
   6.42494E+01  7.60772E+01  8.37885E+01  8.42815E+01  7.66696E+01  6.29502E+01  4.74897E+01  3.46368E+01  2.58990E+01  1.95492E+01
   1.36388E+01  8.96391E+00  7.27996E+00  6.96586E+00  6.96428E+00  7.09641E+00  7.33196E+00  7.71844E+00  8.41218E+00  1.01387E+01
   1.50805E+01  2.28338E+01  3.13475E+01  4.03902E+01  5.05305E+01  6.11454E+01  6.97346E+01  7.33191E+01  7.01920E+01  6.08755E+01
   4.82536E+01  3.62584E+01  2.73880E+01  2.11542E+01  1.56238E+01  1.03629E+01  7.30794E+00  6.42006E+00  6.32357E+00  6.55756E+00
   6.83794E+00  6.98317E+00  6.96761E+00  6.79683E+00  6.49079E+00  6.13085E+00  5.77602E+00  5.40681E+00  5.02556E+00  4.65275E+00
   4.32790E+00  4.06347E+00  3.85538E+00  3.65916E+00  3.38518E+00  3.09247E+00  2.85290E+00  2.65691E+00  2.46194E+00  2.12278E+00
   1.69026E+00  1.37094E+00  1.30416E+00  1.40302E+00  1.45290E+00  1.25121E+00  7.17730E-01 -1.13114E-02 -7.01087E-01 -1.28347E+00
  -1.76325E+00 -2.09517E+00 -2.38974E+00 -2.72987E+00 -3.09869E+00 -3.37949E+00 -3.38861E+00 -3.08932E+00 -2.68639E+00 -2.45087E+00
  -2.50473E+00 -2.59516E+00 -2.39525E+00 -1.80070E+00 -9.53623E-01 -5.55537E-02  8.97150E-01  2.01813E+00  3.32892E+00  4.59532E+00
   5.42547E+00  5.52354E+00  4.99535E+00  4.19109E+00  3.47654E+00  3.06177E+00  3.05062E+00  3.64069E+00  4.86810E+00  6.54118E+00
   8.35929E+00  9.94212E+00  1.07888E+01  1.03377E+01  8.80634E+00  6.48561E+00  3.48224E+00  1.95626E-01 -2.53647E+00 -3.72583E+00
  -3.02883E+00 -8.09378E-01  2.48378E+00  6.24417E+00  9.63828E+00  1.17635E+01  1.21433E+01  1.09562E+01  8.59235E+00  5.39999E+00
   2.42291E+00  5.36679E-01  2.25116E-02  9.03840E-01  2.90527E+00  5.65570E+00  8.44913E+00  1.05029E+01  1.15678E+01  1.18389E+01
   1.18663E+01  1.18337E+01  1.17300E+01  1.17966E+01  1.22982E+01  1.30632E+01  1.37791E+01  1.44434E+01  1.50711E+01  1.54365E+01
   1.52062E+01  1.44760E+01  1.37401E+01  1.34324E+01  1.36810E+01  1.43881E+01  1.55156E+01  1.68178E+01  1.83093E+01  2.06629E+01
   2.37840E+01  2.71953E+01  3.13922E+01  3.95561E+01  5.16860E+01  6.40598E+01  7.53831E+01  8.63875E+01  9.71213E+01  1.05431E+02
   1.08353E+02  1.03777E+02  9.14535E+01  7.39872E+01  5.65215E+01  4.34818E+01  3.47039E+01  2.72914E+01  2.00440E+01  1.53417E+01
   1.35108E+01  1.24916E+01  1.17778E+01  1.12589E+01  1.08134E+01  1.03243E+01  9.80131E+00  9.26234E+00  8.74359E+00  8.29372E+00
   7.93897E+00  7.65953E+00  7.44229E+00  7.29522E+00  7.22012E+00  7.20196E+00  7.22686E+00  7.30811E+00  7.47548E+00  7.74337E+00
   8.11193E+00  8.57997E+00  9.14183E+00  9.78299E+00  1.04819E+01  1.12207E+01  1.19907E+01  1.27852E+01  1.35976E+01  1.44112E+01
   1.52086E+01  1.59752E+01  1.66895E+01  1.73228E+01  1.78544E+01  1.82711E+01  1.85697E+01  1.87472E+01  1.88042E+01  1.87494E+01
   1.85984E+01  1.83655E+01  1.80700E+01  1.77299E+01  1.73657E+01  1.69955E+01  1.66388E+01  1.63119E+01  1.60350E+01  1.58377E+01
   1.57777E+01  1.57940E+01  1.57417E+01  1.56096E+01  1.54124E+01  1.50867E+01  1.45002E+01  1.35496E+01  1.23358E+01  1.11373E+01
   1.01228E+01  9.41262E+00  9.07374E+00  9.07119E+00  9.28725E+00  9.59951E+00  9.91932E+00  1.00574E+01  9.83038E+00  9.29852E+00
   8.64701E+00  8.02512E+00  7.44607E+00  6.83822E+00  6.22954E+00  5.72802E+00  5.31515E+00  4.96377E+00  4.66390E+00  4.40818E+00
   4.19299E+00  4.01302E+00  3.86539E+00  3.74532E+00  3.65043E+00  3.57619E+00  3.52007E+00  3.47734E+00  3.44565E+00  3.42090E+00
   3.40142E+00  3.38356E+00  3.36595E+00  3.34544E+00  3.32157E+00  3.29235E+00  3.25836E+00  3.21838E+00  3.17359E+00  3.12358E+00
   3.07062E+00  3.01539E+00  2.96085E+00  2.90805E+00  2.86025E+00  2.81905E+00  2.78841E+00  2.77046E+00  2.76934E+00  2.78719E+00
   2.82833E+00  2.89536E+00  2.99313E+00  3.12448E+00  3.29415E+00  3.50473E+00  3.76077E+00  4.06464E+00  4.42023E+00  4.82854E+00
   5.29140E+00  5.80733E+00  6.37539E+00  6.99092E+00  7.64915E+00  8.34096E+00  9.05690E+00  9.78351E+00  1.05076E+01  1.12124E+01
   1.18824E+01  1.24992E+01  1.30472E+01  1.35097E+01  1.38743E+01  1.41291E+01  1.42672E+01  1.42832E+01  1.41775E+01  1.39524E+01
   1.36160E+01  1.31774E+01  1.26499E+01  1.20471E+01  1.13856E+01  1.06809E+01  9.94987E+00  9.20668E+00  8.46582E+00  7.73821E+00
   7.03478E+00  6.36261E+00  5.72847E+00  5.13524E+00  4.58583E+00  4.07989E+00  3.61781E+00  3.19720E+00  2.81670E+00  2.47253E+00
   2.16249E+00  1.88259E+00  1.63076E+00  1.40321E+00  1.19800E+00  1.01156E+00  8.42426E-01  6.87714E-01  5.46609E-01  4.16637E-01
   2.97198E-01  1.86083E-01  8.31409E-02 -1.33161E-02 -1.03103E-01 -1.87824E-01 -2.67305E-01 -3.42999E-01 -4.14410E-01 -4.82689E-01
  -5.47265E-01 -6.09393E-01 -6.68567E-01 -7.25895E-01 -7.80618E-01 -8.33690E-01 -8.84435E-01 -9.33971E-01 -9.81644E-01 -1.02838E+00
  -1.07333E+00 -1.11738E+00 -1.15985E+00 -1.20176E+00 -1.24237E+00 -1.28250E+00 -1.32127E+00 -1.35960E+00 -1.39678E+00 -1.43380E+00
  -1.46982E+00 -1.50561E+00 -1.54032E+00 -1.57487E+00 -1.60856E+00 -1.64230E+00 -1.67521E+00 -1.70803E+00 -1.73998E+00 -1.77199E+00
  -1.80334E+00 -1.83487E+00 -1.86566E+00 -1.89650E+00 -1.92662E+00 -1.95698E+00 -1.98681E+00 -2.01689E+00 -2.04632E+00 -2.07591E+00
  -2.10496E+00 -2.13438E+00 -2.16338E+00 -2.19269E+00 -2.22145E+00 -2.25052E+00 -2.27923E+00 -2.30845E+00
 NY background values follow
     5.450E+00    5.433E+00    5.415E+00    5.397E+00    5.380E+00    5.362E+00    5.344E+00    5.327E+00    5.309E+00    5.291E+00
     5.274E+00    5.256E+00    5.238E+00    5.221E+00    5.203E+00    5.185E+00    5.168E+00    5.150E+00    5.132E+00    5.114E+00
     5.097E+00    5.079E+00    5.061E+00    5.044E+00    5.026E+00    5.008E+00    4.990E+00    4.973E+00    4.955E+00    4.937E+00
     4.919E+00    4.902E+00    4.884E+00    4.866E+00    4.848E+00    4.831E+00    4.813E+00    4.795E+00    4.777E+00    4.760E+00
     4.742E+00    4.724E+00    4.706E+00    4.689E+00    4.671E+00    4.653E+00    4.635E+00    4.618E+00    4.600E+00    4.582E+00
     4.564E+00    4.546E+00    4.529E+00    4.511E+00    4.493E+00    4.475E+00    4.457E+00    4.440E+00    4.422E+00    4.404E+00
     4.386E+00    4.368E+00    4.351E+00    4.333E+00    4.315E+00    4.297E+00    4.279E+00    4.261E+00    4.244E+00    4.226E+00
     4.208E+00    4.190E+00    4.172E+00    4.154E+00    4.137E+00    4.119E+00    4.101E+00    4.083E+00    4.065E+00    4.047E+00
     4.030E+00    4.012E+00    3.994E+00    3.976E+00    3.958E+00    3.940E+00    3.922E+00    3.905E+00    3.887E+00    3.869E+00
     3.851E+00    3.833E+00    3.815E+00    3.797E+00    3.779E+00    3.762E+00    3.744E+00    3.726E+00    3.708E+00    3.690E+00
     3.672E+00    3.654E+00    3.636E+00    3.618E+00    3.601E+00    3.583E+00    3.565E+00    3.547E+00    3.529E+00    3.511E+00
     3.493E+00    3.475E+00    3.457E+00    3.439E+00    3.422E+00    3.404E+00    3.386E+00    3.368E+00    3.350E+00    3.332E+00
     3.314E+00    3.296E+00    3.278E+00    3.260E+00    3.242E+00    3.224E+00    3.206E+00    3.189E+00    3.171E+00    3.153E+00
     3.135E+00    3.117E+00    3.099E+00    3.081E+00    3.063E+00    3.045E+00    3.027E+00    3.009E+00    2.991E+00    2.973E+00
     2.955E+00    2.937E+00    2.919E+00    2.901E+00    2.883E+00    2.866E+00    2.848E+00    2.830E+00    2.812E+00    2.794E+00
     2.776E+00    2.758E+00    2.740E+00    2.722E+00    2.704E+00    2.686E+00    2.668E+00    2.650E+00    2.632E+00    2.614E+00
     2.596E+00    2.578E+00    2.560E+00    2.542E+00    2.524E+00    2.506E+00    2.488E+00    2.470E+00    2.452E+00    2.434E+00
     2.416E+00    2.398E+00    2.380E+00    2.362E+00    2.344E+00    2.326E+00    2.308E+00    2.291E+00    2.273E+00    2.255E+00
     2.237E+00    2.219E+00    2.201E+00    2.183E+00    2.165E+00    2.147E+00    2.129E+00    2.111E+00    2.093E+00    2.075E+00
     2.057E+00    2.039E+00    2.021E+00    2.003E+00    1.985E+00    1.967E+00    1.949E+00    1.931E+00    1.913E+00    1.895E+00
     1.877E+00    1.859E+00    1.841E+00    1.823E+00    1.805E+00    1.787E+00    1.769E+00    1.751E+00    1.733E+00    1.715E+00
     1.697E+00    1.679E+00    1.661E+00    1.643E+00    1.625E+00    1.607E+00    1.589E+00    1.571E+00    1.553E+00    1.535E+00
     1.517E+00    1.499E+00    1.481E+00    1.463E+00    1.445E+00    1.427E+00    1.409E+00    1.391E+00    1.373E+00    1.355E+00
     1.337E+00    1.319E+00    1.301E+00    1.283E+00    1.265E+00    1.247E+00    1.229E+00    1.211E+00    1.193E+00    1.175E+00
     1.157E+00    1.139E+00    1.121E+00    1.103E+00    1.085E+00    1.067E+00    1.049E+00    1.031E+00    1.013E+00    9.946E-01
     9.766E-01    9.586E-01    9.406E-01    9.226E-01    9.046E-01    8.866E-01    8.686E-01    8.506E-01    8.326E-01    8.146E-01
     7.966E-01    7.786E-01    7.606E-01    7.426E-01    7.246E-01    7.066E-01    6.886E-01    6.706E-01    6.526E-01    6.346E-01
     6.166E-01    5.986E-01    5.806E-01    5.626E-01    5.446E-01    5.266E-01    5.086E-01    4.906E-01    4.726E-01    4.546E-01
     4.367E-01    4.187E-01    4.007E-01    3.827E-01    3.647E-01    3.467E-01    3.287E-01    3.107E-01    2.927E-01    2.747E-01
     2.568E-01    2.388E-01    2.208E-01    2.028E-01    1.848E-01    1.668E-01    1.488E-01    1.309E-01    1.129E-01    9.490E-02
     7.692E-02    5.895E-02    4.097E-02    2.299E-02    5.013E-03   -1.296E-02   -3.094E-02   -4.891E-02   -6.688E-02   -8.486E-02
    -1.028E-01   -1.208E-01   -1.388E-01   -1.567E-01   -1.747E-01   -1.927E-01   -2.106E-01   -2.286E-01   -2.466E-01   -2.645E-01
    -2.825E-01   -3.005E-01   -3.184E-01   -3.364E-01   -3.543E-01   -3.723E-01   -3.902E-01   -4.082E-01   -4.261E-01   -4.441E-01
    -4.620E-01   -4.800E-01   -4.979E-01   -5.159E-01   -5.338E-01   -5.518E-01   -5.697E-01   -5.877E-01   -6.056E-01   -6.236E-01
    -6.415E-01   -6.594E-01   -6.774E-01   -6.953E-01   -7.132E-01   -7.312E-01   -7.491E-01   -7.670E-01   -7.850E-01   -8.029E-01
    -8.208E-01   -8.387E-01   -8.567E-01   -8.746E-01   -8.925E-01   -9.104E-01   -9.283E-01   -9.462E-01   -9.642E-01   -9.821E-01
    -1.000E+00   -1.018E+00   -1.036E+00   -1.054E+00   -1.072E+00   -1.090E+00   -1.107E+00   -1.125E+00   -1.143E+00   -1.161E+00
    -1.179E+00   -1.197E+00   -1.215E+00   -1.233E+00   -1.251E+00   -1.268E+00   -1.286E+00   -1.304E+00   -1.322E+00   -1.340E+00
    -1.358E+00   -1.376E+00   -1.394E+00   -1.411E+00   -1.429E+00   -1.447E+00   -1.465E+00   -1.483E+00   -1.501E+00   -1.519E+00
    -1.537E+00   -1.554E+00   -1.572E+00   -1.590E+00   -1.608E+00   -1.626E+00   -1.644E+00   -1.661E+00   -1.679E+00   -1.697E+00
    -1.715E+00   -1.733E+00   -1.751E+00   -1.769E+00   -1.786E+00   -1.804E+00   -1.822E+00   -1.840E+00   -1.858E+00   -1.875E+00
    -1.893E+00   -1.911E+00   -1.929E+00   -1.947E+00   -1.965E+00   -1.982E+00   -2.000E+00   -2.018E+00   -2.036E+00   -2.054E+00
    -2.071E+00   -2.089E+00   -2.107E+00   -2.125E+00   -2.143E+00   -2.160E+00   -2.178E+00   -2.196E+00   -2.214E+00   -2.231E+00
    -2.249E+00   -2.267E+00   -2.285E+00   -2.302E+00   -2.320E+00   -2.338E+00   -2.356E+00   -2.374E+00   -2.391E+00   -2.409E+00
    -2.427E+00   -2.445E+00   -2.462E+00   -2.480E+00   -2.498E+00   -2.515E+00   -2.533E+00   -2.551E+00   -2.569E+00   -2.586E+00
    -2.604E+00   -2.622E+00   -2.640E+00   -2.657E+00   -2.675E+00   -2.693E+00   -2.710E+00   -2.728E+00   -2.746E+00   -2.764E+00
    -2.781E+00   -2.799E+00   -2.817E+00   -2.834E+00   -2.852E+00   -2.870E+00   -2.887E+00   -2.905E+00   -2.923E+00   -2.940E+00
    -2.958E+00   -2.976E+00   -2.993E+00   -3.011E+00   -3.029E+00   -3.046E+00   -3.064E+00   -3.082E+00   -3.099E+00   -3.117E+00
    -3.135E+00   -3.152E+00   -3.170E+00   -3.187E+00   -3.205E+00   -3.223E+00   -3.240E+00   -3.258E+00   -3.276E+00   -3.293E+00
    -3.311E+00   -3.328E+00   -3.346E+00   -3.364E+00   -3.381E+00   -3.399E+00   -3.416E+00   -3.434E+00
 Ala      Conc. = 2.12E+02
