 LCModel (Version 6.3-1L) Copyright: S.W. Provencher.          Ref.: Magn. Reson. Med. 30:672-679 (1993).                
 Slice#3 Row#11 Col#11  PD_24_press_2_raw_act
 36 lines in following concentration table = NCONC+1
    Conc.  %SD /Cr+PCr  Metabolite                                         
 8.86E+03  10%   0.000 Ala                                                 
    0.000 999%   0.000 Asp                                                 
    0.000 999%   0.000 Cr                                                  
    0.000 999%   0.000 PCr                                                 
    0.000 999%   0.000 GABA                                                
    0.000 999%   0.000 Glc                                                 
    0.000 999%   0.000 Gln                                                 
    0.000 999%   0.000 Glu                                                 
    0.000 999%   0.000 GPC                                                 
    0.000 999%   0.000 PCh                                                 
   76.391 120%   0.000 GSH                                                 
    0.000 999%   0.000 Ins                                                 
 8.16E+03  11%   0.000 Lac                                                 
    0.000 999%   0.000 NAA                                                 
    0.000 999%   0.000 NAAG                                                
 1.77E-03 999%   0.000 Scyllo                                              
    0.000 999%   0.000 Tau                                                 
    0.183 999%   0.000 -CrCH2                                              
    0.000 999%   0.000 GPC+PCh                                             
    0.000 999%   0.000 NAA+NAAG                                            
    0.000 999%   0.000 Cr+PCr                                              
    0.000 999%   0.000 Glu+Gln                                             
    0.000 999%   0.000 Lip13a                                              
    0.000 999%   0.000 Lip13b                                              
    0.000 999%   0.000 Lip09                                               
 4.66E+03   5%   0.000 MM09                                                
    0.000 999%   0.000 Lip20                                               
 6.87E+03   5%   0.000 MM20                                                
 1.40E+03   6%   0.000 MM12                                                
 3.69E+03   5%   0.000 MM14                                                
 1.93E+03   6%   0.000 MM17                                                
    0.000 999%   0.000 Lip13a+Lip13b                                       
 5.09E+03   5%   0.000 MM14+Lip13a+Lip13b+MM12                             
 4.66E+03   5%   0.000 MM09+Lip09                                          
 6.87E+03   5%   0.000 MM20+Lip20                                          
   6 lines in following misc. output table
  FWHM = 0.168 ppm    S/N =  12                                            
  Data shift = 0.275 ppm                                                   
  Ph: 131 deg     127.0 deg/ppm                                            
  alphaB,S = 5.7E-01,   2.1E+02                                            
    8 spline knots.   Ns = 9(2)                                            
  (13) 8 infls.   ( 9) 1 extrs.                                            
  498 points on ppm-axis = NY
      4.000000     3.992357     3.984714     3.977070     3.969427     3.961784     3.954141     3.946497     3.938854     3.931211
      3.923568     3.915925     3.908281     3.900638     3.892995     3.885352     3.877708     3.870065     3.862422     3.854779
      3.847136     3.839492     3.831849     3.824206     3.816563     3.808919     3.801276     3.793633     3.785990     3.778347
      3.770703     3.763060     3.755417     3.747774     3.740130     3.732487     3.724844     3.717201     3.709558     3.701914
      3.694271     3.686628     3.678985     3.671341     3.663698     3.656055     3.648412     3.640769     3.633125     3.625482
      3.617839     3.610196     3.602552     3.594909     3.587266     3.579623     3.571980     3.564336     3.556693     3.549050
      3.541407     3.533763     3.526120     3.518477     3.510834     3.503191     3.495547     3.487904     3.480261     3.472618
      3.464974     3.457331     3.449688     3.442045     3.434402     3.426758     3.419115     3.411472     3.403829     3.396185
      3.388542     3.380899     3.373256     3.365613     3.357969     3.350326     3.342683     3.335040     3.327396     3.319753
      3.312110     3.304467     3.296824     3.289180     3.281537     3.273894     3.266251     3.258607     3.250964     3.243321
      3.235678     3.228034     3.220391     3.212748     3.205105     3.197462     3.189818     3.182175     3.174532     3.166889
      3.159245     3.151602     3.143959     3.136316     3.128673     3.121029     3.113386     3.105743     3.098100     3.090456
      3.082813     3.075170     3.067527     3.059884     3.052240     3.044597     3.036954     3.029311     3.021667     3.014024
      3.006381     2.998738     2.991095     2.983451     2.975808     2.968165     2.960522     2.952878     2.945235     2.937592
      2.929949     2.922306     2.914662     2.907019     2.899376     2.891733     2.884089     2.876446     2.868803     2.861160
      2.853517     2.845873     2.838230     2.830587     2.822944     2.815300     2.807657     2.800014     2.792371     2.784728
      2.777084     2.769441     2.761798     2.754155     2.746511     2.738868     2.731225     2.723582     2.715939     2.708295
      2.700652     2.693009     2.685366     2.677722     2.670079     2.662436     2.654793     2.647150     2.639506     2.631863
      2.624220     2.616577     2.608933     2.601290     2.593647     2.586004     2.578361     2.570717     2.563074     2.555431
      2.547788     2.540144     2.532501     2.524858     2.517215     2.509572     2.501928     2.494285     2.486642     2.478999
      2.471355     2.463712     2.456069     2.448426     2.440783     2.433139     2.425496     2.417853     2.410210     2.402566
      2.394923     2.387280     2.379637     2.371994     2.364350     2.356707     2.349064     2.341421     2.333777     2.326134
      2.318491     2.310848     2.303205     2.295561     2.287918     2.280275     2.272632     2.264988     2.257345     2.249702
      2.242059     2.234416     2.226772     2.219129     2.211486     2.203843     2.196199     2.188556     2.180913     2.173270
      2.165627     2.157983     2.150340     2.142697     2.135054     2.127410     2.119767     2.112124     2.104481     2.096838
      2.089194     2.081551     2.073908     2.066265     2.058621     2.050978     2.043335     2.035692     2.028049     2.020405
      2.012762     2.005119     1.997476     1.989833     1.982190     1.974546     1.966903     1.959260     1.951617     1.943974
      1.936331     1.928688     1.921045     1.913402     1.905759     1.898115     1.890472     1.882829     1.875186     1.867543
      1.859900     1.852257     1.844614     1.836971     1.829327     1.821684     1.814041     1.806398     1.798755     1.791112
      1.783469     1.775826     1.768183     1.760540     1.752896     1.745253     1.737610     1.729967     1.722324     1.714681
      1.707038     1.699395     1.691752     1.684108     1.676465     1.668822     1.661179     1.653536     1.645893     1.638250
      1.630607     1.622964     1.615321     1.607677     1.600034     1.592391     1.584748     1.577105     1.569462     1.561819
      1.554176     1.546533     1.538890     1.531246     1.523603     1.515960     1.508317     1.500674     1.493031     1.485388
      1.477745     1.470102     1.462458     1.454815     1.447172     1.439529     1.431886     1.424243     1.416600     1.408957
      1.401314     1.393671     1.386027     1.378384     1.370741     1.363098     1.355455     1.347812     1.340169     1.332526
      1.324883     1.317240     1.309596     1.301953     1.294310     1.286667     1.279024     1.271381     1.263738     1.256095
      1.248452     1.240808     1.233165     1.225522     1.217879     1.210236     1.202593     1.194950     1.187307     1.179664
      1.172021     1.164377     1.156734     1.149091     1.141448     1.133805     1.126162     1.118519     1.110876     1.103233
      1.095590     1.087946     1.080303     1.072660     1.065017     1.057374     1.049731     1.042088     1.034445     1.026802
      1.019158     1.011515     1.003872     0.996229     0.988586     0.980943     0.973300     0.965657     0.958014     0.950371
      0.942727     0.935084     0.927441     0.919798     0.912155     0.904512     0.896869     0.889226     0.881583     0.873940
      0.866296     0.858653     0.851010     0.843367     0.835724     0.828081     0.820438     0.812795     0.805152     0.797508
      0.789865     0.782222     0.774579     0.766936     0.759293     0.751650     0.744007     0.736364     0.728721     0.721077
      0.713434     0.705791     0.698148     0.690505     0.682862     0.675219     0.667576     0.659933     0.652290     0.644646
      0.637003     0.629360     0.621717     0.614074     0.606431     0.598788     0.591145     0.583502     0.575858     0.568215
      0.560572     0.552929     0.545286     0.537643     0.530000     0.522357     0.514714     0.507071     0.499427     0.491784
      0.484141     0.476498     0.468855     0.461212     0.453569     0.445925     0.438282     0.430639     0.422996     0.415353
      0.407710     0.400067     0.392424     0.384780     0.377137     0.369494     0.361851     0.354208     0.346565     0.338922
      0.331278     0.323635     0.315992     0.308349     0.300706     0.293063     0.285420     0.277777     0.270133     0.262490
      0.254847     0.247204     0.239561     0.231918     0.224275     0.216631     0.208988     0.201345
 NY phased data points follow
  -9.39838E-01 -4.36515E-01 -1.49381E+00  4.35116E-01 -2.46497E+00  6.14368E-01  2.06233E+00 -1.00430E+00  4.50246E-01  1.38873E+00
  -2.90734E-01 -5.77591E-01 -4.25455E-01 -9.36018E-01 -2.26422E-01  1.35779E-01  8.30854E-01  6.28398E-01 -9.06860E-01 -1.23364E+00
   1.16813E+00  2.12656E+00 -2.41529E-02 -3.40890E-01  6.66379E-01  7.37313E-01  9.09223E-01 -1.39900E+00 -4.73821E-01 -4.77268E-01
   1.04175E+00 -5.24239E-01 -1.60563E-01 -8.51169E-01 -1.24104E+00 -2.34677E+00  1.10154E-01  3.37147E-01  1.69604E+00  2.53050E+00
   7.68829E-01  1.22071E+00 -3.35177E-04  3.42284E-01  7.41137E-01  5.02722E-01 -1.19110E+00  1.26158E+00 -4.05440E-01  1.12333E+00
   4.25265E-01  2.03542E+00  1.35166E+00  5.36542E-01 -1.15405E+00  9.70142E-01  2.69129E+00  9.63152E-01  4.40493E-01  3.07157E+00
   2.76521E+00 -6.42301E-01  1.84228E+00  1.16774E+00 -9.62794E-01 -2.20825E+00  3.13322E-01 -1.55167E+00 -9.32768E-01  4.48262E-01
   2.87983E-01  3.29211E+00  1.81640E+00  2.22883E+00  7.60123E-01 -2.13977E-01  1.46647E+00  2.41239E+00  1.86557E+00  1.97479E+00
   1.98396E+00 -4.76252E-02  4.62962E+00  3.45673E+00  3.02024E+00  3.44082E+00  7.32056E-01  9.51623E-01  2.93833E-01  2.22261E+00
   4.18886E-01  2.28555E+00  1.89144E+00  1.98757E+00  3.04749E+00  3.88604E+00  4.72301E+00  4.29048E+00  4.53252E+00  2.46349E+00
   3.10825E+00  2.46506E+00  3.11869E+00  4.83018E+00  2.57139E+00  1.61403E+00  2.87697E+00  3.48286E+00  6.93450E-01  4.03910E+00
   4.25429E+00  2.16281E+00  3.14936E+00  1.10965E+00  2.35279E+00  2.34341E+00  1.68544E+00  5.21614E+00  2.88176E+00  3.01910E+00
   3.30692E+00  4.79551E+00  3.53580E+00  3.25706E+00  4.41095E+00  3.54556E+00  1.96682E+00  3.40249E+00  3.09665E+00  3.47787E+00
   4.84877E+00  3.04123E+00  2.84441E+00  4.06979E+00  5.54519E+00  4.34271E+00  4.20575E+00  2.66961E+00  5.58184E+00  3.67749E+00
   4.37169E+00  5.53204E+00  4.71600E+00  2.35569E+00  2.90220E+00  5.65295E+00  6.22421E+00  3.22551E+00  2.91355E+00  5.69676E+00
   2.97008E+00  2.82845E+00  2.33141E+00  3.95335E-01  1.18056E+00  1.87317E+00  3.30736E+00  2.62670E+00  4.17160E+00  1.36210E+00
   4.03937E+00  3.81030E+00  6.28564E-01  2.63092E+00  5.00862E+00  2.36302E+00  3.14085E+00  2.28922E+00  5.14386E+00  2.19832E+00
   4.30407E+00  2.08634E+00  1.19523E+00  1.84632E+00  4.54462E-01  9.53279E-01  8.81871E-01 -1.17548E+00  2.64162E+00 -1.62769E-01
   5.57924E-01 -1.91474E-01 -7.69472E-01  1.67528E-01 -6.00451E-01 -3.45304E-01 -2.19175E+00 -2.57320E+00 -1.60834E+00 -1.83043E+00
  -1.65094E+00 -1.35295E+00 -2.46926E+00 -2.53962E+00 -1.93672E+00 -1.06316E-01 -4.43735E-01  5.00370E-01 -1.90570E+00 -3.51930E+00
  -2.79362E+00 -2.50746E+00 -1.55410E+00 -3.61091E+00 -5.48858E-01 -5.39243E+00 -4.44841E+00 -2.80896E+00 -3.59507E+00 -4.21331E+00
  -6.46530E+00 -4.15263E+00 -2.05161E+00 -4.80743E+00 -4.13319E+00 -4.67367E+00 -3.76287E+00 -5.80052E+00 -3.45235E+00 -4.85126E+00
  -6.69501E+00 -3.40683E+00 -2.14054E+00  8.44792E-01 -5.94745E-01 -1.03492E+00 -1.51817E+00 -4.66379E+00 -3.13796E+00 -2.59618E+00
  -5.34304E+00 -6.79488E+00 -6.08989E+00 -1.78154E+00 -3.24178E+00 -4.87236E+00 -3.65398E+00 -3.98275E+00 -3.57325E+00 -3.37326E+00
  -4.15182E+00 -4.18781E+00 -4.16252E+00 -4.23808E+00 -5.14180E+00 -2.77524E+00 -4.77347E+00 -3.41934E+00 -3.44172E+00 -4.61807E+00
  -4.00659E+00 -5.74066E+00 -7.15125E+00 -3.43235E+00 -6.88363E+00 -7.08129E+00 -7.28592E+00 -6.89722E+00 -5.42562E+00 -4.86834E+00
  -6.84332E+00 -8.41296E+00 -9.56463E+00 -9.90580E+00 -1.03496E+01 -1.12352E+01 -1.12164E+01 -1.37183E+01 -1.15277E+01 -1.39067E+01
  -1.44798E+01 -1.19755E+01 -1.50974E+01 -1.46229E+01 -1.61548E+01 -1.41964E+01 -1.78249E+01 -1.62135E+01 -1.76230E+01 -2.06310E+01
  -2.11106E+01 -2.13841E+01 -2.32464E+01 -2.15559E+01 -2.22548E+01 -2.38595E+01 -2.77771E+01 -2.58503E+01 -2.62903E+01 -2.66363E+01
  -2.59629E+01 -2.51125E+01 -2.35813E+01 -2.35580E+01 -2.23283E+01 -1.90515E+01 -1.75926E+01 -1.14226E+01 -1.18718E+01 -9.70800E+00
  -3.06496E+00 -1.72011E+00 -1.73286E-02  5.32983E+00  7.30314E+00  9.29084E+00  1.23621E+01  1.48278E+01  1.83499E+01  1.91086E+01
   1.91017E+01  2.03886E+01  2.29568E+01  1.93145E+01  2.10309E+01  2.15110E+01  2.23970E+01  2.05210E+01  2.27039E+01  1.99731E+01
   2.15885E+01  2.07219E+01  2.12690E+01  1.85717E+01  1.97758E+01  1.68170E+01  1.91929E+01  1.88051E+01  1.78934E+01  1.75909E+01
   1.61779E+01  1.51804E+01  1.44380E+01  1.37905E+01  1.27211E+01  1.20234E+01  1.23841E+01  9.94030E+00  1.06931E+01  9.14044E+00
   9.72225E+00  9.79231E+00  8.65797E+00  7.66356E+00  8.38557E+00  1.01596E+01  7.57466E+00  6.86800E+00  9.79610E+00  7.52712E+00
   3.80978E+00  6.26089E+00  4.89062E+00  7.26784E+00  5.15789E+00  3.34911E+00  4.64126E+00  5.26169E+00  5.80856E+00  6.23092E+00
   5.43000E+00  3.76805E+00  5.15309E+00  8.03053E+00  6.55174E+00  6.19382E+00  4.19288E+00  3.63830E+00  4.44679E+00  6.07286E+00
   4.36115E+00  4.11769E+00  3.41970E+00  3.26986E+00  3.80695E+00  4.39021E+00  4.41774E+00  3.68206E+00  2.93234E+00  2.61356E+00
   2.63204E+00  4.03840E+00  3.89467E+00  1.77843E+00  3.23220E+00  3.48883E+00  4.50062E+00  3.41761E+00  3.46671E+00  3.10177E+00
   3.41358E+00  2.49987E+00  1.58806E+00  4.96103E+00  1.51408E+00  3.08047E+00  2.58809E+00  2.26614E+00  2.64154E+00  2.34228E+00
   3.22459E+00  4.32460E-01  4.32683E+00  9.75438E-01  2.73530E+00  2.57435E+00  2.08087E+00  1.96269E+00  1.57202E+00  1.51160E+00
   1.31362E+00  3.22821E-01 -6.08867E-01  4.66923E-01 -1.58460E-01  2.37147E+00 -6.65235E-02  2.71729E-01 -7.70060E-01  1.59062E+00
  -8.19396E-01 -5.02743E-01  5.72099E-01 -4.76153E-01  1.49105E+00  1.17727E+00 -1.21144E+00 -1.71800E+00 -1.06140E-01 -1.18623E+00
  -1.15924E+00  8.44966E-01 -1.32059E+00 -1.60913E-01  8.12320E-02 -8.62710E-01 -1.58504E+00 -1.38842E+00 -2.60440E-01 -1.21483E+00
  -3.32760E-01 -2.22612E+00 -2.33704E+00 -1.94062E+00 -1.43688E+00 -1.81516E+00 -4.11970E+00 -1.40613E+00 -1.58053E+00 -8.16939E-01
  -2.33740E+00 -1.65405E+00 -4.87373E+00 -1.32865E+00 -2.39733E+00 -2.03111E+00 -3.17830E+00 -2.04566E+00 -3.02697E+00 -3.54297E+00
  -1.73459E+00 -5.07920E+00 -1.97363E+00 -3.14229E+00 -1.61654E+00 -3.47920E+00 -4.08030E+00 -4.44244E+00 -1.88557E+00 -1.71724E+00
  -3.61288E+00 -3.87389E+00 -3.78101E+00 -2.45941E+00 -2.24809E+00 -3.03595E+00 -4.05165E+00 -4.57487E+00 -2.85507E+00 -2.91909E+00
  -1.24524E+00 -2.05263E+00 -4.50554E+00 -3.32008E+00 -3.19650E+00 -8.86952E-01 -4.62907E+00 -2.63080E+00 -4.05280E+00 -2.19902E+00
  -2.48020E+00 -3.55036E+00 -1.71122E+00 -2.51959E+00 -2.21190E+00 -3.59799E+00 -2.81531E+00 -2.93122E+00
 NY points of the fit to the data follow
  -1.44738E+00 -3.25080E-01 -1.52329E+00 -4.23204E-01 -9.84278E-01  3.04751E-01  1.18619E-01  1.67999E+00  9.17124E-01  1.65065E+00
   6.51428E-01  8.27634E-01 -1.40118E-01  7.86284E-02 -1.15237E+00 -2.85070E-01 -8.70253E-01 -7.91951E-02 -4.09731E-01  2.27893E-01
  -7.53324E-02  6.19273E-01  1.45308E-01  4.63074E-01  1.89725E-01  1.92738E-01 -6.97537E-02 -3.60406E-01 -4.26284E-01 -7.36673E-01
  -4.18794E-01 -6.93408E-01 -5.20071E-02 -3.61478E-01  4.34852E-01 -1.06429E-01  6.52606E-01 -3.41897E-02  6.46125E-01 -1.61315E-01
   4.91089E-01 -2.23450E-01  4.41863E-01 -2.45420E-01  3.35710E-01 -1.92802E-01  5.60101E-01  2.92612E-01  7.83080E-01  5.23941E-01
   9.08677E-01  6.87752E-01  9.25078E-01  5.59062E-01  5.52190E-01  4.44586E-01  5.59878E-01  5.53244E-01  6.99462E-01  7.65715E-01
   9.50797E-01  1.07328E+00  1.13268E+00  1.17055E+00  1.19996E+00  1.22553E+00  1.24934E+00  1.27240E+00  1.29528E+00  1.31836E+00
   1.34187E+00  1.36600E+00  1.39081E+00  1.41639E+00  1.44278E+00  1.47008E+00  1.49836E+00  1.52767E+00  1.55804E+00  1.58954E+00
   1.62220E+00  1.65617E+00  1.69150E+00  1.72829E+00  1.76658E+00  1.80649E+00  1.84813E+00  1.89164E+00  1.93712E+00  1.98470E+00
   2.03447E+00  2.08658E+00  2.14119E+00  2.19846E+00  2.25850E+00  2.32145E+00  2.38741E+00  2.45656E+00  2.52903E+00  2.60502E+00
   2.68468E+00  2.76726E+00  2.85169E+00  2.94090E+00  3.03145E+00  3.12746E+00  3.22481E+00  3.32881E+00  3.42972E+00  3.53833E+00
   3.64173E+00  3.75402E+00  3.85981E+00  3.97578E+00  4.08502E+00  4.21158E+00  4.32391E+00  4.42846E+00  4.52168E+00  4.60867E+00
   4.68665E+00  4.76778E+00  4.84542E+00  4.91264E+00  4.98606E+00  5.02024E+00  5.07288E+00  5.07944E+00  5.11689E+00  5.09897E+00
   5.12467E+00  5.07676E+00  5.08153E+00  4.99993E+00  4.98011E+00  4.86867E+00  4.82747E+00  4.69608E+00  4.64218E+00  4.49681E+00
   4.43000E+00  4.26850E+00  4.18347E+00  4.00878E+00  3.90625E+00  3.72798E+00  3.61439E+00  3.43617E+00  3.31283E+00  3.13790E+00
   3.00760E+00  2.83540E+00  2.69927E+00  2.53256E+00  2.39475E+00  2.24234E+00  2.10845E+00  1.96007E+00  1.82415E+00  1.67808E+00
   1.53914E+00  1.39856E+00  1.26133E+00  1.12763E+00  9.95902E-01  8.65007E-01  7.36599E-01  6.02180E-01  4.75001E-01  3.41409E-01
   2.16676E-01  8.70248E-02 -2.73475E-02 -1.49960E-01 -2.58248E-01 -3.83664E-01 -4.96972E-01 -6.25498E-01 -7.41354E-01 -8.77524E-01
  -9.99968E-01 -1.12241E+00 -1.24071E+00 -1.35909E+00 -1.48071E+00 -1.59781E+00 -1.72280E+00 -1.83162E+00 -1.95648E+00 -2.05575E+00
  -2.17931E+00 -2.27489E+00 -2.40242E+00 -2.49691E+00 -2.62723E+00 -2.71525E+00 -2.84263E+00 -2.92443E+00 -3.04483E+00 -3.11843E+00
  -3.23069E+00 -3.30202E+00 -3.40754E+00 -3.47642E+00 -3.57353E+00 -3.63665E+00 -3.72153E+00 -3.77911E+00 -3.85181E+00 -3.90470E+00
  -3.96719E+00 -4.01279E+00 -4.06186E+00 -4.10611E+00 -4.14754E+00 -4.17506E+00 -4.19808E+00 -4.20824E+00 -4.21261E+00 -4.20641E+00
  -4.19662E+00 -4.18901E+00 -4.17284E+00 -4.15291E+00 -4.11948E+00 -4.08281E+00 -4.03200E+00 -3.97593E+00 -3.89981E+00 -3.83144E+00
  -3.73954E+00 -3.65735E+00 -3.54903E+00 -3.45267E+00 -3.33182E+00 -3.23309E+00 -3.11121E+00 -3.02150E+00 -2.91213E+00 -2.84215E+00
  -2.75735E+00 -2.71310E+00 -2.66196E+00 -2.65646E+00 -2.65427E+00 -2.70314E+00 -2.76534E+00 -2.88449E+00 -3.02578E+00 -3.22071E+00
  -3.44503E+00 -3.71943E+00 -4.02771E+00 -4.38340E+00 -4.77429E+00 -5.20540E+00 -5.67060E+00 -6.16712E+00 -6.69289E+00 -7.23776E+00
  -7.80891E+00 -8.39591E+00 -9.00221E+00 -9.61763E+00 -1.02448E+01 -1.08757E+01 -1.15118E+01 -1.21422E+01 -1.27706E+01 -1.33903E+01
  -1.40026E+01 -1.46024E+01 -1.51899E+01 -1.57623E+01 -1.63184E+01 -1.68561E+01 -1.73729E+01 -1.78667E+01 -1.83349E+01 -1.87746E+01
  -1.91822E+01 -1.95533E+01 -1.98827E+01 -2.01642E+01 -2.03903E+01 -2.05520E+01 -2.06392E+01 -2.06401E+01 -2.05420E+01 -2.03314E+01
  -1.99946E+01 -1.95178E+01 -1.88882E+01 -1.80950E+01 -1.71300E+01 -1.59883E+01 -1.46689E+01 -1.31750E+01 -1.15136E+01 -9.69520E+00
  -7.73270E+00 -5.63922E+00 -3.42481E+00 -1.09249E+00  1.36906E+00  3.99778E+00  6.88649E+00  1.02577E+01  1.46452E+01  1.98861E+01
   2.14980E+01  2.34776E+01  2.34232E+01  2.40980E+01  2.31647E+01  2.28813E+01  2.01384E+01  2.17921E+01  2.10380E+01  2.14500E+01
   2.05526E+01  1.99894E+01  1.87946E+01  1.84459E+01  1.77653E+01  1.72645E+01  1.73998E+01  1.62378E+01  1.73977E+01  1.78596E+01
   1.73928E+01  1.49144E+01  1.49652E+01  1.20793E+01  1.27629E+01  9.47509E+00  9.90933E+00  9.85003E+00  1.10984E+01  9.80662E+00
   1.02672E+01  8.74312E+00  9.15201E+00  9.35495E+00  9.33470E+00  9.62122E+00  8.84044E+00  8.28022E+00  7.33858E+00  6.86488E+00
   5.34610E+00  5.81329E+00  4.98640E+00  6.35310E+00  5.55029E+00  6.39342E+00  4.94498E+00  5.60600E+00  4.92970E+00  5.57659E+00
   4.98367E+00  5.54990E+00  5.45355E+00  6.14750E+00  5.92290E+00  5.72541E+00  5.29116E+00  4.93326E+00  5.38480E+00  5.91661E+00
   5.82737E+00  5.85152E+00  5.61476E+00  5.13271E+00  4.61391E+00  2.95523E+00  2.04119E+00  1.58158E+00  1.34880E+00  1.25515E+00
   1.25736E+00  1.33016E+00  1.45676E+00  1.62517E+00  1.82580E+00  2.05043E+00  2.29142E+00  2.54175E+00  2.79487E+00  3.04477E+00
   3.28576E+00  3.51245E+00  3.71977E+00  3.90324E+00  4.05907E+00  4.18422E+00  4.27622E+00  4.33323E+00  4.35404E+00  4.33829E+00
   4.28645E+00  4.19962E+00  4.07942E+00  3.92786E+00  3.74737E+00  3.54085E+00  3.31151E+00  3.06266E+00  2.79764E+00  2.51974E+00
   2.23224E+00  1.93838E+00  1.64123E+00  1.34361E+00  1.04799E+00  7.56593E-01  4.71413E-01  1.94229E-01 -7.34725E-02 -3.30552E-01
  -5.76155E-01 -8.09640E-01 -1.03050E+00 -1.23838E+00 -1.43318E+00 -1.61495E+00 -1.78391E+00 -1.94032E+00 -2.08446E+00 -2.21668E+00
  -2.33745E+00 -2.44732E+00 -2.54682E+00 -2.63645E+00 -2.71670E+00 -2.78806E+00 -2.85110E+00 -2.90638E+00 -2.95440E+00 -2.99560E+00
  -3.03040E+00 -3.05924E+00 -3.08260E+00 -3.10090E+00 -3.11451E+00 -3.12373E+00 -3.12890E+00 -3.13033E+00 -3.12840E+00 -3.12338E+00
  -3.11551E+00 -3.10499E+00 -3.09207E+00 -3.07698E+00 -3.05999E+00 -3.04125E+00 -3.02093E+00 -2.99914E+00 -2.97609E+00 -2.95194E+00
  -2.92686E+00 -2.90094E+00 -2.87427E+00 -2.84696E+00 -2.81914E+00 -2.79095E+00 -2.76246E+00 -2.73374E+00 -2.70485E+00 -2.67586E+00
  -2.64688E+00 -2.61800E+00 -2.58926E+00 -2.56068E+00 -2.53231E+00 -2.50421E+00 -2.47648E+00 -2.44914E+00 -2.42221E+00 -2.39571E+00
  -2.36967E+00 -2.34416E+00 -2.31921E+00 -2.29483E+00 -2.27103E+00 -2.24781E+00 -2.22520E+00 -2.20323E+00 -2.18192E+00 -2.16124E+00
  -2.14117E+00 -2.12170E+00 -2.10283E+00 -2.08453E+00 -2.06674E+00 -2.04936E+00 -2.03227E+00 -2.01527E+00
 NY background values follow
    -9.409E-01   -9.224E-01   -9.039E-01   -8.853E-01   -8.667E-01   -8.481E-01   -8.294E-01   -8.107E-01   -7.919E-01   -7.731E-01
    -7.543E-01   -7.355E-01   -7.167E-01   -6.979E-01   -6.791E-01   -6.602E-01   -6.414E-01   -6.225E-01   -6.037E-01   -5.849E-01
    -5.661E-01   -5.474E-01   -5.286E-01   -5.099E-01   -4.912E-01   -4.726E-01   -4.540E-01   -4.355E-01   -4.169E-01   -3.985E-01
    -3.801E-01   -3.618E-01   -3.435E-01   -3.253E-01   -3.071E-01   -2.891E-01   -2.711E-01   -2.532E-01   -2.354E-01   -2.176E-01
    -2.000E-01   -1.825E-01   -1.650E-01   -1.477E-01   -1.305E-01   -1.134E-01   -9.640E-02   -7.953E-02   -6.279E-02   -4.617E-02
    -2.969E-02   -1.334E-02    2.873E-03    1.894E-02    3.486E-02    5.063E-02    6.624E-02    8.170E-02    9.699E-02    1.121E-01
     1.271E-01    1.419E-01    1.565E-01    1.709E-01    1.851E-01    1.992E-01    2.130E-01    2.267E-01    2.402E-01    2.534E-01
     2.665E-01    2.793E-01    2.919E-01    3.043E-01    3.165E-01    3.285E-01    3.402E-01    3.517E-01    3.629E-01    3.739E-01
     3.847E-01    3.952E-01    4.055E-01    4.155E-01    4.252E-01    4.347E-01    4.439E-01    4.528E-01    4.615E-01    4.699E-01
     4.780E-01    4.858E-01    4.933E-01    5.005E-01    5.074E-01    5.140E-01    5.204E-01    5.264E-01    5.320E-01    5.374E-01
     5.425E-01    5.472E-01    5.515E-01    5.553E-01    5.588E-01    5.617E-01    5.640E-01    5.658E-01    5.669E-01    5.673E-01
     5.671E-01    5.660E-01    5.642E-01    5.616E-01    5.580E-01    5.536E-01    5.482E-01    5.418E-01    5.343E-01    5.258E-01
     5.162E-01    5.054E-01    4.934E-01    4.801E-01    4.656E-01    4.497E-01    4.325E-01    4.138E-01    3.937E-01    3.722E-01
     3.491E-01    3.244E-01    2.981E-01    2.702E-01    2.406E-01    2.092E-01    1.761E-01    1.412E-01    1.044E-01    6.567E-02
     2.505E-02   -1.756E-02   -6.217E-02   -1.088E-01   -1.576E-01   -2.085E-01   -2.616E-01   -3.169E-01   -3.745E-01   -4.344E-01
    -4.966E-01   -5.612E-01   -6.283E-01   -6.978E-01   -7.698E-01   -8.443E-01   -9.214E-01   -1.001E+00   -1.084E+00   -1.169E+00
    -1.257E+00   -1.347E+00   -1.441E+00   -1.537E+00   -1.637E+00   -1.739E+00   -1.844E+00   -1.952E+00   -2.064E+00   -2.178E+00
    -2.296E+00   -2.417E+00   -2.541E+00   -2.668E+00   -2.799E+00   -2.933E+00   -3.070E+00   -3.211E+00   -3.355E+00   -3.503E+00
    -3.655E+00   -3.810E+00   -3.968E+00   -4.131E+00   -4.297E+00   -4.467E+00   -4.640E+00   -4.818E+00   -4.999E+00   -5.185E+00
    -5.374E+00   -5.567E+00   -5.765E+00   -5.966E+00   -6.172E+00   -6.382E+00   -6.596E+00   -6.814E+00   -7.037E+00   -7.264E+00
    -7.495E+00   -7.730E+00   -7.970E+00   -8.213E+00   -8.461E+00   -8.712E+00   -8.967E+00   -9.225E+00   -9.486E+00   -9.751E+00
    -1.002E+01   -1.029E+01   -1.056E+01   -1.084E+01   -1.112E+01   -1.140E+01   -1.169E+01   -1.197E+01   -1.226E+01   -1.255E+01
    -1.284E+01   -1.314E+01   -1.343E+01   -1.373E+01   -1.403E+01   -1.433E+01   -1.463E+01   -1.493E+01   -1.523E+01   -1.554E+01
    -1.584E+01   -1.615E+01   -1.645E+01   -1.676E+01   -1.706E+01   -1.737E+01   -1.768E+01   -1.798E+01   -1.829E+01   -1.859E+01
    -1.890E+01   -1.920E+01   -1.950E+01   -1.980E+01   -2.011E+01   -2.040E+01   -2.070E+01   -2.100E+01   -2.129E+01   -2.159E+01
    -2.188E+01   -2.217E+01   -2.246E+01   -2.274E+01   -2.303E+01   -2.331E+01   -2.359E+01   -2.386E+01   -2.413E+01   -2.440E+01
    -2.467E+01   -2.493E+01   -2.520E+01   -2.545E+01   -2.571E+01   -2.596E+01   -2.620E+01   -2.644E+01   -2.668E+01   -2.692E+01
    -2.715E+01   -2.737E+01   -2.759E+01   -2.781E+01   -2.802E+01   -2.823E+01   -2.843E+01   -2.863E+01   -2.882E+01   -2.900E+01
    -2.918E+01   -2.936E+01   -2.953E+01   -2.969E+01   -2.985E+01   -3.000E+01   -3.014E+01   -3.028E+01   -3.041E+01   -3.054E+01
    -3.066E+01   -3.077E+01   -3.088E+01   -3.097E+01   -3.106E+01   -3.115E+01   -3.122E+01   -3.129E+01   -3.135E+01   -3.140E+01
    -3.145E+01   -3.149E+01   -3.152E+01   -3.154E+01   -3.155E+01   -3.156E+01   -3.156E+01   -3.155E+01   -3.154E+01   -3.152E+01
    -3.149E+01   -3.146E+01   -3.142E+01   -3.137E+01   -3.132E+01   -3.126E+01   -3.120E+01   -3.112E+01   -3.105E+01   -3.096E+01
    -3.087E+01   -3.078E+01   -3.068E+01   -3.057E+01   -3.046E+01   -3.035E+01   -3.023E+01   -3.010E+01   -2.997E+01   -2.983E+01
    -2.969E+01   -2.955E+01   -2.940E+01   -2.924E+01   -2.909E+01   -2.892E+01   -2.876E+01   -2.859E+01   -2.841E+01   -2.823E+01
    -2.805E+01   -2.787E+01   -2.768E+01   -2.749E+01   -2.729E+01   -2.709E+01   -2.689E+01   -2.668E+01   -2.648E+01   -2.627E+01
    -2.605E+01   -2.584E+01   -2.562E+01   -2.540E+01   -2.518E+01   -2.495E+01   -2.473E+01   -2.450E+01   -2.427E+01   -2.404E+01
    -2.380E+01   -2.357E+01   -2.333E+01   -2.309E+01   -2.286E+01   -2.262E+01   -2.237E+01   -2.213E+01   -2.189E+01   -2.165E+01
    -2.140E+01   -2.116E+01   -2.091E+01   -2.067E+01   -2.042E+01   -2.018E+01   -1.993E+01   -1.969E+01   -1.944E+01   -1.920E+01
    -1.895E+01   -1.871E+01   -1.846E+01   -1.822E+01   -1.798E+01   -1.774E+01   -1.750E+01   -1.726E+01   -1.703E+01   -1.679E+01
    -1.656E+01   -1.632E+01   -1.609E+01   -1.586E+01   -1.564E+01   -1.541E+01   -1.519E+01   -1.497E+01   -1.475E+01   -1.453E+01
    -1.432E+01   -1.410E+01   -1.389E+01   -1.369E+01   -1.348E+01   -1.328E+01   -1.308E+01   -1.288E+01   -1.269E+01   -1.249E+01
    -1.230E+01   -1.211E+01   -1.193E+01   -1.174E+01   -1.156E+01   -1.138E+01   -1.120E+01   -1.102E+01   -1.085E+01   -1.068E+01
    -1.051E+01   -1.034E+01   -1.018E+01   -1.001E+01   -9.853E+00   -9.694E+00   -9.537E+00   -9.383E+00   -9.230E+00   -9.080E+00
    -8.931E+00   -8.785E+00   -8.640E+00   -8.498E+00   -8.358E+00   -8.219E+00   -8.083E+00   -7.948E+00   -7.816E+00   -7.686E+00
    -7.557E+00   -7.431E+00   -7.306E+00   -7.183E+00   -7.063E+00   -6.944E+00   -6.827E+00   -6.712E+00   -6.599E+00   -6.487E+00
    -6.378E+00   -6.270E+00   -6.164E+00   -6.060E+00   -5.958E+00   -5.858E+00   -5.760E+00   -5.663E+00   -5.568E+00   -5.475E+00
    -5.384E+00   -5.294E+00   -5.206E+00   -5.120E+00   -5.036E+00   -4.953E+00   -4.872E+00   -4.793E+00   -4.715E+00   -4.639E+00
    -4.565E+00   -4.492E+00   -4.421E+00   -4.352E+00   -4.285E+00   -4.219E+00   -4.154E+00   -4.091E+00   -4.030E+00   -3.971E+00
    -3.913E+00   -3.856E+00   -3.801E+00   -3.748E+00   -3.696E+00   -3.646E+00   -3.597E+00   -3.550E+00   -3.504E+00   -3.460E+00
    -3.417E+00   -3.375E+00   -3.336E+00   -3.297E+00   -3.260E+00   -3.225E+00   -3.191E+00   -3.158E+00
 Ala      Conc. = 8.86E+03
