 LCModel (Version 6.3-1L) Copyright: S.W. Provencher.          Ref.: Magn. Reson. Med. 30:672-679 (1993).                
 Slice#1 Row#3 Col#4  PD_24_press_2_raw_act
 36 lines in following concentration table = NCONC+1
    Conc.  %SD /Cr+PCr  Metabolite                                         
 1.72E+03  61%   0.956 Ala                                                 
    0.000 999%   0.000 Asp                                                 
    0.000 999%   0.000 Cr                                                  
 1.80E+03  10%   1.000 PCr                                                 
  160.206 123% 8.9E-02 GABA                                                
  112.032 174% 6.2E-02 Glc                                                 
 1.16E+04  17%   6.481 Gln                                                 
 8.50E+03  27%   4.728 Glu                                                 
  613.097  12%   0.341 GPC                                                 
    0.000 999%   0.000 PCh                                                 
  831.910  45%   0.463 GSH                                                 
 6.02E+03  13%   3.350 Ins                                                 
    0.000 999%   0.000 Lac                                                 
  231.442 244%   0.129 NAA                                                 
 2.13E+03  28%   1.187 NAAG                                                
   43.579 125% 2.4E-02 Scyllo                                              
    0.000 999%   0.000 Tau                                                 
    0.000 999%   0.000 -CrCH2                                              
  613.097  12%   0.341 GPC+PCh                                             
 2.36E+03  11%   1.316 NAA+NAAG                                            
 1.80E+03  10%   1.000 Cr+PCr                                              
 2.01E+04  19%  11.209 Glu+Gln                                             
    0.000 999%   0.000 Lip13a                                              
    0.000 999%   0.000 Lip13b                                              
 4.61E-02 999% 2.6E-05 Lip09                                               
 1.69E+03  19%   0.940 MM09                                                
 3.02E-02 999% 1.7E-05 Lip20                                               
    0.000 999%   0.000 MM20                                                
  113.511 298% 6.3E-02 MM12                                                
 2.39E+03  30%   1.332 MM14                                                
 3.94E+03  18%   2.195 MM17                                                
    0.000 999%   0.000 Lip13a+Lip13b                                       
 2.51E+03  31%   1.396 MM14+Lip13a+Lip13b+MM12                             
 1.69E+03  19%   0.940 MM09+Lip09                                          
 3.02E-02 999% 1.7E-05 MM20+Lip20                                          
   6 lines in following misc. output table
  FWHM = 0.153 ppm    S/N =   2                                            
  Data shift = 0.031 ppm                                                   
  Ph:  96 deg      43.4 deg/ppm                                            
  alphaB,S = 8.5E+01,   2.2E+02                                            
   14 spline knots.   Ns = 7(2)                                            
  ( 4) 2 infls.   ( 1) 1 extrs.                                            
  498 points on ppm-axis = NY
      4.000000     3.992357     3.984714     3.977070     3.969427     3.961784     3.954141     3.946497     3.938854     3.931211
      3.923568     3.915925     3.908281     3.900638     3.892995     3.885352     3.877708     3.870065     3.862422     3.854779
      3.847136     3.839492     3.831849     3.824206     3.816563     3.808919     3.801276     3.793633     3.785990     3.778347
      3.770703     3.763060     3.755417     3.747774     3.740130     3.732487     3.724844     3.717201     3.709558     3.701914
      3.694271     3.686628     3.678985     3.671341     3.663698     3.656055     3.648412     3.640769     3.633125     3.625482
      3.617839     3.610196     3.602552     3.594909     3.587266     3.579623     3.571980     3.564336     3.556693     3.549050
      3.541407     3.533763     3.526120     3.518477     3.510834     3.503191     3.495547     3.487904     3.480261     3.472618
      3.464974     3.457331     3.449688     3.442045     3.434402     3.426758     3.419115     3.411472     3.403829     3.396185
      3.388542     3.380899     3.373256     3.365613     3.357969     3.350326     3.342683     3.335040     3.327396     3.319753
      3.312110     3.304467     3.296824     3.289180     3.281537     3.273894     3.266251     3.258607     3.250964     3.243321
      3.235678     3.228034     3.220391     3.212748     3.205105     3.197462     3.189818     3.182175     3.174532     3.166889
      3.159245     3.151602     3.143959     3.136316     3.128673     3.121029     3.113386     3.105743     3.098100     3.090456
      3.082813     3.075170     3.067527     3.059884     3.052240     3.044597     3.036954     3.029311     3.021667     3.014024
      3.006381     2.998738     2.991095     2.983451     2.975808     2.968165     2.960522     2.952878     2.945235     2.937592
      2.929949     2.922306     2.914662     2.907019     2.899376     2.891733     2.884089     2.876446     2.868803     2.861160
      2.853517     2.845873     2.838230     2.830587     2.822944     2.815300     2.807657     2.800014     2.792371     2.784728
      2.777084     2.769441     2.761798     2.754155     2.746511     2.738868     2.731225     2.723582     2.715939     2.708295
      2.700652     2.693009     2.685366     2.677722     2.670079     2.662436     2.654793     2.647150     2.639506     2.631863
      2.624220     2.616577     2.608933     2.601290     2.593647     2.586004     2.578361     2.570717     2.563074     2.555431
      2.547788     2.540144     2.532501     2.524858     2.517215     2.509572     2.501928     2.494285     2.486642     2.478999
      2.471355     2.463712     2.456069     2.448426     2.440783     2.433139     2.425496     2.417853     2.410210     2.402566
      2.394923     2.387280     2.379637     2.371994     2.364350     2.356707     2.349064     2.341421     2.333777     2.326134
      2.318491     2.310848     2.303205     2.295561     2.287918     2.280275     2.272632     2.264988     2.257345     2.249702
      2.242059     2.234416     2.226772     2.219129     2.211486     2.203843     2.196199     2.188556     2.180913     2.173270
      2.165627     2.157983     2.150340     2.142697     2.135054     2.127410     2.119767     2.112124     2.104481     2.096838
      2.089194     2.081551     2.073908     2.066265     2.058621     2.050978     2.043335     2.035692     2.028049     2.020405
      2.012762     2.005119     1.997476     1.989833     1.982190     1.974546     1.966903     1.959260     1.951617     1.943974
      1.936331     1.928688     1.921045     1.913402     1.905759     1.898115     1.890472     1.882829     1.875186     1.867543
      1.859900     1.852257     1.844614     1.836971     1.829327     1.821684     1.814041     1.806398     1.798755     1.791112
      1.783469     1.775826     1.768183     1.760540     1.752896     1.745253     1.737610     1.729967     1.722324     1.714681
      1.707038     1.699395     1.691752     1.684108     1.676465     1.668822     1.661179     1.653536     1.645893     1.638250
      1.630607     1.622964     1.615321     1.607677     1.600034     1.592391     1.584748     1.577105     1.569462     1.561819
      1.554176     1.546533     1.538890     1.531246     1.523603     1.515960     1.508317     1.500674     1.493031     1.485388
      1.477745     1.470102     1.462458     1.454815     1.447172     1.439529     1.431886     1.424243     1.416600     1.408957
      1.401314     1.393671     1.386027     1.378384     1.370741     1.363098     1.355455     1.347812     1.340169     1.332526
      1.324883     1.317240     1.309596     1.301953     1.294310     1.286667     1.279024     1.271381     1.263738     1.256095
      1.248452     1.240808     1.233165     1.225522     1.217879     1.210236     1.202593     1.194950     1.187307     1.179664
      1.172021     1.164377     1.156734     1.149091     1.141448     1.133805     1.126162     1.118519     1.110876     1.103233
      1.095590     1.087946     1.080303     1.072660     1.065017     1.057374     1.049731     1.042088     1.034445     1.026802
      1.019158     1.011515     1.003872     0.996229     0.988586     0.980943     0.973300     0.965657     0.958014     0.950371
      0.942727     0.935084     0.927441     0.919798     0.912155     0.904512     0.896869     0.889226     0.881583     0.873940
      0.866296     0.858653     0.851010     0.843367     0.835724     0.828081     0.820438     0.812795     0.805152     0.797508
      0.789865     0.782222     0.774579     0.766936     0.759293     0.751650     0.744007     0.736364     0.728721     0.721077
      0.713434     0.705791     0.698148     0.690505     0.682862     0.675219     0.667576     0.659933     0.652290     0.644646
      0.637003     0.629360     0.621717     0.614074     0.606431     0.598788     0.591145     0.583502     0.575858     0.568215
      0.560572     0.552929     0.545286     0.537643     0.530000     0.522357     0.514714     0.507071     0.499427     0.491784
      0.484141     0.476498     0.468855     0.461212     0.453569     0.445925     0.438282     0.430639     0.422996     0.415353
      0.407710     0.400067     0.392424     0.384780     0.377137     0.369494     0.361851     0.354208     0.346565     0.338922
      0.331278     0.323635     0.315992     0.308349     0.300706     0.293063     0.285420     0.277777     0.270133     0.262490
      0.254847     0.247204     0.239561     0.231918     0.224275     0.216631     0.208988     0.201345
 NY phased data points follow
   7.27371E+01  9.74289E+01  7.40918E+01  6.49078E+01  6.61452E+01  5.62098E+01  6.45462E+01  7.27836E+01  5.84784E+01  7.12666E+01
   4.75621E+01  4.89569E+01  5.81276E+01  6.20055E+01  6.64058E+01  6.14889E+01  6.01733E+01  5.58164E+01  4.75246E+01  5.78479E+01
   4.19150E+01  5.25193E+01  5.70457E+01  5.94140E+01  5.55114E+01  5.42698E+01  3.54736E+01  4.73079E+01  3.36356E+01  6.19252E+01
   5.35373E+01  5.44595E+01  4.93907E+01  6.34982E+01  4.80587E+01  4.77940E+01  3.72494E+01  4.24483E+01  4.51373E+01  5.61004E+01
   4.51130E+01  5.56962E+01  5.34242E+01  4.90204E+01  4.57557E+01  4.05403E+01  4.52389E+01  3.71605E+01  3.66751E+01  4.74528E+01
   3.13528E+01  4.35727E+01  4.26594E+01  4.56887E+01  5.21517E+01  3.45309E+01  4.30524E+01  3.27355E+01  4.54359E+01  4.40672E+01
   4.75942E+01  4.31447E+01  2.96565E+01  4.58971E+01  2.38311E+01  2.95903E+01  3.50448E+01  2.91750E+01  2.75516E+01  3.20410E+01
   2.59867E+01  3.04366E+01  2.79135E+01  2.96296E+01  3.50741E+01  2.94672E+01  1.63205E+01  3.81581E+01  1.48884E+01  3.03417E+01
   3.05745E+01  2.75948E+01  2.49977E+01  1.88305E+01  2.25473E+01  2.44112E+01  2.03948E+01  1.11533E+01  1.69171E+01  2.31581E+01
   3.11053E+01  1.29427E+01  2.02120E+01  1.76646E+01  2.18196E+01  2.38448E+01  3.17952E+01  3.57701E+01  3.81152E+01  3.27663E+01
   3.41452E+01  2.75908E+01  2.31187E+01  3.27842E+01  2.82149E+01  3.93405E+01  4.93757E+01  4.08153E+01  2.78517E+01  2.79587E+01
   2.60678E+01  3.58670E+01  2.79065E+01  2.78024E+01  1.86651E+01  2.10241E+01  1.19576E+01  1.42056E+01  1.17137E+01  2.27569E+01
   1.68755E+01  3.49715E+01  3.39910E+01  2.43495E+01  2.70176E+01  2.74820E+01  1.91446E+01  3.81717E+01  1.98857E+01  2.57054E+01
   3.06473E+01  3.18322E+01  3.23043E+01  2.80178E+01  2.25881E+01  2.50043E+01  2.97575E+01  2.26256E+01  1.90368E+01  2.99784E+01
   1.75461E+01  2.41559E+01  2.34690E+01  5.55992E+00  1.90537E+01  3.92443E+00  7.91536E-01  1.59025E+01  1.99505E+01  2.39954E+01
   2.14494E+01  1.43590E+01  1.62924E+01  8.77086E+00  9.84744E+00  1.73768E+01  8.56063E+00  1.42231E+00  2.32168E+00  1.06337E+01
   1.41061E+01  1.80180E+01  5.04162E+00  8.62028E+00  1.13472E+01 -7.69977E+00  1.46654E+01 -2.63945E+00  1.87394E+00 -5.53078E+00
   2.63871E+00  7.27429E+00 -7.48278E-01 -1.06616E+01 -6.00553E+00 -7.57133E+00 -9.22727E-02 -4.13414E+00 -9.76362E+00 -1.10263E+00
  -8.82527E+00  3.92681E+00  5.36607E+00  4.86496E-01 -4.65915E+00 -7.62593E+00 -4.08958E-03  4.69159E+00  4.48016E+00 -7.30929E+00
   1.09330E+00 -3.71395E+00 -3.46404E+00 -7.68395E-01 -9.23913E+00 -1.56663E+00 -8.44344E+00 -4.67866E-01  1.02647E+01 -7.45862E+00
  -2.41720E+00 -7.14396E+00 -4.72523E+00 -1.36949E+01 -9.00201E+00 -1.33141E+01  4.90375E+00  1.88014E+00 -7.34504E+00  1.23813E+00
   8.34574E+00  7.25866E+00  1.13790E+01  1.34174E+00  4.29951E+00 -4.75514E+00  1.71666E+01 -5.18658E-03 -3.67571E+00 -5.46548E+00
  -3.22142E+00 -2.31604E+00  9.47108E+00 -7.56614E-01  1.40064E-01  1.03850E+01  9.09195E+00  1.27702E+01  9.21824E+00 -9.79874E-01
   9.02489E+00  2.08764E+01  9.09162E+00  1.41750E-02 -5.34029E+00  4.32960E+00  8.17080E-01  3.65919E-01  4.74676E+00  3.02457E+00
   3.42445E+00  6.95481E+00  1.05047E+01 -2.83938E+00  7.76329E+00 -2.30209E+00  1.33018E+00  4.66271E+00 -7.83629E-01  1.09458E+00
   1.25129E+01  1.46910E+01  3.85368E+00  1.80622E+01  3.17906E+01  2.40475E+01  4.75526E+01  3.55058E+01  2.64910E+01  3.50870E+01
   4.08341E+01  3.73885E+01  3.31024E+01  4.31387E+01  3.57178E+01  1.84763E+01  1.28084E+01  9.22476E+00  1.38995E+01  5.39004E+00
   1.79556E+01  9.54115E+00 -8.78935E+00  3.83017E+00  3.18307E+00  5.43435E+00  8.65701E+00 -8.22913E+00 -2.39957E+00  1.46302E+01
   1.49505E+01  1.25819E+00  1.16653E+01  3.14655E+00  4.94325E+00 -2.45894E+00  5.38964E+00 -4.05535E+00  9.01564E+00  1.08349E+01
  -3.16346E+00  6.56371E+00 -9.78239E-01  7.65666E+00  1.13599E+01  1.58275E+01  1.37279E+01  1.21108E+01  1.53135E+01  6.05238E+00
   7.24770E+00  1.78826E+01  1.28744E+00  1.25688E+01  8.40947E+00  1.27080E+01  1.92308E+01  1.69968E+01  2.40358E+01  2.73611E+01
   2.70050E+01  2.53421E+01  3.45932E+01  3.29287E+01  3.98885E+01  3.14463E+01  3.19940E+01  3.16119E+01  2.42748E+01  2.03224E+01
   2.19504E+01  2.02159E+01  2.14502E+01  1.30162E+01  1.07092E+01  1.31999E+01  1.10866E+01  1.45756E+01  1.02344E+01  6.83433E+00
   1.00858E+01  1.43473E+01  1.09051E+01  1.65708E+01  8.81592E+00  8.60829E+00 -6.37023E+00  7.07466E+00  8.51335E+00  7.93980E+00
   4.64252E+00  3.27734E+00  3.73771E+00  4.78782E+00  6.98064E+00  1.24372E+01 -1.00371E+01 -1.84729E-01  4.38663E+00 -1.32733E+01
  -4.50754E+00 -1.51044E+01  5.96332E-01 -1.12679E+01 -1.29890E+01 -5.65064E+00 -8.05847E+00 -3.71896E+00 -7.03972E+00 -6.07315E+00
  -1.68647E+01 -1.47183E+01 -1.79591E+01 -6.01299E+00 -6.71840E-01 -6.16789E+00 -1.26332E+01 -4.96469E+00 -6.55969E+00 -1.30145E+01
  -1.06568E+01 -1.79570E+01 -1.37816E+01 -9.69298E+00 -2.35126E+00  6.70201E-01 -1.27558E+01 -1.91851E+01 -1.65043E+01 -1.81587E+01
  -1.55205E+01 -1.62880E+01 -2.87977E+00 -4.47744E+00 -1.65625E+01 -2.74457E+00  2.80046E+00 -6.48945E+00 -1.20602E+01 -1.47330E+01
  -2.48223E+00 -9.30920E-01 -4.92485E-01  3.56896E+00  6.26456E+00  2.96253E+00  4.72598E-01 -7.32615E+00 -3.04685E+00  6.05573E-01
   2.99611E+00 -8.65195E+00 -5.02528E+00 -5.18799E+00  1.69825E+00 -1.57751E+01 -1.22381E+01 -1.22281E+01 -5.13270E+00 -1.19597E+01
  -5.97523E+00 -1.31742E+01 -1.21048E+01 -1.11845E+01 -1.15071E+01 -9.05029E+00 -5.44501E+00 -1.58014E+01 -5.77466E+00 -1.32268E+01
  -1.81753E+01 -1.12018E+01 -7.17478E+00 -1.75544E+01 -3.12543E+00 -1.71323E+01 -1.32477E+01 -1.65963E+01 -1.02159E+01 -1.78746E+01
  -9.10778E+00 -1.34680E+01 -1.89106E+01 -1.00117E+01 -1.07340E+01 -2.69713E+01 -2.94103E+01 -1.80435E+01 -2.44004E+01 -2.49568E+01
  -1.96461E+01 -2.24443E+01 -2.47037E+01 -2.61661E+01 -2.34659E+01 -2.19302E+01 -8.50793E+00 -2.97050E+01 -2.33498E+01 -2.53081E+01
  -2.02829E+01 -2.77743E+01 -2.72233E+01 -2.58937E+01 -3.15274E+01 -1.72511E+01 -2.67935E+01 -3.09157E+01 -3.23405E+01 -2.97684E+01
  -2.38565E+01 -3.44216E+01 -3.17137E+01 -3.57736E+01 -2.16541E+01 -3.03148E+01 -2.67326E+01 -3.93724E+01 -1.82313E+01 -2.28452E+01
  -2.98367E+01 -1.70795E+01 -1.51524E+01 -2.51326E+01 -2.83912E+01 -2.35991E+01 -1.35635E+01 -1.86659E+01 -5.02395E+00 -2.49964E+01
  -2.37449E+01 -2.45215E+01 -2.41888E+01 -2.33778E+01 -1.94606E+01 -2.44185E+01 -1.30817E+01 -2.59067E+01 -2.16868E+01 -1.47838E+01
  -2.98997E+01 -1.55007E+01 -2.72543E+01 -2.89099E+01 -2.83983E+01 -2.75751E+01 -1.26868E+01 -6.78972E+00
 NY points of the fit to the data follow
   5.57223E+01  5.76144E+01  5.64984E+01  5.82735E+01  5.63626E+01  5.80992E+01  5.55835E+01  5.73779E+01  5.45802E+01  5.65211E+01
   5.37979E+01  5.58787E+01  5.36546E+01  5.53187E+01  5.26924E+01  5.38167E+01  5.09458E+01  5.13404E+01  4.90764E+01  4.95482E+01
   4.80267E+01  4.87952E+01  4.76045E+01  4.86273E+01  4.69756E+01  4.87058E+01  4.68480E+01  5.01217E+01  4.78026E+01  5.17782E+01
   4.89078E+01  5.30906E+01  4.93347E+01  5.32458E+01  4.91006E+01  5.31759E+01  4.93987E+01  5.37514E+01  5.06198E+01  5.49009E+01
   5.21529E+01  5.57115E+01  5.29026E+01  5.52710E+01  5.20935E+01  5.24070E+01  4.93955E+01  4.89236E+01  4.75514E+01  4.72777E+01
   4.77646E+01  4.81722E+01  4.83010E+01  4.81630E+01  4.69739E+01  4.61507E+01  4.38065E+01  4.32157E+01  4.07726E+01  4.02511E+01
   3.76434E+01  3.73159E+01  3.46366E+01  3.46890E+01  3.23843E+01  3.31314E+01  3.17377E+01  3.36124E+01  3.24752E+01  3.40950E+01
   3.25918E+01  3.38145E+01  3.21494E+01  3.29352E+01  3.11570E+01  3.14764E+01  2.96981E+01  2.96521E+01  2.80218E+01  2.79514E+01
   2.63696E+01  2.61847E+01  2.44770E+01  2.40212E+01  2.22808E+01  2.15719E+01  1.99750E+01  1.94072E+01  1.89954E+01  1.91457E+01
   1.96057E+01  2.06456E+01  2.17329E+01  2.34232E+01  2.44803E+01  2.65677E+01  2.73126E+01  2.96757E+01  3.00890E+01  3.26990E+01
   3.26520E+01  3.53325E+01  3.44258E+01  3.68362E+01  3.49573E+01  3.68360E+01  3.39666E+01  3.51934E+01  3.14594E+01  3.22065E+01
   2.80112E+01  2.84593E+01  2.45205E+01  2.56887E+01  2.21342E+01  2.41016E+01  2.11216E+01  2.39867E+01  2.16589E+01  2.56566E+01
   2.47250E+01  2.98661E+01  2.81977E+01  3.36870E+01  3.11022E+01  3.66788E+01  3.30561E+01  3.81396E+01  3.37131E+01  3.79559E+01
   3.31891E+01  3.65585E+01  3.16788E+01  3.39128E+01  2.91004E+01  3.00247E+01  2.54862E+01  2.49727E+01  2.10672E+01  1.92984E+01
   1.63684E+01  1.37957E+01  1.21729E+01  9.69708E+00  9.73333E+00  8.72133E+00  8.99982E+00  8.17285E+00  8.43033E+00  7.75744E+00
   7.92953E+00  7.39098E+00  7.43702E+00  6.88429E+00  6.64116E+00  6.08812E+00  5.60784E+00  5.14452E+00  4.65382E+00  4.29574E+00
   3.90416E+00  3.57898E+00  3.21745E+00  2.92679E+00  2.58408E+00  2.32551E+00  1.98325E+00  1.76163E+00  1.40664E+00  1.18183E+00
   8.85512E-01  6.39084E-01  3.88249E-01  1.06676E-01  1.12301E-02 -1.97971E-01 -7.80197E-02 -1.37861E-01  1.89207E-01  1.87235E-01
   5.07417E-01  4.68062E-01  5.46404E-01  1.67588E-01 -1.22542E-01 -8.76852E-01 -1.32660E+00 -2.15464E+00 -2.07959E+00 -2.57872E+00
  -1.73025E+00 -1.61487E+00  1.01108E-02  2.57522E-01  2.09639E+00  1.77639E+00  2.41444E+00  1.23942E+00  1.24099E+00 -5.12797E-01
  -7.10947E-01 -2.47055E+00 -1.39538E+00 -3.16634E+00 -7.78003E-01 -2.85508E+00  6.26615E-01 -2.20340E+00  1.50319E+00 -2.12857E+00
   2.16318E+00 -2.01856E+00  2.22010E+00 -2.46772E+00  1.44729E+00 -3.51274E+00  3.94040E-01 -3.88634E+00  3.91508E-01 -2.24867E+00
   3.09339E+00  2.04112E+00  6.65708E+00  6.76856E+00  9.94935E+00  9.95614E+00  1.02571E+01  9.99872E+00  7.20839E+00  6.96999E+00
   5.14054E+00  5.46624E+00  5.19369E+00  5.39342E+00  7.31561E+00  5.81463E+00  8.37249E+00  4.75287E+00  7.65428E+00  1.81696E+00
   4.66000E+00 -2.21678E+00  3.21596E+00 -3.03509E+00  4.39397E+00 -1.01158E+00  8.16694E+00  3.32936E+00  1.31099E+01  8.58185E+00
   1.80406E+01  1.40414E+01  2.26592E+01  1.94172E+01  2.60324E+01  2.38641E+01  2.91926E+01  2.83762E+01  3.20113E+01  3.21209E+01
   3.40646E+01  3.29474E+01  3.30504E+01  3.10716E+01  2.92952E+01  2.65955E+01  2.33649E+01  2.04496E+01  1.61909E+01  1.38823E+01
   9.68782E+00  8.42180E+00  5.18481E+00  5.08293E+00  4.01056E+00  4.01941E+00  3.06200E+00  2.79246E+00  2.37012E+00  2.20770E+00
   2.13298E+00  1.93431E+00  2.18970E+00  1.86098E+00  2.18696E+00  1.86404E+00  2.19933E+00  1.88407E+00  2.23682E+00  2.02518E+00
   2.47179E+00  2.52840E+00  3.20989E+00  3.57867E+00  4.45891E+00  5.10179E+00  6.17777E+00  7.12031E+00  8.39200E+00  9.60985E+00
   1.10857E+01  1.25581E+01  1.41864E+01  1.57878E+01  1.74458E+01  1.90304E+01  2.05588E+01  2.19668E+01  2.32318E+01  2.43360E+01
   2.52770E+01  2.60751E+01  2.68174E+01  2.73701E+01  2.74274E+01  2.76772E+01  2.68338E+01  2.68036E+01  2.48472E+01  2.45300E+01
   2.15874E+01  2.16665E+01  1.80494E+01  1.88198E+01  1.46536E+01  1.62958E+01  1.16390E+01  1.40093E+01  9.06475E+00  1.19985E+01
   7.04162E+00  1.04260E+01  5.56047E+00  9.18918E+00  4.55218E+00  8.03772E+00  3.74833E+00  6.76684E+00  3.09469E+00  5.62626E+00
   2.82516E+00  4.82973E+00  3.01185E+00  4.49100E+00  3.53276E+00  4.28819E+00  3.04249E+00  2.76820E+00  1.44626E+00  3.64370E-01
  -9.31739E-01 -2.42738E+00 -3.49173E+00 -4.33003E+00 -5.03541E+00 -5.64628E+00 -6.18344E+00 -6.66021E+00 -7.08612E+00 -7.46848E+00
  -7.81320E+00 -8.12522E+00 -8.40870E+00 -8.66710E+00 -8.90330E+00 -9.11960E+00 -9.31783E+00 -9.49929E+00 -9.66480E+00 -9.81470E+00
  -9.94890E+00 -1.00668E+01 -1.01676E+01 -1.02497E+01 -1.03114E+01 -1.03506E+01 -1.03646E+01 -1.03508E+01 -1.03060E+01 -1.02269E+01
  -1.01103E+01 -9.95296E+00 -9.75200E+00 -9.50503E+00 -9.21044E+00 -8.86766E+00 -8.47745E+00 -8.04217E+00 -7.56609E+00 -7.05551E+00
  -6.51887E+00 -5.96673E+00 -5.41163E+00 -4.86780E+00 -4.35074E+00 -3.87662E+00 -3.46162E+00 -3.12117E+00 -2.86923E+00 -2.71753E+00
  -2.67496E+00 -2.74707E+00 -2.93575E+00 -3.23911E+00 -3.65163E+00 -4.16446E+00 -4.76596E+00 -5.44224E+00 -6.17798E+00 -6.95710E+00
  -7.76366E+00 -8.58233E+00 -9.39915E+00 -1.02018E+01 -1.09799E+01 -1.17252E+01 -1.24319E+01 -1.30958E+01 -1.37149E+01 -1.42884E+01
  -1.48173E+01 -1.53033E+01 -1.57489E+01 -1.61571E+01 -1.65313E+01 -1.68748E+01 -1.71910E+01 -1.74830E+01 -1.77537E+01 -1.80060E+01
  -1.82421E+01 -1.84643E+01 -1.86743E+01 -1.88739E+01 -1.90644E+01 -1.92470E+01 -1.94227E+01 -1.95924E+01 -1.97569E+01 -1.99168E+01
  -2.00726E+01 -2.02248E+01 -2.03738E+01 -2.05199E+01 -2.06634E+01 -2.08046E+01 -2.09438E+01 -2.10810E+01 -2.12166E+01 -2.13505E+01
  -2.14831E+01 -2.16143E+01 -2.17444E+01 -2.18733E+01 -2.20012E+01 -2.21282E+01 -2.22543E+01 -2.23795E+01 -2.25041E+01 -2.26279E+01
  -2.27511E+01 -2.28736E+01 -2.29956E+01 -2.31170E+01 -2.32379E+01 -2.33584E+01 -2.34783E+01 -2.35978E+01 -2.37170E+01 -2.38357E+01
  -2.39541E+01 -2.40721E+01 -2.41897E+01 -2.43071E+01 -2.44241E+01 -2.45408E+01 -2.46573E+01 -2.47735E+01 -2.48894E+01 -2.50051E+01
  -2.51205E+01 -2.52357E+01 -2.53506E+01 -2.54653E+01 -2.55798E+01 -2.56940E+01 -2.58080E+01 -2.59218E+01 -2.60354E+01 -2.61487E+01
  -2.62617E+01 -2.63745E+01 -2.64871E+01 -2.65993E+01 -2.67112E+01 -2.68228E+01 -2.69340E+01 -2.70447E+01
 NY background values follow
     2.545E+01    2.534E+01    2.524E+01    2.513E+01    2.502E+01    2.492E+01    2.481E+01    2.470E+01    2.460E+01    2.449E+01
     2.438E+01    2.428E+01    2.417E+01    2.406E+01    2.396E+01    2.385E+01    2.374E+01    2.363E+01    2.353E+01    2.342E+01
     2.331E+01    2.321E+01    2.310E+01    2.299E+01    2.289E+01    2.278E+01    2.267E+01    2.257E+01    2.246E+01    2.235E+01
     2.225E+01    2.214E+01    2.203E+01    2.193E+01    2.182E+01    2.171E+01    2.161E+01    2.150E+01    2.139E+01    2.129E+01
     2.118E+01    2.107E+01    2.097E+01    2.086E+01    2.075E+01    2.065E+01    2.054E+01    2.043E+01    2.033E+01    2.022E+01
     2.011E+01    2.001E+01    1.990E+01    1.979E+01    1.968E+01    1.958E+01    1.947E+01    1.936E+01    1.926E+01    1.915E+01
     1.904E+01    1.894E+01    1.883E+01    1.872E+01    1.862E+01    1.851E+01    1.840E+01    1.830E+01    1.819E+01    1.808E+01
     1.798E+01    1.787E+01    1.776E+01    1.766E+01    1.755E+01    1.744E+01    1.734E+01    1.723E+01    1.712E+01    1.702E+01
     1.691E+01    1.680E+01    1.670E+01    1.659E+01    1.648E+01    1.638E+01    1.627E+01    1.616E+01    1.606E+01    1.595E+01
     1.584E+01    1.573E+01    1.563E+01    1.552E+01    1.541E+01    1.531E+01    1.520E+01    1.509E+01    1.499E+01    1.488E+01
     1.477E+01    1.467E+01    1.456E+01    1.445E+01    1.435E+01    1.424E+01    1.413E+01    1.403E+01    1.392E+01    1.381E+01
     1.371E+01    1.360E+01    1.349E+01    1.339E+01    1.328E+01    1.317E+01    1.307E+01    1.296E+01    1.285E+01    1.275E+01
     1.264E+01    1.253E+01    1.243E+01    1.232E+01    1.221E+01    1.211E+01    1.200E+01    1.189E+01    1.179E+01    1.168E+01
     1.157E+01    1.146E+01    1.136E+01    1.125E+01    1.114E+01    1.104E+01    1.093E+01    1.082E+01    1.072E+01    1.061E+01
     1.050E+01    1.040E+01    1.029E+01    1.018E+01    1.008E+01    9.970E+00    9.864E+00    9.757E+00    9.650E+00    9.543E+00
     9.437E+00    9.330E+00    9.223E+00    9.116E+00    9.010E+00    8.903E+00    8.796E+00    8.689E+00    8.583E+00    8.476E+00
     8.369E+00    8.262E+00    8.156E+00    8.049E+00    7.942E+00    7.835E+00    7.729E+00    7.622E+00    7.515E+00    7.409E+00
     7.302E+00    7.195E+00    7.088E+00    6.982E+00    6.875E+00    6.768E+00    6.661E+00    6.555E+00    6.448E+00    6.341E+00
     6.234E+00    6.128E+00    6.021E+00    5.914E+00    5.807E+00    5.701E+00    5.594E+00    5.487E+00    5.380E+00    5.274E+00
     5.167E+00    5.060E+00    4.953E+00    4.847E+00    4.740E+00    4.633E+00    4.526E+00    4.420E+00    4.313E+00    4.206E+00
     4.099E+00    3.993E+00    3.886E+00    3.779E+00    3.672E+00    3.566E+00    3.459E+00    3.352E+00    3.245E+00    3.139E+00
     3.032E+00    2.925E+00    2.818E+00    2.712E+00    2.605E+00    2.498E+00    2.392E+00    2.285E+00    2.178E+00    2.071E+00
     1.965E+00    1.858E+00    1.751E+00    1.644E+00    1.538E+00    1.431E+00    1.324E+00    1.217E+00    1.111E+00    1.004E+00
     8.971E-01    7.904E-01    6.837E-01    5.769E-01    4.702E-01    3.634E-01    2.567E-01    1.499E-01    4.321E-02   -6.353E-02
    -1.703E-01   -2.770E-01   -3.838E-01   -4.905E-01   -5.972E-01   -7.040E-01   -8.107E-01   -9.175E-01   -1.024E+00   -1.131E+00
    -1.238E+00   -1.344E+00   -1.451E+00   -1.558E+00   -1.665E+00   -1.771E+00   -1.878E+00   -1.985E+00   -2.092E+00   -2.198E+00
    -2.305E+00   -2.412E+00   -2.519E+00   -2.625E+00   -2.732E+00   -2.839E+00   -2.945E+00   -3.052E+00   -3.159E+00   -3.266E+00
    -3.372E+00   -3.479E+00   -3.586E+00   -3.693E+00   -3.799E+00   -3.906E+00   -4.013E+00   -4.120E+00   -4.226E+00   -4.333E+00
    -4.440E+00   -4.547E+00   -4.653E+00   -4.760E+00   -4.867E+00   -4.973E+00   -5.080E+00   -5.187E+00   -5.294E+00   -5.400E+00
    -5.507E+00   -5.614E+00   -5.721E+00   -5.827E+00   -5.934E+00   -6.041E+00   -6.148E+00   -6.254E+00   -6.361E+00   -6.468E+00
    -6.575E+00   -6.681E+00   -6.788E+00   -6.895E+00   -7.001E+00   -7.108E+00   -7.215E+00   -7.322E+00   -7.428E+00   -7.535E+00
    -7.642E+00   -7.749E+00   -7.855E+00   -7.962E+00   -8.069E+00   -8.176E+00   -8.282E+00   -8.389E+00   -8.496E+00   -8.603E+00
    -8.709E+00   -8.816E+00   -8.923E+00   -9.029E+00   -9.136E+00   -9.243E+00   -9.350E+00   -9.456E+00   -9.563E+00   -9.670E+00
    -9.777E+00   -9.883E+00   -9.990E+00   -1.010E+01   -1.020E+01   -1.031E+01   -1.042E+01   -1.052E+01   -1.063E+01   -1.074E+01
    -1.084E+01   -1.095E+01   -1.106E+01   -1.116E+01   -1.127E+01   -1.138E+01   -1.148E+01   -1.159E+01   -1.170E+01   -1.180E+01
    -1.191E+01   -1.202E+01   -1.212E+01   -1.223E+01   -1.234E+01   -1.244E+01   -1.255E+01   -1.266E+01   -1.277E+01   -1.287E+01
    -1.298E+01   -1.309E+01   -1.319E+01   -1.330E+01   -1.341E+01   -1.351E+01   -1.362E+01   -1.373E+01   -1.383E+01   -1.394E+01
    -1.405E+01   -1.415E+01   -1.426E+01   -1.437E+01   -1.447E+01   -1.458E+01   -1.469E+01   -1.479E+01   -1.490E+01   -1.501E+01
    -1.511E+01   -1.522E+01   -1.533E+01   -1.543E+01   -1.554E+01   -1.565E+01   -1.575E+01   -1.586E+01   -1.597E+01   -1.607E+01
    -1.618E+01   -1.629E+01   -1.639E+01   -1.650E+01   -1.661E+01   -1.671E+01   -1.682E+01   -1.693E+01   -1.703E+01   -1.714E+01
    -1.725E+01   -1.735E+01   -1.746E+01   -1.757E+01   -1.767E+01   -1.778E+01   -1.789E+01   -1.799E+01   -1.810E+01   -1.821E+01
    -1.832E+01   -1.842E+01   -1.853E+01   -1.864E+01   -1.874E+01   -1.885E+01   -1.896E+01   -1.906E+01   -1.917E+01   -1.928E+01
    -1.938E+01   -1.949E+01   -1.960E+01   -1.970E+01   -1.981E+01   -1.992E+01   -2.002E+01   -2.013E+01   -2.024E+01   -2.034E+01
    -2.045E+01   -2.056E+01   -2.066E+01   -2.077E+01   -2.088E+01   -2.098E+01   -2.109E+01   -2.120E+01   -2.130E+01   -2.141E+01
    -2.152E+01   -2.162E+01   -2.173E+01   -2.184E+01   -2.194E+01   -2.205E+01   -2.216E+01   -2.226E+01   -2.237E+01   -2.248E+01
    -2.258E+01   -2.269E+01   -2.280E+01   -2.290E+01   -2.301E+01   -2.312E+01   -2.322E+01   -2.333E+01   -2.344E+01   -2.354E+01
    -2.365E+01   -2.376E+01   -2.386E+01   -2.397E+01   -2.408E+01   -2.419E+01   -2.429E+01   -2.440E+01   -2.451E+01   -2.461E+01
    -2.472E+01   -2.483E+01   -2.493E+01   -2.504E+01   -2.515E+01   -2.525E+01   -2.536E+01   -2.547E+01   -2.557E+01   -2.568E+01
    -2.579E+01   -2.589E+01   -2.600E+01   -2.611E+01   -2.621E+01   -2.632E+01   -2.643E+01   -2.653E+01   -2.664E+01   -2.675E+01
    -2.685E+01   -2.696E+01   -2.707E+01   -2.717E+01   -2.728E+01   -2.739E+01   -2.749E+01   -2.760E+01
 Ala      Conc. = 1.72E+03
