 LCModel (Version 6.3-1L) Copyright: S.W. Provencher.          Ref.: Magn. Reson. Med. 30:672-679 (1993).                
 Slice#1 Row#1 Col#1  PD_24_press_2_raw_act
 36 lines in following concentration table = NCONC+1
    Conc.  %SD /Cr+PCr  Metabolite                                         
   42.111 362%   0.000 Ala                                                 
    2.970 921%   0.000 Asp                                                 
    0.000 999%   0.000 Cr                                                  
    0.000 999%   0.000 PCr                                                 
    0.000 999%   0.000 GABA                                                
    1.427 999%   0.000 Glc                                                 
  364.546  80%   0.000 Gln                                                 
    0.000 999%   0.000 Glu                                                 
    0.000 999%   0.000 GPC                                                 
    0.000 999%   0.000 PCh                                                 
   96.485 100%   0.000 GSH                                                 
  468.956  59%   0.000 Ins                                                 
  216.576  75%   0.000 Lac                                                 
    0.000 999%   0.000 NAA                                                 
    0.000 999%   0.000 NAAG                                                
    0.000 999%   0.000 Scyllo                                              
    0.762 999%   0.000 Tau                                                 
    0.000 999%   0.000 -CrCH2                                              
    0.000 999%   0.000 GPC+PCh                                             
    0.000 999%   0.000 NAA+NAAG                                            
    0.000 999%   0.000 Cr+PCr                                              
  364.546  80%   0.000 Glu+Gln                                             
 2.02E+03  24%   0.000 Lip13a                                              
    0.000 999%   0.000 Lip13b                                              
    0.000 999%   0.000 Lip09                                               
 1.13E+03  18%   0.000 MM09                                                
  132.937 215%   0.000 Lip20                                               
 1.77E+03  18%   0.000 MM20                                                
  338.634  29%   0.000 MM12                                                
 2.74E+03   9%   0.000+MM14                                                
 1.52E+03  14%   0.000+MM17                                                
 2.02E+03  24%   0.000 Lip13a+Lip13b                                       
 5.09E+03  10%   0.000 MM14+Lip13a+Lip13b+MM12                             
 1.13E+03  18%   0.000 MM09+Lip09                                          
 1.91E+03  18%   0.000 MM20+Lip20                                          
   6 lines in following misc. output table
  FWHM = 0.054 ppm    S/N =   3                                            
  Data shift = 0.015 ppm                                                   
  Ph:  -5 deg      26.2 deg/ppm                                            
  alphaB,S = 8.5E+01,   5.1E+01                                            
   14 spline knots.   Ns = 5(1)                                            
   2 inflections.     1 extrema                                            
  498 points on ppm-axis = NY
      4.000000     3.992357     3.984714     3.977070     3.969427     3.961784     3.954141     3.946497     3.938854     3.931211
      3.923568     3.915925     3.908281     3.900638     3.892995     3.885352     3.877708     3.870065     3.862422     3.854779
      3.847136     3.839492     3.831849     3.824206     3.816563     3.808919     3.801276     3.793633     3.785990     3.778347
      3.770703     3.763060     3.755417     3.747774     3.740130     3.732487     3.724844     3.717201     3.709558     3.701914
      3.694271     3.686628     3.678985     3.671341     3.663698     3.656055     3.648412     3.640769     3.633125     3.625482
      3.617839     3.610196     3.602552     3.594909     3.587266     3.579623     3.571980     3.564336     3.556693     3.549050
      3.541407     3.533763     3.526120     3.518477     3.510834     3.503191     3.495547     3.487904     3.480261     3.472618
      3.464974     3.457331     3.449688     3.442045     3.434402     3.426758     3.419115     3.411472     3.403829     3.396185
      3.388542     3.380899     3.373256     3.365613     3.357969     3.350326     3.342683     3.335040     3.327396     3.319753
      3.312110     3.304467     3.296824     3.289180     3.281537     3.273894     3.266251     3.258607     3.250964     3.243321
      3.235678     3.228034     3.220391     3.212748     3.205105     3.197462     3.189818     3.182175     3.174532     3.166889
      3.159245     3.151602     3.143959     3.136316     3.128673     3.121029     3.113386     3.105743     3.098100     3.090456
      3.082813     3.075170     3.067527     3.059884     3.052240     3.044597     3.036954     3.029311     3.021667     3.014024
      3.006381     2.998738     2.991095     2.983451     2.975808     2.968165     2.960522     2.952878     2.945235     2.937592
      2.929949     2.922306     2.914662     2.907019     2.899376     2.891733     2.884089     2.876446     2.868803     2.861160
      2.853517     2.845873     2.838230     2.830587     2.822944     2.815300     2.807657     2.800014     2.792371     2.784728
      2.777084     2.769441     2.761798     2.754155     2.746511     2.738868     2.731225     2.723582     2.715939     2.708295
      2.700652     2.693009     2.685366     2.677722     2.670079     2.662436     2.654793     2.647150     2.639506     2.631863
      2.624220     2.616577     2.608933     2.601290     2.593647     2.586004     2.578361     2.570717     2.563074     2.555431
      2.547788     2.540144     2.532501     2.524858     2.517215     2.509572     2.501928     2.494285     2.486642     2.478999
      2.471355     2.463712     2.456069     2.448426     2.440783     2.433139     2.425496     2.417853     2.410210     2.402566
      2.394923     2.387280     2.379637     2.371994     2.364350     2.356707     2.349064     2.341421     2.333777     2.326134
      2.318491     2.310848     2.303205     2.295561     2.287918     2.280275     2.272632     2.264988     2.257345     2.249702
      2.242059     2.234416     2.226772     2.219129     2.211486     2.203843     2.196199     2.188556     2.180913     2.173270
      2.165627     2.157983     2.150340     2.142697     2.135054     2.127410     2.119767     2.112124     2.104481     2.096838
      2.089194     2.081551     2.073908     2.066265     2.058621     2.050978     2.043335     2.035692     2.028049     2.020405
      2.012762     2.005119     1.997476     1.989833     1.982190     1.974546     1.966903     1.959260     1.951617     1.943974
      1.936331     1.928688     1.921045     1.913402     1.905759     1.898115     1.890472     1.882829     1.875186     1.867543
      1.859900     1.852257     1.844614     1.836971     1.829327     1.821684     1.814041     1.806398     1.798755     1.791112
      1.783469     1.775826     1.768183     1.760540     1.752896     1.745253     1.737610     1.729967     1.722324     1.714681
      1.707038     1.699395     1.691752     1.684108     1.676465     1.668822     1.661179     1.653536     1.645893     1.638250
      1.630607     1.622964     1.615321     1.607677     1.600034     1.592391     1.584748     1.577105     1.569462     1.561819
      1.554176     1.546533     1.538890     1.531246     1.523603     1.515960     1.508317     1.500674     1.493031     1.485388
      1.477745     1.470102     1.462458     1.454815     1.447172     1.439529     1.431886     1.424243     1.416600     1.408957
      1.401314     1.393671     1.386027     1.378384     1.370741     1.363098     1.355455     1.347812     1.340169     1.332526
      1.324883     1.317240     1.309596     1.301953     1.294310     1.286667     1.279024     1.271381     1.263738     1.256095
      1.248452     1.240808     1.233165     1.225522     1.217879     1.210236     1.202593     1.194950     1.187307     1.179664
      1.172021     1.164377     1.156734     1.149091     1.141448     1.133805     1.126162     1.118519     1.110876     1.103233
      1.095590     1.087946     1.080303     1.072660     1.065017     1.057374     1.049731     1.042088     1.034445     1.026802
      1.019158     1.011515     1.003872     0.996229     0.988586     0.980943     0.973300     0.965657     0.958014     0.950371
      0.942727     0.935084     0.927441     0.919798     0.912155     0.904512     0.896869     0.889226     0.881583     0.873940
      0.866296     0.858653     0.851010     0.843367     0.835724     0.828081     0.820438     0.812795     0.805152     0.797508
      0.789865     0.782222     0.774579     0.766936     0.759293     0.751650     0.744007     0.736364     0.728721     0.721077
      0.713434     0.705791     0.698148     0.690505     0.682862     0.675219     0.667576     0.659933     0.652290     0.644646
      0.637003     0.629360     0.621717     0.614074     0.606431     0.598788     0.591145     0.583502     0.575858     0.568215
      0.560572     0.552929     0.545286     0.537643     0.530000     0.522357     0.514714     0.507071     0.499427     0.491784
      0.484141     0.476498     0.468855     0.461212     0.453569     0.445925     0.438282     0.430639     0.422996     0.415353
      0.407710     0.400067     0.392424     0.384780     0.377137     0.369494     0.361851     0.354208     0.346565     0.338922
      0.331278     0.323635     0.315992     0.308349     0.300706     0.293063     0.285420     0.277777     0.270133     0.262490
      0.254847     0.247204     0.239561     0.231918     0.224275     0.216631     0.208988     0.201345
 NY phased data points follow
   1.17247E-01  4.74201E-01 -5.76409E+00 -6.44941E+00 -2.97001E+00 -9.77454E+00 -1.39159E+00 -5.60424E+00  7.23102E+00 -1.19202E+00
  -1.49405E+01 -9.23884E+00 -1.89554E+00 -5.19366E+00 -7.28658E+00 -3.58927E+00 -9.10321E+00 -3.45128E+00 -5.98221E-01 -2.57332E+00
   9.39145E-01 -1.79196E+00 -6.58391E+00 -1.27478E+00 -1.06049E+01 -1.34347E+00  3.40758E+00 -2.52839E+00  6.14393E+00 -3.48971E+00
   3.39438E+00 -6.35324E+00 -1.78263E+00 -3.70374E+00 -9.87089E+00 -4.22443E+00 -8.76203E+00 -4.86469E+00  3.74688E+00  2.54552E+00
   4.81512E-01  2.14924E+00 -2.41858E+00  1.08976E+00 -7.91720E+00 -8.75223E+00 -3.44750E+00 -2.48227E+00 -2.58161E+00 -9.18861E-01
  -5.02142E+00 -4.40727E+00 -3.19218E+00 -2.52370E+00  2.29932E+00 -2.12651E+00 -5.56401E+00  1.77395E-01 -6.39688E+00 -5.67644E+00
   5.86921E+00 -1.34283E+00 -6.02381E+00 -9.08922E+00 -1.97125E+00 -2.23616E+00 -2.15755E+00 -6.11882E+00 -5.30728E-01 -8.36239E-02
  -1.19897E+01  7.27447E+00 -2.76081E+00  1.40368E+00 -7.85777E+00  3.74340E-01 -6.11870E+00 -1.61558E+00  5.97288E+00 -4.06526E+00
  -1.37482E+00 -3.56230E+00 -7.41325E+00 -4.12647E+00 -4.08212E+00 -8.20715E+00 -6.65114E+00 -6.67036E+00 -5.31991E+00 -9.94500E+00
   4.06809E+00 -7.05932E+00  1.16030E-01  3.34280E+00 -7.48253E-01 -2.32073E+00 -4.66046E+00 -5.82525E+00  3.90287E+00  3.37229E+00
   4.31091E+00 -8.71574E+00 -4.15769E+00 -4.72816E+00 -9.07936E+00 -1.41089E+01 -1.12012E+01 -8.50899E+00 -8.82830E+00 -6.30287E+00
   8.23680E-02 -6.42906E+00 -7.60940E-01 -4.78441E+00 -5.36524E+00 -4.67115E+00 -5.52383E+00 -1.85004E+00  3.66984E-01 -2.86337E-01
  -1.31186E+00 -4.20590E+00 -4.65340E+00 -1.67285E+00 -9.45200E+00 -4.03130E+00 -6.54785E-01 -4.46267E+00 -6.23336E+00 -1.14848E+01
  -8.10169E+00 -6.37152E+00 -1.02535E+01 -7.08353E+00 -5.58552E+00 -7.99213E-01  4.33532E-01  1.78844E+00 -5.13655E+00 -4.93496E+00
  -4.85666E+00 -2.68999E+00 -3.75813E+00 -1.74811E-02  2.88491E+00 -1.29637E+00 -2.53865E+00 -9.80006E+00 -2.50255E+00 -2.08833E+00
  -4.43976E+00 -6.06316E+00 -5.08462E+00 -7.93898E+00 -1.00978E+01 -9.62947E-01 -7.74293E+00 -9.78233E+00 -1.10972E+01 -8.45470E+00
  -4.92282E+00 -4.42322E+00 -4.83739E+00 -7.08982E+00 -9.54410E+00 -3.21879E+00 -4.05015E+00 -3.34388E+00 -2.41499E+00 -1.12344E+00
  -2.77951E-01 -4.53566E+00 -7.17542E+00 -7.49848E+00 -7.31301E+00 -1.10705E+01 -1.41656E+00 -7.46739E+00 -8.23538E+00 -1.06202E+01
  -1.15258E+01 -2.13723E+00 -6.82978E+00 -8.29319E+00 -9.85538E+00 -6.22157E+00 -6.12553E-01 -1.25329E+01 -4.36321E+00 -6.01459E+00
  -4.25370E+00 -7.81301E+00 -7.08975E+00 -6.94955E+00 -9.34442E-01 -1.22608E+01 -9.23970E+00 -8.35826E+00 -4.05174E+00 -1.01504E+01
  -2.81748E+00 -7.40673E-01  6.65309E-01 -9.36813E+00 -6.20970E+00 -1.19380E+01 -7.99397E+00 -3.40300E+00 -1.08533E+00  7.54670E-01
  -1.16690E+00 -2.22764E+00 -9.13359E+00 -2.64432E+00 -4.89653E+00  2.62040E+00  2.80175E+00  2.47526E+00  2.33527E-01  5.26170E-01
   3.75477E+00  3.42148E+00  4.91893E+00  6.56621E+00  4.16611E+00  4.54731E+00  2.46559E+00  2.61202E+00  3.00854E+00  5.96881E+00
  -7.79713E-01  4.72254E+00  1.05589E+01  8.32738E+00 -7.24850E-01  1.55593E+00  6.56928E+00  5.41793E-01  8.09612E-01  2.00608E+00
   6.55964E+00  3.70894E+00  5.88693E+00  8.74342E+00  7.34564E+00  2.29056E+00  5.34012E+00  5.46982E+00  8.45249E-02  6.31425E+00
   9.44250E+00 -1.08276E+00  3.84210E+00  3.64072E+00  2.23280E+00  6.17444E+00 -5.90481E+00  9.66779E-01 -2.40396E+00  8.91137E-01
   6.57531E+00  3.62820E+00 -1.21975E+00  4.98959E+00  8.24994E+00 -1.19806E+00  2.18334E+00  3.66590E+00  1.67982E+00  2.47194E+00
   4.34810E+00  1.29542E+00 -9.69502E-01 -1.40749E+00 -2.87372E-01  3.07217E-01 -5.08794E+00  3.43941E-01 -5.85111E+00 -3.23813E+00
   5.32806E-01 -8.14314E+00 -8.04710E-01  5.64475E-01  2.23188E+00 -4.89582E+00 -4.05027E+00 -4.01375E+00 -2.46053E-01 -5.22999E+00
  -5.41016E+00 -2.78544E+00 -9.25858E+00 -7.44200E+00 -4.52937E+00  2.58613E+00 -6.16097E+00 -2.67895E+00  9.42224E-01 -2.68606E+00
   2.09236E+00  6.77445E+00  6.60454E+00  4.38065E+00  1.12070E+01  1.45175E+01  1.15873E+01  1.79888E+01  2.46443E+01  2.50111E+01
   3.04594E+01  3.67192E+01  2.75537E+01  2.99464E+01  3.56979E+01  4.01957E+01  3.71012E+01  3.77511E+01  2.81984E+01  3.61472E+01
   2.26631E+01  3.00549E+01  2.63036E+01  1.76414E+01  2.50530E+01  2.15456E+01  2.43328E+01  1.84821E+01  2.22038E+01  1.18993E+01
   1.42605E+01  1.77620E+01  1.78085E+01  1.02684E+01  1.39876E+01  1.09478E+01  8.98147E+00  8.43798E+00  1.78951E+01  5.33002E+00
   1.08519E+01  1.23954E+01  5.82146E+00  7.11181E+00  1.13519E+01  1.22185E+01  1.14337E+01  7.80432E+00  1.31163E+00  8.93238E-01
   1.02089E+01  1.63978E+00  9.44953E+00  3.86252E+00  2.20895E+00  8.07807E+00 -4.84164E+00  3.44056E+00  5.35491E+00 -4.10126E-01
   9.67423E+00  1.01945E+01  6.49231E+00  4.99834E+00  4.08990E+00  5.35223E+00  5.56372E+00  8.53720E+00  7.48609E+00  9.31304E+00
   7.03687E+00  8.38809E+00  1.39741E+00  8.04711E+00  1.04963E+01  7.29265E+00 -1.62958E-01  5.58381E+00  2.68455E+00  8.14425E+00
   2.67567E+00  7.25294E-01  2.53811E+00  2.28557E+00 -3.30812E+00  4.17118E+00  1.03425E+00  1.54555E+00  2.93110E+00  1.00981E-01
   2.80781E+00 -1.98050E+00  3.87325E+00 -3.00514E+00 -4.16010E+00 -1.79090E+00 -3.27705E+00  2.00692E+00  3.62234E-01 -3.40390E+00
  -6.37076E+00  3.57807E+00  1.80545E+00 -1.30662E+00 -3.71631E+00  5.24668E+00  1.39378E+00 -4.37069E+00 -3.41893E+00  9.57994E-01
  -2.47508E+00  1.76000E+00  3.59242E+00 -1.68130E+00 -1.11582E+00  7.41305E+00 -3.19385E+00  8.17205E+00 -7.84722E-01  4.17196E+00
   9.15106E+00  3.12881E+00 -7.17961E-01  3.05923E+00  5.86541E-01  2.18789E+00 -2.93450E-01  6.99370E-01 -9.42504E-01 -1.18128E+00
   4.69980E+00  1.52384E-01  1.33541E+00  3.45566E+00 -1.53678E+00  5.66520E+00  1.86059E+00 -1.83425E+00 -1.50867E+00 -1.76207E+00
  -2.25798E-01  2.85430E+00  3.68299E+00 -6.10248E+00 -1.89030E+00  2.34195E+00  3.08642E-01 -7.07992E-01 -2.54782E+00  1.69462E+00
  -2.10210E+00  2.93869E+00 -4.70745E+00  2.64717E+00  3.29833E+00  3.52538E+00  1.97323E+00 -5.68564E+00  9.69477E-01  7.06895E+00
  -1.88558E+00  3.01174E-03  3.60698E-01 -1.73719E+00 -1.20851E-01  1.93957E+00 -2.58200E+00 -1.74751E+00 -2.86006E+00  5.31946E+00
   4.28457E+00 -3.77505E+00  5.05441E+00 -1.37523E-03  1.05913E+00  5.90478E-02  2.50255E+00 -7.99289E+00 -5.05622E+00  7.37843E+00
   1.50275E+00  5.82558E+00  9.17068E-01  3.45470E+00  1.14710E+00  4.56700E+00  2.13488E+00  2.08188E+00 -2.75263E+00 -4.35354E-01
  -2.60459E+00 -5.34915E+00 -1.75516E+00 -3.19518E+00 -5.68429E-01 -5.88696E+00 -5.94192E-01 -5.38065E-01
 NY points of the fit to the data follow
  -4.13801E+00 -4.39570E+00 -4.58244E+00 -4.65619E+00 -4.66315E+00 -4.66761E+00 -4.67313E+00 -4.67191E+00 -4.66450E+00 -4.65252E+00
  -4.63781E+00 -4.62142E+00 -4.60423E+00 -4.58888E+00 -4.57279E+00 -4.54862E+00 -4.50834E+00 -4.44422E+00 -4.35711E+00 -4.25952E+00
  -4.14980E+00 -4.10185E+00 -4.17231E+00 -4.32217E+00 -4.41993E+00 -4.24887E+00 -3.82664E+00 -3.21182E+00 -2.53783E+00 -1.96438E+00
  -1.57836E+00 -1.40831E+00 -1.45199E+00 -1.74659E+00 -2.25552E+00 -2.91036E+00 -3.55856E+00 -4.01873E+00 -4.31171E+00 -4.41845E+00
  -4.40031E+00 -4.31132E+00 -4.04925E+00 -3.47816E+00 -2.67810E+00 -1.89372E+00 -1.32881E+00 -1.09941E+00 -1.18808E+00 -1.52346E+00
  -2.05205E+00 -2.73371E+00 -3.50435E+00 -4.23261E+00 -4.65555E+00 -4.59524E+00 -4.19928E+00 -3.70126E+00 -3.26430E+00 -2.96822E+00
  -2.84403E+00 -2.88394E+00 -3.04045E+00 -3.25305E+00 -3.48472E+00 -3.71000E+00 -3.86367E+00 -3.85257E+00 -3.68912E+00 -3.43789E+00
  -3.19547E+00 -3.02342E+00 -2.94364E+00 -2.95170E+00 -3.01672E+00 -3.11298E+00 -3.22856E+00 -3.35293E+00 -3.46988E+00 -3.53872E+00
  -3.57234E+00 -3.60800E+00 -3.70680E+00 -3.90205E+00 -4.18770E+00 -4.50971E+00 -4.80256E+00 -5.01897E+00 -5.13243E+00 -5.12574E+00
  -5.00034E+00 -4.76165E+00 -4.43216E+00 -4.10155E+00 -3.87505E+00 -3.79379E+00 -3.84550E+00 -3.98143E+00 -4.16188E+00 -4.35663E+00
  -4.53092E+00 -4.63924E+00 -4.66558E+00 -4.60451E+00 -4.47567E+00 -4.32915E+00 -4.18584E+00 -4.04711E+00 -3.91181E+00 -3.78573E+00
  -3.67616E+00 -3.58458E+00 -3.50231E+00 -3.41871E+00 -3.34048E+00 -3.27342E+00 -3.21752E+00 -3.16802E+00 -3.11945E+00 -3.06439E+00
  -2.99666E+00 -2.91888E+00 -2.83575E+00 -2.75026E+00 -2.66294E+00 -2.57485E+00 -2.48721E+00 -2.39481E+00 -2.27318E+00 -2.12381E+00
  -2.00808E+00 -1.97129E+00 -2.02214E+00 -2.15284E+00 -2.31822E+00 -2.47153E+00 -2.58227E+00 -2.63440E+00 -2.63867E+00 -2.59538E+00
  -2.49612E+00 -2.37016E+00 -2.28248E+00 -2.26008E+00 -2.30453E+00 -2.41104E+00 -2.54810E+00 -2.68616E+00 -2.80223E+00 -2.88940E+00
  -2.96579E+00 -3.03316E+00 -3.08986E+00 -3.13648E+00 -3.17413E+00 -3.20271E+00 -3.22209E+00 -3.23640E+00 -3.24807E+00 -3.25913E+00
  -3.27263E+00 -3.29174E+00 -3.31492E+00 -3.33508E+00 -3.34981E+00 -3.36038E+00 -3.36810E+00 -3.37276E+00 -3.37272E+00 -3.36886E+00
  -3.36555E+00 -3.36659E+00 -3.37351E+00 -3.38620E+00 -3.40225E+00 -3.41966E+00 -3.43789E+00 -3.45626E+00 -3.47274E+00 -3.48356E+00
  -3.49713E+00 -3.51656E+00 -3.53716E+00 -3.55207E+00 -3.54928E+00 -3.50869E+00 -3.41748E+00 -3.28258E+00 -3.14150E+00 -3.05186E+00
  -3.03529E+00 -3.12503E+00 -3.34676E+00 -3.66325E+00 -3.98070E+00 -4.21762E+00 -4.28055E+00 -4.09847E+00 -3.69140E+00 -3.14976E+00
  -2.54232E+00 -1.96844E+00 -1.52913E+00 -1.33876E+00 -1.50898E+00 -2.11665E+00 -2.93628E+00 -3.65776E+00 -4.10596E+00 -4.23872E+00
  -4.10475E+00 -3.76698E+00 -3.23727E+00 -2.56957E+00 -1.85369E+00 -1.20725E+00 -7.79969E-01 -6.47281E-01 -6.30838E-01 -5.92941E-01
  -5.40271E-01 -4.84540E-01 -4.19477E-01 -3.43441E-01 -2.57700E-01 -1.68744E-01 -1.01184E-01 -7.32472E-02 -5.77703E-02 -2.14529E-02
   1.46080E-02 -1.69920E-02 -3.79352E-02  6.17174E-02  3.02260E-01  6.87201E-01  1.22356E+00  1.80665E+00  2.26076E+00  2.54606E+00
   2.70685E+00  2.76549E+00  2.70502E+00  2.53361E+00  2.37685E+00  2.33150E+00  2.44327E+00  2.75025E+00  3.23715E+00  3.76939E+00
   4.20801E+00  4.52288E+00  4.69988E+00  4.73946E+00  4.64085E+00  4.42844E+00  4.13439E+00  3.81433E+00  3.51686E+00  3.24907E+00
   3.00731E+00  2.78967E+00  2.59054E+00  2.39532E+00  2.19398E+00  1.98471E+00  1.75718E+00  1.52409E+00  1.29355E+00  1.06737E+00
   8.45946E-01  6.30895E-01  4.24429E-01  2.26929E-01  3.85661E-02 -1.39976E-01 -3.08390E-01 -4.66498E-01 -6.13830E-01 -7.49919E-01
  -8.74558E-01 -9.87559E-01 -1.08829E+00 -1.17540E+00 -1.24731E+00 -1.30220E+00 -1.33776E+00 -1.35073E+00 -1.33692E+00 -1.29110E+00
  -1.20648E+00 -1.07477E+00 -8.86129E-01 -6.29188E-01 -2.91195E-01  1.41609E-01  6.83481E-01  1.34839E+00  2.14900E+00  3.09604E+00
   4.19725E+00  5.45606E+00  6.87062E+00  8.43308E+00  1.01291E+01  1.19374E+01  1.38304E+01  1.57744E+01  1.77306E+01  1.96571E+01
   2.15098E+01  2.32450E+01  2.48207E+01  2.61989E+01  2.73472E+01  2.82395E+01  2.88581E+01  2.91932E+01  2.92441E+01  2.90190E+01
   2.85355E+01  2.78253E+01  2.69325E+01  2.58485E+01  2.45463E+01  2.30473E+01  2.13981E+01  1.96529E+01  1.78616E+01  1.60649E+01
   1.43403E+01  1.27822E+01  1.14289E+01  1.02965E+01  9.37952E+00  8.61680E+00  7.96522E+00  7.42825E+00  7.00410E+00  6.68375E+00
   6.46703E+00  6.39926E+00  6.63011E+00  7.10344E+00  7.43049E+00  7.44048E+00  7.13612E+00  6.58430E+00  5.85475E+00  4.99702E+00
   4.26512E+00  3.95239E+00  4.09922E+00  4.69101E+00  5.68105E+00  6.79575E+00  7.69523E+00  8.34391E+00  8.72413E+00  8.77979E+00
   8.47157E+00  7.87190E+00  7.26989E+00  6.83030E+00  6.46326E+00  6.12168E+00  5.78991E+00  5.46262E+00  5.13884E+00  4.81960E+00
   4.50684E+00  4.20285E+00  3.91000E+00  3.63066E+00  3.36711E+00  3.12139E+00  2.89522E+00  2.69003E+00  2.50697E+00  2.34703E+00
   2.21102E+00  2.09955E+00  2.01302E+00  1.95172E+00  1.91582E+00  1.90546E+00  1.92068E+00  1.96139E+00  2.02735E+00  2.11815E+00
   2.23318E+00  2.37162E+00  2.53231E+00  2.71370E+00  2.91376E+00  3.12999E+00  3.35942E+00  3.59857E+00  3.84342E+00  4.08947E+00
   4.33184E+00  4.56539E+00  4.78486E+00  4.98502E+00  5.16083E+00  5.30760E+00  5.42123E+00  5.49837E+00  5.53658E+00  5.53438E+00
   5.49129E+00  5.40790E+00  5.28584E+00  5.12767E+00  4.93682E+00  4.71732E+00  4.47371E+00  4.21081E+00  3.93358E+00  3.64692E+00
   3.35553E+00  3.06370E+00  2.77529E+00  2.49361E+00  2.22146E+00  1.96103E+00  1.71398E+00  1.48141E+00  1.26396E+00  1.06188E+00
   8.75090E-01  7.03218E-01  5.45683E-01  4.01736E-01  2.70533E-01  1.51190E-01  4.28038E-02 -5.55288E-02 -1.44697E-01 -2.25550E-01
  -2.98872E-01 -3.65378E-01 -4.25723E-01 -4.80516E-01 -5.30317E-01 -5.75625E-01 -6.16877E-01 -6.54456E-01 -6.88711E-01 -7.19964E-01
  -7.48504E-01 -7.74583E-01 -7.98415E-01 -8.20188E-01 -8.40081E-01 -8.58264E-01 -8.74886E-01 -8.90071E-01 -9.03927E-01 -9.16550E-01
  -9.28040E-01 -9.38492E-01 -9.47983E-01 -9.56576E-01 -9.64328E-01 -9.71295E-01 -9.77539E-01 -9.83115E-01 -9.88067E-01 -9.92425E-01
  -9.96224E-01 -9.99502E-01 -1.00230E+00 -1.00464E+00 -1.00656E+00 -1.00806E+00 -1.00918E+00 -1.00993E+00 -1.01035E+00 -1.01045E+00
  -1.01024E+00 -1.00974E+00 -1.00895E+00 -1.00791E+00 -1.00663E+00 -1.00512E+00 -1.00337E+00 -1.00140E+00 -9.99233E-01 -9.96873E-01
  -9.94332E-01 -9.91609E-01 -9.88709E-01 -9.85642E-01 -9.82421E-01 -9.79054E-01 -9.75540E-01 -9.71880E-01
 NY background values follow
    -5.112E+00   -5.104E+00   -5.096E+00   -5.089E+00   -5.081E+00   -5.073E+00   -5.065E+00   -5.057E+00   -5.049E+00   -5.041E+00
    -5.034E+00   -5.026E+00   -5.018E+00   -5.010E+00   -5.002E+00   -4.994E+00   -4.986E+00   -4.978E+00   -4.971E+00   -4.963E+00
    -4.955E+00   -4.947E+00   -4.939E+00   -4.931E+00   -4.923E+00   -4.915E+00   -4.908E+00   -4.900E+00   -4.892E+00   -4.884E+00
    -4.876E+00   -4.868E+00   -4.860E+00   -4.852E+00   -4.845E+00   -4.837E+00   -4.829E+00   -4.821E+00   -4.813E+00   -4.805E+00
    -4.797E+00   -4.789E+00   -4.782E+00   -4.774E+00   -4.766E+00   -4.758E+00   -4.750E+00   -4.742E+00   -4.734E+00   -4.727E+00
    -4.719E+00   -4.711E+00   -4.703E+00   -4.695E+00   -4.687E+00   -4.679E+00   -4.671E+00   -4.664E+00   -4.656E+00   -4.648E+00
    -4.640E+00   -4.632E+00   -4.624E+00   -4.616E+00   -4.608E+00   -4.601E+00   -4.593E+00   -4.585E+00   -4.577E+00   -4.569E+00
    -4.561E+00   -4.553E+00   -4.545E+00   -4.538E+00   -4.530E+00   -4.522E+00   -4.514E+00   -4.506E+00   -4.498E+00   -4.490E+00
    -4.482E+00   -4.475E+00   -4.467E+00   -4.459E+00   -4.451E+00   -4.443E+00   -4.435E+00   -4.427E+00   -4.420E+00   -4.412E+00
    -4.404E+00   -4.396E+00   -4.388E+00   -4.380E+00   -4.372E+00   -4.364E+00   -4.357E+00   -4.349E+00   -4.341E+00   -4.333E+00
    -4.325E+00   -4.317E+00   -4.309E+00   -4.301E+00   -4.294E+00   -4.286E+00   -4.278E+00   -4.270E+00   -4.262E+00   -4.254E+00
    -4.246E+00   -4.238E+00   -4.231E+00   -4.223E+00   -4.215E+00   -4.207E+00   -4.199E+00   -4.191E+00   -4.183E+00   -4.175E+00
    -4.168E+00   -4.160E+00   -4.152E+00   -4.144E+00   -4.136E+00   -4.128E+00   -4.120E+00   -4.112E+00   -4.105E+00   -4.097E+00
    -4.089E+00   -4.081E+00   -4.073E+00   -4.065E+00   -4.057E+00   -4.050E+00   -4.042E+00   -4.034E+00   -4.026E+00   -4.018E+00
    -4.010E+00   -4.002E+00   -3.994E+00   -3.987E+00   -3.979E+00   -3.971E+00   -3.963E+00   -3.955E+00   -3.947E+00   -3.939E+00
    -3.931E+00   -3.924E+00   -3.916E+00   -3.908E+00   -3.900E+00   -3.892E+00   -3.884E+00   -3.876E+00   -3.868E+00   -3.861E+00
    -3.853E+00   -3.845E+00   -3.837E+00   -3.829E+00   -3.821E+00   -3.813E+00   -3.805E+00   -3.798E+00   -3.790E+00   -3.782E+00
    -3.774E+00   -3.766E+00   -3.758E+00   -3.750E+00   -3.742E+00   -3.735E+00   -3.727E+00   -3.719E+00   -3.711E+00   -3.703E+00
    -3.695E+00   -3.687E+00   -3.679E+00   -3.672E+00   -3.664E+00   -3.656E+00   -3.648E+00   -3.640E+00   -3.632E+00   -3.624E+00
    -3.616E+00   -3.609E+00   -3.601E+00   -3.593E+00   -3.585E+00   -3.577E+00   -3.569E+00   -3.561E+00   -3.554E+00   -3.546E+00
    -3.538E+00   -3.530E+00   -3.522E+00   -3.514E+00   -3.506E+00   -3.498E+00   -3.491E+00   -3.483E+00   -3.475E+00   -3.467E+00
    -3.459E+00   -3.451E+00   -3.443E+00   -3.435E+00   -3.428E+00   -3.420E+00   -3.412E+00   -3.404E+00   -3.396E+00   -3.388E+00
    -3.380E+00   -3.372E+00   -3.365E+00   -3.357E+00   -3.349E+00   -3.341E+00   -3.333E+00   -3.325E+00   -3.317E+00   -3.309E+00
    -3.302E+00   -3.294E+00   -3.286E+00   -3.278E+00   -3.270E+00   -3.262E+00   -3.254E+00   -3.246E+00   -3.239E+00   -3.231E+00
    -3.223E+00   -3.215E+00   -3.207E+00   -3.199E+00   -3.191E+00   -3.183E+00   -3.176E+00   -3.168E+00   -3.160E+00   -3.152E+00
    -3.144E+00   -3.136E+00   -3.128E+00   -3.120E+00   -3.113E+00   -3.105E+00   -3.097E+00   -3.089E+00   -3.081E+00   -3.073E+00
    -3.065E+00   -3.057E+00   -3.050E+00   -3.042E+00   -3.034E+00   -3.026E+00   -3.018E+00   -3.010E+00   -3.002E+00   -2.994E+00
    -2.987E+00   -2.979E+00   -2.971E+00   -2.963E+00   -2.955E+00   -2.947E+00   -2.939E+00   -2.931E+00   -2.924E+00   -2.916E+00
    -2.908E+00   -2.900E+00   -2.892E+00   -2.884E+00   -2.876E+00   -2.868E+00   -2.861E+00   -2.853E+00   -2.845E+00   -2.837E+00
    -2.829E+00   -2.821E+00   -2.813E+00   -2.805E+00   -2.798E+00   -2.790E+00   -2.782E+00   -2.774E+00   -2.766E+00   -2.758E+00
    -2.750E+00   -2.742E+00   -2.735E+00   -2.727E+00   -2.719E+00   -2.711E+00   -2.703E+00   -2.695E+00   -2.687E+00   -2.679E+00
    -2.672E+00   -2.664E+00   -2.656E+00   -2.648E+00   -2.640E+00   -2.632E+00   -2.624E+00   -2.616E+00   -2.609E+00   -2.601E+00
    -2.593E+00   -2.585E+00   -2.577E+00   -2.569E+00   -2.561E+00   -2.553E+00   -2.546E+00   -2.538E+00   -2.530E+00   -2.522E+00
    -2.514E+00   -2.506E+00   -2.498E+00   -2.490E+00   -2.483E+00   -2.475E+00   -2.467E+00   -2.459E+00   -2.451E+00   -2.443E+00
    -2.435E+00   -2.427E+00   -2.420E+00   -2.412E+00   -2.404E+00   -2.396E+00   -2.388E+00   -2.380E+00   -2.372E+00   -2.364E+00
    -2.357E+00   -2.349E+00   -2.341E+00   -2.333E+00   -2.325E+00   -2.317E+00   -2.309E+00   -2.301E+00   -2.294E+00   -2.286E+00
    -2.278E+00   -2.270E+00   -2.262E+00   -2.254E+00   -2.246E+00   -2.238E+00   -2.231E+00   -2.223E+00   -2.215E+00   -2.207E+00
    -2.199E+00   -2.191E+00   -2.183E+00   -2.175E+00   -2.168E+00   -2.160E+00   -2.152E+00   -2.144E+00   -2.136E+00   -2.128E+00
    -2.120E+00   -2.112E+00   -2.105E+00   -2.097E+00   -2.089E+00   -2.081E+00   -2.073E+00   -2.065E+00   -2.057E+00   -2.049E+00
    -2.042E+00   -2.034E+00   -2.026E+00   -2.018E+00   -2.010E+00   -2.002E+00   -1.994E+00   -1.986E+00   -1.979E+00   -1.971E+00
    -1.963E+00   -1.955E+00   -1.947E+00   -1.939E+00   -1.931E+00   -1.923E+00   -1.916E+00   -1.908E+00   -1.900E+00   -1.892E+00
    -1.884E+00   -1.876E+00   -1.868E+00   -1.860E+00   -1.853E+00   -1.845E+00   -1.837E+00   -1.829E+00   -1.821E+00   -1.813E+00
    -1.805E+00   -1.797E+00   -1.790E+00   -1.782E+00   -1.774E+00   -1.766E+00   -1.758E+00   -1.750E+00   -1.742E+00   -1.734E+00
    -1.727E+00   -1.719E+00   -1.711E+00   -1.703E+00   -1.695E+00   -1.687E+00   -1.679E+00   -1.671E+00   -1.664E+00   -1.656E+00
    -1.648E+00   -1.640E+00   -1.632E+00   -1.624E+00   -1.616E+00   -1.608E+00   -1.601E+00   -1.593E+00   -1.585E+00   -1.577E+00
    -1.569E+00   -1.561E+00   -1.553E+00   -1.545E+00   -1.538E+00   -1.530E+00   -1.522E+00   -1.514E+00   -1.506E+00   -1.498E+00
    -1.490E+00   -1.482E+00   -1.475E+00   -1.467E+00   -1.459E+00   -1.451E+00   -1.443E+00   -1.435E+00   -1.427E+00   -1.419E+00
    -1.412E+00   -1.404E+00   -1.396E+00   -1.388E+00   -1.380E+00   -1.372E+00   -1.364E+00   -1.356E+00   -1.349E+00   -1.341E+00
    -1.333E+00   -1.325E+00   -1.317E+00   -1.309E+00   -1.301E+00   -1.293E+00   -1.286E+00   -1.278E+00   -1.270E+00   -1.262E+00
    -1.254E+00   -1.246E+00   -1.238E+00   -1.230E+00   -1.223E+00   -1.215E+00   -1.207E+00   -1.199E+00
 Ala      Conc. = 4.21E+01
