 LCModel (Version 6.3-1L) Copyright: S.W. Provencher.          Ref.: Magn. Reson. Med. 30:672-679 (1993).                
 Slice#2 Row#6 Col#7  PD_24_press_2_raw_act
 36 lines in following concentration table = NCONC+1
    Conc.  %SD /Cr+PCr  Metabolite                                         
    0.000 999%   0.000 Ala                                                 
   46.968 724% 2.7E-02 Asp                                                 
    0.000 999%   0.000 Cr                                                  
 1.74E+03   8%   1.000 PCr                                                 
  117.414 176% 6.7E-02 GABA                                                
  229.469  93%   0.132 Glc                                                 
 1.11E+03  38%   0.635 Gln                                                 
 1.69E+03  28%   0.971 Glu                                                 
  317.249  61%   0.182 GPC                                                 
  408.944  47%   0.235 PCh                                                 
  157.558  97% 9.0E-02 GSH                                                 
 1.90E+03  27%   1.091 Ins                                                 
  101.745 225% 5.8E-02 Lac                                                 
 2.66E+03   7%   1.527 NAA                                                 
  399.863  47%   0.230 NAAG                                                
  181.045  28%   0.104 Scyllo                                              
  877.283  37%   0.504 Tau                                                 
 1.30E+03  17%   0.748 -CrCH2                                              
  726.193   7%   0.417 GPC+PCh                                             
 3.06E+03   6%   1.757 NAA+NAAG                                            
 1.74E+03   8%   1.000 Cr+PCr                                              
 2.80E+03  22%   1.606 Glu+Gln                                             
 5.60E+03  19%   3.215 Lip13a                                              
    0.000 999%   0.000 Lip13b                                              
  172.250 420% 9.9E-02 Lip09                                               
 2.62E+03  28%   1.505 MM09                                                
 1.11E+03  50%   0.635 Lip20                                               
 5.52E+03  18%   3.167 MM20                                                
  872.492  48%   0.501 MM12                                                
 2.99E+03  24%   1.718 MM14                                                
 1.79E+03  26%   1.028 MM17                                                
 5.60E+03  19%   3.215 Lip13a+Lip13b                                       
 9.47E+03  10%   5.434 MM14+Lip13a+Lip13b+MM12                             
 2.79E+03  17%   1.604 MM09+Lip09                                          
 6.62E+03  15%   3.802 MM20+Lip20                                          
   6 lines in following misc. output table
  FWHM = 0.046 ppm    S/N =   7                                            
  Data shift = 0.015 ppm                                                   
  Ph: -39 deg      -0.4 deg/ppm                                            
  alphaB,S = 1.5E+00,   2.4E+01                                            
   14 spline knots.   Ns = 5(1)                                            
  (10) 2 infls.   ( 9) 1 extrs.                                            
  498 points on ppm-axis = NY
      4.000000     3.992357     3.984714     3.977070     3.969427     3.961784     3.954141     3.946497     3.938854     3.931211
      3.923568     3.915925     3.908281     3.900638     3.892995     3.885352     3.877708     3.870065     3.862422     3.854779
      3.847136     3.839492     3.831849     3.824206     3.816563     3.808919     3.801276     3.793633     3.785990     3.778347
      3.770703     3.763060     3.755417     3.747774     3.740130     3.732487     3.724844     3.717201     3.709558     3.701914
      3.694271     3.686628     3.678985     3.671341     3.663698     3.656055     3.648412     3.640769     3.633125     3.625482
      3.617839     3.610196     3.602552     3.594909     3.587266     3.579623     3.571980     3.564336     3.556693     3.549050
      3.541407     3.533763     3.526120     3.518477     3.510834     3.503191     3.495547     3.487904     3.480261     3.472618
      3.464974     3.457331     3.449688     3.442045     3.434402     3.426758     3.419115     3.411472     3.403829     3.396185
      3.388542     3.380899     3.373256     3.365613     3.357969     3.350326     3.342683     3.335040     3.327396     3.319753
      3.312110     3.304467     3.296824     3.289180     3.281537     3.273894     3.266251     3.258607     3.250964     3.243321
      3.235678     3.228034     3.220391     3.212748     3.205105     3.197462     3.189818     3.182175     3.174532     3.166889
      3.159245     3.151602     3.143959     3.136316     3.128673     3.121029     3.113386     3.105743     3.098100     3.090456
      3.082813     3.075170     3.067527     3.059884     3.052240     3.044597     3.036954     3.029311     3.021667     3.014024
      3.006381     2.998738     2.991095     2.983451     2.975808     2.968165     2.960522     2.952878     2.945235     2.937592
      2.929949     2.922306     2.914662     2.907019     2.899376     2.891733     2.884089     2.876446     2.868803     2.861160
      2.853517     2.845873     2.838230     2.830587     2.822944     2.815300     2.807657     2.800014     2.792371     2.784728
      2.777084     2.769441     2.761798     2.754155     2.746511     2.738868     2.731225     2.723582     2.715939     2.708295
      2.700652     2.693009     2.685366     2.677722     2.670079     2.662436     2.654793     2.647150     2.639506     2.631863
      2.624220     2.616577     2.608933     2.601290     2.593647     2.586004     2.578361     2.570717     2.563074     2.555431
      2.547788     2.540144     2.532501     2.524858     2.517215     2.509572     2.501928     2.494285     2.486642     2.478999
      2.471355     2.463712     2.456069     2.448426     2.440783     2.433139     2.425496     2.417853     2.410210     2.402566
      2.394923     2.387280     2.379637     2.371994     2.364350     2.356707     2.349064     2.341421     2.333777     2.326134
      2.318491     2.310848     2.303205     2.295561     2.287918     2.280275     2.272632     2.264988     2.257345     2.249702
      2.242059     2.234416     2.226772     2.219129     2.211486     2.203843     2.196199     2.188556     2.180913     2.173270
      2.165627     2.157983     2.150340     2.142697     2.135054     2.127410     2.119767     2.112124     2.104481     2.096838
      2.089194     2.081551     2.073908     2.066265     2.058621     2.050978     2.043335     2.035692     2.028049     2.020405
      2.012762     2.005119     1.997476     1.989833     1.982190     1.974546     1.966903     1.959260     1.951617     1.943974
      1.936331     1.928688     1.921045     1.913402     1.905759     1.898115     1.890472     1.882829     1.875186     1.867543
      1.859900     1.852257     1.844614     1.836971     1.829327     1.821684     1.814041     1.806398     1.798755     1.791112
      1.783469     1.775826     1.768183     1.760540     1.752896     1.745253     1.737610     1.729967     1.722324     1.714681
      1.707038     1.699395     1.691752     1.684108     1.676465     1.668822     1.661179     1.653536     1.645893     1.638250
      1.630607     1.622964     1.615321     1.607677     1.600034     1.592391     1.584748     1.577105     1.569462     1.561819
      1.554176     1.546533     1.538890     1.531246     1.523603     1.515960     1.508317     1.500674     1.493031     1.485388
      1.477745     1.470102     1.462458     1.454815     1.447172     1.439529     1.431886     1.424243     1.416600     1.408957
      1.401314     1.393671     1.386027     1.378384     1.370741     1.363098     1.355455     1.347812     1.340169     1.332526
      1.324883     1.317240     1.309596     1.301953     1.294310     1.286667     1.279024     1.271381     1.263738     1.256095
      1.248452     1.240808     1.233165     1.225522     1.217879     1.210236     1.202593     1.194950     1.187307     1.179664
      1.172021     1.164377     1.156734     1.149091     1.141448     1.133805     1.126162     1.118519     1.110876     1.103233
      1.095590     1.087946     1.080303     1.072660     1.065017     1.057374     1.049731     1.042088     1.034445     1.026802
      1.019158     1.011515     1.003872     0.996229     0.988586     0.980943     0.973300     0.965657     0.958014     0.950371
      0.942727     0.935084     0.927441     0.919798     0.912155     0.904512     0.896869     0.889226     0.881583     0.873940
      0.866296     0.858653     0.851010     0.843367     0.835724     0.828081     0.820438     0.812795     0.805152     0.797508
      0.789865     0.782222     0.774579     0.766936     0.759293     0.751650     0.744007     0.736364     0.728721     0.721077
      0.713434     0.705791     0.698148     0.690505     0.682862     0.675219     0.667576     0.659933     0.652290     0.644646
      0.637003     0.629360     0.621717     0.614074     0.606431     0.598788     0.591145     0.583502     0.575858     0.568215
      0.560572     0.552929     0.545286     0.537643     0.530000     0.522357     0.514714     0.507071     0.499427     0.491784
      0.484141     0.476498     0.468855     0.461212     0.453569     0.445925     0.438282     0.430639     0.422996     0.415353
      0.407710     0.400067     0.392424     0.384780     0.377137     0.369494     0.361851     0.354208     0.346565     0.338922
      0.331278     0.323635     0.315992     0.308349     0.300706     0.293063     0.285420     0.277777     0.270133     0.262490
      0.254847     0.247204     0.239561     0.231918     0.224275     0.216631     0.208988     0.201345
 NY phased data points follow
  -1.54212E+02 -1.56464E+02 -1.64367E+02 -1.46040E+02 -1.50420E+02 -1.36104E+02 -1.41176E+02 -1.08685E+02 -1.17568E+02 -1.14784E+02
  -1.17019E+02 -8.80954E+01 -1.13721E+02 -1.15632E+02 -1.23915E+02 -1.19871E+02 -1.22558E+02 -1.23125E+02 -1.26603E+02 -1.24342E+02
  -1.34201E+02 -1.24588E+02 -1.21020E+02 -1.11920E+02 -1.12919E+02 -1.17521E+02 -1.14006E+02 -1.01936E+02 -1.01613E+02 -1.11591E+02
  -1.12946E+02 -9.27924E+01 -1.12919E+02 -9.76753E+01 -8.85525E+01 -1.00219E+02 -1.17306E+02 -1.06686E+02 -1.04545E+02 -9.75482E+01
  -1.11897E+02 -8.70845E+01 -1.00625E+02 -8.13340E+01 -9.82557E+01 -8.39492E+01 -8.41329E+01 -8.41759E+01 -7.70602E+01 -7.44738E+01
  -8.53101E+01 -7.61004E+01 -8.86268E+01 -9.60284E+01 -7.24728E+01 -8.20103E+01 -8.50654E+01 -7.55373E+01 -9.08927E+01 -8.74959E+01
  -8.63181E+01 -7.73933E+01 -9.19250E+01 -8.65999E+01 -1.05465E+02 -9.31398E+01 -8.21012E+01 -8.41929E+01 -8.03103E+01 -9.04254E+01
  -8.96104E+01 -7.94033E+01 -6.93209E+01 -7.43227E+01 -7.68074E+01 -7.54908E+01 -7.11499E+01 -6.97908E+01 -9.14904E+01 -7.56540E+01
  -7.94328E+01 -6.46335E+01 -6.82281E+01 -6.83060E+01 -6.44721E+01 -6.54320E+01 -6.44563E+01 -6.39583E+01 -6.90637E+01 -5.38020E+01
  -7.02395E+01 -5.87863E+01 -5.85420E+01 -6.19559E+01 -5.76024E+01 -6.81659E+01 -6.45898E+01 -5.97290E+01 -5.49031E+01 -2.17466E+01
  -3.49470E+01  2.04656E+00  1.97900E+01  9.99441E+00 -1.04399E+01 -5.50072E+00 -2.94139E+01 -3.13105E+01 -4.38108E+01 -6.03803E+01
  -6.71208E+01 -5.23709E+01 -6.30411E+01 -5.46233E+01 -6.80466E+01 -5.64517E+01 -5.50258E+01 -5.90400E+01 -6.73465E+01 -5.57971E+01
  -6.65375E+01 -5.81982E+01 -4.88915E+01 -4.57148E+01 -3.63340E+01 -4.01112E+00  6.38746E+00  2.50236E+01  1.58499E+01 -7.70053E+00
  -1.76799E+01 -4.09812E+01 -5.22555E+01 -5.22103E+01 -4.77195E+01 -6.10411E+01 -5.40880E+01 -5.36976E+01 -4.65300E+01 -6.18495E+01
  -6.00069E+01 -5.70897E+01 -6.35395E+01 -6.22705E+01 -6.31042E+01 -5.36104E+01 -4.28772E+01 -4.92942E+01 -5.18290E+01 -3.32988E+01
  -5.60659E+01 -5.68676E+01 -6.32465E+01 -3.27241E+01 -6.36218E+01 -5.15835E+01 -4.45503E+01 -4.96816E+01 -5.89151E+01 -4.78299E+01
  -4.71832E+01 -5.15069E+01 -5.02443E+01 -4.89937E+01 -5.16137E+01 -4.15895E+01 -4.35855E+01 -4.47324E+01 -4.81056E+01 -5.46129E+01
  -6.75319E+01 -6.47512E+01 -5.05259E+01 -4.08454E+01 -6.32519E+01 -5.88062E+01 -4.86225E+01 -5.63259E+01 -7.24750E+01 -6.43385E+01
  -5.73767E+01 -6.29430E+01 -7.05813E+01 -5.50719E+01 -6.12919E+01 -6.65856E+01 -5.83499E+01 -4.46715E+01 -4.19005E+01 -4.00548E+01
  -3.74973E+01 -3.24182E+01 -3.84524E+01 -4.16803E+01 -4.55306E+01 -5.13317E+01 -4.10521E+01 -5.23124E+01 -3.99573E+01 -4.40455E+01
  -5.85626E+01 -3.92487E+01 -3.92625E+01 -3.00111E+01 -3.67208E+01 -3.80697E+01 -5.28014E+01 -4.64307E+01 -5.16520E+01 -4.90225E+01
  -5.65743E+01 -4.06523E+01 -1.88042E+01 -3.50695E+01 -3.78496E+01 -1.83935E+01 -1.39672E+01 -7.95102E+00 -2.98737E+01 -1.92840E+01
  -3.78743E+01 -3.78962E+01 -4.93098E+01 -4.44866E+01 -2.68257E+01 -3.28307E+01 -2.35333E+01 -1.09603E+01 -3.59707E+01 -2.03919E+01
  -3.31562E+01 -1.48871E+01 -1.95915E+01 -2.74712E+01 -3.00263E+01 -3.43810E+01 -2.84785E+01 -2.55747E+01 -3.39233E+01 -1.90197E+01
  -2.05735E+01 -2.37257E+01 -1.48655E+01 -2.59396E+01 -4.30191E+01 -1.79225E+01 -1.22431E+01  3.50801E-01 -6.20790E+00 -9.92640E-01
   6.01106E+00  2.36948E-01  2.51228E+00  1.23424E+01  6.73484E+00  1.54213E+01  3.44817E+01  4.81689E+01  7.93506E+01  8.54776E+01
   9.80956E+01  1.01140E+02  7.36125E+01  4.88825E+01  1.39945E+01 -5.74087E+00 -1.24297E+01 -3.15544E+01 -1.47556E+01 -9.78140E+00
  -2.18154E+01 -2.09932E+01 -2.59658E+01 -2.38522E+00 -1.83427E+01 -7.50874E+00 -3.06232E+01 -1.13878E+01 -1.98802E+01 -8.96546E+00
  -1.52388E+01 -1.50586E+01 -2.87491E+01 -2.34407E+01 -2.67040E+01 -2.77193E+01 -3.12712E+01 -2.14805E+01 -1.49860E+01 -1.68252E+01
  -3.21389E+01 -2.22303E+01 -2.66263E+01 -1.85187E+01 -2.65831E+01 -6.69994E+00 -1.71235E+01 -1.08685E+01 -2.23428E+01 -6.35963E+00
  -1.38813E+01 -1.11323E+01 -1.85617E+01  4.02745E-02 -8.60325E+00 -1.17707E+01 -1.36903E+01 -1.34820E+01 -1.02584E+01 -1.48373E+01
  -1.92476E+01 -2.48289E+01 -2.92219E+01 -2.01403E+01 -2.00168E+01 -2.56342E+01 -1.92071E+01 -3.08873E+01 -4.03875E+01 -2.85497E+01
  -2.99216E+01 -3.32712E+01 -3.21125E+01 -3.56158E+01 -3.36858E+01 -2.22286E+01 -1.12524E+01 -1.45823E+01 -1.70229E+01 -1.45845E+01
  -9.25404E+00 -1.39867E+01 -4.15807E+00  6.87395E+00  7.32096E+00 -3.02635E+00  2.46355E+00  4.82949E+00  2.78972E-01  2.50778E+00
   5.57397E+00 -5.58736E-01  1.02345E+01  1.34844E+01  1.97619E+01  1.43662E+01  1.12500E+01  1.33515E+01 -1.06800E+01  7.78703E+00
   1.05361E+01  1.41006E+01  2.27775E+01  1.97576E+01  7.84694E+00  6.90530E+00  7.71150E+00  1.53688E+01  1.57619E+01  6.89575E+00
   1.26450E+01  8.63574E+00 -4.15304E-01  1.06558E+01  3.76856E+00  5.66763E+00  9.50212E+00  1.20575E+01 -1.49202E+00  4.97035E+00
   9.50591E+00  4.03357E+00 -3.14225E+00 -5.16480E+00 -8.13209E+00 -6.62675E+00 -8.05959E+00 -1.11297E+01 -1.88252E+01 -4.05630E+00
  -2.53120E+00 -8.21376E+00 -8.38977E+00 -1.14792E+01 -7.41192E+00 -1.87102E+01 -2.64296E+01 -2.23608E+01 -1.42548E+01 -1.10275E+01
  -2.68770E+00 -1.30116E+01  2.12234E+01 -8.23620E+00 -1.73171E+01 -3.66406E+00 -1.35030E+01 -1.20567E+01  8.65610E-01 -1.49525E+01
  -9.11318E+00  4.99360E+00  7.93423E+00 -1.32036E+01  1.06382E+01 -1.64207E+00 -1.63006E+00 -2.55485E-01 -5.43375E+00  4.63408E+00
  -1.16424E+01  7.67754E+00  4.69915E+00  1.33650E+00  3.81579E+00 -8.59344E+00 -9.28934E+00 -1.48349E+01 -8.32404E+00 -6.92501E-01
  -1.02444E+00  8.88078E+00 -8.23106E+00  1.44540E+01 -6.66180E+00 -4.43320E+00 -1.01366E+01  1.78684E+00 -1.23170E+01 -1.27972E+01
  -4.82305E+00  4.98321E+00 -5.18800E+00 -9.06500E+00 -5.57430E+00 -6.66715E+00 -2.04680E+01 -1.55553E+01 -1.80201E+01 -2.10845E+01
  -4.34430E+00  1.41997E+00  3.28493E+00 -2.97971E+00 -2.13554E+01 -1.65156E+01 -3.73174E+00 -1.02760E+01 -1.02538E+01 -2.73525E+01
  -1.93135E+01 -2.05856E+01 -1.49474E+01 -1.76484E+01 -8.37397E+00 -2.51950E+01 -3.49014E+00 -1.53477E+01 -1.99004E+01 -1.10264E+01
  -1.68941E+01 -2.45490E-01  5.34648E+00 -1.12590E+01 -1.64402E+01 -9.20188E+00  4.04018E+00 -2.82340E+00  1.10160E+00 -7.48297E-01
   7.05592E+00 -1.79273E+01 -1.67883E+01 -1.64032E+01 -2.02903E+01 -4.78309E+00 -7.73968E+00 -1.97675E+01 -2.02193E+01 -8.62819E+00
  -4.96321E+00 -3.73417E+00 -9.76811E-01 -5.44706E+00 -1.47498E+01 -1.12698E+01 -1.39615E+01 -1.09788E+01 -1.08674E+01 -8.10728E+00
  -1.28434E+01 -1.10643E+01 -1.48288E+01  8.86600E+00 -1.13658E+01 -1.54637E+01 -7.15344E-01 -8.70828E+00
 NY points of the fit to the data follow
  -1.32423E+02 -1.32325E+02 -1.32161E+02 -1.33598E+02 -1.34786E+02 -1.33642E+02 -1.31107E+02 -1.25181E+02 -1.17602E+02 -1.10154E+02
  -1.04488E+02 -1.03175E+02 -1.06925E+02 -1.12929E+02 -1.17762E+02 -1.20010E+02 -1.20202E+02 -1.19632E+02 -1.18859E+02 -1.17920E+02
  -1.16811E+02 -1.15711E+02 -1.14690E+02 -1.14147E+02 -1.14088E+02 -1.14094E+02 -1.13907E+02 -1.12760E+02 -1.10456E+02 -1.07097E+02
  -1.03179E+02 -9.98313E+01 -9.79518E+01 -9.79610E+01 -9.97262E+01 -1.02339E+02 -1.04774E+02 -1.06342E+02 -1.06662E+02 -1.05890E+02
  -1.04440E+02 -1.02445E+02 -9.96543E+01 -9.59780E+01 -9.17318E+01 -8.74389E+01 -8.40770E+01 -8.26156E+01 -8.36668E+01 -8.70886E+01
  -9.16521E+01 -9.55478E+01 -9.75814E+01 -9.76553E+01 -9.62961E+01 -9.42428E+01 -9.18884E+01 -8.94002E+01 -8.71515E+01 -8.54143E+01
  -8.45168E+01 -8.45674E+01 -8.52999E+01 -8.62654E+01 -8.66886E+01 -8.64230E+01 -8.54992E+01 -8.40978E+01 -8.27185E+01 -8.15000E+01
  -8.01790E+01 -7.86141E+01 -7.69670E+01 -7.53621E+01 -7.43484E+01 -7.42861E+01 -7.51206E+01 -7.65673E+01 -7.81328E+01 -7.90446E+01
  -7.87014E+01 -7.66825E+01 -7.33901E+01 -6.99740E+01 -6.70938E+01 -6.55544E+01 -6.55759E+01 -6.68790E+01 -6.91629E+01 -7.16267E+01
  -7.32831E+01 -7.37293E+01 -7.34196E+01 -7.27505E+01 -7.17489E+01 -7.03657E+01 -6.80048E+01 -6.32621E+01 -5.35731E+01 -3.88948E+01
  -2.12390E+01 -3.35922E+00  9.72251E+00  1.42435E+01  8.00486E+00 -7.99153E+00 -2.83211E+01 -4.59842E+01 -5.70945E+01 -6.21569E+01
  -6.38115E+01 -6.42518E+01 -6.42801E+01 -6.40928E+01 -6.37699E+01 -6.33891E+01 -6.29638E+01 -6.24763E+01 -6.19008E+01 -6.11492E+01
  -6.00588E+01 -5.79216E+01 -5.14042E+01 -3.92769E+01 -2.39381E+01 -6.61841E+00  7.37001E+00  1.39429E+01  1.09468E+01 -1.84247E+00
  -2.01419E+01 -3.69928E+01 -4.79976E+01 -5.32532E+01 -5.51070E+01 -5.58331E+01 -5.61179E+01 -5.59794E+01 -5.54861E+01 -5.47641E+01
  -5.40188E+01 -5.34293E+01 -5.30807E+01 -5.29498E+01 -5.29454E+01 -5.29680E+01 -5.29555E+01 -5.28966E+01 -5.28128E+01 -5.27402E+01
  -5.26914E+01 -5.26457E+01 -5.25846E+01 -5.24487E+01 -5.22001E+01 -5.19080E+01 -5.17976E+01 -5.19230E+01 -5.23313E+01 -5.28818E+01
  -5.31769E+01 -5.31169E+01 -5.25947E+01 -5.17320E+01 -5.09952E+01 -5.07926E+01 -5.12501E+01 -5.21448E+01 -5.30054E+01 -5.34717E+01
  -5.36064E+01 -5.37303E+01 -5.40233E+01 -5.43551E+01 -5.46400E+01 -5.45960E+01 -5.42410E+01 -5.36104E+01 -5.28382E+01 -5.22043E+01
  -5.18764E+01 -5.17924E+01 -5.17620E+01 -5.14310E+01 -5.07320E+01 -4.98333E+01 -4.86678E+01 -4.71621E+01 -4.53634E+01 -4.35518E+01
  -4.21810E+01 -4.17020E+01 -4.19529E+01 -4.27313E+01 -4.35684E+01 -4.40978E+01 -4.40918E+01 -4.34326E+01 -4.21368E+01 -4.01728E+01
  -3.77516E+01 -3.52316E+01 -3.32256E+01 -3.24610E+01 -3.33951E+01 -3.63564E+01 -4.05242E+01 -4.51007E+01 -4.90548E+01 -5.10724E+01
  -5.05643E+01 -4.72425E+01 -4.15984E+01 -3.53110E+01 -2.96428E+01 -2.57787E+01 -2.44443E+01 -2.60282E+01 -3.03911E+01 -3.61022E+01
  -4.11644E+01 -4.41432E+01 -4.43334E+01 -4.18898E+01 -3.75515E+01 -3.23615E+01 -2.78094E+01 -2.50055E+01 -2.40217E+01 -2.42615E+01
  -2.50408E+01 -2.58963E+01 -2.63257E+01 -2.61658E+01 -2.52575E+01 -2.36203E+01 -2.15051E+01 -1.93117E+01 -1.76046E+01 -1.68142E+01
  -1.71856E+01 -1.83125E+01 -1.95038E+01 -2.00335E+01 -1.94780E+01 -1.78736E+01 -1.57477E+01 -1.37415E+01 -1.20924E+01 -1.06775E+01
  -8.92584E+00 -5.88791E+00 -1.87487E+00  2.98025E+00  8.66078E+00  1.88516E+01  3.52081E+01  5.43324E+01  7.52676E+01  9.18624E+01
   9.91961E+01  9.39129E+01  7.46925E+01  4.66327E+01  1.96309E+01  8.31644E-01 -9.21418E+00 -1.37325E+01 -1.61608E+01 -1.77966E+01
  -1.89635E+01 -1.97473E+01 -2.02265E+01 -2.05082E+01 -2.07322E+01 -2.10292E+01 -2.15010E+01 -2.21291E+01 -2.28139E+01 -2.34328E+01
  -2.38955E+01 -2.41662E+01 -2.42567E+01 -2.41807E+01 -2.39717E+01 -2.36740E+01 -2.33146E+01 -2.28834E+01 -2.23704E+01 -2.17613E+01
  -2.10529E+01 -2.02600E+01 -1.94113E+01 -1.85464E+01 -1.77142E+01 -1.69410E+01 -1.62453E+01 -1.56352E+01 -1.51203E+01 -1.47122E+01
  -1.44237E+01 -1.42634E+01 -1.42445E+01 -1.43738E+01 -1.46496E+01 -1.50567E+01 -1.55736E+01 -1.61718E+01 -1.68233E+01 -1.74977E+01
  -1.81683E+01 -1.88084E+01 -1.93962E+01 -1.99101E+01 -2.03337E+01 -2.06513E+01 -2.08529E+01 -2.09292E+01 -2.08760E+01 -2.06892E+01
  -2.03686E+01 -1.99131E+01 -1.93256E+01 -1.86082E+01 -1.77663E+01 -1.68044E+01 -1.57307E+01 -1.45530E+01 -1.32828E+01 -1.19313E+01
  -1.05130E+01 -9.04149E+00 -7.53334E+00 -6.00348E+00 -4.46905E+00 -2.94394E+00 -1.44275E+00  2.46290E-02  1.44905E+00  2.82821E+00
   4.16545E+00  5.48630E+00  6.84005E+00  8.14538E+00  9.30664E+00  1.02457E+01  1.08446E+01  1.10956E+01  1.10431E+01  1.08145E+01
   1.07215E+01  1.09369E+01  1.14752E+01  1.22224E+01  1.29611E+01  1.35195E+01  1.37505E+01  1.35427E+01  1.29108E+01  1.19998E+01
   1.09562E+01  9.85942E+00  8.71470E+00  7.50903E+00  6.24263E+00  4.92869E+00  3.58267E+00  2.22381E+00  8.69451E-01 -4.61671E-01
  -1.75428E+00 -2.99286E+00 -4.16623E+00 -5.26332E+00 -6.27729E+00 -7.20120E+00 -8.03199E+00 -8.76616E+00 -9.40356E+00 -9.94300E+00
  -1.03859E+01 -1.07320E+01 -1.09833E+01 -1.11398E+01 -1.12035E+01 -1.11743E+01 -1.10539E+01 -1.08419E+01 -1.05402E+01 -1.01490E+01
  -9.67135E+00 -9.10901E+00 -8.46704E+00 -7.75006E+00 -6.96658E+00 -6.12529E+00 -5.23899E+00 -4.32068E+00 -3.38737E+00 -2.45590E+00
  -1.54655E+00 -6.78446E-01  1.27270E-01  8.52138E-01  1.47724E+00  1.98778E+00  2.37002E+00  2.61568E+00  2.71866E+00  2.67904E+00
   2.49922E+00  2.18742E+00  1.75358E+00  1.21258E+00  5.79779E-01 -1.26059E-01 -8.87367E-01 -1.68484E+00 -2.50179E+00 -3.32099E+00
  -4.12881E+00 -4.91189E+00 -5.66108E+00 -6.36769E+00 -7.02708E+00 -7.63478E+00 -8.18995E+00 -8.69147E+00 -9.14139E+00 -9.54088E+00
  -9.89357E+00 -1.02017E+01 -1.04696E+01 -1.06998E+01 -1.08969E+01 -1.10634E+01 -1.12032E+01 -1.13183E+01 -1.14124E+01 -1.14869E+01
  -1.15450E+01 -1.15876E+01 -1.16173E+01 -1.16347E+01 -1.16419E+01 -1.16394E+01 -1.16289E+01 -1.16104E+01 -1.15857E+01 -1.15544E+01
  -1.15181E+01 -1.14765E+01 -1.14308E+01 -1.13807E+01 -1.13273E+01 -1.12700E+01 -1.12101E+01 -1.11469E+01 -1.10816E+01 -1.10134E+01
  -1.09434E+01 -1.08710E+01 -1.07970E+01 -1.07209E+01 -1.06436E+01 -1.05644E+01 -1.04840E+01 -1.04020E+01 -1.03192E+01 -1.02348E+01
  -1.01497E+01 -1.00632E+01 -9.97614E+00 -9.88776E+00 -9.79896E+00 -9.70898E+00 -9.61863E+00 -9.52712E+00 -9.43534E+00 -9.34256E+00
  -9.24962E+00 -9.15572E+00 -9.06164E+00 -8.96663E+00 -8.87154E+00 -8.77563E+00 -8.67972E+00 -8.58298E+00 -8.48621E+00 -8.38867E+00
  -8.29121E+00 -8.19307E+00 -8.09502E+00 -7.99626E+00 -7.89760E+00 -7.79831E+00 -7.69921E+00 -7.59955E+00
 NY background values follow
    -1.370E+02   -1.363E+02   -1.356E+02   -1.349E+02   -1.342E+02   -1.335E+02   -1.327E+02   -1.320E+02   -1.313E+02   -1.306E+02
    -1.299E+02   -1.292E+02   -1.285E+02   -1.277E+02   -1.270E+02   -1.263E+02   -1.256E+02   -1.249E+02   -1.242E+02   -1.235E+02
    -1.228E+02   -1.221E+02   -1.214E+02   -1.207E+02   -1.200E+02   -1.193E+02   -1.186E+02   -1.179E+02   -1.172E+02   -1.165E+02
    -1.158E+02   -1.151E+02   -1.144E+02   -1.137E+02   -1.130E+02   -1.123E+02   -1.116E+02   -1.110E+02   -1.103E+02   -1.096E+02
    -1.089E+02   -1.083E+02   -1.076E+02   -1.069E+02   -1.063E+02   -1.056E+02   -1.050E+02   -1.043E+02   -1.036E+02   -1.030E+02
    -1.024E+02   -1.017E+02   -1.011E+02   -1.004E+02   -9.980E+01   -9.917E+01   -9.854E+01   -9.792E+01   -9.730E+01   -9.668E+01
    -9.606E+01   -9.545E+01   -9.484E+01   -9.424E+01   -9.364E+01   -9.304E+01   -9.245E+01   -9.186E+01   -9.127E+01   -9.069E+01
    -9.011E+01   -8.953E+01   -8.896E+01   -8.839E+01   -8.782E+01   -8.726E+01   -8.671E+01   -8.615E+01   -8.560E+01   -8.506E+01
    -8.452E+01   -8.398E+01   -8.345E+01   -8.292E+01   -8.239E+01   -8.187E+01   -8.136E+01   -8.085E+01   -8.034E+01   -7.983E+01
    -7.934E+01   -7.884E+01   -7.835E+01   -7.786E+01   -7.738E+01   -7.691E+01   -7.643E+01   -7.597E+01   -7.550E+01   -7.504E+01
    -7.458E+01   -7.413E+01   -7.369E+01   -7.324E+01   -7.280E+01   -7.237E+01   -7.194E+01   -7.151E+01   -7.109E+01   -7.067E+01
    -7.025E+01   -6.984E+01   -6.943E+01   -6.903E+01   -6.863E+01   -6.823E+01   -6.784E+01   -6.745E+01   -6.706E+01   -6.668E+01
    -6.630E+01   -6.593E+01   -6.556E+01   -6.519E+01   -6.483E+01   -6.447E+01   -6.411E+01   -6.376E+01   -6.341E+01   -6.306E+01
    -6.272E+01   -6.238E+01   -6.204E+01   -6.171E+01   -6.138E+01   -6.105E+01   -6.073E+01   -6.041E+01   -6.009E+01   -5.978E+01
    -5.947E+01   -5.916E+01   -5.885E+01   -5.855E+01   -5.825E+01   -5.795E+01   -5.766E+01   -5.737E+01   -5.708E+01   -5.679E+01
    -5.651E+01   -5.623E+01   -5.595E+01   -5.568E+01   -5.540E+01   -5.513E+01   -5.486E+01   -5.460E+01   -5.433E+01   -5.407E+01
    -5.381E+01   -5.356E+01   -5.330E+01   -5.305E+01   -5.280E+01   -5.255E+01   -5.230E+01   -5.206E+01   -5.181E+01   -5.157E+01
    -5.133E+01   -5.109E+01   -5.086E+01   -5.062E+01   -5.039E+01   -5.016E+01   -4.993E+01   -4.970E+01   -4.948E+01   -4.925E+01
    -4.903E+01   -4.881E+01   -4.859E+01   -4.837E+01   -4.815E+01   -4.793E+01   -4.772E+01   -4.750E+01   -4.729E+01   -4.708E+01
    -4.687E+01   -4.666E+01   -4.645E+01   -4.625E+01   -4.604E+01   -4.584E+01   -4.563E+01   -4.543E+01   -4.523E+01   -4.504E+01
    -4.484E+01   -4.464E+01   -4.445E+01   -4.426E+01   -4.406E+01   -4.387E+01   -4.368E+01   -4.350E+01   -4.331E+01   -4.313E+01
    -4.294E+01   -4.276E+01   -4.258E+01   -4.240E+01   -4.222E+01   -4.204E+01   -4.187E+01   -4.169E+01   -4.152E+01   -4.135E+01
    -4.118E+01   -4.101E+01   -4.084E+01   -4.067E+01   -4.051E+01   -4.034E+01   -4.018E+01   -4.002E+01   -3.986E+01   -3.970E+01
    -3.954E+01   -3.939E+01   -3.923E+01   -3.908E+01   -3.893E+01   -3.878E+01   -3.863E+01   -3.848E+01   -3.833E+01   -3.818E+01
    -3.804E+01   -3.789E+01   -3.775E+01   -3.761E+01   -3.747E+01   -3.733E+01   -3.719E+01   -3.705E+01   -3.692E+01   -3.678E+01
    -3.665E+01   -3.652E+01   -3.639E+01   -3.626E+01   -3.613E+01   -3.600E+01   -3.587E+01   -3.574E+01   -3.562E+01   -3.550E+01
    -3.537E+01   -3.525E+01   -3.513E+01   -3.501E+01   -3.489E+01   -3.477E+01   -3.466E+01   -3.454E+01   -3.442E+01   -3.431E+01
    -3.420E+01   -3.408E+01   -3.397E+01   -3.386E+01   -3.375E+01   -3.364E+01   -3.354E+01   -3.343E+01   -3.332E+01   -3.322E+01
    -3.311E+01   -3.301E+01   -3.290E+01   -3.280E+01   -3.270E+01   -3.259E+01   -3.249E+01   -3.239E+01   -3.229E+01   -3.219E+01
    -3.209E+01   -3.199E+01   -3.189E+01   -3.180E+01   -3.170E+01   -3.160E+01   -3.150E+01   -3.141E+01   -3.131E+01   -3.121E+01
    -3.111E+01   -3.102E+01   -3.092E+01   -3.083E+01   -3.073E+01   -3.063E+01   -3.054E+01   -3.044E+01   -3.034E+01   -3.025E+01
    -3.015E+01   -3.005E+01   -2.996E+01   -2.986E+01   -2.976E+01   -2.966E+01   -2.957E+01   -2.947E+01   -2.937E+01   -2.927E+01
    -2.917E+01   -2.907E+01   -2.897E+01   -2.887E+01   -2.877E+01   -2.867E+01   -2.857E+01   -2.847E+01   -2.837E+01   -2.827E+01
    -2.817E+01   -2.806E+01   -2.796E+01   -2.786E+01   -2.775E+01   -2.765E+01   -2.755E+01   -2.744E+01   -2.734E+01   -2.724E+01
    -2.713E+01   -2.703E+01   -2.692E+01   -2.682E+01   -2.671E+01   -2.661E+01   -2.650E+01   -2.639E+01   -2.629E+01   -2.618E+01
    -2.607E+01   -2.597E+01   -2.586E+01   -2.575E+01   -2.565E+01   -2.554E+01   -2.543E+01   -2.532E+01   -2.521E+01   -2.511E+01
    -2.500E+01   -2.489E+01   -2.478E+01   -2.467E+01   -2.456E+01   -2.445E+01   -2.434E+01   -2.423E+01   -2.412E+01   -2.401E+01
    -2.390E+01   -2.379E+01   -2.368E+01   -2.357E+01   -2.346E+01   -2.335E+01   -2.324E+01   -2.313E+01   -2.302E+01   -2.290E+01
    -2.279E+01   -2.268E+01   -2.257E+01   -2.245E+01   -2.234E+01   -2.223E+01   -2.212E+01   -2.200E+01   -2.189E+01   -2.178E+01
    -2.166E+01   -2.155E+01   -2.143E+01   -2.132E+01   -2.120E+01   -2.109E+01   -2.097E+01   -2.086E+01   -2.074E+01   -2.063E+01
    -2.051E+01   -2.040E+01   -2.028E+01   -2.016E+01   -2.005E+01   -1.993E+01   -1.981E+01   -1.969E+01   -1.958E+01   -1.946E+01
    -1.934E+01   -1.922E+01   -1.911E+01   -1.899E+01   -1.887E+01   -1.875E+01   -1.863E+01   -1.851E+01   -1.839E+01   -1.827E+01
    -1.815E+01   -1.803E+01   -1.791E+01   -1.780E+01   -1.768E+01   -1.756E+01   -1.744E+01   -1.732E+01   -1.720E+01   -1.708E+01
    -1.696E+01   -1.684E+01   -1.672E+01   -1.660E+01   -1.648E+01   -1.636E+01   -1.624E+01   -1.612E+01   -1.600E+01   -1.588E+01
    -1.576E+01   -1.564E+01   -1.552E+01   -1.540E+01   -1.528E+01   -1.516E+01   -1.504E+01   -1.492E+01   -1.480E+01   -1.468E+01
    -1.456E+01   -1.444E+01   -1.433E+01   -1.421E+01   -1.409E+01   -1.397E+01   -1.385E+01   -1.373E+01   -1.362E+01   -1.350E+01
    -1.338E+01   -1.326E+01   -1.315E+01   -1.303E+01   -1.291E+01   -1.280E+01   -1.268E+01   -1.256E+01   -1.245E+01   -1.233E+01
    -1.221E+01   -1.210E+01   -1.198E+01   -1.187E+01   -1.175E+01   -1.163E+01   -1.152E+01   -1.140E+01   -1.129E+01   -1.117E+01
    -1.106E+01   -1.094E+01   -1.082E+01   -1.071E+01   -1.059E+01   -1.048E+01   -1.036E+01   -1.025E+01   -1.013E+01   -1.002E+01
    -9.902E+00   -9.787E+00   -9.672E+00   -9.556E+00   -9.441E+00   -9.326E+00   -9.211E+00   -9.095E+00
 Asp      Conc. = 4.70E+01
