 LCModel (Version 6.3-1L) Copyright: S.W. Provencher.          Ref.: Magn. Reson. Med. 30:672-679 (1993).                
 Slice#1 Row#3 Col#12  PD_24_press_2_raw_act
 36 lines in following concentration table = NCONC+1
    Conc.  %SD /Cr+PCr  Metabolite                                         
    0.000 999%   0.000 Ala                                                 
   75.528  14%   0.000 Asp                                                 
    0.000 999%   0.000 Cr                                                  
    0.000 999%   0.000 PCr                                                 
   45.228  14%   0.000 GABA                                                
   45.327  14%   0.000 Glc                                                 
 3.17E+03  30%   0.000 Gln                                                 
 9.44E+03  13%   0.000 Glu                                                 
   18.005 224%   0.000 GPC                                                 
    0.000 999%   0.000 PCh                                                 
    0.000 999%   0.000 GSH                                                 
 1.54E+03  28%   0.000 Ins                                                 
    0.000 999%   0.000 Lac                                                 
 1.46E+03   8%   0.000 NAA                                                 
    0.000 999%   0.000 NAAG                                                
   15.168  14%   0.000 Scyllo                                              
   75.734  14%   0.000 Tau                                                 
    0.000 999%   0.000 -CrCH2                                              
   18.005 224%   0.000 GPC+PCh                                             
 1.46E+03   8%   0.000 NAA+NAAG                                            
    0.000 999%   0.000 Cr+PCr                                              
 1.26E+04  13%   0.000 Glu+Gln                                             
    0.000 999%   0.000 Lip13a                                              
    0.000 999%   0.000 Lip13b                                              
    0.000 999%   0.000 Lip09                                               
 1.08E+03  13%   0.000 MM09                                                
    0.000 999%   0.000 Lip20                                               
 1.54E+03  16%   0.000 MM20                                                
  307.168  22%   0.000 MM12                                                
    0.000 999%   0.000 MM14                                                
  974.168  13%   0.000+MM17                                                
    0.000 999%   0.000 Lip13a+Lip13b                                       
  307.168  22%   0.000 MM14+Lip13a+Lip13b+MM12                             
 1.08E+03  13%   0.000 MM09+Lip09                                          
 1.54E+03  16%   0.000 MM20+Lip20                                          
   6 lines in following misc. output table
  FWHM = 0.168 ppm    S/N =   3                                            
  Data shift = 0.168 ppm                                                   
  Ph:   4 deg      98.8 deg/ppm                                            
  alphaB,S = 8.5E+01,   2.9E+02                                            
   14 spline knots.   Ns = 8(2)                                            
  (11) 2 infls.   (10) 1 extrs.                                            
  498 points on ppm-axis = NY
      4.000000     3.992357     3.984714     3.977070     3.969427     3.961784     3.954141     3.946497     3.938854     3.931211
      3.923568     3.915925     3.908281     3.900638     3.892995     3.885352     3.877708     3.870065     3.862422     3.854779
      3.847136     3.839492     3.831849     3.824206     3.816563     3.808919     3.801276     3.793633     3.785990     3.778347
      3.770703     3.763060     3.755417     3.747774     3.740130     3.732487     3.724844     3.717201     3.709558     3.701914
      3.694271     3.686628     3.678985     3.671341     3.663698     3.656055     3.648412     3.640769     3.633125     3.625482
      3.617839     3.610196     3.602552     3.594909     3.587266     3.579623     3.571980     3.564336     3.556693     3.549050
      3.541407     3.533763     3.526120     3.518477     3.510834     3.503191     3.495547     3.487904     3.480261     3.472618
      3.464974     3.457331     3.449688     3.442045     3.434402     3.426758     3.419115     3.411472     3.403829     3.396185
      3.388542     3.380899     3.373256     3.365613     3.357969     3.350326     3.342683     3.335040     3.327396     3.319753
      3.312110     3.304467     3.296824     3.289180     3.281537     3.273894     3.266251     3.258607     3.250964     3.243321
      3.235678     3.228034     3.220391     3.212748     3.205105     3.197462     3.189818     3.182175     3.174532     3.166889
      3.159245     3.151602     3.143959     3.136316     3.128673     3.121029     3.113386     3.105743     3.098100     3.090456
      3.082813     3.075170     3.067527     3.059884     3.052240     3.044597     3.036954     3.029311     3.021667     3.014024
      3.006381     2.998738     2.991095     2.983451     2.975808     2.968165     2.960522     2.952878     2.945235     2.937592
      2.929949     2.922306     2.914662     2.907019     2.899376     2.891733     2.884089     2.876446     2.868803     2.861160
      2.853517     2.845873     2.838230     2.830587     2.822944     2.815300     2.807657     2.800014     2.792371     2.784728
      2.777084     2.769441     2.761798     2.754155     2.746511     2.738868     2.731225     2.723582     2.715939     2.708295
      2.700652     2.693009     2.685366     2.677722     2.670079     2.662436     2.654793     2.647150     2.639506     2.631863
      2.624220     2.616577     2.608933     2.601290     2.593647     2.586004     2.578361     2.570717     2.563074     2.555431
      2.547788     2.540144     2.532501     2.524858     2.517215     2.509572     2.501928     2.494285     2.486642     2.478999
      2.471355     2.463712     2.456069     2.448426     2.440783     2.433139     2.425496     2.417853     2.410210     2.402566
      2.394923     2.387280     2.379637     2.371994     2.364350     2.356707     2.349064     2.341421     2.333777     2.326134
      2.318491     2.310848     2.303205     2.295561     2.287918     2.280275     2.272632     2.264988     2.257345     2.249702
      2.242059     2.234416     2.226772     2.219129     2.211486     2.203843     2.196199     2.188556     2.180913     2.173270
      2.165627     2.157983     2.150340     2.142697     2.135054     2.127410     2.119767     2.112124     2.104481     2.096838
      2.089194     2.081551     2.073908     2.066265     2.058621     2.050978     2.043335     2.035692     2.028049     2.020405
      2.012762     2.005119     1.997476     1.989833     1.982190     1.974546     1.966903     1.959260     1.951617     1.943974
      1.936331     1.928688     1.921045     1.913402     1.905759     1.898115     1.890472     1.882829     1.875186     1.867543
      1.859900     1.852257     1.844614     1.836971     1.829327     1.821684     1.814041     1.806398     1.798755     1.791112
      1.783469     1.775826     1.768183     1.760540     1.752896     1.745253     1.737610     1.729967     1.722324     1.714681
      1.707038     1.699395     1.691752     1.684108     1.676465     1.668822     1.661179     1.653536     1.645893     1.638250
      1.630607     1.622964     1.615321     1.607677     1.600034     1.592391     1.584748     1.577105     1.569462     1.561819
      1.554176     1.546533     1.538890     1.531246     1.523603     1.515960     1.508317     1.500674     1.493031     1.485388
      1.477745     1.470102     1.462458     1.454815     1.447172     1.439529     1.431886     1.424243     1.416600     1.408957
      1.401314     1.393671     1.386027     1.378384     1.370741     1.363098     1.355455     1.347812     1.340169     1.332526
      1.324883     1.317240     1.309596     1.301953     1.294310     1.286667     1.279024     1.271381     1.263738     1.256095
      1.248452     1.240808     1.233165     1.225522     1.217879     1.210236     1.202593     1.194950     1.187307     1.179664
      1.172021     1.164377     1.156734     1.149091     1.141448     1.133805     1.126162     1.118519     1.110876     1.103233
      1.095590     1.087946     1.080303     1.072660     1.065017     1.057374     1.049731     1.042088     1.034445     1.026802
      1.019158     1.011515     1.003872     0.996229     0.988586     0.980943     0.973300     0.965657     0.958014     0.950371
      0.942727     0.935084     0.927441     0.919798     0.912155     0.904512     0.896869     0.889226     0.881583     0.873940
      0.866296     0.858653     0.851010     0.843367     0.835724     0.828081     0.820438     0.812795     0.805152     0.797508
      0.789865     0.782222     0.774579     0.766936     0.759293     0.751650     0.744007     0.736364     0.728721     0.721077
      0.713434     0.705791     0.698148     0.690505     0.682862     0.675219     0.667576     0.659933     0.652290     0.644646
      0.637003     0.629360     0.621717     0.614074     0.606431     0.598788     0.591145     0.583502     0.575858     0.568215
      0.560572     0.552929     0.545286     0.537643     0.530000     0.522357     0.514714     0.507071     0.499427     0.491784
      0.484141     0.476498     0.468855     0.461212     0.453569     0.445925     0.438282     0.430639     0.422996     0.415353
      0.407710     0.400067     0.392424     0.384780     0.377137     0.369494     0.361851     0.354208     0.346565     0.338922
      0.331278     0.323635     0.315992     0.308349     0.300706     0.293063     0.285420     0.277777     0.270133     0.262490
      0.254847     0.247204     0.239561     0.231918     0.224275     0.216631     0.208988     0.201345
 NY phased data points follow
   6.49543E+00 -1.00392E-01  7.91965E+00  4.17386E+00  8.25353E+00  5.90489E+00  5.42358E+00  7.79250E+00 -1.69041E-01  1.00446E+00
   1.11850E+00  1.45161E+00  4.57138E+00  1.00273E+01  8.91038E+00  3.59670E+00 -4.77127E+00 -3.93716E+00  2.59984E+00  5.83366E+00
   5.57667E+00  9.49066E+00  2.18993E+00  4.60564E+00 -2.54729E+00  4.87272E+00  6.63981E+00  2.55562E+00 -8.35871E-01  1.32856E+00
   5.29287E+00  1.75461E+00 -8.51888E-01 -2.75928E+00  2.92131E+00  1.29318E-01  2.14969E+00  1.75259E+00  1.26537E+01  4.82190E+00
  -6.77926E-01  2.29282E+00  3.94438E+00  4.57816E+00 -3.85000E-01 -2.44529E+00 -4.09704E-01  4.95405E+00  4.69375E+00 -4.64624E-01
   3.01934E+00  2.32946E+00  3.80833E+00  9.35017E-01  9.59138E-01 -1.08870E+00 -4.32709E-01  2.35813E+00 -1.50101E-01 -1.82609E+00
   8.26697E+00 -9.54467E-01  3.97106E+00  8.27149E-04  1.32992E-01  1.09925E+01 -2.85973E-01 -2.28959E+00  5.61432E+00  2.40676E+00
   5.65899E-01  2.25037E+00  5.23564E-01 -5.10782E-02 -4.63098E+00  1.01250E+00  3.35137E+00 -3.36951E+00 -1.99964E-01 -8.71170E+00
  -4.26712E+00  2.61468E-01  9.64738E+00  4.92508E+00  2.29563E+00 -4.37528E+00 -1.32108E+00 -2.40227E+00  1.77137E+00 -3.21108E+00
   1.61071E+00 -2.67913E+00 -1.81826E+00 -5.09686E-01  4.56894E+00 -1.81286E-01  8.77580E-01 -1.05533E+00 -4.85062E+00 -3.83991E+00
  -5.16748E+00  2.95982E+00 -4.53390E+00 -9.01764E-01  3.11490E+00 -6.79335E-01  2.55465E+00  7.62061E+00  1.18994E+00 -1.47975E+00
   9.47289E+00  1.47920E+00 -7.52450E+00 -7.78424E-01 -4.04521E-01 -6.39102E+00  1.03256E+00 -6.72226E-01  5.81333E-01  1.01213E-01
   9.84749E-01  2.23237E-01  2.89391E-01 -6.12087E+00  6.05595E+00  3.66552E+00 -1.41898E+00  2.43114E-01  1.31231E+00 -1.09873E-01
   5.76243E+00  6.37223E+00  2.14507E+00  4.27407E+00  2.68985E+00 -1.71608E+00  2.45254E+00  1.31144E+00  4.16587E+00  7.13033E+00
   4.87770E+00  2.64741E+00  3.73173E+00  1.53574E+00  4.97200E+00  4.65480E+00  1.77519E+00  4.55533E-01  1.25277E+00 -9.35755E-01
   1.03856E+00  4.44937E-01 -4.44308E+00  8.63968E-01  4.85744E+00 -2.10969E+00  9.41269E-01  3.04949E+00  4.88468E+00  3.83059E+00
   2.03894E+00  2.07332E+00  4.04867E+00  1.58981E+00  3.95076E+00  1.19196E+00  1.76310E+00  3.96310E+00 -2.61065E+00  2.84344E+00
   2.38007E+00  1.29859E+00  3.20442E+00 -1.70808E-01  1.42197E+00  2.68669E+00  3.73486E+00 -1.58711E-01 -1.36151E+00  6.83140E-01
   6.79339E+00  7.70067E+00 -2.28731E-01 -2.66036E+00  2.35195E+00  9.83064E-01  6.07513E-01  3.91370E-01 -7.37059E-02 -1.47106E+00
   6.36905E+00  3.04830E+00 -1.72584E+00  7.13062E+00  4.58600E+00  5.80157E+00  8.27417E+00  3.15319E+00 -2.36462E+00  3.44491E+00
   4.51613E+00  5.77331E+00  1.32347E+00  4.68766E+00  5.80232E+00  5.92598E+00  7.55783E+00  3.67853E+00  4.47562E+00  1.69042E+00
   6.21186E+00  3.19398E+00  8.44856E+00  5.12935E+00  8.45459E+00  6.19807E+00  5.52297E-02  1.60045E-01  1.42874E+00  1.45043E+00
  -2.00096E+00  1.37012E+00 -2.48375E+00  3.85117E-01  7.23677E+00  5.41200E-02  3.17841E+00  2.84044E+00 -6.44893E+00 -4.15869E+00
   3.73097E+00 -4.98755E+00 -5.52704E+00 -2.01754E+00  1.07020E+00  6.51365E-01  3.65032E+00  2.32642E+00  6.05812E+00  1.19017E+01
   1.02006E+01  3.62503E+00  8.15538E+00  8.43294E-01  6.74276E+00  3.47023E+00  6.35085E+00  4.67795E+00  1.37293E+00  5.85865E+00
   1.20817E+01  4.88469E+00  1.23993E+01  1.84220E+01  1.20258E+01  1.22881E+01  2.01680E+01  2.39462E+01  1.94747E+01  2.24255E+01
   2.43281E+01  2.56400E+01  2.25841E+01  2.00593E+01  1.82828E+01  2.08726E+01  2.12512E+01  1.76796E+01  1.79321E+01  1.65399E+01
   1.89815E+01  1.55966E+01  1.54722E+01  1.19228E+01  1.18138E+01  1.16778E+01  1.20720E+01  6.83417E+00  1.30270E+01  1.14394E+01
   1.46912E+01  1.27135E+01  1.28074E+01  1.58399E+00  1.07245E+01  6.90984E+00  9.95542E+00  2.75618E+00  4.97774E+00  8.51385E+00
   4.92103E+00  1.16119E+01  8.05697E+00  2.59237E+00  8.26757E+00  1.15902E+01  1.65938E+01  1.11824E+01  1.20561E+01  1.10488E+01
   5.96595E+00  1.32204E+01  5.67468E+00 -2.07359E+00  5.93268E-01 -9.67725E+00  6.45155E+00  9.23811E-02  3.59210E+00 -2.10512E+00
   3.63484E+00  2.42006E+00 -3.09143E+00 -1.90935E+00 -5.60837E+00 -5.09894E+00  9.68715E-01 -6.45373E+00 -2.11403E+00 -4.75353E+00
  -1.35577E+00 -8.65699E+00 -5.90467E+00 -1.10059E+01 -1.15544E+01 -5.92607E+00 -7.34311E+00 -4.00226E+00  1.95780E-01 -7.85048E+00
  -1.35922E+00  1.66632E+00 -3.90749E-01 -1.22824E+01 -9.74435E+00 -1.23463E+01 -6.87818E+00 -4.84782E+00 -4.07913E+00 -1.11302E+01
  -2.46591E+00 -1.26969E+01 -5.18823E+00 -1.35628E+01 -7.75482E+00 -9.85837E+00 -1.05267E+01 -6.43083E+00 -6.30493E+00 -9.08381E+00
  -1.25378E+01 -1.13515E+01 -6.43030E+00 -1.08509E+01 -7.21653E+00 -1.17968E+01 -1.18412E+01 -6.76333E+00 -2.85093E+00 -7.10496E+00
  -7.19480E+00 -8.49837E+00 -1.53809E+01 -7.33165E+00 -1.47537E+01 -1.55750E+01 -1.05249E+01 -1.19569E+01 -5.01211E+00 -1.07140E+01
  -9.28285E+00 -9.87248E+00 -8.92840E+00 -8.00270E+00 -1.81377E+00 -6.15125E+00 -1.20057E+01 -6.45380E+00 -6.15268E+00 -7.05183E+00
  -5.35454E+00  2.08851E-01 -2.97139E-02 -2.31691E+00 -1.50714E+00  7.01499E-01 -1.01195E+00  3.32475E+00  3.06155E+00  3.54786E+00
  -1.59941E+00  2.68647E+00  3.47331E+00  3.32360E+00  3.87383E+00  1.09433E+00  2.86937E+00 -5.53902E+00  1.53141E+00  2.88288E+00
   3.31793E+00  2.55700E+00  7.33590E+00 -1.46925E-02  4.27907E+00  4.53562E+00 -4.08260E+00 -2.49245E-01 -3.10961E+00  2.33734E+00
  -5.05192E-01 -1.09489E+00 -2.76618E+00  3.28946E-01 -7.43091E-02 -4.88564E+00 -4.23729E+00 -1.62924E-01 -1.27794E-01 -7.16404E+00
  -3.07670E+00 -2.18101E+00 -4.53136E+00 -1.60321E+00 -1.47273E+00 -2.25183E+00 -2.28010E+00 -2.93942E+00 -4.81715E+00  2.03959E+00
  -3.91720E+00 -1.24876E+00 -1.88997E+00 -6.37935E+00  1.70702E+00 -4.02138E+00 -6.92317E+00 -1.76259E+00  1.81362E+00 -4.65844E+00
  -9.10013E+00 -3.64389E+00  1.02084E-01  1.87083E+00 -3.16696E+00 -3.48174E+00  3.05777E+00  1.24708E+00 -1.73187E+00 -5.38703E+00
  -8.15054E-01 -3.23324E+00 -2.05344E-01 -7.81786E+00  4.64924E+00 -3.82380E+00 -1.01172E+00 -2.83967E+00 -8.07766E-01 -2.71100E+00
   4.97733E+00  1.60199E+00 -2.66749E+00 -5.38399E-01  6.42241E-01 -4.46329E-01  1.37035E+00  6.12709E-01  1.45944E+00  9.94715E+00
  -1.70488E+00 -2.63847E+00 -1.67327E-02 -9.58681E-01  4.64775E+00 -1.31480E+00 -7.80544E-01  2.23239E+00  6.16475E-01  2.13440E+00
   1.64469E+00  6.08317E+00 -4.40282E+00  2.47175E+00  2.24975E+00 -1.76069E+00  1.15353E+00 -1.60388E+00 -1.97553E+00 -3.30700E+00
   2.19801E+00 -1.94803E+00  8.16277E+00  2.44771E+00 -2.31069E+00 -1.91066E+00 -3.00916E+00  4.15122E+00
 NY points of the fit to the data follow
   1.58289E+00  1.57546E+00  1.54535E+00  1.61350E+00  1.69298E+00  1.86281E+00  2.08827E+00  2.37588E+00  2.74467E+00  3.09026E+00
   3.47563E+00  3.69514E+00  4.04485E+00  4.25168E+00  4.50097E+00  4.89562E+00  5.18163E+00  5.64432E+00  5.87972E+00  6.16129E+00
   6.28841E+00  6.17073E+00  6.26736E+00  5.83898E+00  6.10514E+00  5.46741E+00  6.03989E+00  5.16797E+00  6.03109E+00  4.71830E+00
   5.77641E+00  3.99828E+00  5.24361E+00  3.23699E+00  4.75419E+00  2.81891E+00  4.60817E+00  2.68790E+00  4.56124E+00  2.45256E+00
   4.21304E+00  1.88524E+00  3.44480E+00  1.09170E+00  2.39350E+00  1.61022E-01  1.08414E+00 -8.23187E-01 -6.77499E-02 -9.80939E-01
  -1.51315E-01 -2.55402E-01  4.80431E-01  2.06746E-01  3.61127E-01 -3.81559E-01 -5.90852E-01 -1.30779E+00 -1.39326E+00 -1.67367E+00
  -1.44434E+00 -1.61176E+00 -1.23962E+00 -1.31103E+00 -8.19267E-01 -7.93905E-01 -2.26228E-01 -1.80753E-01  3.04637E-01  1.17976E-01
   3.97643E-01  6.79983E-02  2.60889E-01 -1.11741E-01  6.65396E-02 -2.84260E-01 -7.47563E-02 -3.75827E-01 -1.24460E-01 -3.66509E-01
  -8.14526E-02 -3.58707E-01 -8.96674E-02 -4.23944E-01 -1.56003E-01 -4.64473E-01 -1.56197E-01 -3.76484E-01 -3.29353E-02 -1.57770E-01
   1.95637E-01  1.39145E-01  4.90715E-01  4.65749E-01  7.72799E-01  8.05221E-01  1.06745E+00  1.17191E+00  1.38794E+00  1.56993E+00
   1.72325E+00  1.96401E+00  2.03489E+00  2.29841E+00  2.27924E+00  2.53092E+00  2.43425E+00  2.62350E+00  2.49669E+00  2.67479E+00
   2.59021E+00  2.77360E+00  2.74164E+00  2.90884E+00  2.92752E+00  3.05578E+00  3.10207E+00  3.17916E+00  3.21700E+00  3.25237E+00
   3.29468E+00  3.31502E+00  3.36626E+00  3.37398E+00  3.39326E+00  3.39189E+00  3.39665E+00  3.38214E+00  3.37574E+00  3.34842E+00
   3.33510E+00  3.29735E+00  3.27895E+00  3.23096E+00  3.20588E+00  3.14721E+00  3.11186E+00  3.04431E+00  2.99761E+00  2.92427E+00
   2.86953E+00  2.79599E+00  2.73754E+00  2.66236E+00  2.59676E+00  2.51600E+00  2.45285E+00  2.36896E+00  2.31962E+00  2.23185E+00
   2.19086E+00  2.09863E+00  2.05783E+00  1.96188E+00  1.91229E+00  1.81373E+00  1.75505E+00  1.65575E+00  1.58928E+00  1.49472E+00
   1.40840E+00  1.33318E+00  1.22236E+00  1.17003E+00  1.03431E+00  9.96122E-01  8.61249E-01  8.33610E-01  7.20609E-01  7.03480E-01
   6.15907E-01  6.10755E-01  5.68506E-01  5.75165E-01  5.90321E-01  5.94119E-01  6.76521E-01  6.50432E-01  7.79821E-01  7.15402E-01
   8.45813E-01  7.60688E-01  9.05889E-01  8.72300E-01  1.03630E+00  1.14963E+00  1.33002E+00  1.63311E+00  1.83905E+00  2.39247E+00
   2.55966E+00  3.24436E+00  3.25612E+00  3.87687E+00  3.44992E+00  4.09569E+00  3.21208E+00  4.05305E+00  2.88040E+00  4.19804E+00
   3.14396E+00  4.71330E+00  3.83870E+00  5.35360E+00  4.58590E+00  5.62931E+00  4.66106E+00  5.08512E+00  4.26528E+00  4.21781E+00
   3.69625E+00  3.16245E+00  2.87276E+00  1.80777E+00  1.37990E+00 -2.68892E-02 -6.84104E-01 -1.96426E+00 -2.37521E+00 -3.04675E+00
  -2.73311E+00 -2.53184E+00 -1.53233E+00 -8.07929E-01  1.03993E-01  9.03670E-01  9.88590E-01  1.30589E+00  3.60498E-01  6.14496E-01
  -1.06516E+00 -3.38273E-02 -1.02159E+00  8.66291E-01  1.17797E+00  3.43544E+00  5.05941E+00  6.28692E+00  7.78025E+00  7.44443E+00
   8.48709E+00  6.59988E+00  7.09468E+00  4.54400E+00  6.08730E+00  4.16918E+00  6.53654E+00  5.24023E+00  8.30525E+00  7.43798E+00
   1.07471E+01  1.01828E+01  1.32408E+01  1.31139E+01  1.56123E+01  1.60549E+01  1.76130E+01  1.88787E+01  1.94377E+01  2.13768E+01
   2.07322E+01  2.28889E+01  2.12092E+01  2.30562E+01  2.08686E+01  2.26084E+01  2.00742E+01  2.14975E+01  1.86621E+01  1.96463E+01
   1.63453E+01  1.68121E+01  1.32917E+01  1.34369E+01  1.00645E+01  9.89437E+00  6.91574E+00  6.53695E+00  4.39386E+00  4.16372E+00
   3.69688E+00  4.00336E+00  4.09429E+00  4.46715E+00  4.93205E+00  5.27093E+00  5.76676E+00  6.07939E+00  6.50974E+00  6.68566E+00
   6.94114E+00  6.93739E+00  6.96293E+00  6.80744E+00  6.67889E+00  6.39124E+00  6.07794E+00  5.64762E+00  5.16502E+00  4.61248E+00
   4.00272E+00  3.35715E+00  2.69934E+00  2.04125E+00  1.40098E+00  7.86335E-01  2.09849E-01 -3.27093E-01 -8.17288E-01 -1.26677E+00
  -1.66374E+00 -2.02592E+00 -2.34089E+00 -2.62729E+00 -2.87516E+00 -3.10192E+00 -3.29953E+00 -3.48247E+00 -3.64494E+00 -3.79733E+00
  -3.93644E+00 -4.06804E+00 -4.19161E+00 -4.30848E+00 -4.42002E+00 -4.52705E+00 -4.63029E+00 -4.73028E+00 -4.82743E+00 -4.92205E+00
  -5.01436E+00 -5.10454E+00 -5.19270E+00 -5.27892E+00 -5.36324E+00 -5.44567E+00 -5.52618E+00 -5.60474E+00 -5.68125E+00 -5.75562E+00
  -5.82770E+00 -5.89736E+00 -5.96439E+00 -6.02860E+00 -6.08977E+00 -6.14767E+00 -6.20205E+00 -6.25272E+00 -6.29945E+00 -6.34209E+00
  -6.38052E+00 -6.41470E+00 -6.44466E+00 -6.47053E+00 -6.49254E+00 -6.51106E+00 -6.52654E+00 -6.53957E+00 -6.55081E+00 -6.56100E+00
  -6.57092E+00 -6.58133E+00 -6.59293E+00 -6.60626E+00 -6.62166E+00 -6.63918E+00 -6.65847E+00 -6.67868E+00 -6.69842E+00 -6.71564E+00
  -6.72760E+00 -6.73079E+00 -6.72101E+00 -6.69334E+00 -6.64227E+00 -6.56188E+00 -6.44603E+00 -6.28866E+00 -6.08414E+00 -5.82762E+00
  -5.51552E+00 -5.14582E+00 -4.71855E+00 -4.23597E+00 -3.70283E+00 -3.12643E+00 -2.51645E+00 -1.88473E+00 -1.24483E+00 -6.11437E-01
   3.19710E-04  5.75599E-01  1.10060E+00  1.56328E+00  1.95390E+00  2.26553E+00  2.49422E+00  2.63916E+00  2.70248E+00  2.68898E+00
   2.60568E+00  2.46132E+00  2.26573E+00  2.02932E+00  1.76247E+00  1.47513E+00  1.17641E+00  8.74353E-01  5.75725E-01  2.86012E-01
   9.40171E-03 -2.51096E-01 -4.93554E-01 -7.16924E-01 -9.20918E-01 -1.10579E+00 -1.27223E+00 -1.42119E+00 -1.55382E+00 -1.67132E+00
  -1.77493E+00 -1.86585E+00 -1.94522E+00 -2.01408E+00 -2.07340E+00 -2.12403E+00 -2.16676E+00 -2.20226E+00 -2.23115E+00 -2.25394E+00
  -2.27115E+00 -2.28314E+00 -2.29032E+00 -2.29298E+00 -2.29146E+00 -2.28595E+00 -2.27676E+00 -2.26401E+00 -2.24798E+00 -2.22874E+00
  -2.20653E+00 -2.18141E+00 -2.15359E+00 -2.12309E+00 -2.09011E+00 -2.05466E+00 -2.01691E+00 -1.97687E+00 -1.93468E+00 -1.89036E+00
  -1.84402E+00 -1.79569E+00 -1.74545E+00 -1.69335E+00 -1.63943E+00 -1.58376E+00 -1.52637E+00 -1.46731E+00 -1.40663E+00 -1.34437E+00
  -1.28056E+00 -1.21526E+00 -1.14849E+00 -1.08031E+00 -1.01072E+00 -9.39795E-01 -8.67540E-01 -7.94009E-01 -7.19225E-01 -6.43234E-01
  -5.66064E-01 -4.87756E-01 -4.08346E-01 -3.27868E-01 -2.46370E-01 -1.63879E-01 -8.04569E-02  3.87968E-03  8.90565E-02  1.75053E-01
   2.61786E-01  3.49229E-01  4.37297E-01  5.25947E-01  6.15089E-01  7.04663E-01  7.94568E-01  8.84725E-01  9.75017E-01  1.06534E+00
   1.15554E+00  1.24547E+00  1.33497E+00  1.42381E+00  1.51178E+00  1.59857E+00  1.68386E+00  1.76722E+00
 NY background values follow
    -2.774E+00   -2.670E+00   -2.566E+00   -2.464E+00   -2.362E+00   -2.262E+00   -2.162E+00   -2.062E+00   -1.964E+00   -1.867E+00
    -1.770E+00   -1.674E+00   -1.579E+00   -1.485E+00   -1.391E+00   -1.299E+00   -1.207E+00   -1.117E+00   -1.027E+00   -9.376E-01
    -8.495E-01   -7.622E-01   -6.759E-01   -5.904E-01   -5.058E-01   -4.221E-01   -3.394E-01   -2.575E-01   -1.765E-01   -9.650E-02
    -1.739E-02    6.080E-02    1.381E-01    2.144E-01    2.898E-01    3.643E-01    4.378E-01    5.104E-01    5.820E-01    6.527E-01
     7.224E-01    7.912E-01    8.590E-01    9.258E-01    9.917E-01    1.057E+00    1.121E+00    1.184E+00    1.246E+00    1.307E+00
     1.367E+00    1.426E+00    1.484E+00    1.541E+00    1.597E+00    1.652E+00    1.706E+00    1.760E+00    1.812E+00    1.863E+00
     1.913E+00    1.962E+00    2.011E+00    2.058E+00    2.104E+00    2.149E+00    2.193E+00    2.237E+00    2.279E+00    2.320E+00
     2.360E+00    2.400E+00    2.438E+00    2.475E+00    2.511E+00    2.547E+00    2.581E+00    2.614E+00    2.646E+00    2.677E+00
     2.708E+00    2.737E+00    2.765E+00    2.792E+00    2.819E+00    2.844E+00    2.868E+00    2.892E+00    2.914E+00    2.935E+00
     2.955E+00    2.975E+00    2.993E+00    3.011E+00    3.027E+00    3.042E+00    3.057E+00    3.070E+00    3.083E+00    3.094E+00
     3.105E+00    3.114E+00    3.123E+00    3.131E+00    3.137E+00    3.143E+00    3.148E+00    3.152E+00    3.155E+00    3.157E+00
     3.158E+00    3.158E+00    3.157E+00    3.155E+00    3.152E+00    3.149E+00    3.144E+00    3.139E+00    3.132E+00    3.125E+00
     3.117E+00    3.108E+00    3.098E+00    3.087E+00    3.075E+00    3.062E+00    3.049E+00    3.034E+00    3.019E+00    3.003E+00
     2.986E+00    2.968E+00    2.949E+00    2.929E+00    2.909E+00    2.888E+00    2.866E+00    2.843E+00    2.819E+00    2.794E+00
     2.769E+00    2.743E+00    2.716E+00    2.688E+00    2.659E+00    2.630E+00    2.600E+00    2.569E+00    2.537E+00    2.505E+00
     2.471E+00    2.437E+00    2.403E+00    2.367E+00    2.331E+00    2.294E+00    2.256E+00    2.218E+00    2.179E+00    2.139E+00
     2.099E+00    2.058E+00    2.016E+00    1.973E+00    1.930E+00    1.886E+00    1.842E+00    1.797E+00    1.751E+00    1.705E+00
     1.658E+00    1.610E+00    1.562E+00    1.513E+00    1.463E+00    1.413E+00    1.363E+00    1.312E+00    1.260E+00    1.208E+00
     1.155E+00    1.101E+00    1.047E+00    9.929E-01    9.379E-01    8.824E-01    8.264E-01    7.699E-01    7.129E-01    6.555E-01
     5.975E-01    5.391E-01    4.803E-01    4.210E-01    3.612E-01    3.011E-01    2.405E-01    1.795E-01    1.181E-01    5.629E-02
    -5.903E-03   -6.847E-02   -1.314E-01   -1.947E-01   -2.584E-01   -3.224E-01   -3.867E-01   -4.514E-01   -5.164E-01   -5.817E-01
    -6.472E-01   -7.131E-01   -7.793E-01   -8.457E-01   -9.125E-01   -9.794E-01   -1.047E+00   -1.114E+00   -1.182E+00   -1.250E+00
    -1.318E+00   -1.386E+00   -1.455E+00   -1.523E+00   -1.592E+00   -1.661E+00   -1.730E+00   -1.800E+00   -1.869E+00   -1.939E+00
    -2.009E+00   -2.078E+00   -2.148E+00   -2.218E+00   -2.288E+00   -2.359E+00   -2.429E+00   -2.499E+00   -2.570E+00   -2.640E+00
    -2.710E+00   -2.781E+00   -2.851E+00   -2.922E+00   -2.992E+00   -3.062E+00   -3.133E+00   -3.203E+00   -3.273E+00   -3.344E+00
    -3.414E+00   -3.484E+00   -3.554E+00   -3.624E+00   -3.694E+00   -3.763E+00   -3.833E+00   -3.902E+00   -3.971E+00   -4.041E+00
    -4.110E+00   -4.178E+00   -4.247E+00   -4.315E+00   -4.384E+00   -4.452E+00   -4.519E+00   -4.587E+00   -4.654E+00   -4.721E+00
    -4.788E+00   -4.855E+00   -4.921E+00   -4.987E+00   -5.053E+00   -5.118E+00   -5.183E+00   -5.248E+00   -5.312E+00   -5.377E+00
    -5.440E+00   -5.504E+00   -5.567E+00   -5.629E+00   -5.692E+00   -5.754E+00   -5.815E+00   -5.876E+00   -5.937E+00   -5.997E+00
    -6.057E+00   -6.116E+00   -6.175E+00   -6.233E+00   -6.291E+00   -6.349E+00   -6.406E+00   -6.462E+00   -6.518E+00   -6.574E+00
    -6.628E+00   -6.683E+00   -6.737E+00   -6.790E+00   -6.843E+00   -6.895E+00   -6.946E+00   -6.997E+00   -7.048E+00   -7.098E+00
    -7.147E+00   -7.195E+00   -7.243E+00   -7.291E+00   -7.337E+00   -7.383E+00   -7.429E+00   -7.473E+00   -7.517E+00   -7.561E+00
    -7.603E+00   -7.645E+00   -7.687E+00   -7.727E+00   -7.767E+00   -7.806E+00   -7.844E+00   -7.882E+00   -7.919E+00   -7.955E+00
    -7.990E+00   -8.025E+00   -8.059E+00   -8.092E+00   -8.124E+00   -8.155E+00   -8.186E+00   -8.216E+00   -8.245E+00   -8.273E+00
    -8.300E+00   -8.327E+00   -8.352E+00   -8.377E+00   -8.401E+00   -8.424E+00   -8.446E+00   -8.467E+00   -8.488E+00   -8.507E+00
    -8.526E+00   -8.543E+00   -8.560E+00   -8.576E+00   -8.591E+00   -8.605E+00   -8.618E+00   -8.630E+00   -8.641E+00   -8.652E+00
    -8.661E+00   -8.669E+00   -8.677E+00   -8.683E+00   -8.689E+00   -8.693E+00   -8.696E+00   -8.699E+00   -8.700E+00   -8.701E+00
    -8.700E+00   -8.699E+00   -8.696E+00   -8.692E+00   -8.688E+00   -8.682E+00   -8.675E+00   -8.668E+00   -8.659E+00   -8.649E+00
    -8.638E+00   -8.626E+00   -8.613E+00   -8.599E+00   -8.584E+00   -8.568E+00   -8.551E+00   -8.533E+00   -8.513E+00   -8.493E+00
    -8.471E+00   -8.448E+00   -8.425E+00   -8.400E+00   -8.374E+00   -8.347E+00   -8.319E+00   -8.289E+00   -8.259E+00   -8.228E+00
    -8.195E+00   -8.161E+00   -8.127E+00   -8.091E+00   -8.054E+00   -8.015E+00   -7.976E+00   -7.936E+00   -7.894E+00   -7.851E+00
    -7.808E+00   -7.763E+00   -7.717E+00   -7.669E+00   -7.621E+00   -7.572E+00   -7.521E+00   -7.469E+00   -7.416E+00   -7.362E+00
    -7.307E+00   -7.251E+00   -7.193E+00   -7.135E+00   -7.075E+00   -7.014E+00   -6.952E+00   -6.889E+00   -6.824E+00   -6.759E+00
    -6.692E+00   -6.624E+00   -6.555E+00   -6.485E+00   -6.414E+00   -6.342E+00   -6.268E+00   -6.194E+00   -6.118E+00   -6.041E+00
    -5.963E+00   -5.884E+00   -5.804E+00   -5.722E+00   -5.640E+00   -5.556E+00   -5.471E+00   -5.385E+00   -5.298E+00   -5.210E+00
    -5.121E+00   -5.030E+00   -4.939E+00   -4.846E+00   -4.753E+00   -4.658E+00   -4.562E+00   -4.465E+00   -4.367E+00   -4.267E+00
    -4.167E+00   -4.065E+00   -3.963E+00   -3.859E+00   -3.755E+00   -3.649E+00   -3.542E+00   -3.434E+00   -3.325E+00   -3.215E+00
    -3.104E+00   -2.992E+00   -2.879E+00   -2.765E+00   -2.649E+00   -2.533E+00   -2.416E+00   -2.297E+00   -2.178E+00   -2.058E+00
    -1.936E+00   -1.814E+00   -1.690E+00   -1.566E+00   -1.440E+00   -1.314E+00   -1.187E+00   -1.058E+00   -9.289E-01   -7.986E-01
    -6.674E-01   -5.352E-01   -4.020E-01   -2.679E-01   -1.328E-01    3.153E-03    1.401E-01    2.779E-01
 Asp      Conc. = 7.55E+01
