 LCModel (Version 6.3-1L) Copyright: S.W. Provencher.          Ref.: Magn. Reson. Med. 30:672-679 (1993).                
 Slice#2 Row#5 Col#11  PD_24_press_2_raw_act
 36 lines in following concentration table = NCONC+1
    Conc.  %SD /Cr+PCr  Metabolite                                         
   22.566 999% 3.9E-02 Ala                                                 
  223.473  72%   0.385 Asp                                                 
  580.486  15%   1.000 Cr                                                  
    0.000 999%   0.000 PCr                                                 
   70.514 143%   0.121 GABA                                                
  129.147  77%   0.222 Glc                                                 
  974.869  53%   1.679 Gln                                                 
 1.78E+03  33%   3.061 Glu                                                 
    0.000 999%   0.000 GPC                                                 
  244.001  13%   0.420 PCh                                                 
  107.824 115%   0.186 GSH                                                 
 1.30E+03  28%   2.239 Ins                                                 
    0.000 999%   0.000 Lac                                                 
 2.38E+03   7%   4.104 NAA                                                 
    0.000 999%   0.000 NAAG                                                
  103.955  26%   0.179 Scyllo                                              
  320.478  48%   0.552 Tau                                                 
  427.588  25%   0.737 -CrCH2                                              
  244.001  13%   0.420 GPC+PCh                                             
 2.38E+03   7%   4.104 NAA+NAAG                                            
  580.486  15%   1.000 Cr+PCr                                              
 2.75E+03  32%   4.741 Glu+Gln                                             
 2.16E+03  33%   3.718 Lip13a                                              
    0.000 999%   0.000 Lip13b                                              
    0.000 999%   0.000 Lip09                                               
 3.32E+03   9%   5.717 MM09                                                
  249.088 135%   0.429 Lip20                                               
 4.65E+03  14%   8.006 MM20                                                
 1.64E+03  19%   2.822 MM12                                                
 3.14E+03  23%   5.414 MM14                                                
 2.40E+03  26%   4.131 MM17                                                
 2.16E+03  33%   3.718 Lip13a+Lip13b                                       
 6.94E+03  11%  11.954 MM14+Lip13a+Lip13b+MM12                             
 3.32E+03   9%   5.717 MM09+Lip09                                          
 4.90E+03  13%   8.435 MM20+Lip20                                          
   6 lines in following misc. output table
  FWHM = 0.076 ppm    S/N =   8                                            
  Data shift = 0.008 ppm                                                   
  Ph:-102 deg     -38.1 deg/ppm                                            
  alphaB,S = 2.5E+00,   3.7E+01                                            
   14 spline knots.   Ns = 7(2)                                            
  ( 8) 8 infls.   ( 4) 3 extrs.                                            
  498 points on ppm-axis = NY
      4.000000     3.992357     3.984714     3.977070     3.969427     3.961784     3.954141     3.946497     3.938854     3.931211
      3.923568     3.915925     3.908281     3.900638     3.892995     3.885352     3.877708     3.870065     3.862422     3.854779
      3.847136     3.839492     3.831849     3.824206     3.816563     3.808919     3.801276     3.793633     3.785990     3.778347
      3.770703     3.763060     3.755417     3.747774     3.740130     3.732487     3.724844     3.717201     3.709558     3.701914
      3.694271     3.686628     3.678985     3.671341     3.663698     3.656055     3.648412     3.640769     3.633125     3.625482
      3.617839     3.610196     3.602552     3.594909     3.587266     3.579623     3.571980     3.564336     3.556693     3.549050
      3.541407     3.533763     3.526120     3.518477     3.510834     3.503191     3.495547     3.487904     3.480261     3.472618
      3.464974     3.457331     3.449688     3.442045     3.434402     3.426758     3.419115     3.411472     3.403829     3.396185
      3.388542     3.380899     3.373256     3.365613     3.357969     3.350326     3.342683     3.335040     3.327396     3.319753
      3.312110     3.304467     3.296824     3.289180     3.281537     3.273894     3.266251     3.258607     3.250964     3.243321
      3.235678     3.228034     3.220391     3.212748     3.205105     3.197462     3.189818     3.182175     3.174532     3.166889
      3.159245     3.151602     3.143959     3.136316     3.128673     3.121029     3.113386     3.105743     3.098100     3.090456
      3.082813     3.075170     3.067527     3.059884     3.052240     3.044597     3.036954     3.029311     3.021667     3.014024
      3.006381     2.998738     2.991095     2.983451     2.975808     2.968165     2.960522     2.952878     2.945235     2.937592
      2.929949     2.922306     2.914662     2.907019     2.899376     2.891733     2.884089     2.876446     2.868803     2.861160
      2.853517     2.845873     2.838230     2.830587     2.822944     2.815300     2.807657     2.800014     2.792371     2.784728
      2.777084     2.769441     2.761798     2.754155     2.746511     2.738868     2.731225     2.723582     2.715939     2.708295
      2.700652     2.693009     2.685366     2.677722     2.670079     2.662436     2.654793     2.647150     2.639506     2.631863
      2.624220     2.616577     2.608933     2.601290     2.593647     2.586004     2.578361     2.570717     2.563074     2.555431
      2.547788     2.540144     2.532501     2.524858     2.517215     2.509572     2.501928     2.494285     2.486642     2.478999
      2.471355     2.463712     2.456069     2.448426     2.440783     2.433139     2.425496     2.417853     2.410210     2.402566
      2.394923     2.387280     2.379637     2.371994     2.364350     2.356707     2.349064     2.341421     2.333777     2.326134
      2.318491     2.310848     2.303205     2.295561     2.287918     2.280275     2.272632     2.264988     2.257345     2.249702
      2.242059     2.234416     2.226772     2.219129     2.211486     2.203843     2.196199     2.188556     2.180913     2.173270
      2.165627     2.157983     2.150340     2.142697     2.135054     2.127410     2.119767     2.112124     2.104481     2.096838
      2.089194     2.081551     2.073908     2.066265     2.058621     2.050978     2.043335     2.035692     2.028049     2.020405
      2.012762     2.005119     1.997476     1.989833     1.982190     1.974546     1.966903     1.959260     1.951617     1.943974
      1.936331     1.928688     1.921045     1.913402     1.905759     1.898115     1.890472     1.882829     1.875186     1.867543
      1.859900     1.852257     1.844614     1.836971     1.829327     1.821684     1.814041     1.806398     1.798755     1.791112
      1.783469     1.775826     1.768183     1.760540     1.752896     1.745253     1.737610     1.729967     1.722324     1.714681
      1.707038     1.699395     1.691752     1.684108     1.676465     1.668822     1.661179     1.653536     1.645893     1.638250
      1.630607     1.622964     1.615321     1.607677     1.600034     1.592391     1.584748     1.577105     1.569462     1.561819
      1.554176     1.546533     1.538890     1.531246     1.523603     1.515960     1.508317     1.500674     1.493031     1.485388
      1.477745     1.470102     1.462458     1.454815     1.447172     1.439529     1.431886     1.424243     1.416600     1.408957
      1.401314     1.393671     1.386027     1.378384     1.370741     1.363098     1.355455     1.347812     1.340169     1.332526
      1.324883     1.317240     1.309596     1.301953     1.294310     1.286667     1.279024     1.271381     1.263738     1.256095
      1.248452     1.240808     1.233165     1.225522     1.217879     1.210236     1.202593     1.194950     1.187307     1.179664
      1.172021     1.164377     1.156734     1.149091     1.141448     1.133805     1.126162     1.118519     1.110876     1.103233
      1.095590     1.087946     1.080303     1.072660     1.065017     1.057374     1.049731     1.042088     1.034445     1.026802
      1.019158     1.011515     1.003872     0.996229     0.988586     0.980943     0.973300     0.965657     0.958014     0.950371
      0.942727     0.935084     0.927441     0.919798     0.912155     0.904512     0.896869     0.889226     0.881583     0.873940
      0.866296     0.858653     0.851010     0.843367     0.835724     0.828081     0.820438     0.812795     0.805152     0.797508
      0.789865     0.782222     0.774579     0.766936     0.759293     0.751650     0.744007     0.736364     0.728721     0.721077
      0.713434     0.705791     0.698148     0.690505     0.682862     0.675219     0.667576     0.659933     0.652290     0.644646
      0.637003     0.629360     0.621717     0.614074     0.606431     0.598788     0.591145     0.583502     0.575858     0.568215
      0.560572     0.552929     0.545286     0.537643     0.530000     0.522357     0.514714     0.507071     0.499427     0.491784
      0.484141     0.476498     0.468855     0.461212     0.453569     0.445925     0.438282     0.430639     0.422996     0.415353
      0.407710     0.400067     0.392424     0.384780     0.377137     0.369494     0.361851     0.354208     0.346565     0.338922
      0.331278     0.323635     0.315992     0.308349     0.300706     0.293063     0.285420     0.277777     0.270133     0.262490
      0.254847     0.247204     0.239561     0.231918     0.224275     0.216631     0.208988     0.201345
 NY phased data points follow
   7.60212E+00  6.79952E+00 -2.04489E+00  5.33688E+00 -2.91241E-01  1.33201E+00  1.77701E+00  1.51778E+00 -2.77124E+00  1.77221E+00
   3.60633E+00  1.38913E+01  8.31689E+00  1.35009E+01  5.02271E+00  9.92964E+00  7.95749E+00  7.17141E+00  9.04063E+00  1.98214E+00
   2.23298E+00  9.27958E+00  1.01527E+01  1.68739E+01  4.11226E+00  1.02795E+01  4.50506E+00  6.76101E+00  3.58097E+00  1.04201E+01
   4.93144E+00  1.02035E+01  5.96662E+00  1.28272E+01  1.03754E+01  1.23853E+01  4.25369E+00  1.26193E+01  9.52410E+00  8.39953E+00
  -8.30787E-01  1.40690E+01  9.86806E+00  6.40948E+00  9.39261E+00  1.27881E+01  1.22968E+01  1.14956E+01  9.71177E+00  1.55360E+01
   1.36940E+01  1.08296E+01  9.99033E+00  1.40040E+01  1.19585E-01  9.37856E+00  1.13928E+01  1.35680E+01  1.03230E+01  1.09296E+01
   6.22529E+00  9.70767E+00  1.25149E+01  9.52516E+00  1.04499E+01  9.74483E+00  8.89051E+00  6.35964E+00  7.34386E+00  6.85197E+00
   7.90110E+00  7.19046E+00  1.04874E+01  1.19260E+01  7.17903E+00  1.18447E+01  1.16901E+01  7.52914E+00  1.61930E+01  1.61706E+01
   1.09394E+01  1.75260E+01  9.17099E+00  1.21782E+01  6.87507E+00  1.18435E+01  1.42205E+01  1.30062E+01  9.71678E+00  1.13924E+01
   9.60081E+00  1.11144E+01  1.01817E+01  2.11575E+01  1.46772E+01  1.29561E+01  1.91313E+01  1.33482E+01  1.39207E+01  1.11602E+01
   8.73255E+00  1.42001E+01  1.35740E+01  2.26238E+01  2.53718E+01  2.68145E+01  2.16816E+01  2.04971E+01  1.28229E+01  1.10783E+01
   1.21633E+01  1.11777E+01  1.08643E+01  1.25652E+01  1.06084E+01  9.91119E+00  1.16565E+01  1.12735E+01  1.54322E+01  1.52779E+01
   1.65003E+01  1.79303E+01  1.78874E+01  1.84680E+01  2.04336E+01  1.52234E+01  2.17300E+01  1.92524E+01  2.38797E+01  2.57113E+01
   2.15770E+01  1.86273E+01  1.38784E+01  1.37120E+01  9.14981E+00  1.24219E+01  1.06122E+01  1.02683E+01  9.51118E+00  1.13799E+01
   9.54189E+00  9.22644E+00  8.65058E+00  9.08406E+00  5.82024E+00  2.88505E+00  5.70231E+00  7.19260E+00  6.08721E+00  1.08375E+01
   6.16407E+00  1.43019E+01  7.76270E+00  3.38032E-01  1.17570E+01  7.98681E+00  7.75226E+00  7.69752E+00  1.14262E+01  7.81984E+00
   7.83319E+00  2.60684E+00  5.31731E+00  4.73908E+00  6.31288E+00  2.97039E+00  1.13562E+00  1.99620E+00 -4.13847E-02  3.44565E+00
  -1.52560E+00  4.95711E+00  4.62648E+00 -9.95201E-01 -9.40081E-01  3.16664E+00  4.71059E+00 -2.53093E+00  5.68625E+00  5.23586E+00
   3.35362E+00  7.54973E+00  7.14722E+00  3.78097E+00  9.79296E+00  2.85671E+00  5.78700E+00  7.20192E+00  1.77815E+00  6.81061E+00
   3.89584E+00  1.17521E+00  4.20818E+00  6.14746E+00  9.08059E+00  5.55825E+00  9.98386E+00  3.05419E+00  8.17015E+00  2.61021E+00
   4.81111E+00  1.87971E+00  5.06556E+00  1.26130E+01  1.53458E+01  1.02926E+01  1.46234E+01  1.24961E+01  1.66082E+01  1.62129E+01
   1.46404E+01  9.85739E+00  1.75312E+01  1.63847E+01  2.06700E+01  1.18777E+01  2.11648E+01  1.86430E+01  1.74970E+01  1.44176E+01
   1.84130E+01  1.36886E+01  1.02472E+01  1.17908E+01  1.21139E+01  9.40895E+00  1.72690E+01  1.62090E+01  1.68546E+01  1.94265E+01
   1.79094E+01  1.51700E+01  1.67922E+01  1.43441E+01  1.93994E+01  1.95888E+01  2.04130E+01  2.04297E+01  1.48433E+01  1.69179E+01
   2.18939E+01  1.87001E+01  2.07959E+01  1.29997E+01  1.39404E+01  2.54933E+01  2.63950E+01  2.13794E+01  2.53134E+01  3.40641E+01
   3.19109E+01  3.65242E+01  3.87370E+01  3.91301E+01  4.52338E+01  4.70804E+01  5.61722E+01  6.38160E+01  6.11473E+01  6.80856E+01
   6.63589E+01  6.60676E+01  7.24952E+01  7.33306E+01  6.09656E+01  4.90899E+01  3.74790E+01  3.25126E+01  3.41248E+01  3.24968E+01
   2.27689E+01  2.38577E+01  2.30981E+01  2.65923E+01  2.77060E+01  2.05572E+01  1.70259E+01  2.06093E+01  2.19989E+01  1.58718E+01
   1.70696E+01  1.67508E+01  1.38052E+01  1.63593E+01  1.43645E+01  1.46305E+01  1.39990E+01  1.70189E+01  1.13262E+01  1.64473E+01
   1.31654E+01  1.36518E+01  1.46476E+01  1.38486E+01  1.45413E+01  1.12823E+01  1.77650E+01  1.65136E+01  1.61101E+01  1.87654E+01
   1.79489E+01  1.73016E+01  1.88521E+01  2.22797E+01  1.89644E+01  1.81724E+01  1.90918E+01  2.25093E+01  2.46688E+01  2.30435E+01
   2.14199E+01  2.28466E+01  3.22347E+01  4.09231E+01  3.04460E+01  3.11770E+01  2.98216E+01  3.20231E+01  3.11106E+01  3.31155E+01
   3.06880E+01  2.75068E+01  2.92806E+01  3.71354E+01  3.40501E+01  2.26194E+01  3.49473E+01  3.42129E+01  3.68519E+01  3.00406E+01
   2.98544E+01  3.49013E+01  2.86390E+01  2.51448E+01  2.29673E+01  2.60504E+01  2.61732E+01  2.45201E+01  2.29630E+01  2.71277E+01
   2.47921E+01  2.50067E+01  2.02512E+01  2.34206E+01  2.45531E+01  2.36166E+01  2.50135E+01  1.63239E+01  2.55639E+01  2.18342E+01
   2.21778E+01  2.40798E+01  2.25188E+01  2.33071E+01  2.31498E+01  2.27406E+01  2.10523E+01  2.40525E+01  2.46545E+01  2.84653E+01
   2.43474E+01  2.16319E+01  2.42199E+01  2.42212E+01  3.13844E+01  2.09839E+01  2.78219E+01  2.33687E+01  2.92368E+01  2.68053E+01
   2.43495E+01  2.51318E+01  2.61770E+01  2.59109E+01  2.11468E+01  1.89419E+01  2.10502E+01  1.99473E+01  2.39945E+01  1.88544E+01
   1.85431E+01  1.47922E+01  2.34660E+01  1.81930E+01  1.98165E+01  2.16543E+01  1.98757E+01  1.41870E+01  2.13813E+01  1.77638E+01
   1.53201E+01  2.28702E+01  2.18245E+01  1.81062E+01  1.90925E+01  1.79258E+01  2.02442E+01  2.28446E+01  2.70276E+01  2.94949E+01
   2.57171E+01  1.71012E+01  2.45847E+01  2.13493E+01  2.64990E+01  2.05478E+01  2.17840E+01  2.38499E+01  2.25085E+01  2.10715E+01
   2.41282E+01  2.05394E+01  2.39181E+01  2.20904E+01  2.26364E+01  2.52367E+01  1.63841E+01  2.60908E+01  1.86775E+01  1.86391E+01
   1.55393E+01  1.65169E+01  2.09142E+01  1.64526E+01  1.31149E+01  1.28676E+01  1.49110E+01  1.00820E+01  7.48871E+00  1.47437E+01
   1.25479E+01  1.44291E+01  1.37494E+01  8.90830E+00  1.16639E+01  1.06528E+01  1.02964E+01  1.46179E+01  1.34995E+01  8.57268E+00
   3.86023E+00  9.38943E+00  1.04508E+01  4.07267E+00  1.02078E+01  4.78623E+00  9.28004E+00  8.72930E+00  1.12241E+01  7.10726E+00
   1.29497E+00  5.72186E+00  7.59237E+00  6.04768E+00  7.64830E+00  5.09883E+00  5.08209E+00  8.24601E+00  8.03617E+00  3.51241E+00
   8.32483E+00  4.94285E+00  4.40156E+00  2.48317E+00  3.66121E+00  4.63792E+00  1.88029E+00  2.69258E+00  4.17401E+00 -1.51117E+00
   1.37941E+00  2.43457E+00  6.07244E+00  2.92664E+00 -3.11104E+00  7.46284E+00  2.52182E+00  4.97880E-01  5.31507E+00  4.58025E+00
   4.53822E+00  3.54995E+00  3.47191E+00  1.28713E+00  3.69392E+00  4.79929E+00  6.10356E+00  7.71796E+00  9.94975E-01  4.71744E+00
   3.82456E+00  3.34971E+00  8.46881E+00  5.98875E+00  4.30065E+00  5.13344E+00  1.29158E+00  3.63967E+00
 NY points of the fit to the data follow
   6.53441E+00  6.86602E+00  5.56684E+00  6.13284E+00  4.61443E+00  5.89655E+00  4.34656E+00  6.39657E+00  4.22868E+00  6.71173E+00
   4.84680E+00  8.41115E+00  7.41547E+00  1.06507E+01  9.01688E+00  9.84988E+00  7.65275E+00  7.48837E+00  6.59506E+00  6.97148E+00
   6.46585E+00  7.29585E+00  7.36323E+00  8.53211E+00  8.43038E+00  9.01853E+00  8.28471E+00  8.41119E+00  8.01080E+00  8.56190E+00
   8.18518E+00  9.19777E+00  9.23729E+00  1.06342E+01  1.06003E+01  1.15011E+01  1.05316E+01  1.02474E+01  9.02330E+00  8.17727E+00
   7.95754E+00  7.86407E+00  8.86904E+00  9.55169E+00  1.06229E+01  1.11919E+01  1.14576E+01  1.17881E+01  1.18760E+01  1.18644E+01
   1.14538E+01  1.04873E+01  9.62050E+00  8.54938E+00  8.11840E+00  8.09472E+00  8.24767E+00  8.54108E+00  8.77443E+00  9.27150E+00
   9.50588E+00  9.77693E+00  9.67701E+00  9.40360E+00  9.07251E+00  8.82882E+00  8.65373E+00  8.78198E+00  8.79449E+00  9.21787E+00
   9.31745E+00  9.69704E+00  9.94594E+00  9.96766E+00  1.04092E+01  1.01654E+01  1.03369E+01  1.00479E+01  1.00155E+01  9.72219E+00
   9.69575E+00  9.58075E+00  9.62323E+00  9.75716E+00  9.86895E+00  1.00098E+01  1.00521E+01  1.02237E+01  9.83094E+00  9.88200E+00
   9.11412E+00  9.80634E+00  9.41071E+00  1.06241E+01  1.07899E+01  1.19842E+01  1.20353E+01  1.36668E+01  1.39254E+01  1.65515E+01
   1.63533E+01  1.89224E+01  1.83985E+01  2.12003E+01  2.05727E+01  2.22871E+01  2.03706E+01  1.85538E+01  1.63230E+01  1.35579E+01
   1.24601E+01  1.16916E+01  1.11749E+01  1.09406E+01  1.12788E+01  1.21797E+01  1.24436E+01  1.31835E+01  1.28351E+01  1.30859E+01
   1.31987E+01  1.47144E+01  1.52378E+01  1.74433E+01  1.73985E+01  1.97979E+01  1.95250E+01  2.21815E+01  2.07591E+01  2.26804E+01
   1.89167E+01  1.88075E+01  1.52691E+01  1.44317E+01  1.30645E+01  1.28184E+01  1.19587E+01  1.17433E+01  1.14043E+01  1.14515E+01
   1.08753E+01  1.06954E+01  9.95530E+00  9.44074E+00  9.39261E+00  9.14715E+00  9.09034E+00  8.84179E+00  8.70677E+00  8.37516E+00
   8.17810E+00  7.88804E+00  7.80570E+00  7.64748E+00  7.56447E+00  7.36742E+00  7.18381E+00  6.89797E+00  6.74689E+00  6.50622E+00
   6.32208E+00  6.08178E+00  5.82017E+00  5.65548E+00  5.45481E+00  5.69567E+00  5.43978E+00  5.72176E+00  5.19912E+00  4.94484E+00
   4.50129E+00  4.10895E+00  3.93365E+00  3.63143E+00  3.61834E+00  3.26972E+00  3.45115E+00  3.20402E+00  3.66083E+00  3.47168E+00
   4.25497E+00  3.90861E+00  4.63078E+00  4.29521E+00  4.91024E+00  4.99838E+00  5.61472E+00  5.79364E+00  6.29455E+00  6.49223E+00
   7.29222E+00  7.86352E+00  8.55681E+00  8.92415E+00  9.13123E+00  9.11637E+00  9.36452E+00  9.37107E+00  9.41629E+00  9.39024E+00
   9.61914E+00  9.68145E+00  1.05283E+01  1.06426E+01  1.17505E+01  1.12132E+01  1.16849E+01  1.01420E+01  1.01474E+01  8.22072E+00
   8.15152E+00  6.83669E+00  8.04463E+00  7.56012E+00  1.05936E+01  1.05447E+01  1.35387E+01  1.28544E+01  1.37419E+01  1.19541E+01
   1.10872E+01  9.71027E+00  8.52872E+00  8.68727E+00  9.18968E+00  1.06961E+01  1.26145E+01  1.48687E+01  1.62803E+01  1.75475E+01
   1.76049E+01  1.74732E+01  1.72954E+01  1.71169E+01  1.74262E+01  1.75715E+01  1.85109E+01  1.88357E+01  2.02069E+01  2.01061E+01
   2.15784E+01  2.10788E+01  2.26620E+01  2.16930E+01  2.30953E+01  2.21153E+01  2.37991E+01  2.43801E+01  2.83779E+01  3.06265E+01
   3.47109E+01  3.71068E+01  3.97003E+01  4.23500E+01  4.57972E+01  4.92861E+01  5.45389E+01  5.84760E+01  6.16514E+01  6.54115E+01
   6.84646E+01  7.15325E+01  7.03214E+01  6.98103E+01  5.76346E+01  5.29823E+01  4.00823E+01  3.60835E+01  3.11544E+01  2.95319E+01
   2.62555E+01  2.55020E+01  2.47158E+01  2.42915E+01  2.21591E+01  2.09423E+01  1.73963E+01  1.61298E+01  1.55595E+01  1.51034E+01
   1.46515E+01  1.42989E+01  1.40169E+01  1.37283E+01  1.35755E+01  1.34476E+01  1.34214E+01  1.34030E+01  1.34426E+01  1.34779E+01
   1.35628E+01  1.36859E+01  1.38715E+01  1.41046E+01  1.44133E+01  1.47804E+01  1.52199E+01  1.57271E+01  1.63000E+01  1.69340E+01
   1.76370E+01  1.83920E+01  1.92085E+01  2.00650E+01  2.09693E+01  2.18933E+01  2.28418E+01  2.37858E+01  2.47304E+01  2.56414E+01
   2.65284E+01  2.73586E+01  2.81423E+01  2.88509E+01  2.94984E+01  3.00623E+01  3.05431E+01  3.09407E+01  3.12511E+01  3.14841E+01
   3.16396E+01  3.17294E+01  3.17412E+01  3.17120E+01  3.15947E+01  3.14449E+01  3.12155E+01  3.09530E+01  3.06049E+01  3.02315E+01
   2.97847E+01  2.93171E+01  2.88427E+01  2.83345E+01  2.78537E+01  2.73506E+01  2.68636E+01  2.63549E+01  2.58887E+01  2.53737E+01
   2.49155E+01  2.44371E+01  2.40372E+01  2.36750E+01  2.34064E+01  2.31825E+01  2.30393E+01  2.29531E+01  2.29446E+01  2.29791E+01
   2.30836E+01  2.32137E+01  2.34001E+01  2.36134E+01  2.38618E+01  2.41146E+01  2.43805E+01  2.46284E+01  2.48668E+01  2.50650E+01
   2.52324E+01  2.53402E+01  2.54001E+01  2.53858E+01  2.53124E+01  2.51576E+01  2.49410E+01  2.46448E+01  2.42930E+01  2.38721E+01
   2.34101E+01  2.28971E+01  2.23642E+01  2.18037E+01  2.12478E+01  2.06893E+01  2.01599E+01  1.96516E+01  1.91945E+01  1.87783E+01
   1.84305E+01  1.81377E+01  1.79248E+01  1.77756E+01  1.77120E+01  1.77151E+01  1.78042E+01  1.79579E+01  1.81931E+01  1.84865E+01
   1.88525E+01  1.92654E+01  1.97376E+01  2.02409E+01  2.07856E+01  2.13415E+01  2.19167E+01  2.24793E+01  2.30359E+01  2.35538E+01
   2.40393E+01  2.44602E+01  2.48240E+01  2.51002E+01  2.52991E+01  2.53940E+01  2.53991E+01  2.52924E+01  2.50929E+01  2.47833E+01
   2.43879E+01  2.38939E+01  2.33295E+01  2.26854E+01  2.19924E+01  2.12428E+01  2.04684E+01  1.96618E+01  1.88539E+01  1.80358E+01
   1.72365E+01  1.64449E+01  1.56875E+01  1.49504E+01  1.42574E+01  1.35918E+01  1.29751E+01  1.23885E+01  1.18517E+01  1.13443E+01
   1.08845E+01  1.04510E+01  1.00614E+01  9.69407E+00  9.36615E+00  9.05593E+00  8.78052E+00  8.51832E+00  8.28670E+00  8.06441E+00
   7.86905E+00  7.67959E+00  7.51384E+00  7.35110E+00  7.20955E+00  7.06877E+00  6.94712E+00  6.82431E+00  6.71886E+00  6.61074E+00
   6.51871E+00  6.42287E+00  6.34203E+00  6.25633E+00  6.18472E+00  6.10750E+00  6.04374E+00  5.97379E+00  5.91667E+00  5.85276E+00
   5.80120E+00  5.74249E+00  5.69582E+00  5.64164E+00  5.59912E+00  5.54876E+00  5.50979E+00  5.46283E+00  5.42708E+00  5.38310E+00
   5.35007E+00  5.30860E+00  5.27798E+00  5.23886E+00  5.21047E+00  5.17339E+00  5.14686E+00  5.11155E+00  5.08677E+00  5.05318E+00
   5.03001E+00  4.99787E+00  4.97605E+00  4.94525E+00  4.92479E+00  4.89533E+00  4.87609E+00  4.84775E+00  4.82961E+00  4.80240E+00
   4.78542E+00  4.75934E+00  4.74342E+00  4.71835E+00  4.70347E+00  4.67954E+00  4.66587E+00  4.64314E+00
 NY background values follow
     4.283E+00    4.298E+00    4.313E+00    4.328E+00    4.343E+00    4.358E+00    4.373E+00    4.389E+00    4.404E+00    4.419E+00
     4.434E+00    4.449E+00    4.464E+00    4.479E+00    4.494E+00    4.510E+00    4.525E+00    4.540E+00    4.555E+00    4.570E+00
     4.585E+00    4.600E+00    4.615E+00    4.630E+00    4.645E+00    4.660E+00    4.675E+00    4.690E+00    4.705E+00    4.720E+00
     4.735E+00    4.750E+00    4.765E+00    4.780E+00    4.795E+00    4.809E+00    4.824E+00    4.839E+00    4.854E+00    4.869E+00
     4.883E+00    4.898E+00    4.913E+00    4.927E+00    4.942E+00    4.957E+00    4.971E+00    4.986E+00    5.000E+00    5.015E+00
     5.029E+00    5.044E+00    5.058E+00    5.073E+00    5.087E+00    5.101E+00    5.115E+00    5.130E+00    5.144E+00    5.158E+00
     5.172E+00    5.186E+00    5.200E+00    5.214E+00    5.228E+00    5.242E+00    5.256E+00    5.270E+00    5.284E+00    5.297E+00
     5.311E+00    5.325E+00    5.338E+00    5.352E+00    5.366E+00    5.379E+00    5.392E+00    5.406E+00    5.419E+00    5.432E+00
     5.446E+00    5.459E+00    5.472E+00    5.485E+00    5.498E+00    5.511E+00    5.524E+00    5.537E+00    5.549E+00    5.562E+00
     5.575E+00    5.587E+00    5.600E+00    5.613E+00    5.625E+00    5.637E+00    5.650E+00    5.662E+00    5.674E+00    5.686E+00
     5.698E+00    5.710E+00    5.722E+00    5.734E+00    5.746E+00    5.758E+00    5.770E+00    5.781E+00    5.793E+00    5.805E+00
     5.816E+00    5.827E+00    5.839E+00    5.850E+00    5.862E+00    5.873E+00    5.884E+00    5.895E+00    5.906E+00    5.917E+00
     5.928E+00    5.939E+00    5.950E+00    5.961E+00    5.971E+00    5.982E+00    5.993E+00    6.003E+00    6.014E+00    6.024E+00
     6.035E+00    6.045E+00    6.056E+00    6.066E+00    6.076E+00    6.086E+00    6.096E+00    6.107E+00    6.117E+00    6.127E+00
     6.136E+00    6.146E+00    6.156E+00    6.166E+00    6.176E+00    6.185E+00    6.195E+00    6.204E+00    6.214E+00    6.223E+00
     6.233E+00    6.242E+00    6.251E+00    6.261E+00    6.270E+00    6.279E+00    6.288E+00    6.297E+00    6.306E+00    6.315E+00
     6.324E+00    6.332E+00    6.341E+00    6.350E+00    6.358E+00    6.367E+00    6.375E+00    6.384E+00    6.392E+00    6.401E+00
     6.409E+00    6.417E+00    6.425E+00    6.433E+00    6.441E+00    6.449E+00    6.457E+00    6.465E+00    6.473E+00    6.480E+00
     6.488E+00    6.495E+00    6.503E+00    6.510E+00    6.518E+00    6.525E+00    6.532E+00    6.539E+00    6.546E+00    6.553E+00
     6.560E+00    6.567E+00    6.574E+00    6.581E+00    6.588E+00    6.594E+00    6.601E+00    6.607E+00    6.613E+00    6.620E+00
     6.626E+00    6.632E+00    6.638E+00    6.644E+00    6.650E+00    6.656E+00    6.661E+00    6.667E+00    6.673E+00    6.678E+00
     6.683E+00    6.689E+00    6.694E+00    6.699E+00    6.704E+00    6.709E+00    6.714E+00    6.718E+00    6.723E+00    6.728E+00
     6.732E+00    6.736E+00    6.741E+00    6.745E+00    6.749E+00    6.753E+00    6.757E+00    6.760E+00    6.764E+00    6.768E+00
     6.771E+00    6.774E+00    6.778E+00    6.781E+00    6.784E+00    6.787E+00    6.790E+00    6.792E+00    6.795E+00    6.797E+00
     6.800E+00    6.802E+00    6.804E+00    6.807E+00    6.809E+00    6.811E+00    6.812E+00    6.814E+00    6.816E+00    6.817E+00
     6.819E+00    6.820E+00    6.821E+00    6.823E+00    6.824E+00    6.825E+00    6.825E+00    6.826E+00    6.827E+00    6.827E+00
     6.828E+00    6.828E+00    6.828E+00    6.829E+00    6.829E+00    6.829E+00    6.829E+00    6.828E+00    6.828E+00    6.828E+00
     6.827E+00    6.827E+00    6.826E+00    6.825E+00    6.824E+00    6.823E+00    6.822E+00    6.821E+00    6.820E+00    6.818E+00
     6.817E+00    6.815E+00    6.814E+00    6.812E+00    6.810E+00    6.808E+00    6.806E+00    6.804E+00    6.802E+00    6.800E+00
     6.797E+00    6.795E+00    6.792E+00    6.790E+00    6.787E+00    6.784E+00    6.781E+00    6.778E+00    6.775E+00    6.772E+00
     6.769E+00    6.765E+00    6.762E+00    6.758E+00    6.755E+00    6.751E+00    6.747E+00    6.743E+00    6.739E+00    6.735E+00
     6.731E+00    6.727E+00    6.722E+00    6.718E+00    6.714E+00    6.709E+00    6.704E+00    6.700E+00    6.695E+00    6.690E+00
     6.685E+00    6.680E+00    6.674E+00    6.669E+00    6.664E+00    6.658E+00    6.653E+00    6.647E+00    6.642E+00    6.636E+00
     6.630E+00    6.624E+00    6.618E+00    6.612E+00    6.606E+00    6.599E+00    6.593E+00    6.587E+00    6.580E+00    6.574E+00
     6.567E+00    6.560E+00    6.553E+00    6.547E+00    6.540E+00    6.533E+00    6.525E+00    6.518E+00    6.511E+00    6.504E+00
     6.496E+00    6.489E+00    6.481E+00    6.474E+00    6.466E+00    6.458E+00    6.450E+00    6.442E+00    6.434E+00    6.426E+00
     6.418E+00    6.410E+00    6.401E+00    6.393E+00    6.385E+00    6.376E+00    6.368E+00    6.359E+00    6.350E+00    6.341E+00
     6.333E+00    6.324E+00    6.315E+00    6.306E+00    6.297E+00    6.287E+00    6.278E+00    6.269E+00    6.259E+00    6.250E+00
     6.240E+00    6.231E+00    6.221E+00    6.212E+00    6.202E+00    6.192E+00    6.182E+00    6.172E+00    6.162E+00    6.152E+00
     6.142E+00    6.132E+00    6.121E+00    6.111E+00    6.101E+00    6.090E+00    6.080E+00    6.069E+00    6.059E+00    6.048E+00
     6.038E+00    6.027E+00    6.016E+00    6.005E+00    5.994E+00    5.983E+00    5.972E+00    5.961E+00    5.950E+00    5.939E+00
     5.928E+00    5.916E+00    5.905E+00    5.894E+00    5.882E+00    5.871E+00    5.859E+00    5.848E+00    5.836E+00    5.824E+00
     5.813E+00    5.801E+00    5.789E+00    5.777E+00    5.766E+00    5.754E+00    5.742E+00    5.730E+00    5.718E+00    5.706E+00
     5.694E+00    5.682E+00    5.669E+00    5.657E+00    5.645E+00    5.633E+00    5.620E+00    5.608E+00    5.596E+00    5.583E+00
     5.571E+00    5.559E+00    5.546E+00    5.534E+00    5.521E+00    5.509E+00    5.496E+00    5.483E+00    5.471E+00    5.458E+00
     5.445E+00    5.433E+00    5.420E+00    5.407E+00    5.395E+00    5.382E+00    5.369E+00    5.356E+00    5.343E+00    5.331E+00
     5.318E+00    5.305E+00    5.292E+00    5.279E+00    5.266E+00    5.253E+00    5.240E+00    5.227E+00    5.214E+00    5.201E+00
     5.188E+00    5.175E+00    5.162E+00    5.149E+00    5.136E+00    5.123E+00    5.110E+00    5.097E+00    5.084E+00    5.071E+00
     5.058E+00    5.045E+00    5.032E+00    5.019E+00    5.006E+00    4.993E+00    4.980E+00    4.967E+00    4.954E+00    4.941E+00
     4.928E+00    4.914E+00    4.901E+00    4.888E+00    4.875E+00    4.862E+00    4.849E+00    4.836E+00
 Ala      Conc. = 2.26E+01
