 LCModel (Version 6.3-1L) Copyright: S.W. Provencher.          Ref.: Magn. Reson. Med. 30:672-679 (1993).                
 Slice#2 Row#4 Col#5  PD_24_press_2_raw_act
 36 lines in following concentration table = NCONC+1
    Conc.  %SD /Cr+PCr  Metabolite                                         
    0.000 999%   0.000 Ala                                                 
    0.000 999%   0.000 Asp                                                 
    0.000 999%   0.000 Cr                                                  
 3.36E+03   4%   1.000 PCr                                                 
    0.000 999%   0.000 GABA                                                
  735.323  51%   0.219 Glc                                                 
 1.90E+03  29%   0.564 Gln                                                 
 2.93E+03  21%   0.870 Glu                                                 
 1.51E+03   4%   0.448 GPC                                                 
    0.000 999%   0.000 PCh                                                 
  725.717  25%   0.216 GSH                                                 
 4.12E+03  16%   1.227 Ins                                                 
  201.916 152% 6.0E-02 Lac                                                 
 5.20E+03   3%   1.545 NAA                                                 
    0.000 999%   0.000 NAAG                                                
  589.662  12%   0.175 Scyllo                                              
 1.25E+03  43%   0.372 Tau                                                 
 1.20E+03  22%   0.357 -CrCH2                                              
 1.51E+03   4%   0.448 GPC+PCh                                             
 5.20E+03   3%   1.545 NAA+NAAG                                            
 3.36E+03   4%   1.000 Cr+PCr                                              
 4.82E+03  18%   1.434 Glu+Gln                                             
  383.222 434%   0.114 Lip13a                                              
  839.503 129%   0.250 Lip13b                                              
    0.000 999%   0.000 Lip09                                               
 2.33E+03  20%   0.692 MM09                                                
  237.554 115% 7.1E-02 Lip20                                               
 3.97E+03  20%   1.180 MM20                                                
  803.882  32%   0.239 MM12                                                
 2.46E+03  29%   0.731 MM14                                                
 2.05E+03  25%   0.608 MM17                                                
 1.22E+03  69%   0.364 Lip13a+Lip13b                                       
 4.48E+03  25%   1.333 MM14+Lip13a+Lip13b+MM12                             
 2.33E+03  20%   0.692 MM09+Lip09                                          
 4.20E+03  19%   1.250 MM20+Lip20                                          
   6 lines in following misc. output table
  FWHM = 0.061 ppm    S/N =  11                                            
  Data shift = 0.023 ppm                                                   
  Ph: -43 deg     -13.7 deg/ppm                                            
  alphaB,S = 1.0E+00,   9.3E+01                                            
   14 spline knots.   Ns = 7(1)                                            
  (11) 2 infls.   ( 5) 1 extrs.                                            
  498 points on ppm-axis = NY
      4.000000     3.992357     3.984714     3.977070     3.969427     3.961784     3.954141     3.946497     3.938854     3.931211
      3.923568     3.915925     3.908281     3.900638     3.892995     3.885352     3.877708     3.870065     3.862422     3.854779
      3.847136     3.839492     3.831849     3.824206     3.816563     3.808919     3.801276     3.793633     3.785990     3.778347
      3.770703     3.763060     3.755417     3.747774     3.740130     3.732487     3.724844     3.717201     3.709558     3.701914
      3.694271     3.686628     3.678985     3.671341     3.663698     3.656055     3.648412     3.640769     3.633125     3.625482
      3.617839     3.610196     3.602552     3.594909     3.587266     3.579623     3.571980     3.564336     3.556693     3.549050
      3.541407     3.533763     3.526120     3.518477     3.510834     3.503191     3.495547     3.487904     3.480261     3.472618
      3.464974     3.457331     3.449688     3.442045     3.434402     3.426758     3.419115     3.411472     3.403829     3.396185
      3.388542     3.380899     3.373256     3.365613     3.357969     3.350326     3.342683     3.335040     3.327396     3.319753
      3.312110     3.304467     3.296824     3.289180     3.281537     3.273894     3.266251     3.258607     3.250964     3.243321
      3.235678     3.228034     3.220391     3.212748     3.205105     3.197462     3.189818     3.182175     3.174532     3.166889
      3.159245     3.151602     3.143959     3.136316     3.128673     3.121029     3.113386     3.105743     3.098100     3.090456
      3.082813     3.075170     3.067527     3.059884     3.052240     3.044597     3.036954     3.029311     3.021667     3.014024
      3.006381     2.998738     2.991095     2.983451     2.975808     2.968165     2.960522     2.952878     2.945235     2.937592
      2.929949     2.922306     2.914662     2.907019     2.899376     2.891733     2.884089     2.876446     2.868803     2.861160
      2.853517     2.845873     2.838230     2.830587     2.822944     2.815300     2.807657     2.800014     2.792371     2.784728
      2.777084     2.769441     2.761798     2.754155     2.746511     2.738868     2.731225     2.723582     2.715939     2.708295
      2.700652     2.693009     2.685366     2.677722     2.670079     2.662436     2.654793     2.647150     2.639506     2.631863
      2.624220     2.616577     2.608933     2.601290     2.593647     2.586004     2.578361     2.570717     2.563074     2.555431
      2.547788     2.540144     2.532501     2.524858     2.517215     2.509572     2.501928     2.494285     2.486642     2.478999
      2.471355     2.463712     2.456069     2.448426     2.440783     2.433139     2.425496     2.417853     2.410210     2.402566
      2.394923     2.387280     2.379637     2.371994     2.364350     2.356707     2.349064     2.341421     2.333777     2.326134
      2.318491     2.310848     2.303205     2.295561     2.287918     2.280275     2.272632     2.264988     2.257345     2.249702
      2.242059     2.234416     2.226772     2.219129     2.211486     2.203843     2.196199     2.188556     2.180913     2.173270
      2.165627     2.157983     2.150340     2.142697     2.135054     2.127410     2.119767     2.112124     2.104481     2.096838
      2.089194     2.081551     2.073908     2.066265     2.058621     2.050978     2.043335     2.035692     2.028049     2.020405
      2.012762     2.005119     1.997476     1.989833     1.982190     1.974546     1.966903     1.959260     1.951617     1.943974
      1.936331     1.928688     1.921045     1.913402     1.905759     1.898115     1.890472     1.882829     1.875186     1.867543
      1.859900     1.852257     1.844614     1.836971     1.829327     1.821684     1.814041     1.806398     1.798755     1.791112
      1.783469     1.775826     1.768183     1.760540     1.752896     1.745253     1.737610     1.729967     1.722324     1.714681
      1.707038     1.699395     1.691752     1.684108     1.676465     1.668822     1.661179     1.653536     1.645893     1.638250
      1.630607     1.622964     1.615321     1.607677     1.600034     1.592391     1.584748     1.577105     1.569462     1.561819
      1.554176     1.546533     1.538890     1.531246     1.523603     1.515960     1.508317     1.500674     1.493031     1.485388
      1.477745     1.470102     1.462458     1.454815     1.447172     1.439529     1.431886     1.424243     1.416600     1.408957
      1.401314     1.393671     1.386027     1.378384     1.370741     1.363098     1.355455     1.347812     1.340169     1.332526
      1.324883     1.317240     1.309596     1.301953     1.294310     1.286667     1.279024     1.271381     1.263738     1.256095
      1.248452     1.240808     1.233165     1.225522     1.217879     1.210236     1.202593     1.194950     1.187307     1.179664
      1.172021     1.164377     1.156734     1.149091     1.141448     1.133805     1.126162     1.118519     1.110876     1.103233
      1.095590     1.087946     1.080303     1.072660     1.065017     1.057374     1.049731     1.042088     1.034445     1.026802
      1.019158     1.011515     1.003872     0.996229     0.988586     0.980943     0.973300     0.965657     0.958014     0.950371
      0.942727     0.935084     0.927441     0.919798     0.912155     0.904512     0.896869     0.889226     0.881583     0.873940
      0.866296     0.858653     0.851010     0.843367     0.835724     0.828081     0.820438     0.812795     0.805152     0.797508
      0.789865     0.782222     0.774579     0.766936     0.759293     0.751650     0.744007     0.736364     0.728721     0.721077
      0.713434     0.705791     0.698148     0.690505     0.682862     0.675219     0.667576     0.659933     0.652290     0.644646
      0.637003     0.629360     0.621717     0.614074     0.606431     0.598788     0.591145     0.583502     0.575858     0.568215
      0.560572     0.552929     0.545286     0.537643     0.530000     0.522357     0.514714     0.507071     0.499427     0.491784
      0.484141     0.476498     0.468855     0.461212     0.453569     0.445925     0.438282     0.430639     0.422996     0.415353
      0.407710     0.400067     0.392424     0.384780     0.377137     0.369494     0.361851     0.354208     0.346565     0.338922
      0.331278     0.323635     0.315992     0.308349     0.300706     0.293063     0.285420     0.277777     0.270133     0.262490
      0.254847     0.247204     0.239561     0.231918     0.224275     0.216631     0.208988     0.201345
 NY phased data points follow
  -2.34718E+02 -2.39285E+02 -2.14340E+02 -2.10981E+02 -1.84521E+02 -1.92927E+02 -1.63833E+02 -1.69460E+02 -1.41318E+02 -1.50950E+02
  -1.30467E+02 -1.37459E+02 -1.45770E+02 -1.58027E+02 -1.61647E+02 -1.80431E+02 -1.75744E+02 -1.73683E+02 -1.86540E+02 -1.86161E+02
  -1.74968E+02 -1.76346E+02 -1.72620E+02 -1.71495E+02 -1.63381E+02 -1.60856E+02 -1.47498E+02 -1.57196E+02 -1.46800E+02 -1.43480E+02
  -1.39884E+02 -1.39522E+02 -1.27578E+02 -1.41902E+02 -1.47572E+02 -1.39957E+02 -1.26803E+02 -1.34427E+02 -1.47721E+02 -1.42594E+02
  -1.26592E+02 -1.27133E+02 -1.19513E+02 -1.26135E+02 -1.14894E+02 -1.13081E+02 -1.14003E+02 -1.08729E+02 -1.01713E+02 -1.07781E+02
  -1.15682E+02 -1.19210E+02 -1.06606E+02 -1.15143E+02 -1.19703E+02 -1.12586E+02 -1.07753E+02 -1.09972E+02 -1.07148E+02 -1.04898E+02
  -1.05151E+02 -1.12387E+02 -1.17311E+02 -1.15479E+02 -1.11234E+02 -1.16789E+02 -1.11171E+02 -1.03723E+02 -1.03886E+02 -1.06366E+02
  -9.56927E+01 -1.04524E+02 -8.53594E+01 -9.41828E+01 -9.24849E+01 -8.58558E+01 -7.90236E+01 -9.20364E+01 -9.02612E+01 -8.86767E+01
  -8.96293E+01 -9.19177E+01 -7.30180E+01 -7.21749E+01 -7.44968E+01 -6.03758E+01 -6.70897E+01 -6.50192E+01 -5.59275E+01 -7.46520E+01
  -4.74552E+01 -6.44656E+01 -5.77881E+01 -6.48683E+01 -6.52856E+01 -5.63641E+01 -6.14659E+01 -5.67811E+01 -2.57109E+01 -4.38583E+00
   2.13042E+01  3.16069E+01  5.66121E+01  5.58353E+01  5.23496E+01  2.81258E+01  1.73212E+01 -1.50162E+01 -2.66487E+01 -5.83993E+01
  -5.69707E+01 -5.00091E+01 -6.08470E+01 -5.17371E+01 -6.08732E+01 -5.95871E+01 -6.30070E+01 -7.20892E+01 -7.96317E+01 -5.86651E+01
  -5.37347E+01 -4.02131E+01 -3.44765E+01 -1.03841E+01  1.46589E+01  2.43076E+01  4.40499E+01  5.44747E+01  3.68934E+01  3.20060E+01
   2.09518E+01  9.22271E-02 -2.63978E+01 -2.72025E+01 -3.49156E+01 -4.77990E+01 -4.50545E+01 -4.70716E+01 -5.45582E+01 -5.55948E+01
  -4.84663E+01 -5.27235E+01 -5.57405E+01 -5.18786E+01 -5.14114E+01 -4.85528E+01 -4.55872E+01 -5.32894E+01 -4.74472E+01 -5.33757E+01
  -4.64433E+01 -4.31657E+01 -5.14916E+01 -4.80163E+01 -4.26347E+01 -3.85640E+01 -4.76402E+01 -5.32597E+01 -3.98482E+01 -4.29732E+01
  -5.07263E+01 -3.33293E+01 -4.28000E+01 -3.89587E+01 -3.10220E+01 -3.32189E+01 -3.53424E+01 -3.74957E+01 -3.09488E+01 -3.98261E+01
  -3.86453E+01 -2.98248E+01 -5.78681E+01 -5.59484E+01 -4.86050E+01 -5.64827E+01 -6.56358E+01 -4.38848E+01 -5.42785E+01 -3.58288E+01
  -5.39950E+01 -4.56356E+01 -3.71195E+01 -4.86926E+01 -5.52242E+01 -3.39514E+01 -3.46949E+01 -2.22326E+01 -3.14392E+01 -2.71253E+01
  -2.37484E+01 -1.54437E+01 -1.55101E+01 -1.84905E+01 -2.50856E+01 -2.43403E+01 -1.48888E+01 -1.85602E+01 -2.15642E+01 -1.76261E+01
  -1.24231E+01 -1.30970E+01 -2.00344E+01 -1.37035E+01 -1.81650E+01 -2.28604E+01 -2.10447E+01 -3.78200E+01 -2.98756E+01 -2.21745E+01
  -2.86094E+01 -2.04798E+01 -1.08284E+01  7.15459E+00 -7.86559E-01  3.40812E+00  3.75092E+00  7.04161E+00  3.02654E+00 -1.49259E+01
  -1.42109E+01 -7.09889E+00 -2.11758E+01 -2.26450E+00 -8.38695E+00 -1.14142E+01  6.12821E+00  8.35519E+00  4.82406E+00  1.78820E+01
  -9.43372E-01  8.27966E+00  1.52113E+00  1.32582E+01  4.23516E+00  5.51577E+00  5.99848E+00  2.04685E+01 -9.71870E+00  1.07855E+01
   1.10411E+01  1.01123E+01  4.91606E+00  1.02495E+01  1.14528E+01  1.41856E+01  2.41382E+01  6.45252E+00  1.29565E+01  3.36199E+00
   6.14647E+00  7.37984E+00  5.41369E+00  1.62792E+01  3.18499E+01  6.90162E+01  8.75740E+01  1.28800E+02  1.48367E+02  1.65286E+02
   1.71914E+02  1.70496E+02  1.52365E+02  1.23730E+02  1.03999E+02  6.53502E+01  4.98125E+01  3.39245E+01  1.35471E+01  1.98379E+01
   2.46304E+01  2.52391E+01  1.83966E+01  1.12266E+01  1.10408E+01  1.18371E+01  6.11766E+00  9.70554E+00  1.42917E+01  1.13313E+01
  -6.01947E+00  1.44586E+01  8.34912E+00  1.85583E+01  9.78602E-01 -4.97603E-01  1.45535E+01  7.68730E-01  3.56656E+00  4.48298E-01
   7.31606E-01  2.03842E+00  5.74390E+00  2.73301E+00  4.51144E+00 -1.27516E+00  1.45375E+01  1.58086E+01  6.90496E+00  8.53031E+00
   8.64447E+00  5.36511E+00  1.60622E+01  2.30616E+01  1.78397E+01  2.39328E+01  1.75535E+01  3.16249E+01  2.16480E+01  1.88346E+01
   9.32191E+00  3.23618E+01  2.52252E+01  3.60378E+01  2.71087E+01  3.96539E+01  2.14937E+01  3.34755E+01  3.37795E+01  2.88628E+01
   2.74177E+01  3.41150E+01  5.15171E+01  3.63824E+01  3.54604E+01  3.56233E+01  4.68692E+01  3.55151E+01  3.95109E+01  3.07770E+01
   3.69344E+01  2.58498E+01  3.67579E+01  2.96512E+01  2.32428E+01  3.28804E+01  1.85682E+01  2.48600E+01  2.50783E+01  1.70616E+01
   1.65738E+01  2.97724E+01  1.93953E+01  2.57870E+01  2.37818E+01  3.96538E+01  2.73110E+01  2.10662E+01  1.92279E+01  2.52933E+01
   2.49079E+01  2.68662E+01  2.84527E+01  2.64537E+01  4.51217E+01  2.69973E+01  3.03610E+01  3.13185E+01  3.26799E+01  3.22027E+01
   3.48493E+01  3.34428E+01  3.11878E+01  3.54306E+01  2.68258E+01  3.04062E+01  2.78799E+01  2.70884E+01  1.77004E+01  2.85080E+01
   2.52566E+01  2.87358E+01  2.13732E+01  2.22401E+01  2.99305E+01  3.04046E+01  3.03045E+01  3.11821E+01  2.28988E+01  2.12403E+01
   1.76845E+01  3.46310E+01  3.48444E+01  3.02202E+01  2.91462E+01  3.14438E+01  2.09208E+01  2.31200E+01  2.61741E+01  3.03851E+01
   1.85353E+01  2.80182E+01  1.23828E+01  1.56018E+01  1.82029E+01  2.88802E+01  3.14434E+01  2.98147E+01  2.99467E+01  3.67511E+01
   3.14407E+01  2.92814E+01  3.41195E+01  3.02289E+01  4.60068E+01  4.56742E+01  3.56249E+01  4.44577E+01  4.32047E+01  4.19290E+01
   3.56807E+01  3.80634E+01  3.84268E+01  4.39483E+01  3.94004E+01  3.29104E+01  2.97116E+01  3.26359E+01  3.59052E+01  2.75709E+01
   2.85601E+01  1.86409E+01  2.78299E+01  2.73227E+01  1.95710E+01  2.63033E+01  2.84955E+01  2.29868E+01  2.39552E+01  2.68378E+01
   2.13001E+01  2.80211E+01  3.32538E+01  2.86823E+01  3.22921E+01  3.10055E+01  2.99600E+01  3.10478E+01  2.93216E+01  2.93622E+01
   2.79406E+01  3.20030E+01  1.65254E+01  3.67519E+01  2.09811E+01  2.50649E+01  1.50589E+01  3.07886E+01  2.05440E+01  2.68889E+01
   3.24711E+01  2.71158E+01  3.41396E+01  2.11020E+01  2.79495E+01  2.97453E+01  2.83387E+01  2.48776E+01  2.91454E+01  2.87574E+01
   2.79626E+01  2.70721E+01  2.75179E+01  4.38940E+01  3.75084E+01  3.12814E+01  3.92311E+01  3.17139E+01  3.60947E+01  3.46545E+01
   2.29941E+01  3.93617E+01  3.06510E+01  3.45363E+01  2.30042E+01  3.29207E+01  4.17826E+01  3.28884E+01  3.22978E+01  4.04332E+01
   3.88661E+01  3.01445E+01  3.32529E+01  3.90564E+01  2.75485E+01  3.31948E+01  3.69887E+01  3.89749E+01  2.81479E+01  3.69827E+01
   3.93140E+01  4.22484E+01  2.92111E+01  3.07459E+01  2.62272E+01  3.64793E+01  3.70714E+01  3.12430E+01
 NY points of the fit to the data follow
  -2.08578E+02 -2.07995E+02 -2.06255E+02 -2.01523E+02 -1.93220E+02 -1.82253E+02 -1.70382E+02 -1.59592E+02 -1.50530E+02 -1.44023E+02
  -1.41440E+02 -1.43020E+02 -1.47808E+02 -1.54835E+02 -1.62422E+02 -1.68103E+02 -1.71219E+02 -1.73378E+02 -1.74641E+02 -1.74026E+02
  -1.72939E+02 -1.71946E+02 -1.70983E+02 -1.69516E+02 -1.67186E+02 -1.63760E+02 -1.59236E+02 -1.53969E+02 -1.48368E+02 -1.43091E+02
  -1.38913E+02 -1.36358E+02 -1.35678E+02 -1.36751E+02 -1.39066E+02 -1.41751E+02 -1.43961E+02 -1.45440E+02 -1.45849E+02 -1.44472E+02
  -1.41023E+02 -1.35458E+02 -1.28507E+02 -1.21351E+02 -1.15146E+02 -1.10505E+02 -1.07761E+02 -1.07410E+02 -1.09393E+02 -1.12827E+02
  -1.16973E+02 -1.20869E+02 -1.23229E+02 -1.23563E+02 -1.22349E+02 -1.20044E+02 -1.16984E+02 -1.13862E+02 -1.11416E+02 -1.09882E+02
  -1.09150E+02 -1.09022E+02 -1.09215E+02 -1.09436E+02 -1.09257E+02 -1.08296E+02 -1.06611E+02 -1.04470E+02 -1.02021E+02 -9.93607E+01
  -9.65725E+01 -9.39024E+01 -9.16321E+01 -9.00118E+01 -8.90986E+01 -8.87933E+01 -8.89406E+01 -8.93558E+01 -8.97301E+01 -8.99776E+01
  -8.93489E+01 -8.67604E+01 -8.23087E+01 -7.69157E+01 -7.15372E+01 -6.68546E+01 -6.32395E+01 -6.11517E+01 -6.10722E+01 -6.28922E+01
  -6.60757E+01 -6.99127E+01 -7.33512E+01 -7.54039E+01 -7.58155E+01 -7.40445E+01 -6.65097E+01 -5.05338E+01 -2.80066E+01 -2.65056E+00
   2.10458E+01  4.00971E+01  5.25378E+01  5.57834E+01  4.87400E+01  3.31688E+01  1.20929E+01 -1.07509E+01 -3.05970E+01 -4.48120E+01
  -5.45980E+01 -6.17432E+01 -6.51796E+01 -6.59218E+01 -6.58971E+01 -6.55896E+01 -6.51229E+01 -6.44168E+01 -6.33689E+01 -6.15292E+01
  -5.65694E+01 -4.54980E+01 -2.85578E+01 -8.24566E+00  1.19730E+01  2.90003E+01  4.13689E+01  4.72270E+01  4.47323E+01  3.43806E+01
   1.84887E+01 -2.14948E-01 -1.80411E+01 -3.16043E+01 -4.08676E+01 -4.77029E+01 -5.16739E+01 -5.22469E+01 -5.15942E+01 -5.04377E+01
  -4.91349E+01 -4.79822E+01 -4.70982E+01 -4.65176E+01 -4.62491E+01 -4.61834E+01 -4.61918E+01 -4.61933E+01 -4.61294E+01 -4.60036E+01
  -4.57886E+01 -4.54619E+01 -4.50456E+01 -4.45688E+01 -4.41766E+01 -4.40179E+01 -4.41048E+01 -4.43147E+01 -4.43752E+01 -4.41550E+01
  -4.37376E+01 -4.31790E+01 -4.25322E+01 -4.18737E+01 -4.13001E+01 -4.09484E+01 -4.09610E+01 -4.13400E+01 -4.19374E+01 -4.26318E+01
  -4.34252E+01 -4.41350E+01 -4.45939E+01 -4.47313E+01 -4.45116E+01 -4.41263E+01 -4.36179E+01 -4.28797E+01 -4.19562E+01 -4.10276E+01
  -4.03371E+01 -3.99375E+01 -3.95734E+01 -3.88468E+01 -3.74334E+01 -3.53345E+01 -3.28219E+01 -3.00297E+01 -2.71554E+01 -2.45154E+01
  -2.25023E+01 -2.13625E+01 -2.11212E+01 -2.15620E+01 -2.21819E+01 -2.24282E+01 -2.20407E+01 -2.07631E+01 -1.84528E+01 -1.53794E+01
  -1.20600E+01 -9.16242E+00 -7.38186E+00 -7.40881E+00 -9.35629E+00 -1.28097E+01 -1.70609E+01 -2.12556E+01 -2.44617E+01 -2.56087E+01
  -2.39541E+01 -1.98512E+01 -1.44055E+01 -8.73821E+00 -3.92201E+00 -1.16101E+00 -1.25893E+00 -3.88684E+00 -8.06460E+00 -1.28055E+01
  -1.66818E+01 -1.85896E+01 -1.82337E+01 -1.58007E+01 -1.19543E+01 -7.41630E+00 -3.10764E+00  1.89854E-01  2.10201E+00  2.74119E+00
   2.69350E+00  2.45660E+00  2.38738E+00  2.85166E+00  3.93179E+00  5.33092E+00  6.62134E+00  7.39069E+00  7.50653E+00  7.14990E+00
   6.47652E+00  5.59420E+00  4.87450E+00  4.75148E+00  5.29395E+00  6.26751E+00  7.69304E+00  9.47625E+00  1.13098E+01  1.30425E+01
   1.48066E+01  1.66748E+01  1.90493E+01  2.52637E+01  4.01879E+01  6.39895E+01  9.31265E+01  1.22594E+02  1.47593E+02  1.65684E+02
   1.73996E+02  1.69599E+02  1.53117E+02  1.28092E+02  9.87040E+01  7.03998E+01  4.85602E+01  3.35124E+01  2.22117E+01  1.47860E+01
   1.22906E+01  1.13921E+01  1.09486E+01  1.07657E+01  1.06879E+01  1.05769E+01  1.04125E+01  1.01732E+01  9.86933E+00  9.54846E+00
   9.25617E+00  9.00516E+00  8.80932E+00  8.68472E+00  8.62354E+00  8.60612E+00  8.61343E+00  8.63942E+00  8.68898E+00  8.76460E+00
   8.86321E+00  8.99336E+00  9.16188E+00  9.37406E+00  9.63323E+00  9.94503E+00  1.03166E+01  1.07554E+01  1.12691E+01  1.18680E+01
   1.25596E+01  1.33497E+01  1.42428E+01  1.52417E+01  1.63448E+01  1.75474E+01  1.88393E+01  2.02066E+01  2.16303E+01  2.30887E+01
   2.45552E+01  2.60006E+01  2.73938E+01  2.87048E+01  2.99051E+01  3.09704E+01  3.18809E+01  3.26229E+01  3.31888E+01  3.35786E+01
   3.37985E+01  3.38616E+01  3.37843E+01  3.35868E+01  3.32906E+01  3.29183E+01  3.24911E+01  3.20286E+01  3.15467E+01  3.10583E+01
   3.05726E+01  3.00970E+01  2.96357E+01  2.91916E+01  2.87659E+01  2.83608E+01  2.79794E+01  2.76290E+01  2.73223E+01  2.70873E+01
   2.69792E+01  2.70074E+01  2.70849E+01  2.71162E+01  2.70350E+01  2.68305E+01  2.65309E+01  2.61569E+01  2.58299E+01  2.57655E+01
   2.61161E+01  2.69279E+01  2.81488E+01  2.96342E+01  3.11591E+01  3.24836E+01  3.34496E+01  3.39349E+01  3.38615E+01  3.32801E+01
   3.23361E+01  3.12148E+01  3.00339E+01  2.88435E+01  2.77438E+01  2.67983E+01  2.59988E+01  2.53372E+01  2.48000E+01  2.43700E+01
   2.40281E+01  2.37570E+01  2.35414E+01  2.33702E+01  2.32354E+01  2.31331E+01  2.30615E+01  2.30213E+01  2.30137E+01  2.30416E+01
   2.31077E+01  2.32161E+01  2.33704E+01  2.35750E+01  2.38335E+01  2.41498E+01  2.45275E+01  2.49703E+01  2.54807E+01  2.60606E+01
   2.67102E+01  2.74286E+01  2.82125E+01  2.90572E+01  2.99547E+01  3.08948E+01  3.18639E+01  3.28465E+01  3.38245E+01  3.47784E+01
   3.56870E+01  3.65290E+01  3.72834E+01  3.79311E+01  3.84554E+01  3.88431E+01  3.90847E+01  3.91756E+01  3.91155E+01  3.89097E+01
   3.85675E+01  3.81026E+01  3.75314E+01  3.68731E+01  3.61480E+01  3.53774E+01  3.45818E+01  3.37805E+01  3.29905E+01  3.22269E+01
   3.15017E+01  3.08249E+01  3.02028E+01  2.96399E+01  2.91377E+01  2.86965E+01  2.83145E+01  2.79894E+01  2.77173E+01  2.74942E+01
   2.73155E+01  2.71771E+01  2.70744E+01  2.70039E+01  2.69613E+01  2.69434E+01  2.69467E+01  2.69691E+01  2.70079E+01  2.70613E+01
   2.71272E+01  2.72042E+01  2.72907E+01  2.73861E+01  2.74890E+01  2.75990E+01  2.77148E+01  2.78360E+01  2.79620E+01  2.80927E+01
   2.82273E+01  2.83657E+01  2.85072E+01  2.86517E+01  2.87990E+01  2.89491E+01  2.91014E+01  2.92559E+01  2.94122E+01  2.95705E+01
   2.97304E+01  2.98921E+01  3.00551E+01  3.02195E+01  3.03849E+01  3.05516E+01  3.07194E+01  3.08883E+01  3.10579E+01  3.12283E+01
   3.13994E+01  3.15713E+01  3.17438E+01  3.19170E+01  3.20905E+01  3.22644E+01  3.24387E+01  3.26135E+01  3.27886E+01  3.29640E+01
   3.31393E+01  3.33149E+01  3.34906E+01  3.36665E+01  3.38424E+01  3.40183E+01  3.41940E+01  3.43698E+01  3.45453E+01  3.47210E+01
   3.48963E+01  3.50715E+01  3.52463E+01  3.54209E+01  3.55953E+01  3.57696E+01  3.59434E+01  3.61169E+01
 NY background values follow
    -2.198E+02   -2.182E+02   -2.165E+02   -2.149E+02   -2.133E+02   -2.116E+02   -2.100E+02   -2.083E+02   -2.067E+02   -2.051E+02
    -2.034E+02   -2.018E+02   -2.002E+02   -1.986E+02   -1.969E+02   -1.953E+02   -1.937E+02   -1.921E+02   -1.905E+02   -1.889E+02
    -1.873E+02   -1.856E+02   -1.841E+02   -1.825E+02   -1.809E+02   -1.793E+02   -1.777E+02   -1.761E+02   -1.745E+02   -1.730E+02
    -1.714E+02   -1.699E+02   -1.683E+02   -1.668E+02   -1.652E+02   -1.637E+02   -1.622E+02   -1.607E+02   -1.592E+02   -1.577E+02
    -1.562E+02   -1.547E+02   -1.532E+02   -1.517E+02   -1.503E+02   -1.488E+02   -1.474E+02   -1.459E+02   -1.445E+02   -1.431E+02
    -1.417E+02   -1.403E+02   -1.389E+02   -1.375E+02   -1.361E+02   -1.348E+02   -1.334E+02   -1.321E+02   -1.307E+02   -1.294E+02
    -1.281E+02   -1.268E+02   -1.255E+02   -1.242E+02   -1.229E+02   -1.216E+02   -1.204E+02   -1.191E+02   -1.179E+02   -1.167E+02
    -1.154E+02   -1.142E+02   -1.130E+02   -1.118E+02   -1.107E+02   -1.095E+02   -1.083E+02   -1.072E+02   -1.061E+02   -1.049E+02
    -1.038E+02   -1.027E+02   -1.016E+02   -1.005E+02   -9.945E+01   -9.838E+01   -9.733E+01   -9.628E+01   -9.525E+01   -9.423E+01
    -9.322E+01   -9.222E+01   -9.123E+01   -9.025E+01   -8.928E+01   -8.833E+01   -8.738E+01   -8.644E+01   -8.552E+01   -8.460E+01
    -8.370E+01   -8.280E+01   -8.191E+01   -8.103E+01   -8.016E+01   -7.931E+01   -7.846E+01   -7.761E+01   -7.678E+01   -7.596E+01
    -7.514E+01   -7.434E+01   -7.354E+01   -7.275E+01   -7.196E+01   -7.119E+01   -7.042E+01   -6.966E+01   -6.891E+01   -6.817E+01
    -6.743E+01   -6.670E+01   -6.598E+01   -6.526E+01   -6.456E+01   -6.385E+01   -6.316E+01   -6.247E+01   -6.178E+01   -6.111E+01
    -6.044E+01   -5.977E+01   -5.911E+01   -5.846E+01   -5.781E+01   -5.716E+01   -5.653E+01   -5.589E+01   -5.527E+01   -5.464E+01
    -5.402E+01   -5.341E+01   -5.280E+01   -5.220E+01   -5.160E+01   -5.100E+01   -5.041E+01   -4.982E+01   -4.924E+01   -4.866E+01
    -4.808E+01   -4.751E+01   -4.694E+01   -4.638E+01   -4.582E+01   -4.526E+01   -4.471E+01   -4.415E+01   -4.360E+01   -4.306E+01
    -4.252E+01   -4.198E+01   -4.144E+01   -4.090E+01   -4.037E+01   -3.984E+01   -3.931E+01   -3.879E+01   -3.826E+01   -3.774E+01
    -3.722E+01   -3.670E+01   -3.618E+01   -3.567E+01   -3.515E+01   -3.464E+01   -3.413E+01   -3.362E+01   -3.311E+01   -3.260E+01
    -3.209E+01   -3.159E+01   -3.108E+01   -3.058E+01   -3.007E+01   -2.957E+01   -2.907E+01   -2.857E+01   -2.807E+01   -2.757E+01
    -2.707E+01   -2.658E+01   -2.608E+01   -2.559E+01   -2.510E+01   -2.462E+01   -2.413E+01   -2.365E+01   -2.317E+01   -2.269E+01
    -2.222E+01   -2.175E+01   -2.128E+01   -2.081E+01   -2.035E+01   -1.989E+01   -1.943E+01   -1.898E+01   -1.853E+01   -1.808E+01
    -1.764E+01   -1.720E+01   -1.677E+01   -1.634E+01   -1.591E+01   -1.549E+01   -1.507E+01   -1.466E+01   -1.425E+01   -1.385E+01
    -1.345E+01   -1.305E+01   -1.267E+01   -1.228E+01   -1.190E+01   -1.153E+01   -1.116E+01   -1.080E+01   -1.045E+01   -1.010E+01
    -9.750E+00   -9.410E+00   -9.075E+00   -8.744E+00   -8.419E+00   -8.099E+00   -7.783E+00   -7.472E+00   -7.166E+00   -6.864E+00
    -6.567E+00   -6.274E+00   -5.985E+00   -5.700E+00   -5.419E+00   -5.143E+00   -4.870E+00   -4.600E+00   -4.335E+00   -4.073E+00
    -3.814E+00   -3.559E+00   -3.307E+00   -3.059E+00   -2.813E+00   -2.570E+00   -2.331E+00   -2.094E+00   -1.860E+00   -1.629E+00
    -1.400E+00   -1.173E+00   -9.494E-01   -7.276E-01   -5.081E-01   -2.906E-01   -7.520E-02    1.383E-01    3.500E-01    5.600E-01
     7.684E-01    9.752E-01    1.181E+00    1.384E+00    1.587E+00    1.788E+00    1.988E+00    2.186E+00    2.383E+00    2.579E+00
     2.773E+00    2.967E+00    3.158E+00    3.349E+00    3.538E+00    3.727E+00    3.913E+00    4.099E+00    4.284E+00    4.467E+00
     4.650E+00    4.831E+00    5.011E+00    5.190E+00    5.368E+00    5.545E+00    5.721E+00    5.896E+00    6.070E+00    6.243E+00
     6.415E+00    6.586E+00    6.756E+00    6.925E+00    7.093E+00    7.261E+00    7.427E+00    7.593E+00    7.758E+00    7.922E+00
     8.086E+00    8.248E+00    8.410E+00    8.571E+00    8.732E+00    8.892E+00    9.051E+00    9.209E+00    9.367E+00    9.524E+00
     9.680E+00    9.836E+00    9.991E+00    1.015E+01    1.030E+01    1.045E+01    1.060E+01    1.075E+01    1.090E+01    1.105E+01
     1.120E+01    1.135E+01    1.150E+01    1.164E+01    1.179E+01    1.193E+01    1.208E+01    1.222E+01    1.236E+01    1.250E+01
     1.264E+01    1.278E+01    1.291E+01    1.305E+01    1.319E+01    1.332E+01    1.345E+01    1.358E+01    1.372E+01    1.385E+01
     1.397E+01    1.410E+01    1.423E+01    1.435E+01    1.448E+01    1.460E+01    1.472E+01    1.484E+01    1.496E+01    1.508E+01
     1.519E+01    1.531E+01    1.542E+01    1.553E+01    1.564E+01    1.575E+01    1.586E+01    1.597E+01    1.608E+01    1.618E+01
     1.629E+01    1.639E+01    1.650E+01    1.660E+01    1.670E+01    1.681E+01    1.691E+01    1.701E+01    1.711E+01    1.721E+01
     1.731E+01    1.741E+01    1.752E+01    1.762E+01    1.772E+01    1.782E+01    1.792E+01    1.802E+01    1.813E+01    1.823E+01
     1.834E+01    1.844E+01    1.855E+01    1.865E+01    1.876E+01    1.887E+01    1.898E+01    1.909E+01    1.920E+01    1.931E+01
     1.943E+01    1.954E+01    1.966E+01    1.978E+01    1.990E+01    2.002E+01    2.014E+01    2.027E+01    2.039E+01    2.052E+01
     2.065E+01    2.079E+01    2.092E+01    2.106E+01    2.119E+01    2.133E+01    2.148E+01    2.162E+01    2.176E+01    2.191E+01
     2.205E+01    2.220E+01    2.235E+01    2.251E+01    2.266E+01    2.281E+01    2.297E+01    2.312E+01    2.328E+01    2.344E+01
     2.360E+01    2.376E+01    2.393E+01    2.409E+01    2.426E+01    2.442E+01    2.459E+01    2.476E+01    2.493E+01    2.510E+01
     2.527E+01    2.544E+01    2.561E+01    2.579E+01    2.596E+01    2.614E+01    2.631E+01    2.649E+01    2.667E+01    2.685E+01
     2.703E+01    2.721E+01    2.739E+01    2.757E+01    2.775E+01    2.793E+01    2.811E+01    2.829E+01    2.848E+01    2.866E+01
     2.884E+01    2.903E+01    2.921E+01    2.940E+01    2.958E+01    2.977E+01    2.995E+01    3.014E+01    3.033E+01    3.051E+01
     3.070E+01    3.088E+01    3.107E+01    3.126E+01    3.144E+01    3.163E+01    3.181E+01    3.200E+01    3.218E+01    3.237E+01
     3.256E+01    3.274E+01    3.293E+01    3.311E+01    3.330E+01    3.348E+01    3.366E+01    3.385E+01    3.403E+01    3.421E+01
     3.440E+01    3.458E+01    3.476E+01    3.494E+01    3.512E+01    3.530E+01    3.548E+01    3.566E+01
 PCr      Conc. = 3.36E+03
