 LCModel (Version 6.3-1L) Copyright: S.W. Provencher.          Ref.: Magn. Reson. Med. 30:672-679 (1993).                
 Slice#3 Row#12 Col#5  PD_24_press_2_raw_act
 36 lines in following concentration table = NCONC+1
    Conc.  %SD /Cr+PCr  Metabolite                                         
  219.130  29%   0.000 Ala                                                 
 1.13E-02 999%   0.000 Asp                                                 
    0.000 999%   0.000 Cr                                                  
    0.000 999%   0.000 PCr                                                 
 3.71E-02 999%   0.000 GABA                                                
    0.000 999%   0.000 Glc                                                 
    0.000 999%   0.000 Gln                                                 
    0.000 999%   0.000 Glu                                                 
    0.000 999%   0.000 GPC                                                 
    0.000 999%   0.000 PCh                                                 
   12.239 310%   0.000 GSH                                                 
    0.000 999%   0.000 Ins                                                 
  135.970  50%   0.000 Lac                                                 
    0.000 999%   0.000 NAA                                                 
    0.000 999%   0.000 NAAG                                                
 1.51E-02 999%   0.000 Scyllo                                              
    0.000 999%   0.000 Tau                                                 
   33.263  54%   0.000 -CrCH2                                              
    0.000 999%   0.000 GPC+PCh                                             
    0.000 999%   0.000 NAA+NAAG                                            
    0.000 999%   0.000 Cr+PCr                                              
    0.000 999%   0.000 Glu+Gln                                             
  500.973  26%   0.000 Lip13a                                              
    0.000 999%   0.000 Lip13b                                              
  133.755  26%   0.000 Lip09                                               
    0.000 999%   0.000 MM09                                                
   75.147  26%   0.000 Lip20                                               
 1.15E-02 999%   0.000 MM20                                                
 8.49E-04 999%   0.000 MM12                                                
    0.000 999%   0.000 MM14                                                
 1.16E-02 999%   0.000 MM17                                                
  500.973  26%   0.000 Lip13a+Lip13b                                       
  500.974  26%   0.000 MM14+Lip13a+Lip13b+MM12                             
  133.755  26%   0.000 MM09+Lip09                                          
   75.158  26%   0.000 MM20+Lip20                                          
   6 lines in following misc. output table
  FWHM = 0.069 ppm    S/N =   1                                            
  Data shift =-0.046 ppm                                                   
  Ph: 147 deg       0.3 deg/ppm                                            
  alphaB,S = 9.6E-01,   4.2E+01                                            
   14 spline knots.   Ns = 5(1)                                            
  ( 8) 2 infls.   ( 9) 1 extrs.                                            
  498 points on ppm-axis = NY
      4.000000     3.992357     3.984714     3.977070     3.969427     3.961784     3.954141     3.946497     3.938854     3.931211
      3.923568     3.915925     3.908281     3.900638     3.892995     3.885352     3.877708     3.870065     3.862422     3.854779
      3.847136     3.839492     3.831849     3.824206     3.816563     3.808919     3.801276     3.793633     3.785990     3.778347
      3.770703     3.763060     3.755417     3.747774     3.740130     3.732487     3.724844     3.717201     3.709558     3.701914
      3.694271     3.686628     3.678985     3.671341     3.663698     3.656055     3.648412     3.640769     3.633125     3.625482
      3.617839     3.610196     3.602552     3.594909     3.587266     3.579623     3.571980     3.564336     3.556693     3.549050
      3.541407     3.533763     3.526120     3.518477     3.510834     3.503191     3.495547     3.487904     3.480261     3.472618
      3.464974     3.457331     3.449688     3.442045     3.434402     3.426758     3.419115     3.411472     3.403829     3.396185
      3.388542     3.380899     3.373256     3.365613     3.357969     3.350326     3.342683     3.335040     3.327396     3.319753
      3.312110     3.304467     3.296824     3.289180     3.281537     3.273894     3.266251     3.258607     3.250964     3.243321
      3.235678     3.228034     3.220391     3.212748     3.205105     3.197462     3.189818     3.182175     3.174532     3.166889
      3.159245     3.151602     3.143959     3.136316     3.128673     3.121029     3.113386     3.105743     3.098100     3.090456
      3.082813     3.075170     3.067527     3.059884     3.052240     3.044597     3.036954     3.029311     3.021667     3.014024
      3.006381     2.998738     2.991095     2.983451     2.975808     2.968165     2.960522     2.952878     2.945235     2.937592
      2.929949     2.922306     2.914662     2.907019     2.899376     2.891733     2.884089     2.876446     2.868803     2.861160
      2.853517     2.845873     2.838230     2.830587     2.822944     2.815300     2.807657     2.800014     2.792371     2.784728
      2.777084     2.769441     2.761798     2.754155     2.746511     2.738868     2.731225     2.723582     2.715939     2.708295
      2.700652     2.693009     2.685366     2.677722     2.670079     2.662436     2.654793     2.647150     2.639506     2.631863
      2.624220     2.616577     2.608933     2.601290     2.593647     2.586004     2.578361     2.570717     2.563074     2.555431
      2.547788     2.540144     2.532501     2.524858     2.517215     2.509572     2.501928     2.494285     2.486642     2.478999
      2.471355     2.463712     2.456069     2.448426     2.440783     2.433139     2.425496     2.417853     2.410210     2.402566
      2.394923     2.387280     2.379637     2.371994     2.364350     2.356707     2.349064     2.341421     2.333777     2.326134
      2.318491     2.310848     2.303205     2.295561     2.287918     2.280275     2.272632     2.264988     2.257345     2.249702
      2.242059     2.234416     2.226772     2.219129     2.211486     2.203843     2.196199     2.188556     2.180913     2.173270
      2.165627     2.157983     2.150340     2.142697     2.135054     2.127410     2.119767     2.112124     2.104481     2.096838
      2.089194     2.081551     2.073908     2.066265     2.058621     2.050978     2.043335     2.035692     2.028049     2.020405
      2.012762     2.005119     1.997476     1.989833     1.982190     1.974546     1.966903     1.959260     1.951617     1.943974
      1.936331     1.928688     1.921045     1.913402     1.905759     1.898115     1.890472     1.882829     1.875186     1.867543
      1.859900     1.852257     1.844614     1.836971     1.829327     1.821684     1.814041     1.806398     1.798755     1.791112
      1.783469     1.775826     1.768183     1.760540     1.752896     1.745253     1.737610     1.729967     1.722324     1.714681
      1.707038     1.699395     1.691752     1.684108     1.676465     1.668822     1.661179     1.653536     1.645893     1.638250
      1.630607     1.622964     1.615321     1.607677     1.600034     1.592391     1.584748     1.577105     1.569462     1.561819
      1.554176     1.546533     1.538890     1.531246     1.523603     1.515960     1.508317     1.500674     1.493031     1.485388
      1.477745     1.470102     1.462458     1.454815     1.447172     1.439529     1.431886     1.424243     1.416600     1.408957
      1.401314     1.393671     1.386027     1.378384     1.370741     1.363098     1.355455     1.347812     1.340169     1.332526
      1.324883     1.317240     1.309596     1.301953     1.294310     1.286667     1.279024     1.271381     1.263738     1.256095
      1.248452     1.240808     1.233165     1.225522     1.217879     1.210236     1.202593     1.194950     1.187307     1.179664
      1.172021     1.164377     1.156734     1.149091     1.141448     1.133805     1.126162     1.118519     1.110876     1.103233
      1.095590     1.087946     1.080303     1.072660     1.065017     1.057374     1.049731     1.042088     1.034445     1.026802
      1.019158     1.011515     1.003872     0.996229     0.988586     0.980943     0.973300     0.965657     0.958014     0.950371
      0.942727     0.935084     0.927441     0.919798     0.912155     0.904512     0.896869     0.889226     0.881583     0.873940
      0.866296     0.858653     0.851010     0.843367     0.835724     0.828081     0.820438     0.812795     0.805152     0.797508
      0.789865     0.782222     0.774579     0.766936     0.759293     0.751650     0.744007     0.736364     0.728721     0.721077
      0.713434     0.705791     0.698148     0.690505     0.682862     0.675219     0.667576     0.659933     0.652290     0.644646
      0.637003     0.629360     0.621717     0.614074     0.606431     0.598788     0.591145     0.583502     0.575858     0.568215
      0.560572     0.552929     0.545286     0.537643     0.530000     0.522357     0.514714     0.507071     0.499427     0.491784
      0.484141     0.476498     0.468855     0.461212     0.453569     0.445925     0.438282     0.430639     0.422996     0.415353
      0.407710     0.400067     0.392424     0.384780     0.377137     0.369494     0.361851     0.354208     0.346565     0.338922
      0.331278     0.323635     0.315992     0.308349     0.300706     0.293063     0.285420     0.277777     0.270133     0.262490
      0.254847     0.247204     0.239561     0.231918     0.224275     0.216631     0.208988     0.201345
 NY phased data points follow
  -5.37139E+00 -1.11631E+01 -8.32592E+00 -7.58329E+00 -9.32360E+00 -1.12207E+01 -8.38277E+00 -9.51287E+00 -9.03625E+00 -9.82545E+00
  -7.79703E+00 -8.08365E+00 -4.90712E+00 -1.02804E+01 -4.93000E+00 -7.33446E+00 -8.42603E+00 -9.23425E+00 -6.30463E+00 -8.06342E+00
  -7.18923E+00 -7.95956E+00 -3.60033E+00 -7.61322E+00 -4.96943E+00 -7.68773E+00 -2.80880E+00 -7.06350E+00 -2.68820E+00 -7.22258E+00
  -5.80872E+00 -6.34335E+00 -4.78544E+00 -7.23546E+00 -5.01555E+00 -7.52389E+00 -4.12176E+00 -6.75867E+00 -4.23719E+00 -4.16620E+00
  -2.46434E+00 -5.41561E+00 -2.57738E+00 -7.49499E+00 -5.19955E+00 -7.26087E+00 -4.17111E+00 -5.11570E+00 -3.90694E+00 -6.16960E+00
  -3.37210E+00 -4.16460E+00 -2.40918E+00 -4.27925E+00 -7.60130E+00 -6.08137E+00 -3.02707E+00 -4.52832E+00 -1.96993E+00 -6.19465E+00
  -4.16809E+00 -6.06825E+00 -1.88382E+00 -5.25639E+00 -4.81106E+00 -5.33227E+00 -2.58103E+00 -4.77030E+00 -2.45018E+00 -5.68341E+00
  -4.99388E+00 -2.89743E+00 -7.99117E-01 -3.88173E+00 -6.38784E+00 -6.65912E+00 -6.47931E+00 -4.16293E+00 -4.08700E+00 -4.47314E+00
  -3.29229E+00 -5.17866E+00 -1.63835E+00 -4.02281E+00 -1.75937E+00 -4.44162E+00 -1.57672E+00 -2.77411E+00 -3.72116E+00 -7.42195E+00
  -3.79785E+00 -6.13800E+00 -2.87819E+00 -5.05357E+00 -1.23718E+00 -6.01883E+00 -2.12516E-01 -5.91605E+00 -2.20587E+00 -3.94666E+00
  -1.28786E+00 -4.50604E+00 -6.58749E+00 -6.09370E+00 -4.83835E+00 -5.52300E+00 -5.49270E-01 -1.97872E+00 -1.23378E+00 -4.42991E+00
  -2.73834E+00 -5.66480E+00 -3.52569E+00 -2.51056E+00 -4.61994E+00 -3.30251E+00 -2.20001E+00 -6.35741E-01  8.44335E-01 -3.00857E+00
  -2.37411E+00 -3.17637E+00 -2.18593E+00 -4.52974E+00 -4.58334E-01 -1.97265E+00 -3.30668E+00 -5.10944E+00  6.07674E-01 -2.45148E+00
  -1.29503E+00 -1.58383E+00 -1.47826E+00 -2.80564E+00 -3.58985E-01 -2.44866E+00 -5.63282E+00 -2.56319E+00 -5.12890E+00 -1.54156E+00
  -9.58810E-01  2.04581E-02 -1.38178E+00 -2.49659E+00 -9.11669E-01 -3.24867E+00  1.49252E+00 -8.42432E-01 -3.35467E+00 -1.67262E+00
  -1.17433E+00 -1.10887E+00  9.42835E-01 -3.02333E+00 -3.32464E+00 -2.13729E+00 -1.94617E+00 -2.67020E+00 -2.27911E+00 -4.61664E+00
   2.09965E-01 -3.78090E+00 -2.37418E+00  3.20684E-01 -9.20904E-01 -3.71355E+00 -9.22610E-01 -9.51282E-01 -1.52182E+00 -2.44599E+00
  -1.03928E+00  1.77219E+00  2.63168E-01 -1.74107E+00 -1.39514E+00 -2.33066E+00  4.98802E-01  2.45175E-01 -1.42571E+00 -1.00279E+00
   1.57302E-03 -3.66933E-01  1.56991E+00 -4.00291E-01  4.38490E-01 -2.29516E+00 -2.53686E+00 -9.46468E-01 -8.85854E-01 -1.25388E+00
  -2.80537E+00 -2.37771E+00  1.28096E+00 -1.88837E+00  6.65390E-01 -2.54275E+00  8.39265E-01 -1.58471E-01 -3.45967E+00 -1.85219E-01
  -2.10572E+00 -1.88775E+00 -3.73587E+00 -1.63656E+00 -1.24976E+00 -2.96974E+00  5.43782E-01 -3.83929E-01 -8.05505E-01  8.01742E-02
  -1.90027E+00  4.40966E-02 -2.22378E+00 -2.63387E+00  2.65008E+00 -3.04260E-01 -1.75406E+00  9.30981E-01  9.32601E-01 -1.41719E-01
  -7.68300E-01 -3.28249E+00 -2.04079E+00 -2.20960E+00 -6.44705E-01 -5.31643E+00  9.61710E-02 -6.58157E-01  2.01434E-01 -5.67473E+00
  -4.26542E+00 -2.56764E+00 -5.62468E-01 -8.59504E-01 -3.10893E+00 -3.36038E+00 -1.39229E+00 -1.54091E+00 -1.32090E+00 -1.04990E+00
  -1.28378E+00 -1.86302E+00 -2.22385E-01 -3.35657E+00 -1.53461E+00 -1.36757E+00 -2.50175E+00 -6.90191E-02 -1.41919E-01 -4.16874E+00
  -7.70574E-01 -1.49543E+00  1.21673E-01 -1.27391E+00  5.41605E-04 -1.22772E+00 -2.09840E+00 -5.88074E+00 -4.97848E+00 -5.06586E+00
  -1.05456E+00 -4.95699E-01  1.12670E+00  4.46014E-01  1.83683E+00 -1.48669E+00  2.65270E+00  1.44107E-01  3.68870E+00 -2.57810E+00
  -2.39769E+00 -6.01730E-01 -3.42752E+00 -2.38977E+00  3.40893E-01  3.10270E+00 -9.26158E-01  7.60870E-01 -1.65969E+00 -2.79954E+00
  -2.29119E+00 -1.70876E+00  2.74387E+00 -2.27743E+00 -4.28077E+00 -1.47859E+00  1.97341E+00 -4.84716E+00 -1.61992E+00 -1.16007E+00
   2.56745E+00 -2.69176E+00  2.06858E+00 -8.61142E-01  2.39677E-01 -1.20702E+00 -8.72637E-01 -1.85408E+00  7.89209E-01 -1.21516E-01
   1.50505E+00 -7.73314E-01 -2.53696E-01  3.01656E-01  4.57574E-01 -1.58745E+00  2.02852E+00 -1.00062E+00  2.18915E+00 -1.48655E+00
  -2.27465E+00 -3.24898E-01 -1.58944E+00  7.24063E-01 -5.90963E-02 -3.93073E+00 -2.89059E-01  1.77026E+00 -1.80487E+00 -8.34969E-01
  -2.30911E+00 -2.79102E+00 -1.54355E+00 -2.10993E+00 -4.98583E+00 -4.57450E+00 -6.32343E+00 -5.11636E+00 -4.17200E+00 -7.91357E+00
  -3.75850E+00 -6.33636E+00 -6.70941E+00 -6.24552E+00 -3.82210E+00 -4.47623E+00 -1.51804E-01 -2.48481E+00  1.48111E+00  1.59330E-01
   4.91301E+00  3.08210E+00  3.73484E+00  4.27593E+00  5.32744E+00  3.08974E+00  5.05722E+00  4.01696E+00  3.99336E+00  2.07197E+00
   1.78006E+00  4.95087E-01  2.44788E+00  6.86802E-02  3.97593E+00  1.20985E+00  2.11247E+00  9.93365E-01  1.72617E+00  2.01571E-01
   8.11500E-01  4.46722E+00  2.92725E+00 -6.84430E-01  1.66031E+00  1.10041E+00  3.83595E+00  6.81881E-01  1.93754E+00  3.04026E-01
   9.03442E-01 -1.17388E+00  2.86688E+00  2.63768E-01  1.86189E+00  2.07399E+00  1.45555E+00  1.85896E+00  7.34015E-01  2.51631E-01
   8.41987E-01 -6.77543E-01  1.47268E+00 -8.40313E-01 -9.45630E-01 -7.93696E-01 -1.18989E+00 -1.69142E+00 -3.31482E+00 -1.93090E+00
  -2.05930E+00 -1.69374E+00 -3.53730E-01 -3.53772E+00 -1.74164E+00 -3.74084E-01 -2.77896E+00 -1.53475E+00 -3.88509E+00 -1.95984E+00
   9.44781E-01 -2.29696E+00 -1.92461E+00 -4.85959E+00 -1.84692E+00 -2.08221E+00 -1.07802E+00 -5.67865E-01 -2.78012E+00 -2.67707E+00
  -5.58798E-01 -1.04566E+00 -2.54601E+00 -7.89780E-01 -9.67832E-01  9.92703E-02 -2.71868E-01 -1.12043E+00 -2.65148E+00 -2.42070E+00
  -6.29354E-01 -4.88891E-01 -8.73776E-01 -3.88725E+00 -1.41464E-01 -1.30690E+00 -1.36710E+00 -3.22911E+00 -8.33358E-01 -3.09753E+00
  -2.82710E+00 -3.29407E-01 -1.05624E-01 -1.96405E+00 -2.27954E+00 -1.92229E+00 -2.35996E+00 -2.06069E+00 -3.19594E+00 -1.82553E+00
  -2.38699E+00 -6.63809E-02 -2.14266E+00 -1.03820E-01 -2.58375E+00 -3.35831E+00  5.41902E-01 -4.28099E-02 -8.75452E-01 -9.67586E-02
  -2.09536E+00 -5.34121E-01  5.46966E-01 -2.08224E+00 -5.88598E-01 -3.59954E-01 -8.63986E-01  5.98279E-01 -3.24880E+00 -2.73990E+00
  -1.32256E+00 -7.61278E-01  7.94420E-01  2.22617E+00 -9.29673E-01 -1.41484E+00  4.12902E-01 -2.60050E-01 -2.61852E+00 -1.28171E+00
  -1.86095E+00 -1.61532E+00 -4.68971E-01 -1.96438E+00 -5.84803E-01  7.98621E-01  7.89141E-01 -1.89418E+00 -8.57680E-01 -4.36128E+00
  -2.72763E+00 -1.00826E+00 -2.52974E+00  4.40611E-01  3.37572E-01  1.92572E-01 -7.99307E-01 -4.06736E+00  5.26681E-01 -7.68181E-01
  -1.91458E+00 -7.36474E-01 -1.04285E+00 -2.00040E+00  1.62716E+00  1.19244E+00  2.84685E+00  3.08939E-01
 NY points of the fit to the data follow
  -6.08463E+00 -6.07413E+00 -6.04565E+00 -6.02748E+00 -6.08008E+00 -6.18882E+00 -6.29641E+00 -6.36699E+00 -6.39862E+00 -6.40103E+00
  -6.37810E+00 -6.32634E+00 -6.24052E+00 -6.12596E+00 -5.97798E+00 -5.83721E+00 -5.75594E+00 -5.69071E+00 -5.60675E+00 -5.48601E+00
  -5.31097E+00 -5.14667E+00 -5.05340E+00 -5.03221E+00 -5.07493E+00 -5.15947E+00 -5.27022E+00 -5.42318E+00 -5.56666E+00 -5.63191E+00
  -5.60461E+00 -5.46952E+00 -5.23520E+00 -5.00056E+00 -4.82265E+00 -4.71066E+00 -4.66277E+00 -4.65567E+00 -4.71903E+00 -4.86065E+00
  -4.99124E+00 -5.05964E+00 -5.09320E+00 -5.10185E+00 -5.07857E+00 -5.01745E+00 -4.93184E+00 -4.85917E+00 -4.81721E+00 -4.78677E+00
  -4.76001E+00 -4.73476E+00 -4.71037E+00 -4.68639E+00 -4.66271E+00 -4.63914E+00 -4.61571E+00 -4.59231E+00 -4.56900E+00 -4.54570E+00
  -4.52246E+00 -4.49921E+00 -4.47601E+00 -4.45281E+00 -4.42967E+00 -4.40653E+00 -4.38344E+00 -4.36033E+00 -4.33729E+00 -4.31426E+00
  -4.29129E+00 -4.26833E+00 -4.24543E+00 -4.22253E+00 -4.19967E+00 -4.17683E+00 -4.15406E+00 -4.13131E+00 -4.10863E+00 -4.08597E+00
  -4.06336E+00 -4.04069E+00 -4.01801E+00 -3.99537E+00 -3.97287E+00 -3.95045E+00 -3.92813E+00 -3.90588E+00 -3.88375E+00 -3.86170E+00
  -3.83981E+00 -3.81803E+00 -3.79633E+00 -3.77456E+00 -3.75276E+00 -3.73097E+00 -3.70925E+00 -3.68757E+00 -3.66596E+00 -3.64438E+00
  -3.62287E+00 -3.60138E+00 -3.57997E+00 -3.55859E+00 -3.53727E+00 -3.51596E+00 -3.49471E+00 -3.47346E+00 -3.45227E+00 -3.43107E+00
  -3.40987E+00 -3.38862E+00 -3.36730E+00 -3.34581E+00 -3.32429E+00 -3.30339E+00 -3.28320E+00 -3.26336E+00 -3.24354E+00 -3.22327E+00
  -3.20197E+00 -3.17998E+00 -3.15788E+00 -3.13568E+00 -3.11292E+00 -3.08903E+00 -3.06388E+00 -3.03730E+00 -3.00672E+00 -2.97134E+00
  -2.93888E+00 -2.91544E+00 -2.90058E+00 -2.89238E+00 -2.88636E+00 -2.87751E+00 -2.86484E+00 -2.84762E+00 -2.82852E+00 -2.80618E+00
  -2.77476E+00 -2.73330E+00 -2.69089E+00 -2.65429E+00 -2.62600E+00 -2.60785E+00 -2.59742E+00 -2.58961E+00 -2.58072E+00 -2.56733E+00
  -2.55219E+00 -2.53634E+00 -2.51988E+00 -2.50329E+00 -2.48691E+00 -2.47051E+00 -2.45364E+00 -2.43666E+00 -2.42001E+00 -2.40386E+00
  -2.38863E+00 -2.37496E+00 -2.36303E+00 -2.35181E+00 -2.34064E+00 -2.32955E+00 -2.31860E+00 -2.30770E+00 -2.29666E+00 -2.28549E+00
  -2.27466E+00 -2.26451E+00 -2.25509E+00 -2.24632E+00 -2.23799E+00 -2.22992E+00 -2.22219E+00 -2.21473E+00 -2.20744E+00 -2.19970E+00
  -2.19237E+00 -2.18589E+00 -2.17964E+00 -2.17288E+00 -2.16421E+00 -2.15116E+00 -2.13212E+00 -2.10790E+00 -2.08185E+00 -2.05758E+00
  -2.03664E+00 -2.02011E+00 -2.01199E+00 -2.01429E+00 -2.02077E+00 -2.02645E+00 -2.02944E+00 -2.02732E+00 -2.01794E+00 -2.00078E+00
  -1.97746E+00 -1.95010E+00 -1.92040E+00 -1.89234E+00 -1.87174E+00 -1.86039E+00 -1.85123E+00 -1.84052E+00 -1.82863E+00 -1.81640E+00
  -1.80438E+00 -1.79234E+00 -1.78005E+00 -1.76760E+00 -1.75507E+00 -1.74217E+00 -1.72846E+00 -1.71398E+00 -1.69881E+00 -1.68297E+00
  -1.66671E+00 -1.65079E+00 -1.63573E+00 -1.62123E+00 -1.60720E+00 -1.59416E+00 -1.58457E+00 -1.58021E+00 -1.57763E+00 -1.57295E+00
  -1.56457E+00 -1.55191E+00 -1.53368E+00 -1.50982E+00 -1.48698E+00 -1.46977E+00 -1.45767E+00 -1.44984E+00 -1.44883E+00 -1.45623E+00
  -1.46625E+00 -1.47270E+00 -1.47389E+00 -1.46756E+00 -1.44974E+00 -1.42090E+00 -1.38981E+00 -1.36245E+00 -1.34017E+00 -1.32382E+00
  -1.31449E+00 -1.31194E+00 -1.31177E+00 -1.30944E+00 -1.30522E+00 -1.30006E+00 -1.29426E+00 -1.28794E+00 -1.28180E+00 -1.27722E+00
  -1.27470E+00 -1.27424E+00 -1.27519E+00 -1.27718E+00 -1.28000E+00 -1.28346E+00 -1.28738E+00 -1.29162E+00 -1.29602E+00 -1.30042E+00
  -1.30465E+00 -1.30859E+00 -1.31213E+00 -1.31523E+00 -1.31783E+00 -1.31991E+00 -1.32145E+00 -1.32247E+00 -1.32295E+00 -1.32293E+00
  -1.32243E+00 -1.32143E+00 -1.31996E+00 -1.31803E+00 -1.31567E+00 -1.31292E+00 -1.30979E+00 -1.30630E+00 -1.30246E+00 -1.29827E+00
  -1.29376E+00 -1.28896E+00 -1.28386E+00 -1.27843E+00 -1.27265E+00 -1.26651E+00 -1.26002E+00 -1.25317E+00 -1.24589E+00 -1.23812E+00
  -1.22982E+00 -1.22094E+00 -1.21141E+00 -1.20116E+00 -1.19003E+00 -1.17789E+00 -1.16459E+00 -1.14997E+00 -1.13380E+00 -1.11576E+00
  -1.09540E+00 -1.07222E+00 -1.04561E+00 -1.01472E+00 -9.78316E-01 -9.34615E-01 -8.81020E-01 -8.13630E-01 -7.26061E-01 -6.06722E-01
  -4.31077E-01 -1.35021E-01  3.65821E-01  8.00826E-01  8.83381E-01  6.24556E-01  1.35436E-01 -4.94456E-01 -1.25488E+00 -2.17147E+00
  -2.99604E+00 -3.44450E+00 -3.47906E+00 -3.02867E+00 -2.09113E+00 -1.03948E+00 -9.85968E-02  7.60782E-01  1.51284E+00  2.03375E+00
   2.17264E+00  1.96765E+00  1.86809E+00  2.10756E+00  2.33300E+00  2.38354E+00  2.27680E+00  2.06539E+00  1.77464E+00  1.38555E+00
   9.88540E-01  7.65312E-01  7.14746E-01  8.51861E-01  1.25162E+00  1.84508E+00  2.37298E+00  2.78886E+00  3.09074E+00  3.21875E+00
   3.07926E+00  2.65429E+00  2.14118E+00  1.75529E+00  1.44778E+00  1.17578E+00  9.26481E-01  6.96081E-01  4.83794E-01  2.89747E-01
   1.14173E-01 -4.29142E-02 -1.81758E-01 -3.02910E-01 -4.07209E-01 -4.95801E-01 -5.70011E-01 -6.31251E-01 -6.80881E-01 -7.20204E-01
  -7.50432E-01 -7.72724E-01 -7.88103E-01 -7.97459E-01 -8.01497E-01 -8.00819E-01 -7.95935E-01 -7.87320E-01 -7.75370E-01 -7.60431E-01
  -7.42784E-01 -7.22729E-01 -7.00585E-01 -6.76725E-01 -6.51523E-01 -6.25377E-01 -5.98696E-01 -5.71959E-01 -5.45678E-01 -5.20409E-01
  -4.96676E-01 -4.74998E-01 -4.55855E-01 -4.39727E-01 -4.27031E-01 -4.18126E-01 -4.13246E-01 -4.12539E-01 -4.16044E-01 -4.23734E-01
  -4.35470E-01 -4.51023E-01 -4.70046E-01 -4.92144E-01 -5.16864E-01 -5.43754E-01 -5.72321E-01 -6.02077E-01 -6.32519E-01 -6.63203E-01
  -6.93720E-01 -7.23736E-01 -7.52940E-01 -7.81083E-01 -8.07945E-01 -8.33393E-01 -8.57334E-01 -8.79738E-01 -9.00576E-01 -9.19862E-01
  -9.37617E-01 -9.53917E-01 -9.68836E-01 -9.82471E-01 -9.94891E-01 -1.00618E+00 -1.01642E+00 -1.02571E+00 -1.03413E+00 -1.04178E+00
  -1.04869E+00 -1.05494E+00 -1.06058E+00 -1.06568E+00 -1.07030E+00 -1.07448E+00 -1.07824E+00 -1.08163E+00 -1.08467E+00 -1.08741E+00
  -1.08988E+00 -1.09209E+00 -1.09405E+00 -1.09579E+00 -1.09732E+00 -1.09868E+00 -1.09987E+00 -1.10091E+00 -1.10178E+00 -1.10252E+00
  -1.10313E+00 -1.10364E+00 -1.10404E+00 -1.10433E+00 -1.10451E+00 -1.10461E+00 -1.10463E+00 -1.10458E+00 -1.10445E+00 -1.10425E+00
  -1.10397E+00 -1.10364E+00 -1.10326E+00 -1.10283E+00 -1.10234E+00 -1.10179E+00 -1.10120E+00 -1.10057E+00 -1.09991E+00 -1.09921E+00
  -1.09845E+00 -1.09767E+00 -1.09685E+00 -1.09601E+00 -1.09514E+00 -1.09424E+00 -1.09330E+00 -1.09235E+00 -1.09136E+00 -1.09037E+00
  -1.08935E+00 -1.08830E+00 -1.08723E+00 -1.08614E+00 -1.08504E+00 -1.08392E+00 -1.08278E+00 -1.08163E+00
 NY background values follow
    -5.991E+00   -5.966E+00   -5.942E+00   -5.917E+00   -5.893E+00   -5.868E+00   -5.844E+00   -5.819E+00   -5.795E+00   -5.770E+00
    -5.746E+00   -5.721E+00   -5.697E+00   -5.672E+00   -5.648E+00   -5.623E+00   -5.599E+00   -5.574E+00   -5.550E+00   -5.525E+00
    -5.501E+00   -5.476E+00   -5.452E+00   -5.427E+00   -5.403E+00   -5.378E+00   -5.354E+00   -5.330E+00   -5.305E+00   -5.281E+00
    -5.257E+00   -5.232E+00   -5.208E+00   -5.184E+00   -5.159E+00   -5.135E+00   -5.111E+00   -5.087E+00   -5.062E+00   -5.038E+00
    -5.014E+00   -4.990E+00   -4.966E+00   -4.942E+00   -4.918E+00   -4.894E+00   -4.870E+00   -4.846E+00   -4.822E+00   -4.798E+00
    -4.774E+00   -4.750E+00   -4.727E+00   -4.703E+00   -4.679E+00   -4.655E+00   -4.632E+00   -4.608E+00   -4.584E+00   -4.561E+00
    -4.537E+00   -4.514E+00   -4.490E+00   -4.467E+00   -4.444E+00   -4.420E+00   -4.397E+00   -4.374E+00   -4.351E+00   -4.328E+00
    -4.305E+00   -4.282E+00   -4.259E+00   -4.236E+00   -4.213E+00   -4.190E+00   -4.167E+00   -4.145E+00   -4.122E+00   -4.099E+00
    -4.077E+00   -4.054E+00   -4.032E+00   -4.010E+00   -3.987E+00   -3.965E+00   -3.943E+00   -3.921E+00   -3.899E+00   -3.877E+00
    -3.855E+00   -3.833E+00   -3.811E+00   -3.790E+00   -3.768E+00   -3.746E+00   -3.725E+00   -3.703E+00   -3.682E+00   -3.661E+00
    -3.640E+00   -3.618E+00   -3.597E+00   -3.576E+00   -3.555E+00   -3.535E+00   -3.514E+00   -3.493E+00   -3.473E+00   -3.452E+00
    -3.432E+00   -3.411E+00   -3.391E+00   -3.371E+00   -3.351E+00   -3.331E+00   -3.311E+00   -3.291E+00   -3.271E+00   -3.252E+00
    -3.232E+00   -3.213E+00   -3.193E+00   -3.174E+00   -3.155E+00   -3.136E+00   -3.117E+00   -3.098E+00   -3.079E+00   -3.060E+00
    -3.042E+00   -3.023E+00   -3.005E+00   -2.986E+00   -2.968E+00   -2.950E+00   -2.932E+00   -2.914E+00   -2.896E+00   -2.879E+00
    -2.861E+00   -2.844E+00   -2.826E+00   -2.809E+00   -2.792E+00   -2.775E+00   -2.758E+00   -2.741E+00   -2.724E+00   -2.708E+00
    -2.691E+00   -2.675E+00   -2.658E+00   -2.642E+00   -2.626E+00   -2.610E+00   -2.594E+00   -2.578E+00   -2.563E+00   -2.547E+00
    -2.532E+00   -2.516E+00   -2.501E+00   -2.486E+00   -2.471E+00   -2.456E+00   -2.441E+00   -2.427E+00   -2.412E+00   -2.398E+00
    -2.384E+00   -2.369E+00   -2.355E+00   -2.341E+00   -2.327E+00   -2.314E+00   -2.300E+00   -2.287E+00   -2.273E+00   -2.260E+00
    -2.247E+00   -2.234E+00   -2.221E+00   -2.208E+00   -2.195E+00   -2.183E+00   -2.170E+00   -2.158E+00   -2.146E+00   -2.134E+00
    -2.122E+00   -2.110E+00   -2.098E+00   -2.086E+00   -2.075E+00   -2.064E+00   -2.052E+00   -2.041E+00   -2.030E+00   -2.019E+00
    -2.008E+00   -1.997E+00   -1.987E+00   -1.976E+00   -1.966E+00   -1.955E+00   -1.945E+00   -1.935E+00   -1.925E+00   -1.915E+00
    -1.905E+00   -1.895E+00   -1.886E+00   -1.876E+00   -1.867E+00   -1.858E+00   -1.848E+00   -1.839E+00   -1.830E+00   -1.821E+00
    -1.813E+00   -1.804E+00   -1.795E+00   -1.787E+00   -1.778E+00   -1.770E+00   -1.762E+00   -1.754E+00   -1.746E+00   -1.738E+00
    -1.730E+00   -1.722E+00   -1.715E+00   -1.707E+00   -1.700E+00   -1.692E+00   -1.685E+00   -1.678E+00   -1.671E+00   -1.664E+00
    -1.657E+00   -1.650E+00   -1.643E+00   -1.636E+00   -1.630E+00   -1.623E+00   -1.617E+00   -1.611E+00   -1.604E+00   -1.598E+00
    -1.592E+00   -1.586E+00   -1.580E+00   -1.574E+00   -1.569E+00   -1.563E+00   -1.557E+00   -1.552E+00   -1.546E+00   -1.541E+00
    -1.536E+00   -1.531E+00   -1.525E+00   -1.520E+00   -1.515E+00   -1.511E+00   -1.506E+00   -1.501E+00   -1.496E+00   -1.492E+00
    -1.487E+00   -1.483E+00   -1.478E+00   -1.474E+00   -1.470E+00   -1.466E+00   -1.462E+00   -1.458E+00   -1.454E+00   -1.450E+00
    -1.446E+00   -1.442E+00   -1.438E+00   -1.435E+00   -1.431E+00   -1.428E+00   -1.424E+00   -1.421E+00   -1.417E+00   -1.414E+00
    -1.411E+00   -1.408E+00   -1.404E+00   -1.401E+00   -1.398E+00   -1.395E+00   -1.393E+00   -1.390E+00   -1.387E+00   -1.384E+00
    -1.381E+00   -1.379E+00   -1.376E+00   -1.373E+00   -1.371E+00   -1.368E+00   -1.366E+00   -1.363E+00   -1.361E+00   -1.359E+00
    -1.356E+00   -1.354E+00   -1.352E+00   -1.350E+00   -1.348E+00   -1.346E+00   -1.343E+00   -1.341E+00   -1.339E+00   -1.337E+00
    -1.335E+00   -1.334E+00   -1.332E+00   -1.330E+00   -1.328E+00   -1.326E+00   -1.324E+00   -1.323E+00   -1.321E+00   -1.319E+00
    -1.317E+00   -1.316E+00   -1.314E+00   -1.313E+00   -1.311E+00   -1.310E+00   -1.308E+00   -1.307E+00   -1.305E+00   -1.304E+00
    -1.302E+00   -1.301E+00   -1.299E+00   -1.298E+00   -1.297E+00   -1.295E+00   -1.294E+00   -1.293E+00   -1.291E+00   -1.290E+00
    -1.289E+00   -1.288E+00   -1.287E+00   -1.285E+00   -1.284E+00   -1.283E+00   -1.282E+00   -1.281E+00   -1.280E+00   -1.279E+00
    -1.278E+00   -1.277E+00   -1.275E+00   -1.274E+00   -1.273E+00   -1.272E+00   -1.271E+00   -1.270E+00   -1.269E+00   -1.268E+00
    -1.267E+00   -1.266E+00   -1.266E+00   -1.265E+00   -1.264E+00   -1.263E+00   -1.262E+00   -1.261E+00   -1.260E+00   -1.259E+00
    -1.258E+00   -1.257E+00   -1.256E+00   -1.255E+00   -1.254E+00   -1.254E+00   -1.253E+00   -1.252E+00   -1.251E+00   -1.250E+00
    -1.249E+00   -1.248E+00   -1.247E+00   -1.246E+00   -1.245E+00   -1.244E+00   -1.243E+00   -1.242E+00   -1.242E+00   -1.241E+00
    -1.240E+00   -1.239E+00   -1.238E+00   -1.237E+00   -1.236E+00   -1.235E+00   -1.234E+00   -1.233E+00   -1.232E+00   -1.231E+00
    -1.230E+00   -1.228E+00   -1.227E+00   -1.226E+00   -1.225E+00   -1.224E+00   -1.223E+00   -1.222E+00   -1.221E+00   -1.220E+00
    -1.218E+00   -1.217E+00   -1.216E+00   -1.215E+00   -1.214E+00   -1.212E+00   -1.211E+00   -1.210E+00   -1.209E+00   -1.208E+00
    -1.206E+00   -1.205E+00   -1.204E+00   -1.202E+00   -1.201E+00   -1.200E+00   -1.199E+00   -1.197E+00   -1.196E+00   -1.195E+00
    -1.193E+00   -1.192E+00   -1.190E+00   -1.189E+00   -1.188E+00   -1.186E+00   -1.185E+00   -1.183E+00   -1.182E+00   -1.181E+00
    -1.179E+00   -1.178E+00   -1.176E+00   -1.175E+00   -1.173E+00   -1.172E+00   -1.170E+00   -1.169E+00   -1.167E+00   -1.166E+00
    -1.164E+00   -1.163E+00   -1.161E+00   -1.160E+00   -1.158E+00   -1.157E+00   -1.155E+00   -1.154E+00   -1.152E+00   -1.151E+00
    -1.149E+00   -1.147E+00   -1.146E+00   -1.144E+00   -1.143E+00   -1.141E+00   -1.140E+00   -1.138E+00   -1.136E+00   -1.135E+00
    -1.133E+00   -1.132E+00   -1.130E+00   -1.128E+00   -1.127E+00   -1.125E+00   -1.124E+00   -1.122E+00   -1.120E+00   -1.119E+00
    -1.117E+00   -1.115E+00   -1.114E+00   -1.112E+00   -1.111E+00   -1.109E+00   -1.107E+00   -1.106E+00
 Ala      Conc. = 2.19E+02
