 LCModel (Version 6.3-1L) Copyright: S.W. Provencher.          Ref.: Magn. Reson. Med. 30:672-679 (1993).                
 Slice#2 Row#10 Col#11  PD_24_press_2_raw_act
 36 lines in following concentration table = NCONC+1
    Conc.  %SD /Cr+PCr  Metabolite                                         
 9.83E+03  23%  38.516 Ala                                                 
   35.551  53%   0.139 Asp                                                 
  255.196  38%   1.000 Cr                                                  
    0.000 999%   0.000 PCr                                                 
   20.545  56% 8.1E-02 GABA                                                
   21.422  54% 8.4E-02 Glc                                                 
 2.52E+03  37%   9.858 Gln                                                 
    0.000 999%   0.000 Glu                                                 
    0.000 999%   0.000 GPC                                                 
  149.212  28%   0.585 PCh                                                 
  527.320  33%   2.066 GSH                                                 
 2.25E+03  23%   8.800 Ins                                                 
 3.96E+03  44%  15.528 Lac                                                 
    0.000 999%   0.000 NAA                                                 
    0.000 999%   0.000 NAAG                                                
    7.576  51% 3.0E-02 Scyllo                                              
   36.871  51%   0.144 Tau                                                 
   16.286 246% 6.4E-02 -CrCH2                                              
  149.212  28%   0.585 GPC+PCh                                             
    0.000 999%   0.000 NAA+NAAG                                            
  255.196  38%   1.000 Cr+PCr                                              
 2.52E+03  37%   9.858 Glu+Gln                                             
    0.000 999%   0.000 Lip13a                                              
    0.000 999%   0.000 Lip13b                                              
    0.000 999%   0.000 Lip09                                               
 4.65E+03  13%  18.230 MM09                                                
    0.000 999%   0.000 Lip20                                               
    0.000 999%   0.000-MM20                                                
 1.76E+03  33%   6.881 MM12                                                
 3.13E+04   7% 122.808+MM14                                                
 1.80E+04   9%  70.356+MM17                                                
    0.000 999%   0.000 Lip13a+Lip13b                                       
 3.31E+04   7% 129.689 MM14+Lip13a+Lip13b+MM12                             
 4.65E+03  13%  18.230 MM09+Lip09                                          
    0.000 999%   0.000 MM20+Lip20                                          
   6 lines in following misc. output table
  FWHM = 0.168 ppm    S/N =  30                                            
  Data shift = 0.061 ppm                                                   
  Ph: 164 deg      48.2 deg/ppm                                            
  alphaB,S = 9.2E+00,   3.2E+02                                            
    7 spline knots.   Ns = 9(2)                                            
  (10) 3 infls.   ( 3) 1 extrs.                                            
  498 points on ppm-axis = NY
      4.000000     3.992357     3.984714     3.977070     3.969427     3.961784     3.954141     3.946497     3.938854     3.931211
      3.923568     3.915925     3.908281     3.900638     3.892995     3.885352     3.877708     3.870065     3.862422     3.854779
      3.847136     3.839492     3.831849     3.824206     3.816563     3.808919     3.801276     3.793633     3.785990     3.778347
      3.770703     3.763060     3.755417     3.747774     3.740130     3.732487     3.724844     3.717201     3.709558     3.701914
      3.694271     3.686628     3.678985     3.671341     3.663698     3.656055     3.648412     3.640769     3.633125     3.625482
      3.617839     3.610196     3.602552     3.594909     3.587266     3.579623     3.571980     3.564336     3.556693     3.549050
      3.541407     3.533763     3.526120     3.518477     3.510834     3.503191     3.495547     3.487904     3.480261     3.472618
      3.464974     3.457331     3.449688     3.442045     3.434402     3.426758     3.419115     3.411472     3.403829     3.396185
      3.388542     3.380899     3.373256     3.365613     3.357969     3.350326     3.342683     3.335040     3.327396     3.319753
      3.312110     3.304467     3.296824     3.289180     3.281537     3.273894     3.266251     3.258607     3.250964     3.243321
      3.235678     3.228034     3.220391     3.212748     3.205105     3.197462     3.189818     3.182175     3.174532     3.166889
      3.159245     3.151602     3.143959     3.136316     3.128673     3.121029     3.113386     3.105743     3.098100     3.090456
      3.082813     3.075170     3.067527     3.059884     3.052240     3.044597     3.036954     3.029311     3.021667     3.014024
      3.006381     2.998738     2.991095     2.983451     2.975808     2.968165     2.960522     2.952878     2.945235     2.937592
      2.929949     2.922306     2.914662     2.907019     2.899376     2.891733     2.884089     2.876446     2.868803     2.861160
      2.853517     2.845873     2.838230     2.830587     2.822944     2.815300     2.807657     2.800014     2.792371     2.784728
      2.777084     2.769441     2.761798     2.754155     2.746511     2.738868     2.731225     2.723582     2.715939     2.708295
      2.700652     2.693009     2.685366     2.677722     2.670079     2.662436     2.654793     2.647150     2.639506     2.631863
      2.624220     2.616577     2.608933     2.601290     2.593647     2.586004     2.578361     2.570717     2.563074     2.555431
      2.547788     2.540144     2.532501     2.524858     2.517215     2.509572     2.501928     2.494285     2.486642     2.478999
      2.471355     2.463712     2.456069     2.448426     2.440783     2.433139     2.425496     2.417853     2.410210     2.402566
      2.394923     2.387280     2.379637     2.371994     2.364350     2.356707     2.349064     2.341421     2.333777     2.326134
      2.318491     2.310848     2.303205     2.295561     2.287918     2.280275     2.272632     2.264988     2.257345     2.249702
      2.242059     2.234416     2.226772     2.219129     2.211486     2.203843     2.196199     2.188556     2.180913     2.173270
      2.165627     2.157983     2.150340     2.142697     2.135054     2.127410     2.119767     2.112124     2.104481     2.096838
      2.089194     2.081551     2.073908     2.066265     2.058621     2.050978     2.043335     2.035692     2.028049     2.020405
      2.012762     2.005119     1.997476     1.989833     1.982190     1.974546     1.966903     1.959260     1.951617     1.943974
      1.936331     1.928688     1.921045     1.913402     1.905759     1.898115     1.890472     1.882829     1.875186     1.867543
      1.859900     1.852257     1.844614     1.836971     1.829327     1.821684     1.814041     1.806398     1.798755     1.791112
      1.783469     1.775826     1.768183     1.760540     1.752896     1.745253     1.737610     1.729967     1.722324     1.714681
      1.707038     1.699395     1.691752     1.684108     1.676465     1.668822     1.661179     1.653536     1.645893     1.638250
      1.630607     1.622964     1.615321     1.607677     1.600034     1.592391     1.584748     1.577105     1.569462     1.561819
      1.554176     1.546533     1.538890     1.531246     1.523603     1.515960     1.508317     1.500674     1.493031     1.485388
      1.477745     1.470102     1.462458     1.454815     1.447172     1.439529     1.431886     1.424243     1.416600     1.408957
      1.401314     1.393671     1.386027     1.378384     1.370741     1.363098     1.355455     1.347812     1.340169     1.332526
      1.324883     1.317240     1.309596     1.301953     1.294310     1.286667     1.279024     1.271381     1.263738     1.256095
      1.248452     1.240808     1.233165     1.225522     1.217879     1.210236     1.202593     1.194950     1.187307     1.179664
      1.172021     1.164377     1.156734     1.149091     1.141448     1.133805     1.126162     1.118519     1.110876     1.103233
      1.095590     1.087946     1.080303     1.072660     1.065017     1.057374     1.049731     1.042088     1.034445     1.026802
      1.019158     1.011515     1.003872     0.996229     0.988586     0.980943     0.973300     0.965657     0.958014     0.950371
      0.942727     0.935084     0.927441     0.919798     0.912155     0.904512     0.896869     0.889226     0.881583     0.873940
      0.866296     0.858653     0.851010     0.843367     0.835724     0.828081     0.820438     0.812795     0.805152     0.797508
      0.789865     0.782222     0.774579     0.766936     0.759293     0.751650     0.744007     0.736364     0.728721     0.721077
      0.713434     0.705791     0.698148     0.690505     0.682862     0.675219     0.667576     0.659933     0.652290     0.644646
      0.637003     0.629360     0.621717     0.614074     0.606431     0.598788     0.591145     0.583502     0.575858     0.568215
      0.560572     0.552929     0.545286     0.537643     0.530000     0.522357     0.514714     0.507071     0.499427     0.491784
      0.484141     0.476498     0.468855     0.461212     0.453569     0.445925     0.438282     0.430639     0.422996     0.415353
      0.407710     0.400067     0.392424     0.384780     0.377137     0.369494     0.361851     0.354208     0.346565     0.338922
      0.331278     0.323635     0.315992     0.308349     0.300706     0.293063     0.285420     0.277777     0.270133     0.262490
      0.254847     0.247204     0.239561     0.231918     0.224275     0.216631     0.208988     0.201345
 NY phased data points follow
  -2.08173E+01 -1.81934E+01 -1.91626E+01 -2.26153E+01 -1.98399E+01 -2.08585E+01 -2.18184E+01 -2.17798E+01 -2.34597E+01 -1.85059E+01
  -2.12604E+01 -2.14659E+01 -2.02992E+01 -2.29983E+01 -2.03378E+01 -2.38578E+01 -1.85225E+01 -2.14475E+01 -2.17307E+01 -2.14628E+01
  -1.90402E+01 -2.15565E+01 -2.03667E+01 -2.10926E+01 -1.84491E+01 -2.06241E+01 -1.92700E+01 -2.23899E+01 -1.87988E+01 -2.26114E+01
  -1.97865E+01 -2.09640E+01 -2.02016E+01 -2.29978E+01 -1.95239E+01 -2.25897E+01 -2.00965E+01 -2.18366E+01 -1.84508E+01 -2.09889E+01
  -1.90142E+01 -2.20887E+01 -1.75516E+01 -2.14135E+01 -1.90983E+01 -2.00485E+01 -1.80259E+01 -2.18110E+01 -1.93412E+01 -2.10653E+01
  -2.09750E+01 -2.10231E+01 -1.94294E+01 -2.22182E+01 -2.02909E+01 -1.88081E+01 -2.03908E+01 -2.03576E+01 -2.09223E+01 -1.97108E+01
  -1.97582E+01 -1.97871E+01 -1.88238E+01 -1.89278E+01 -2.17781E+01 -2.07900E+01 -2.03327E+01 -2.11024E+01 -1.88515E+01 -2.11221E+01
  -2.06138E+01 -1.85714E+01 -2.14741E+01 -1.96648E+01 -2.00866E+01 -2.11422E+01 -2.23761E+01 -2.23021E+01 -2.09098E+01 -2.13032E+01
  -2.08660E+01 -2.29995E+01 -2.20692E+01 -2.25681E+01 -2.35777E+01 -2.36079E+01 -1.90666E+01 -2.50835E+01 -2.24913E+01 -2.24202E+01
  -1.98965E+01 -2.02345E+01 -1.80870E+01 -2.11641E+01 -2.37360E+01 -2.22683E+01 -2.21302E+01 -2.26713E+01 -2.11004E+01 -2.23063E+01
  -1.98555E+01 -2.07477E+01 -2.09480E+01 -2.14344E+01 -2.16835E+01 -2.27932E+01 -2.13372E+01 -2.23921E+01 -2.18162E+01 -2.10225E+01
  -2.51258E+01 -1.94279E+01 -1.93449E+01 -1.93358E+01 -1.89980E+01 -2.07156E+01 -1.95592E+01 -2.08731E+01 -2.11478E+01 -2.21466E+01
  -2.25220E+01 -2.09135E+01 -2.15540E+01 -2.13826E+01 -2.05255E+01 -1.99413E+01 -1.94019E+01 -2.05312E+01 -1.88343E+01 -1.92274E+01
  -1.90221E+01 -1.89212E+01 -2.03797E+01 -2.02635E+01 -2.03530E+01 -2.14681E+01 -1.92212E+01 -1.96119E+01 -2.10003E+01 -2.28366E+01
  -1.96022E+01 -2.28479E+01 -2.00385E+01 -2.24218E+01 -2.13397E+01 -2.26817E+01 -2.11435E+01 -2.17515E+01 -1.96857E+01 -2.00777E+01
  -1.97534E+01 -1.98404E+01 -2.18751E+01 -2.19383E+01 -2.01575E+01 -2.12784E+01 -1.89725E+01 -1.98267E+01 -2.31376E+01 -2.18905E+01
  -2.20019E+01 -1.95144E+01 -2.25359E+01 -2.39623E+01 -2.33410E+01 -2.09890E+01 -2.21485E+01 -2.30438E+01 -2.19857E+01 -2.29013E+01
  -2.21749E+01 -2.27521E+01 -2.12015E+01 -2.11231E+01 -2.01519E+01 -2.34781E+01 -2.07566E+01 -2.14988E+01 -1.85580E+01 -2.24064E+01
  -1.84115E+01 -1.94583E+01 -1.91404E+01 -1.90615E+01 -2.12854E+01 -2.03219E+01 -1.78154E+01 -1.90531E+01 -1.82323E+01 -1.88320E+01
  -1.84793E+01 -1.59072E+01 -1.65336E+01 -1.82469E+01 -1.57979E+01 -1.54688E+01 -1.38449E+01 -1.39564E+01 -1.26208E+01 -1.39796E+01
  -1.28908E+01 -1.18987E+01 -1.02260E+01 -9.49940E+00 -1.25870E+01 -1.19669E+01 -9.18640E+00 -1.27999E+01 -1.19652E+01 -1.19351E+01
  -9.53234E+00 -1.13055E+01 -5.97028E+00 -9.72756E+00 -9.34443E+00 -8.63633E+00 -7.25789E+00 -1.12362E+01 -8.77155E+00 -9.60611E+00
  -6.38236E+00 -9.21906E+00 -8.76031E+00 -8.72770E+00 -9.62571E+00 -5.47235E+00 -5.99305E+00 -5.06534E+00 -6.86987E+00 -6.64427E+00
  -9.42994E+00 -6.91933E+00 -1.08708E+01 -7.70793E+00 -6.35540E+00 -9.24454E+00 -8.01165E+00 -8.30826E+00 -8.22818E+00 -6.10207E+00
  -8.20342E+00 -8.43426E+00 -5.75077E+00 -8.40351E+00 -6.55599E+00 -6.39435E+00 -6.85441E+00 -4.96645E+00 -6.91344E+00 -8.82151E+00
  -5.98541E+00 -8.69543E+00 -9.17433E+00 -1.21587E+01 -9.42124E+00 -8.82565E+00 -4.47818E+00 -1.90626E+00 -2.89889E+00 -7.41313E+00
  -4.52757E+00 -4.43540E+00 -4.32493E+00 -1.25768E+00 -2.91196E+00 -3.21346E+00 -1.88959E+00 -1.58195E+00  2.05708E+00  2.49720E+00
   2.34805E+00  4.12897E+00  5.42849E+00  9.15710E+00  1.49860E+01  1.60416E+01  2.08348E+01  2.03723E+01  2.65816E+01  3.00866E+01
   3.57069E+01  3.47110E+01  3.83200E+01  4.09006E+01  4.42267E+01  4.72361E+01  4.94960E+01  5.43963E+01  5.51510E+01  6.06451E+01
   6.29122E+01  6.73223E+01  7.14567E+01  7.34496E+01  7.79113E+01  8.36362E+01  9.05885E+01  9.20863E+01  9.79359E+01  1.02286E+02
   1.08892E+02  1.13436E+02  1.18831E+02  1.25780E+02  1.30019E+02  1.32971E+02  1.41443E+02  1.44269E+02  1.50454E+02  1.55735E+02
   1.58988E+02  1.62185E+02  1.68241E+02  1.75788E+02  1.80527E+02  1.86074E+02  1.90998E+02  1.95749E+02  2.02050E+02  2.05116E+02
   2.05414E+02  2.07055E+02  2.05034E+02  2.02756E+02  2.02238E+02  1.99013E+02  1.93596E+02  1.88939E+02  1.81900E+02  1.74646E+02
   1.66760E+02  1.56686E+02  1.48329E+02  1.42306E+02  1.32419E+02  1.21246E+02  1.10559E+02  1.02503E+02  9.33328E+01  8.51297E+01
   7.66183E+01  7.19979E+01  6.08985E+01  5.83143E+01  5.19079E+01  4.86003E+01  4.32405E+01  4.10478E+01  3.81670E+01  3.72219E+01
   3.24030E+01  2.85634E+01  2.71800E+01  2.33305E+01  2.24527E+01  1.84731E+01  2.06699E+01  1.95058E+01  1.89602E+01  1.87723E+01
   1.52308E+01  1.27286E+01  1.48835E+01  1.23044E+01  1.22382E+01  1.09224E+01  1.08302E+01  9.63486E+00  8.51144E+00  1.05775E+01
   1.16286E+01  1.16610E+01  1.11162E+01  1.04609E+01  1.27524E+01  9.70664E+00  1.10990E+01  9.98831E+00  7.87880E+00  8.95689E+00
   1.03151E+01  6.85778E+00  1.08041E+01  9.59643E+00  9.46808E+00  1.20550E+01  9.27641E+00  7.71385E+00  1.03074E+01  7.82324E+00
   7.29470E+00  6.93316E+00  6.73189E+00  6.90533E+00  5.96378E+00  6.48278E+00  3.31208E+00  6.90310E+00  4.22992E+00  7.48104E+00
   4.91114E+00  7.32116E+00  4.26208E+00  4.11531E+00  4.32560E+00  3.02753E+00  3.50798E+00  4.37545E+00  2.70108E+00  3.50715E+00
   3.16549E+00  6.34908E-01  4.61909E+00  3.27244E+00  9.90699E-01 -5.18212E-01  5.21762E-01  4.07563E-01 -4.54520E-01  1.06705E-01
  -1.43498E+00 -9.86691E-01 -2.96975E+00 -3.43531E+00 -5.61329E+00 -4.05893E+00 -2.18398E+00 -4.33157E+00 -2.64956E+00 -6.54163E+00
  -4.42222E+00 -5.13777E+00 -4.98172E+00 -4.17358E+00 -9.27966E+00 -5.32848E+00 -7.68003E+00 -7.66566E+00 -7.49478E+00 -8.00581E+00
  -7.42398E+00 -6.97318E+00 -9.74905E+00 -1.10288E+01 -8.22099E+00 -1.12812E+01 -9.29484E+00 -1.02430E+01 -1.23984E+01 -1.11831E+01
  -9.84114E+00 -1.07037E+01 -1.20068E+01 -1.40245E+01 -1.09253E+01 -1.28907E+01 -1.60120E+01 -1.33722E+01 -1.57619E+01 -1.41850E+01
  -1.49342E+01 -1.73768E+01 -1.72120E+01 -1.58905E+01 -1.53695E+01 -1.62478E+01 -1.64020E+01 -1.75751E+01 -1.58590E+01 -1.87536E+01
  -1.75811E+01 -1.87625E+01 -1.90253E+01 -1.86347E+01 -2.00552E+01 -1.94427E+01 -2.04408E+01 -1.96108E+01 -2.02185E+01 -2.09876E+01
  -2.08939E+01 -2.22860E+01 -2.06608E+01 -2.07326E+01 -1.95433E+01 -2.32167E+01 -1.85788E+01 -2.00626E+01 -2.06423E+01 -2.27309E+01
  -2.39009E+01 -2.31094E+01 -2.24262E+01 -2.21289E+01 -2.36750E+01 -2.26896E+01 -2.35235E+01 -2.34096E+01
 NY points of the fit to the data follow
  -2.15096E+01 -2.09256E+01 -2.18119E+01 -2.12744E+01 -2.17954E+01 -2.11966E+01 -2.13895E+01 -2.06251E+01 -2.14265E+01 -2.11263E+01
  -2.21354E+01 -2.17745E+01 -2.25517E+01 -2.22541E+01 -2.28697E+01 -2.19599E+01 -2.22762E+01 -2.14175E+01 -2.16271E+01 -2.09555E+01
  -2.10431E+01 -2.03913E+01 -2.05916E+01 -2.02416E+01 -2.03880E+01 -2.02782E+01 -2.02898E+01 -2.03680E+01 -2.01704E+01 -2.02359E+01
  -1.95365E+01 -1.95523E+01 -1.88464E+01 -1.91443E+01 -1.85011E+01 -1.90742E+01 -1.84489E+01 -1.92222E+01 -1.85968E+01 -1.94776E+01
  -1.88830E+01 -1.96750E+01 -1.89229E+01 -1.95902E+01 -1.87728E+01 -1.93339E+01 -1.85780E+01 -1.90702E+01 -1.88091E+01 -1.95235E+01
  -1.94701E+01 -2.01425E+01 -2.00629E+01 -2.07687E+01 -2.05332E+01 -2.08740E+01 -2.04924E+01 -2.07667E+01 -2.04129E+01 -2.06816E+01
  -2.03945E+01 -2.06415E+01 -2.05479E+01 -2.08523E+01 -2.08128E+01 -2.10829E+01 -2.10504E+01 -2.12616E+01 -2.12068E+01 -2.13787E+01
  -2.13158E+01 -2.15075E+01 -2.15811E+01 -2.18444E+01 -2.20084E+01 -2.22997E+01 -2.25063E+01 -2.27892E+01 -2.30145E+01 -2.32283E+01
  -2.35036E+01 -2.36651E+01 -2.39249E+01 -2.39773E+01 -2.41362E+01 -2.37803E+01 -2.38799E+01 -2.35270E+01 -2.36201E+01 -2.32305E+01
  -2.32652E+01 -2.27979E+01 -2.27514E+01 -2.22610E+01 -2.21479E+01 -2.17024E+01 -2.15823E+01 -2.12509E+01 -2.11318E+01 -2.09109E+01
  -2.07801E+01 -2.06680E+01 -2.05442E+01 -2.05768E+01 -2.04788E+01 -2.06507E+01 -2.05748E+01 -2.08265E+01 -2.07186E+01 -2.08150E+01
  -2.06518E+01 -2.08212E+01 -2.06351E+01 -2.08239E+01 -2.05662E+01 -2.06736E+01 -2.03671E+01 -2.05188E+01 -2.02092E+01 -2.04005E+01
  -2.01077E+01 -2.02936E+01 -1.99927E+01 -2.01277E+01 -1.97933E+01 -1.98317E+01 -1.95035E+01 -1.96512E+01 -1.93761E+01 -1.95993E+01
  -1.93723E+01 -1.96301E+01 -1.94559E+01 -1.97226E+01 -1.95936E+01 -1.98628E+01 -1.97771E+01 -2.00357E+01 -1.99732E+01 -2.02020E+01
  -2.01665E+01 -2.03818E+01 -2.03810E+01 -2.05763E+01 -2.05950E+01 -2.07479E+01 -2.07634E+01 -2.08507E+01 -2.08391E+01 -2.08002E+01
  -2.07472E+01 -2.07019E+01 -2.06387E+01 -2.05871E+01 -2.05038E+01 -2.04239E+01 -2.03422E+01 -2.02918E+01 -2.02248E+01 -2.01866E+01
  -2.01249E+01 -2.00641E+01 -1.99894E+01 -1.98971E+01 -1.98106E+01 -1.97118E+01 -1.96238E+01 -1.95471E+01 -1.94517E+01 -1.93848E+01
  -1.92720E+01 -1.91926E+01 -1.90304E+01 -1.89271E+01 -1.87310E+01 -1.86633E+01 -1.85186E+01 -1.85055E+01 -1.84347E+01 -1.85595E+01
  -1.84792E+01 -1.85911E+01 -1.84669E+01 -1.84841E+01 -1.82006E+01 -1.81570E+01 -1.78484E+01 -1.77078E+01 -1.73675E+01 -1.72383E+01
  -1.69473E+01 -1.69595E+01 -1.70356E+01 -1.70264E+01 -1.69073E+01 -1.68441E+01 -1.66564E+01 -1.65768E+01 -1.63676E+01 -1.62907E+01
  -1.60393E+01 -1.59643E+01 -1.56416E+01 -1.55764E+01 -1.51588E+01 -1.51026E+01 -1.45969E+01 -1.45421E+01 -1.39398E+01 -1.38353E+01
  -1.30982E+01 -1.29333E+01 -1.21222E+01 -1.19868E+01 -1.12113E+01 -1.11241E+01 -1.04642E+01 -1.04884E+01 -1.01279E+01 -1.01535E+01
  -9.76600E+00 -9.73360E+00 -9.28275E+00 -9.05935E+00 -8.58886E+00 -8.56652E+00 -8.17390E+00 -8.26845E+00 -7.94053E+00 -8.20546E+00
  -7.90146E+00 -8.39208E+00 -8.17058E+00 -8.71565E+00 -8.29341E+00 -8.87973E+00 -8.29179E+00 -8.89998E+00 -8.18173E+00 -8.81364E+00
  -7.97867E+00 -8.65183E+00 -7.74749E+00 -8.36877E+00 -7.40234E+00 -7.92839E+00 -6.90079E+00 -7.30296E+00 -6.24225E+00 -6.53895E+00
  -5.47943E+00 -5.68908E+00 -4.67319E+00 -4.80441E+00 -3.84743E+00 -3.86291E+00 -2.94248E+00 -2.83167E+00 -2.00458E+00 -1.70797E+00
  -8.52498E-01 -3.92880E-01  4.95570E-01  1.12993E+00  2.03560E+00  2.68753E+00  3.61867E+00  4.35969E+00  5.35206E+00  6.23069E+00
   7.35218E+00  8.42880E+00  9.74018E+00  1.11044E+01  1.26701E+01  1.43491E+01  1.62162E+01  1.82536E+01  2.04734E+01  2.29067E+01
   2.55481E+01  2.84201E+01  3.15333E+01  3.48935E+01  3.84994E+01  4.23454E+01  4.64184E+01  5.07003E+01  5.51629E+01  5.97751E+01
   6.44965E+01  6.92855E+01  7.40950E+01  7.88810E+01  8.35979E+01  8.82093E+01  9.26833E+01  9.70029E+01  1.01162E+02  1.05173E+02
   1.09062E+02  1.12878E+02  1.16686E+02  1.20570E+02  1.24632E+02  1.29002E+02  1.33848E+02  1.39431E+02  1.46250E+02  1.54223E+02
   1.59914E+02  1.67052E+02  1.71927E+02  1.78616E+02  1.82483E+02  1.88128E+02  1.90076E+02  1.96859E+02  1.98869E+02  2.04199E+02
   2.04342E+02  2.07055E+02  2.04945E+02  2.05096E+02  2.01040E+02  1.98684E+02  1.92906E+02  1.87935E+02  1.81329E+02  1.74830E+02
   1.66710E+02  1.57730E+02  1.49209E+02  1.39207E+02  1.30812E+02  1.19874E+02  1.11554E+02  1.01694E+02  9.41440E+01  8.47043E+01
   7.77269E+01  6.93378E+01  6.34778E+01  5.68203E+01  5.22558E+01  4.73857E+01  4.38474E+01  4.04492E+01  3.79189E+01  3.59274E+01
   3.29454E+01  3.09773E+01  2.78445E+01  2.63522E+01  2.31612E+01  2.17910E+01  1.85890E+01  1.82690E+01  1.62440E+01  1.61433E+01
   1.46654E+01  1.46999E+01  1.36766E+01  1.37987E+01  1.31298E+01  1.32157E+01  1.28000E+01  1.28299E+01  1.26894E+01  1.28449E+01
   1.23987E+01  1.19256E+01  1.13075E+01  1.04650E+01  9.76461E+00  8.69262E+00  8.02383E+00  7.57602E+00  7.24785E+00  7.00358E+00
   6.82509E+00  6.70326E+00  6.63088E+00  6.60375E+00  6.61677E+00  6.66629E+00  6.74691E+00  6.85433E+00  6.98241E+00  7.12615E+00
   7.27870E+00  7.43437E+00  7.58583E+00  7.72717E+00  7.85120E+00  7.95242E+00  8.02419E+00  8.06183E+00  8.05980E+00  8.01474E+00
   7.92270E+00  7.78207E+00  7.59064E+00  7.34858E+00  7.05553E+00  6.71351E+00  6.32391E+00  5.89032E+00  5.41545E+00  4.90402E+00
   4.35969E+00  3.78793E+00  3.19284E+00  2.58005E+00  1.95361E+00  1.31887E+00  6.79472E-01  4.02489E-02 -5.95849E-01 -1.22481E+00
  -1.84453E+00 -2.45186E+00 -3.04552E+00 -3.62315E+00 -4.18426E+00 -4.72727E+00 -5.25238E+00 -5.75855E+00 -6.24649E+00 -6.71558E+00
  -7.16693E+00 -7.60025E+00 -8.01689E+00 -8.41672E+00 -8.80121E+00 -9.17032E+00 -9.52559E+00 -9.86704E+00 -1.01962E+01 -1.05131E+01
  -1.08191E+01 -1.11142E+01 -1.13998E+01 -1.16760E+01 -1.19439E+01 -1.22034E+01 -1.24559E+01 -1.27010E+01 -1.29400E+01 -1.31726E+01
  -1.34000E+01 -1.36218E+01 -1.38391E+01 -1.40515E+01 -1.42600E+01 -1.44643E+01 -1.46654E+01 -1.48626E+01 -1.50571E+01 -1.52482E+01
  -1.54371E+01 -1.56230E+01 -1.58069E+01 -1.59882E+01 -1.61679E+01 -1.63452E+01 -1.65212E+01 -1.66952E+01 -1.68680E+01 -1.70390E+01
  -1.72090E+01 -1.73775E+01 -1.75451E+01 -1.77114E+01 -1.78770E+01 -1.80412E+01 -1.82051E+01 -1.83677E+01 -1.85300E+01 -1.86912E+01
  -1.88521E+01 -1.90121E+01 -1.91719E+01 -1.93307E+01 -1.94895E+01 -1.96474E+01 -1.98053E+01 -1.99624E+01 -2.01195E+01 -2.02758E+01
  -2.04321E+01 -2.05877E+01 -2.07432E+01 -2.08980E+01 -2.10528E+01 -2.12067E+01 -2.13604E+01 -2.15130E+01
 NY background values follow
    -3.161E+01   -3.158E+01   -3.155E+01   -3.152E+01   -3.149E+01   -3.146E+01   -3.143E+01   -3.140E+01   -3.137E+01   -3.134E+01
    -3.131E+01   -3.128E+01   -3.125E+01   -3.122E+01   -3.119E+01   -3.116E+01   -3.113E+01   -3.110E+01   -3.108E+01   -3.105E+01
    -3.102E+01   -3.099E+01   -3.096E+01   -3.093E+01   -3.090E+01   -3.087E+01   -3.084E+01   -3.081E+01   -3.078E+01   -3.075E+01
    -3.072E+01   -3.069E+01   -3.066E+01   -3.064E+01   -3.061E+01   -3.058E+01   -3.055E+01   -3.052E+01   -3.049E+01   -3.046E+01
    -3.043E+01   -3.040E+01   -3.036E+01   -3.033E+01   -3.030E+01   -3.027E+01   -3.024E+01   -3.021E+01   -3.018E+01   -3.015E+01
    -3.012E+01   -3.008E+01   -3.005E+01   -3.002E+01   -2.999E+01   -2.995E+01   -2.992E+01   -2.989E+01   -2.985E+01   -2.982E+01
    -2.979E+01   -2.975E+01   -2.972E+01   -2.968E+01   -2.965E+01   -2.961E+01   -2.957E+01   -2.954E+01   -2.950E+01   -2.947E+01
    -2.943E+01   -2.939E+01   -2.935E+01   -2.932E+01   -2.928E+01   -2.924E+01   -2.920E+01   -2.916E+01   -2.912E+01   -2.908E+01
    -2.904E+01   -2.900E+01   -2.896E+01   -2.891E+01   -2.887E+01   -2.883E+01   -2.878E+01   -2.874E+01   -2.870E+01   -2.865E+01
    -2.861E+01   -2.856E+01   -2.852E+01   -2.847E+01   -2.842E+01   -2.837E+01   -2.833E+01   -2.828E+01   -2.823E+01   -2.818E+01
    -2.813E+01   -2.808E+01   -2.803E+01   -2.797E+01   -2.792E+01   -2.787E+01   -2.781E+01   -2.776E+01   -2.770E+01   -2.765E+01
    -2.759E+01   -2.754E+01   -2.748E+01   -2.742E+01   -2.736E+01   -2.730E+01   -2.724E+01   -2.718E+01   -2.712E+01   -2.706E+01
    -2.700E+01   -2.693E+01   -2.687E+01   -2.680E+01   -2.674E+01   -2.667E+01   -2.661E+01   -2.654E+01   -2.647E+01   -2.640E+01
    -2.633E+01   -2.626E+01   -2.619E+01   -2.612E+01   -2.604E+01   -2.597E+01   -2.590E+01   -2.582E+01   -2.575E+01   -2.567E+01
    -2.560E+01   -2.552E+01   -2.544E+01   -2.537E+01   -2.529E+01   -2.521E+01   -2.513E+01   -2.505E+01   -2.497E+01   -2.489E+01
    -2.481E+01   -2.472E+01   -2.464E+01   -2.456E+01   -2.448E+01   -2.439E+01   -2.431E+01   -2.422E+01   -2.414E+01   -2.405E+01
    -2.397E+01   -2.388E+01   -2.379E+01   -2.371E+01   -2.362E+01   -2.353E+01   -2.344E+01   -2.336E+01   -2.327E+01   -2.318E+01
    -2.309E+01   -2.300E+01   -2.291E+01   -2.282E+01   -2.273E+01   -2.264E+01   -2.255E+01   -2.246E+01   -2.236E+01   -2.227E+01
    -2.218E+01   -2.209E+01   -2.200E+01   -2.190E+01   -2.181E+01   -2.172E+01   -2.163E+01   -2.153E+01   -2.144E+01   -2.135E+01
    -2.125E+01   -2.116E+01   -2.106E+01   -2.097E+01   -2.088E+01   -2.078E+01   -2.069E+01   -2.060E+01   -2.050E+01   -2.041E+01
    -2.031E+01   -2.022E+01   -2.012E+01   -2.003E+01   -1.994E+01   -1.984E+01   -1.975E+01   -1.965E+01   -1.956E+01   -1.947E+01
    -1.937E+01   -1.928E+01   -1.919E+01   -1.909E+01   -1.900E+01   -1.891E+01   -1.881E+01   -1.872E+01   -1.863E+01   -1.853E+01
    -1.844E+01   -1.835E+01   -1.826E+01   -1.817E+01   -1.807E+01   -1.798E+01   -1.789E+01   -1.780E+01   -1.771E+01   -1.762E+01
    -1.753E+01   -1.744E+01   -1.735E+01   -1.726E+01   -1.717E+01   -1.708E+01   -1.699E+01   -1.691E+01   -1.682E+01   -1.673E+01
    -1.664E+01   -1.656E+01   -1.647E+01   -1.638E+01   -1.630E+01   -1.621E+01   -1.613E+01   -1.604E+01   -1.596E+01   -1.588E+01
    -1.579E+01   -1.571E+01   -1.563E+01   -1.555E+01   -1.547E+01   -1.539E+01   -1.531E+01   -1.523E+01   -1.515E+01   -1.507E+01
    -1.499E+01   -1.492E+01   -1.484E+01   -1.476E+01   -1.469E+01   -1.461E+01   -1.454E+01   -1.446E+01   -1.439E+01   -1.432E+01
    -1.424E+01   -1.417E+01   -1.410E+01   -1.403E+01   -1.396E+01   -1.389E+01   -1.382E+01   -1.376E+01   -1.369E+01   -1.362E+01
    -1.356E+01   -1.349E+01   -1.343E+01   -1.336E+01   -1.330E+01   -1.324E+01   -1.318E+01   -1.312E+01   -1.306E+01   -1.300E+01
    -1.294E+01   -1.288E+01   -1.282E+01   -1.277E+01   -1.271E+01   -1.266E+01   -1.260E+01   -1.255E+01   -1.250E+01   -1.245E+01
    -1.240E+01   -1.235E+01   -1.230E+01   -1.225E+01   -1.220E+01   -1.215E+01   -1.211E+01   -1.206E+01   -1.202E+01   -1.198E+01
    -1.193E+01   -1.189E+01   -1.185E+01   -1.181E+01   -1.178E+01   -1.174E+01   -1.170E+01   -1.167E+01   -1.163E+01   -1.160E+01
    -1.156E+01   -1.153E+01   -1.150E+01   -1.147E+01   -1.144E+01   -1.142E+01   -1.139E+01   -1.136E+01   -1.134E+01   -1.131E+01
    -1.129E+01   -1.127E+01   -1.125E+01   -1.123E+01   -1.121E+01   -1.119E+01   -1.118E+01   -1.116E+01   -1.115E+01   -1.114E+01
    -1.112E+01   -1.111E+01   -1.110E+01   -1.109E+01   -1.109E+01   -1.108E+01   -1.108E+01   -1.107E+01   -1.107E+01   -1.107E+01
    -1.107E+01   -1.107E+01   -1.107E+01   -1.107E+01   -1.108E+01   -1.108E+01   -1.109E+01   -1.110E+01   -1.111E+01   -1.112E+01
    -1.113E+01   -1.114E+01   -1.116E+01   -1.117E+01   -1.119E+01   -1.121E+01   -1.123E+01   -1.125E+01   -1.127E+01   -1.129E+01
    -1.132E+01   -1.135E+01   -1.137E+01   -1.140E+01   -1.143E+01   -1.146E+01   -1.150E+01   -1.153E+01   -1.157E+01   -1.160E+01
    -1.164E+01   -1.168E+01   -1.172E+01   -1.176E+01   -1.181E+01   -1.185E+01   -1.190E+01   -1.195E+01   -1.199E+01   -1.204E+01
    -1.209E+01   -1.215E+01   -1.220E+01   -1.225E+01   -1.231E+01   -1.237E+01   -1.242E+01   -1.248E+01   -1.254E+01   -1.261E+01
    -1.267E+01   -1.273E+01   -1.280E+01   -1.286E+01   -1.293E+01   -1.300E+01   -1.307E+01   -1.314E+01   -1.321E+01   -1.328E+01
    -1.336E+01   -1.343E+01   -1.351E+01   -1.359E+01   -1.366E+01   -1.374E+01   -1.382E+01   -1.391E+01   -1.399E+01   -1.407E+01
    -1.416E+01   -1.424E+01   -1.433E+01   -1.441E+01   -1.450E+01   -1.459E+01   -1.468E+01   -1.477E+01   -1.487E+01   -1.496E+01
    -1.505E+01   -1.515E+01   -1.524E+01   -1.534E+01   -1.544E+01   -1.554E+01   -1.564E+01   -1.574E+01   -1.584E+01   -1.594E+01
    -1.604E+01   -1.614E+01   -1.625E+01   -1.635E+01   -1.646E+01   -1.657E+01   -1.668E+01   -1.678E+01   -1.689E+01   -1.700E+01
    -1.711E+01   -1.723E+01   -1.734E+01   -1.745E+01   -1.757E+01   -1.768E+01   -1.780E+01   -1.791E+01   -1.803E+01   -1.815E+01
    -1.826E+01   -1.838E+01   -1.850E+01   -1.862E+01   -1.874E+01   -1.886E+01   -1.899E+01   -1.911E+01   -1.923E+01   -1.936E+01
    -1.948E+01   -1.961E+01   -1.973E+01   -1.986E+01   -1.999E+01   -2.012E+01   -2.024E+01   -2.037E+01   -2.050E+01   -2.063E+01
    -2.076E+01   -2.089E+01   -2.102E+01   -2.116E+01   -2.129E+01   -2.142E+01   -2.156E+01   -2.169E+01   -2.182E+01   -2.196E+01
    -2.210E+01   -2.223E+01   -2.237E+01   -2.250E+01   -2.264E+01   -2.278E+01   -2.292E+01   -2.306E+01
 Ala      Conc. = 9.83E+03
