 LCModel (Version 6.3-1L) Copyright: S.W. Provencher.          Ref.: Magn. Reson. Med. 30:672-679 (1993).                
 Slice#1 Row#7 Col#12  PD_24_press_2_raw_act
 36 lines in following concentration table = NCONC+1
    Conc.  %SD /Cr+PCr  Metabolite                                         
  344.024  64%   0.000 Ala                                                 
   84.560  69%   0.000 Asp                                                 
    0.000 999%   0.000 Cr                                                  
    0.000 999%   0.000 PCr                                                 
   35.797  98%   0.000 GABA                                                
   43.758  80%   0.000 Glc                                                 
    0.000 999%   0.000 Gln                                                 
  551.828  81%   0.000 Glu                                                 
    0.000 999%   0.000 GPC                                                 
    0.000 999%   0.000 PCh                                                 
    0.000 999%   0.000 GSH                                                 
  128.803 165%   0.000 Ins                                                 
    0.000 999%   0.000 Lac                                                 
 1.35E+03   7%   0.000 NAA                                                 
    0.000 999%   0.000 NAAG                                                
   18.464  59%   0.000 Scyllo                                              
   79.233  71%   0.000 Tau                                                 
    0.498 890%   0.000 -CrCH2                                              
    0.000 999%   0.000 GPC+PCh                                             
 1.35E+03   7%   0.000 NAA+NAAG                                            
    0.000 999%   0.000 Cr+PCr                                              
  551.828  81%   0.000 Glu+Gln                                             
 1.30E+04   5%   0.000 Lip13a                                              
    0.000 999%   0.000 Lip13b                                              
 4.73E+03  10%   0.000 Lip09                                               
   92.991 406%   0.000 MM09                                                
 2.37E+03  16%   0.000 Lip20                                               
  242.939 167%   0.000 MM20                                                
    0.000 999%   0.000 MM12                                                
    0.000 999%   0.000 MM14                                                
 2.27E+03  10%   0.000 MM17                                                
 1.30E+04   5%   0.000 Lip13a+Lip13b                                       
 1.30E+04   5%   0.000 MM14+Lip13a+Lip13b+MM12                             
 4.82E+03   7%   0.000 MM09+Lip09                                          
 2.61E+03  15%   0.000 MM20+Lip20                                          
   6 lines in following misc. output table
  FWHM = 0.092 ppm    S/N =   6                                            
  Data shift = 0.000 ppm                                                   
  Ph:  29 deg       8.5 deg/ppm                                            
  alphaB,S = 8.5E+01,   1.0E+02                                            
   14 spline knots.   Ns = 6(2)                                            
   2 inflections.     1 extrema                                            
  498 points on ppm-axis = NY
      4.000000     3.992357     3.984714     3.977070     3.969427     3.961784     3.954141     3.946497     3.938854     3.931211
      3.923568     3.915925     3.908281     3.900638     3.892995     3.885352     3.877708     3.870065     3.862422     3.854779
      3.847136     3.839492     3.831849     3.824206     3.816563     3.808919     3.801276     3.793633     3.785990     3.778347
      3.770703     3.763060     3.755417     3.747774     3.740130     3.732487     3.724844     3.717201     3.709558     3.701914
      3.694271     3.686628     3.678985     3.671341     3.663698     3.656055     3.648412     3.640769     3.633125     3.625482
      3.617839     3.610196     3.602552     3.594909     3.587266     3.579623     3.571980     3.564336     3.556693     3.549050
      3.541407     3.533763     3.526120     3.518477     3.510834     3.503191     3.495547     3.487904     3.480261     3.472618
      3.464974     3.457331     3.449688     3.442045     3.434402     3.426758     3.419115     3.411472     3.403829     3.396185
      3.388542     3.380899     3.373256     3.365613     3.357969     3.350326     3.342683     3.335040     3.327396     3.319753
      3.312110     3.304467     3.296824     3.289180     3.281537     3.273894     3.266251     3.258607     3.250964     3.243321
      3.235678     3.228034     3.220391     3.212748     3.205105     3.197462     3.189818     3.182175     3.174532     3.166889
      3.159245     3.151602     3.143959     3.136316     3.128673     3.121029     3.113386     3.105743     3.098100     3.090456
      3.082813     3.075170     3.067527     3.059884     3.052240     3.044597     3.036954     3.029311     3.021667     3.014024
      3.006381     2.998738     2.991095     2.983451     2.975808     2.968165     2.960522     2.952878     2.945235     2.937592
      2.929949     2.922306     2.914662     2.907019     2.899376     2.891733     2.884089     2.876446     2.868803     2.861160
      2.853517     2.845873     2.838230     2.830587     2.822944     2.815300     2.807657     2.800014     2.792371     2.784728
      2.777084     2.769441     2.761798     2.754155     2.746511     2.738868     2.731225     2.723582     2.715939     2.708295
      2.700652     2.693009     2.685366     2.677722     2.670079     2.662436     2.654793     2.647150     2.639506     2.631863
      2.624220     2.616577     2.608933     2.601290     2.593647     2.586004     2.578361     2.570717     2.563074     2.555431
      2.547788     2.540144     2.532501     2.524858     2.517215     2.509572     2.501928     2.494285     2.486642     2.478999
      2.471355     2.463712     2.456069     2.448426     2.440783     2.433139     2.425496     2.417853     2.410210     2.402566
      2.394923     2.387280     2.379637     2.371994     2.364350     2.356707     2.349064     2.341421     2.333777     2.326134
      2.318491     2.310848     2.303205     2.295561     2.287918     2.280275     2.272632     2.264988     2.257345     2.249702
      2.242059     2.234416     2.226772     2.219129     2.211486     2.203843     2.196199     2.188556     2.180913     2.173270
      2.165627     2.157983     2.150340     2.142697     2.135054     2.127410     2.119767     2.112124     2.104481     2.096838
      2.089194     2.081551     2.073908     2.066265     2.058621     2.050978     2.043335     2.035692     2.028049     2.020405
      2.012762     2.005119     1.997476     1.989833     1.982190     1.974546     1.966903     1.959260     1.951617     1.943974
      1.936331     1.928688     1.921045     1.913402     1.905759     1.898115     1.890472     1.882829     1.875186     1.867543
      1.859900     1.852257     1.844614     1.836971     1.829327     1.821684     1.814041     1.806398     1.798755     1.791112
      1.783469     1.775826     1.768183     1.760540     1.752896     1.745253     1.737610     1.729967     1.722324     1.714681
      1.707038     1.699395     1.691752     1.684108     1.676465     1.668822     1.661179     1.653536     1.645893     1.638250
      1.630607     1.622964     1.615321     1.607677     1.600034     1.592391     1.584748     1.577105     1.569462     1.561819
      1.554176     1.546533     1.538890     1.531246     1.523603     1.515960     1.508317     1.500674     1.493031     1.485388
      1.477745     1.470102     1.462458     1.454815     1.447172     1.439529     1.431886     1.424243     1.416600     1.408957
      1.401314     1.393671     1.386027     1.378384     1.370741     1.363098     1.355455     1.347812     1.340169     1.332526
      1.324883     1.317240     1.309596     1.301953     1.294310     1.286667     1.279024     1.271381     1.263738     1.256095
      1.248452     1.240808     1.233165     1.225522     1.217879     1.210236     1.202593     1.194950     1.187307     1.179664
      1.172021     1.164377     1.156734     1.149091     1.141448     1.133805     1.126162     1.118519     1.110876     1.103233
      1.095590     1.087946     1.080303     1.072660     1.065017     1.057374     1.049731     1.042088     1.034445     1.026802
      1.019158     1.011515     1.003872     0.996229     0.988586     0.980943     0.973300     0.965657     0.958014     0.950371
      0.942727     0.935084     0.927441     0.919798     0.912155     0.904512     0.896869     0.889226     0.881583     0.873940
      0.866296     0.858653     0.851010     0.843367     0.835724     0.828081     0.820438     0.812795     0.805152     0.797508
      0.789865     0.782222     0.774579     0.766936     0.759293     0.751650     0.744007     0.736364     0.728721     0.721077
      0.713434     0.705791     0.698148     0.690505     0.682862     0.675219     0.667576     0.659933     0.652290     0.644646
      0.637003     0.629360     0.621717     0.614074     0.606431     0.598788     0.591145     0.583502     0.575858     0.568215
      0.560572     0.552929     0.545286     0.537643     0.530000     0.522357     0.514714     0.507071     0.499427     0.491784
      0.484141     0.476498     0.468855     0.461212     0.453569     0.445925     0.438282     0.430639     0.422996     0.415353
      0.407710     0.400067     0.392424     0.384780     0.377137     0.369494     0.361851     0.354208     0.346565     0.338922
      0.331278     0.323635     0.315992     0.308349     0.300706     0.293063     0.285420     0.277777     0.270133     0.262490
      0.254847     0.247204     0.239561     0.231918     0.224275     0.216631     0.208988     0.201345
 NY phased data points follow
  -1.74995E+00  5.85301E+00  2.88208E+00  2.41835E+00  2.23934E+00 -8.07633E-01  6.23276E-02 -1.92157E+00 -4.28195E-02  2.53590E+00
   2.92000E-01  1.01784E+00 -3.13677E+00 -5.44769E+00 -4.06096E+00  3.25540E+00 -2.28423E+00  3.81024E+00  3.01588E+00  3.22992E-02
  -3.28643E+00 -5.32469E+00 -2.19719E-01  3.90761E+00  2.39022E+00 -1.63927E+00 -1.81235E-01  6.35223E+00  2.69905E+00  5.83022E+00
   1.98387E+00 -9.37797E-01  7.25958E-02  1.17582E+00  1.10142E+00  4.25951E+00  9.65381E-01  4.14853E-02  6.37161E-01  2.29030E+00
   3.45177E+00  5.41090E+00  2.15905E-01  7.96507E+00 -3.21915E+00  3.02379E+00  5.06044E+00 -1.38554E+00  6.10198E-02 -1.03272E-01
  -2.05302E+00 -2.34052E+00  5.62415E+00  2.22307E+00 -5.91569E-01  3.29933E+00  1.09295E+00  3.45467E+00 -4.23756E+00  2.31032E+00
  -3.49402E+00  4.48768E-01  2.01618E+00  5.76335E+00  2.73882E+00  2.91303E+00  2.53364E+00  6.05917E+00  3.83910E+00  3.02581E+00
   1.31070E+00  4.61377E+00  4.81698E-01  1.29241E+00  3.54180E+00 -1.94348E+00  2.04885E+00  2.21283E-01  1.60860E+00  2.89099E+00
   2.86575E+00  3.01462E+00  1.99517E+00  5.40969E+00 -4.43752E-01  1.26427E+00 -1.35655E+00  1.12916E+00  6.93116E+00  3.33854E+00
   1.72446E+00  2.98436E+00  3.28836E+00 -3.52909E+00  3.21114E+00  3.19813E+00  3.59402E+00  3.70479E+00  3.82891E+00  5.30504E+00
   4.43446E+00  2.60200E-01 -3.18440E+00 -3.90856E+00 -6.21408E+00 -4.05126E+00 -2.88196E+00 -4.64624E+00  5.37395E-01  4.88947E+00
   2.04789E+00 -1.90787E+00  1.40646E-01  3.06692E+00  1.12378E+00 -3.38621E+00 -4.39822E-01  3.14966E+00  2.97243E+00  8.77207E+00
  -1.73488E+00  5.86881E+00  7.42620E+00  2.95485E-01  2.76054E-01  2.32794E+00 -2.00584E+00 -2.34186E+00 -4.52179E+00  4.62166E-01
  -4.24616E-01  5.02054E-01  4.38065E+00  2.00171E+00  7.33974E+00 -2.18637E+00  1.61166E+00  4.82089E+00  4.95880E+00  2.19813E+00
   3.49959E+00 -1.39733E+00  6.55612E+00  2.69282E+00  1.43355E+00  4.08153E+00  1.03141E+00  2.31876E+00  1.46202E+00  2.99070E+00
   2.80218E+00  2.16536E+00  4.65849E+00  5.04166E-01  4.34396E+00  8.22294E+00  3.96292E+00 -1.15135E+00  1.14873E+00 -2.19054E-01
   3.38733E+00 -1.19901E+00  3.83692E+00  3.48194E+00  4.46279E+00  2.57935E+00  6.41794E+00  6.71815E+00 -1.82284E+00 -1.51194E+00
   3.10520E+00  2.01265E+00  1.67726E+00  3.83373E+00  1.98126E+00  5.23256E-01  2.40742E+00  1.67764E+00  3.62314E+00  5.64982E+00
   1.51225E+00  3.85565E-01  6.57046E+00  1.63739E+00  2.88041E+00  3.59753E+00  2.07877E-01  1.06375E+00  3.76472E+00  6.97211E+00
   3.19778E+00  5.01775E-01 -3.44892E+00  3.33944E+00  2.35930E+00  2.96582E+00  4.60214E+00  5.03985E+00  9.99724E-01  1.27206E+00
   3.43666E+00  8.83750E-01  2.50357E+00  4.31280E+00  1.39268E+00  1.85091E+00  2.92403E+00  3.27592E+00  3.53373E+00  1.86929E+00
   2.23979E+00  3.92112E+00  5.30112E+00  2.81053E+00  5.15080E+00  4.40646E+00  4.25409E+00  3.06909E-01 -1.94594E+00  1.91285E+00
   5.12849E+00 -6.11237E-01  1.28437E+00  5.60942E+00  6.43505E+00  7.23016E+00  3.28051E+00  5.04129E+00  7.42510E+00  7.99195E+00
   9.09210E+00  5.65822E+00  5.26569E+00  1.55302E+00  6.52381E+00  2.12666E+00  6.37004E+00  8.29462E+00  8.67166E+00  6.59722E+00
   7.66785E+00  7.09443E+00  1.25106E+01  1.09256E+01  9.91428E+00  1.09386E+01  1.39025E+01  8.35964E+00  7.98846E+00  1.31260E+01
   1.30080E+01  1.41423E+01  1.46342E+01  2.19830E+01  2.72813E+01  3.19309E+01  3.31787E+01  3.92157E+01  4.14050E+01  3.99708E+01
   3.39461E+01  2.91182E+01  2.67699E+01  2.33611E+01  2.15537E+01  2.40592E+01  1.72296E+01  1.59666E+01  9.82708E+00  4.08543E+00
   1.20252E+01  1.22761E+01 -1.95754E-01  5.17538E+00  3.03050E+00  7.99410E+00  7.91947E+00  5.12010E+00  3.81319E+00  3.19222E+00
   5.23436E+00  1.89230E+00  2.90453E+00  5.87386E+00  2.13050E+00  6.17811E+00  3.99269E+00  6.96619E+00  3.74881E+00  8.93859E+00
   8.55611E+00  5.41123E-01  6.31846E+00  8.14745E+00  3.43863E+00  4.44884E+00  7.43213E+00  7.28012E+00  1.34982E+01  9.52602E+00
   9.46940E+00  1.18504E+01  9.03185E+00  1.49454E+01  1.58680E+01  1.33107E+01  1.73265E+01  2.13756E+01  1.87675E+01  2.40972E+01
   2.03952E+01  2.52655E+01  2.18785E+01  2.79124E+01  2.70830E+01  2.59461E+01  2.39741E+01  2.44237E+01  2.47413E+01  2.37552E+01
   1.79101E+01  2.19848E+01  2.42858E+01  1.75073E+01  2.31021E+01  2.05582E+01  1.48627E+01  1.65066E+01  1.28980E+01  2.11296E+01
   1.31631E+01  1.43484E+01  1.52508E+01  1.85070E+01  1.68795E+01  1.18367E+01  1.67220E+01  2.27719E+01  2.28340E+01  2.02701E+01
   1.96658E+01  2.21825E+01  2.54540E+01  2.41572E+01  2.54405E+01  2.63552E+01  2.43871E+01  2.70664E+01  2.42812E+01  2.52645E+01
   2.62703E+01  2.50112E+01  2.71790E+01  2.56084E+01  3.06038E+01  2.55336E+01  3.11881E+01  2.93453E+01  2.65215E+01  2.33260E+01
   2.50138E+01  2.67086E+01  2.47649E+01  2.87546E+01  2.63795E+01  2.77727E+01  2.27582E+01  2.53514E+01  2.20638E+01  2.70086E+01
   2.42697E+01  2.81858E+01  2.54917E+01  2.68328E+01  2.31694E+01  2.36665E+01  1.97887E+01  2.36666E+01  1.84141E+01  2.05719E+01
   1.91425E+01  2.22497E+01  2.26424E+01  1.98693E+01  2.53766E+01  2.08522E+01  1.91267E+01  2.08439E+01  1.91734E+01  2.18254E+01
   2.35461E+01  1.97658E+01  1.98769E+01  2.45154E+01  2.10719E+01  2.19750E+01  2.03529E+01  2.23172E+01  1.88042E+01  2.66284E+01
   2.51285E+01  2.23229E+01  2.17420E+01  2.48608E+01  2.20785E+01  1.74002E+01  1.66924E+01  1.95249E+01  2.02108E+01  1.76529E+01
   1.59484E+01  1.31703E+01  1.87633E+01  1.23971E+01  1.84694E+01  1.40923E+01  1.62166E+01  6.83671E+00  1.34185E+01  7.48906E+00
   6.31056E+00  1.01366E+01  7.05591E+00  8.19768E+00  1.28958E+01  5.85574E+00  7.00694E+00  3.64328E+00  3.50673E-01  6.05848E+00
   6.18574E-01  6.37824E+00 -9.85821E-01  4.68660E+00 -2.84011E-02  6.65966E+00  3.05885E+00  8.84928E-02 -9.04243E-01 -1.83365E+00
  -2.11979E+00  1.51166E-01 -1.72071E+00 -3.93985E+00 -1.19139E+00 -2.60534E+00 -4.87719E-01 -1.99102E+00 -3.83968E+00  9.95420E-01
  -3.68680E+00  8.63922E-02 -9.15093E-01 -2.36426E+00 -6.11247E+00 -2.32179E+00 -5.99068E+00 -4.04579E+00 -3.43764E+00 -2.60425E+00
  -4.34959E+00 -6.37315E+00 -5.98208E+00 -3.85233E+00 -6.08774E+00 -5.70148E+00 -2.88490E+00 -6.39703E+00 -3.06644E+00 -8.72450E+00
  -6.76733E+00 -7.87636E+00 -7.64661E+00 -7.31408E+00 -6.34914E+00 -7.38039E+00 -8.86565E+00 -4.27551E+00 -5.41206E+00 -9.44670E+00
  -6.98546E+00 -5.75882E+00 -5.41274E+00 -7.61945E+00 -3.23858E+00 -3.66234E+00 -1.10321E+01 -6.32740E+00 -7.12333E+00 -3.92493E+00
  -8.41082E+00 -6.81333E+00 -5.41285E+00 -1.40175E+01 -8.42507E+00 -5.96346E+00 -6.17355E+00 -1.32741E+01
 NY points of the fit to the data follow
   1.91061E+00  1.85959E+00  1.79549E+00  1.75208E+00  1.69350E+00  1.65027E+00  1.60217E+00  1.55976E+00  1.51814E+00  1.48670E+00
   1.44740E+00  1.44492E+00  1.41970E+00  1.48745E+00  1.48016E+00  1.63063E+00  1.60671E+00  1.82046E+00  1.71807E+00  1.94341E+00
   1.70177E+00  1.93816E+00  1.56327E+00  1.82932E+00  1.39630E+00  1.73382E+00  1.35892E+00  1.77511E+00  1.50783E+00  1.92500E+00
   1.71865E+00  2.01956E+00  1.82685E+00  1.94693E+00  1.79324E+00  1.80033E+00  1.74206E+00  1.70378E+00  1.74272E+00  1.69679E+00
   1.78855E+00  1.73972E+00  1.83092E+00  1.78524E+00  1.84665E+00  1.77528E+00  1.78530E+00  1.70749E+00  1.68621E+00  1.62546E+00
   1.59903E+00  1.55703E+00  1.52618E+00  1.49813E+00  1.47277E+00  1.45493E+00  1.44195E+00  1.43683E+00  1.42769E+00  1.42613E+00
   1.40700E+00  1.41955E+00  1.39280E+00  1.43575E+00  1.40739E+00  1.46975E+00  1.44315E+00  1.50859E+00  1.48963E+00  1.54413E+00
   1.53738E+00  1.56326E+00  1.55647E+00  1.55064E+00  1.56491E+00  1.53537E+00  1.58203E+00  1.54544E+00  1.62956E+00  1.59298E+00
   1.70029E+00  1.64759E+00  1.73350E+00  1.65392E+00  1.68447E+00  1.58309E+00  1.56106E+00  1.45181E+00  1.40192E+00  1.30934E+00
   1.25212E+00  1.18554E+00  1.12102E+00  1.08576E+00  1.01255E+00  1.00748E+00  9.39066E-01  9.48625E-01  8.80189E-01  8.94928E-01
   8.55297E-01  8.72327E-01  8.65231E-01  8.74687E-01  8.84460E-01  8.80566E-01  9.04792E-01  8.90693E-01  9.19388E-01  9.04002E-01
   9.27171E-01  9.11861E-01  9.32339E-01  9.21303E-01  9.37202E-01  9.36862E-01  9.52356E-01  9.61404E-01  9.87284E-01  1.00928E+00
   1.05003E+00  1.08642E+00  1.14173E+00  1.18787E+00  1.25337E+00  1.30148E+00  1.37031E+00  1.41638E+00  1.48691E+00  1.53223E+00
   1.60344E+00  1.65360E+00  1.72937E+00  1.79192E+00  1.87555E+00  1.95493E+00  2.04585E+00  2.14106E+00  2.24235E+00  2.34788E+00
   2.46093E+00  2.57225E+00  2.69122E+00  2.80284E+00  2.91842E+00  3.02615E+00  3.13350E+00  3.23455E+00  3.32112E+00  3.38018E+00
   3.44181E+00  3.43519E+00  3.48264E+00  3.41361E+00  3.44342E+00  3.32710E+00  3.34021E+00  3.22504E+00  3.20463E+00  3.13306E+00
   3.04685E+00  3.01639E+00  2.83028E+00  2.77799E+00  2.47539E+00  2.36575E+00  2.02114E+00  1.87499E+00  1.53657E+00  1.34370E+00
   1.06313E+00  8.15636E-01  6.73129E-01  3.92091E-01  4.02862E-01  7.61689E-02  2.24677E-01 -1.17292E-01  1.32656E-01 -1.51795E-01
   1.71833E-01 -6.32322E-03  3.77429E-01  3.12256E-01  7.34874E-01  7.90505E-01  1.18898E+00  1.35655E+00  1.67333E+00  1.88934E+00
   2.05630E+00  2.29269E+00  2.33950E+00  2.59116E+00  2.55870E+00  2.76543E+00  2.71486E+00  2.83349E+00  2.84711E+00  2.87539E+00
   2.91136E+00  2.79175E+00  2.81482E+00  2.58771E+00  2.64862E+00  2.38697E+00  2.56966E+00  2.32028E+00  2.69795E+00  2.42669E+00
   2.95234E+00  2.60134E+00  3.13478E+00  2.70633E+00  3.09860E+00  2.63672E+00  2.87302E+00  2.55648E+00  2.78883E+00  2.75526E+00
   3.05936E+00  3.29779E+00  3.64162E+00  4.04046E+00  4.35217E+00  4.80343E+00  5.05909E+00  5.47010E+00  5.66343E+00  6.02817E+00
   6.18243E+00  6.46785E+00  6.57170E+00  6.75273E+00  6.84407E+00  6.93653E+00  7.05229E+00  7.08193E+00  7.28444E+00  7.29925E+00
   7.61493E+00  7.65495E+00  8.04223E+00  8.12833E+00  8.54301E+00  8.70270E+00  9.17397E+00  9.67734E+00  1.11130E+01  1.23590E+01
   1.49448E+01  1.70731E+01  2.07327E+01  2.36074E+01  2.75237E+01  3.05663E+01  3.30801E+01  3.54251E+01  3.52559E+01  3.62799E+01
   3.32049E+01  3.29506E+01  2.84754E+01  2.74951E+01  2.28476E+01  2.15425E+01  1.71669E+01  1.57841E+01  1.21596E+01  1.09965E+01
   8.63161E+00  7.77778E+00  6.11113E+00  5.52578E+00  4.78174E+00  4.51060E+00  4.35253E+00  4.24534E+00  4.15680E+00  4.08454E+00
   4.04318E+00  4.00787E+00  4.00755E+00  4.01649E+00  4.06030E+00  4.11662E+00  4.20802E+00  4.32228E+00  4.47338E+00  4.65995E+00
   4.88844E+00  5.16542E+00  5.49392E+00  5.88612E+00  6.34237E+00  6.87796E+00  7.49204E+00  8.19778E+00  8.99285E+00  9.88483E+00
   1.08670E+01  1.19381E+01  1.30849E+01  1.42955E+01  1.55487E+01  1.68226E+01  1.80892E+01  1.93194E+01  2.04823E+01  2.15481E+01
   2.24895E+01  2.32840E+01  2.39167E+01  2.43847E+01  2.47074E+01  2.48743E+01  2.48038E+01  2.47031E+01  2.41890E+01  2.38852E+01
   2.28692E+01  2.23994E+01  2.08752E+01  2.04035E+01  1.85826E+01  1.82907E+01  1.65169E+01  1.66259E+01  1.52913E+01  1.59546E+01
   1.51989E+01  1.62966E+01  1.60406E+01  1.72948E+01  1.74145E+01  1.85622E+01  1.89237E+01  1.99132E+01  2.03761E+01  2.12126E+01
   2.17716E+01  2.24702E+01  2.30308E+01  2.35965E+01  2.41062E+01  2.46142E+01  2.50993E+01  2.55252E+01  2.59622E+01  2.63555E+01
   2.67446E+01  2.71061E+01  2.74264E+01  2.76982E+01  2.79165E+01  2.80778E+01  2.81801E+01  2.82223E+01  2.82041E+01  2.81265E+01
   2.79911E+01  2.78006E+01  2.75582E+01  2.72682E+01  2.69352E+01  2.65645E+01  2.61619E+01  2.57333E+01  2.52851E+01  2.48238E+01
   2.43557E+01  2.38875E+01  2.34254E+01  2.29754E+01  2.25433E+01  2.21345E+01  2.17540E+01  2.14063E+01  2.10955E+01  2.08248E+01
   2.05970E+01  2.04143E+01  2.02780E+01  2.01888E+01  2.01465E+01  2.01500E+01  2.01974E+01  2.02858E+01  2.04114E+01  2.05694E+01
   2.07540E+01  2.09586E+01  2.11756E+01  2.13967E+01  2.16130E+01  2.18152E+01  2.19937E+01  2.21389E+01  2.22414E+01  2.22926E+01
   2.22842E+01  2.22095E+01  2.20627E+01  2.18397E+01  2.15378E+01  2.11563E+01  2.06961E+01  2.01596E+01  1.95511E+01  1.88762E+01
   1.81417E+01  1.73554E+01  1.65257E+01  1.56616E+01  1.47721E+01  1.38662E+01  1.29526E+01  1.20393E+01  1.11337E+01  1.02425E+01
   9.37150E+00  8.52542E+00  7.70823E+00  6.92297E+00  6.17186E+00  5.45638E+00  4.77728E+00  4.13480E+00  3.52858E+00  2.95795E+00
   2.42184E+00  1.91897E+00  1.44786E+00  1.00692E+00  5.94458E-01  2.08803E-01 -1.51759E-01 -4.88864E-01 -8.04144E-01 -1.09912E+00
  -1.37529E+00 -1.63400E+00 -1.87657E+00 -2.10418E+00 -2.31798E+00 -2.51900E+00 -2.70822E+00 -2.88650E+00 -3.05468E+00 -3.21347E+00
  -3.36360E+00 -3.50568E+00 -3.64031E+00 -3.76800E+00 -3.88926E+00 -4.00451E+00 -4.11419E+00 -4.21867E+00 -4.31830E+00 -4.41339E+00
  -4.50426E+00 -4.59115E+00 -4.67434E+00 -4.75404E+00 -4.83049E+00 -4.90385E+00 -4.97434E+00 -5.04211E+00 -5.10733E+00 -5.17014E+00
  -5.23068E+00 -5.28906E+00 -5.34542E+00 -5.39985E+00 -5.45248E+00 -5.50337E+00 -5.55263E+00 -5.60033E+00 -5.64657E+00 -5.69141E+00
  -5.73491E+00 -5.77714E+00 -5.81816E+00 -5.85801E+00 -5.89677E+00 -5.93446E+00 -5.97114E+00 -6.00684E+00 -6.04162E+00 -6.07548E+00
  -6.10849E+00 -6.14066E+00 -6.17202E+00 -6.20257E+00 -6.23237E+00 -6.26140E+00 -6.28971E+00 -6.31727E+00
 NY background values follow
     1.376E+00    1.361E+00    1.346E+00    1.330E+00    1.315E+00    1.300E+00    1.285E+00    1.269E+00    1.254E+00    1.239E+00
     1.224E+00    1.209E+00    1.193E+00    1.178E+00    1.163E+00    1.148E+00    1.133E+00    1.117E+00    1.102E+00    1.087E+00
     1.072E+00    1.057E+00    1.041E+00    1.026E+00    1.011E+00    9.957E-01    9.805E-01    9.653E-01    9.501E-01    9.349E-01
     9.196E-01    9.044E-01    8.892E-01    8.740E-01    8.588E-01    8.436E-01    8.283E-01    8.131E-01    7.979E-01    7.827E-01
     7.675E-01    7.523E-01    7.370E-01    7.218E-01    7.066E-01    6.914E-01    6.762E-01    6.609E-01    6.457E-01    6.305E-01
     6.153E-01    6.001E-01    5.848E-01    5.696E-01    5.544E-01    5.392E-01    5.240E-01    5.087E-01    4.935E-01    4.783E-01
     4.631E-01    4.479E-01    4.326E-01    4.174E-01    4.022E-01    3.870E-01    3.717E-01    3.565E-01    3.413E-01    3.261E-01
     3.109E-01    2.956E-01    2.804E-01    2.652E-01    2.500E-01    2.348E-01    2.195E-01    2.043E-01    1.891E-01    1.739E-01
     1.587E-01    1.434E-01    1.282E-01    1.130E-01    9.778E-02    8.256E-02    6.734E-02    5.213E-02    3.691E-02    2.169E-02
     6.470E-03   -8.748E-03   -2.397E-02   -3.918E-02   -5.440E-02   -6.962E-02   -8.483E-02   -1.000E-01   -1.153E-01   -1.305E-01
    -1.457E-01   -1.609E-01   -1.761E-01   -1.913E-01   -2.066E-01   -2.218E-01   -2.370E-01   -2.522E-01   -2.674E-01   -2.826E-01
    -2.978E-01   -3.130E-01   -3.283E-01   -3.435E-01   -3.587E-01   -3.739E-01   -3.891E-01   -4.043E-01   -4.195E-01   -4.347E-01
    -4.499E-01   -4.651E-01   -4.803E-01   -4.955E-01   -5.107E-01   -5.259E-01   -5.412E-01   -5.564E-01   -5.716E-01   -5.868E-01
    -6.020E-01   -6.172E-01   -6.324E-01   -6.476E-01   -6.628E-01   -6.780E-01   -6.932E-01   -7.084E-01   -7.235E-01   -7.387E-01
    -7.539E-01   -7.691E-01   -7.843E-01   -7.995E-01   -8.147E-01   -8.299E-01   -8.451E-01   -8.603E-01   -8.755E-01   -8.907E-01
    -9.058E-01   -9.210E-01   -9.362E-01   -9.514E-01   -9.666E-01   -9.818E-01   -9.969E-01   -1.012E+00   -1.027E+00   -1.042E+00
    -1.058E+00   -1.073E+00   -1.088E+00   -1.103E+00   -1.118E+00   -1.134E+00   -1.149E+00   -1.164E+00   -1.179E+00   -1.194E+00
    -1.209E+00   -1.225E+00   -1.240E+00   -1.255E+00   -1.270E+00   -1.285E+00   -1.300E+00   -1.316E+00   -1.331E+00   -1.346E+00
    -1.361E+00   -1.376E+00   -1.391E+00   -1.407E+00   -1.422E+00   -1.437E+00   -1.452E+00   -1.467E+00   -1.482E+00   -1.497E+00
    -1.513E+00   -1.528E+00   -1.543E+00   -1.558E+00   -1.573E+00   -1.588E+00   -1.603E+00   -1.619E+00   -1.634E+00   -1.649E+00
    -1.664E+00   -1.679E+00   -1.694E+00   -1.709E+00   -1.725E+00   -1.740E+00   -1.755E+00   -1.770E+00   -1.785E+00   -1.800E+00
    -1.815E+00   -1.830E+00   -1.845E+00   -1.861E+00   -1.876E+00   -1.891E+00   -1.906E+00   -1.921E+00   -1.936E+00   -1.951E+00
    -1.966E+00   -1.982E+00   -1.997E+00   -2.012E+00   -2.027E+00   -2.042E+00   -2.057E+00   -2.072E+00   -2.087E+00   -2.102E+00
    -2.117E+00   -2.132E+00   -2.148E+00   -2.163E+00   -2.178E+00   -2.193E+00   -2.208E+00   -2.223E+00   -2.238E+00   -2.253E+00
    -2.268E+00   -2.283E+00   -2.298E+00   -2.313E+00   -2.329E+00   -2.344E+00   -2.359E+00   -2.374E+00   -2.389E+00   -2.404E+00
    -2.419E+00   -2.434E+00   -2.449E+00   -2.464E+00   -2.479E+00   -2.494E+00   -2.509E+00   -2.524E+00   -2.539E+00   -2.554E+00
    -2.569E+00   -2.584E+00   -2.599E+00   -2.614E+00   -2.630E+00   -2.645E+00   -2.660E+00   -2.675E+00   -2.690E+00   -2.705E+00
    -2.720E+00   -2.735E+00   -2.750E+00   -2.765E+00   -2.780E+00   -2.795E+00   -2.810E+00   -2.825E+00   -2.840E+00   -2.855E+00
    -2.870E+00   -2.885E+00   -2.900E+00   -2.915E+00   -2.930E+00   -2.945E+00   -2.960E+00   -2.975E+00   -2.990E+00   -3.005E+00
    -3.020E+00   -3.035E+00   -3.050E+00   -3.065E+00   -3.080E+00   -3.095E+00   -3.109E+00   -3.124E+00   -3.139E+00   -3.154E+00
    -3.169E+00   -3.184E+00   -3.199E+00   -3.214E+00   -3.229E+00   -3.244E+00   -3.259E+00   -3.274E+00   -3.289E+00   -3.304E+00
    -3.319E+00   -3.334E+00   -3.349E+00   -3.364E+00   -3.378E+00   -3.393E+00   -3.408E+00   -3.423E+00   -3.438E+00   -3.453E+00
    -3.468E+00   -3.483E+00   -3.498E+00   -3.513E+00   -3.528E+00   -3.543E+00   -3.557E+00   -3.572E+00   -3.587E+00   -3.602E+00
    -3.617E+00   -3.632E+00   -3.647E+00   -3.662E+00   -3.676E+00   -3.691E+00   -3.706E+00   -3.721E+00   -3.736E+00   -3.751E+00
    -3.766E+00   -3.781E+00   -3.795E+00   -3.810E+00   -3.825E+00   -3.840E+00   -3.855E+00   -3.870E+00   -3.884E+00   -3.899E+00
    -3.914E+00   -3.929E+00   -3.944E+00   -3.959E+00   -3.973E+00   -3.988E+00   -4.003E+00   -4.018E+00   -4.033E+00   -4.047E+00
    -4.062E+00   -4.077E+00   -4.092E+00   -4.107E+00   -4.121E+00   -4.136E+00   -4.151E+00   -4.166E+00   -4.181E+00   -4.195E+00
    -4.210E+00   -4.225E+00   -4.240E+00   -4.254E+00   -4.269E+00   -4.284E+00   -4.299E+00   -4.313E+00   -4.328E+00   -4.343E+00
    -4.358E+00   -4.372E+00   -4.387E+00   -4.402E+00   -4.417E+00   -4.431E+00   -4.446E+00   -4.461E+00   -4.476E+00   -4.490E+00
    -4.505E+00   -4.520E+00   -4.534E+00   -4.549E+00   -4.564E+00   -4.578E+00   -4.593E+00   -4.608E+00   -4.623E+00   -4.637E+00
    -4.652E+00   -4.667E+00   -4.681E+00   -4.696E+00   -4.711E+00   -4.725E+00   -4.740E+00   -4.755E+00   -4.769E+00   -4.784E+00
    -4.799E+00   -4.813E+00   -4.828E+00   -4.842E+00   -4.857E+00   -4.872E+00   -4.886E+00   -4.901E+00   -4.916E+00   -4.930E+00
    -4.945E+00   -4.959E+00   -4.974E+00   -4.989E+00   -5.003E+00   -5.018E+00   -5.032E+00   -5.047E+00   -5.062E+00   -5.076E+00
    -5.091E+00   -5.105E+00   -5.120E+00   -5.134E+00   -5.149E+00   -5.164E+00   -5.178E+00   -5.193E+00   -5.207E+00   -5.222E+00
    -5.236E+00   -5.251E+00   -5.265E+00   -5.280E+00   -5.294E+00   -5.309E+00   -5.323E+00   -5.338E+00   -5.353E+00   -5.367E+00
    -5.382E+00   -5.396E+00   -5.411E+00   -5.425E+00   -5.440E+00   -5.454E+00   -5.468E+00   -5.483E+00   -5.497E+00   -5.512E+00
    -5.526E+00   -5.541E+00   -5.555E+00   -5.570E+00   -5.584E+00   -5.599E+00   -5.613E+00   -5.628E+00   -5.642E+00   -5.656E+00
    -5.671E+00   -5.685E+00   -5.700E+00   -5.714E+00   -5.729E+00   -5.743E+00   -5.757E+00   -5.772E+00   -5.786E+00   -5.801E+00
    -5.815E+00   -5.829E+00   -5.844E+00   -5.858E+00   -5.872E+00   -5.887E+00   -5.901E+00   -5.916E+00   -5.930E+00   -5.944E+00
    -5.959E+00   -5.973E+00   -5.987E+00   -6.002E+00   -6.016E+00   -6.030E+00   -6.045E+00   -6.059E+00
 Ala      Conc. = 3.44E+02
