 LCModel (Version 6.3-1L) Copyright: S.W. Provencher.          Ref.: Magn. Reson. Med. 30:672-679 (1993).                
 Slice#2 Row#9 Col#12  PD_24_press_2_raw_act
 36 lines in following concentration table = NCONC+1
    Conc.  %SD /Cr+PCr  Metabolite                                         
 8.94E+03  27%  44.821 Ala                                                 
    0.000 999%   0.000 Asp                                                 
    0.000 999%   0.000 Cr                                                  
  199.505  58%   1.000 PCr                                                 
    0.000 999%   0.000 GABA                                                
   10.448 913% 5.2E-02 Glc                                                 
 1.05E+03 101%   5.288 Gln                                                 
    0.000 999%   0.000 Glu                                                 
    0.000 999%   0.000 GPC                                                 
   29.321 148%   0.147 PCh                                                 
  172.682 113%   0.866 GSH                                                 
    0.000 999%   0.000 Ins                                                 
    0.000 999%   0.000 Lac                                                 
    0.000 999%   0.000 NAA                                                 
    0.000 999%   0.000 NAAG                                                
    0.000 999%   0.000 Scyllo                                              
   51.153 303%   0.256 Tau                                                 
   31.492 136%   0.158 -CrCH2                                              
   29.321 148%   0.147 GPC+PCh                                             
    0.000 999%   0.000 NAA+NAAG                                            
  199.505  58%   1.000 Cr+PCr                                              
 1.05E+03 101%   5.288 Glu+Gln                                             
    0.000 999%   0.000 Lip13a                                              
    0.000 999%   0.000 Lip13b                                              
    0.000 999%   0.000 Lip09                                               
    0.000 999%   0.000 MM09                                                
    0.000 999%   0.000 Lip20                                               
    0.000 999%   0.000 MM20                                                
 2.17E+03  42%  10.892 MM12                                                
 5.07E+04   9% 254.281 MM14                                                
 5.98E+04   9% 299.797 MM17                                                
    0.000 999%   0.000 Lip13a+Lip13b                                       
 5.29E+04   9% 265.173 MM14+Lip13a+Lip13b+MM12                             
    0.000 999%   0.000 MM09+Lip09                                          
    0.000 999%   0.000 MM20+Lip20                                          
   6 lines in following misc. output table
  FWHM = 0.107 ppm    S/N =  40                                            
  Data shift = 0.008 ppm                                                   
  Ph: 162 deg     170.4 deg/ppm                                            
  alphaB,S = 7.9E-01,   4.8E+01                                            
    8 spline knots.   Ns = 9(2)                                            
  ( 5) 2 infls.   ( 2) 1 extrs.                                            
  498 points on ppm-axis = NY
      4.000000     3.992357     3.984714     3.977070     3.969427     3.961784     3.954141     3.946497     3.938854     3.931211
      3.923568     3.915925     3.908281     3.900638     3.892995     3.885352     3.877708     3.870065     3.862422     3.854779
      3.847136     3.839492     3.831849     3.824206     3.816563     3.808919     3.801276     3.793633     3.785990     3.778347
      3.770703     3.763060     3.755417     3.747774     3.740130     3.732487     3.724844     3.717201     3.709558     3.701914
      3.694271     3.686628     3.678985     3.671341     3.663698     3.656055     3.648412     3.640769     3.633125     3.625482
      3.617839     3.610196     3.602552     3.594909     3.587266     3.579623     3.571980     3.564336     3.556693     3.549050
      3.541407     3.533763     3.526120     3.518477     3.510834     3.503191     3.495547     3.487904     3.480261     3.472618
      3.464974     3.457331     3.449688     3.442045     3.434402     3.426758     3.419115     3.411472     3.403829     3.396185
      3.388542     3.380899     3.373256     3.365613     3.357969     3.350326     3.342683     3.335040     3.327396     3.319753
      3.312110     3.304467     3.296824     3.289180     3.281537     3.273894     3.266251     3.258607     3.250964     3.243321
      3.235678     3.228034     3.220391     3.212748     3.205105     3.197462     3.189818     3.182175     3.174532     3.166889
      3.159245     3.151602     3.143959     3.136316     3.128673     3.121029     3.113386     3.105743     3.098100     3.090456
      3.082813     3.075170     3.067527     3.059884     3.052240     3.044597     3.036954     3.029311     3.021667     3.014024
      3.006381     2.998738     2.991095     2.983451     2.975808     2.968165     2.960522     2.952878     2.945235     2.937592
      2.929949     2.922306     2.914662     2.907019     2.899376     2.891733     2.884089     2.876446     2.868803     2.861160
      2.853517     2.845873     2.838230     2.830587     2.822944     2.815300     2.807657     2.800014     2.792371     2.784728
      2.777084     2.769441     2.761798     2.754155     2.746511     2.738868     2.731225     2.723582     2.715939     2.708295
      2.700652     2.693009     2.685366     2.677722     2.670079     2.662436     2.654793     2.647150     2.639506     2.631863
      2.624220     2.616577     2.608933     2.601290     2.593647     2.586004     2.578361     2.570717     2.563074     2.555431
      2.547788     2.540144     2.532501     2.524858     2.517215     2.509572     2.501928     2.494285     2.486642     2.478999
      2.471355     2.463712     2.456069     2.448426     2.440783     2.433139     2.425496     2.417853     2.410210     2.402566
      2.394923     2.387280     2.379637     2.371994     2.364350     2.356707     2.349064     2.341421     2.333777     2.326134
      2.318491     2.310848     2.303205     2.295561     2.287918     2.280275     2.272632     2.264988     2.257345     2.249702
      2.242059     2.234416     2.226772     2.219129     2.211486     2.203843     2.196199     2.188556     2.180913     2.173270
      2.165627     2.157983     2.150340     2.142697     2.135054     2.127410     2.119767     2.112124     2.104481     2.096838
      2.089194     2.081551     2.073908     2.066265     2.058621     2.050978     2.043335     2.035692     2.028049     2.020405
      2.012762     2.005119     1.997476     1.989833     1.982190     1.974546     1.966903     1.959260     1.951617     1.943974
      1.936331     1.928688     1.921045     1.913402     1.905759     1.898115     1.890472     1.882829     1.875186     1.867543
      1.859900     1.852257     1.844614     1.836971     1.829327     1.821684     1.814041     1.806398     1.798755     1.791112
      1.783469     1.775826     1.768183     1.760540     1.752896     1.745253     1.737610     1.729967     1.722324     1.714681
      1.707038     1.699395     1.691752     1.684108     1.676465     1.668822     1.661179     1.653536     1.645893     1.638250
      1.630607     1.622964     1.615321     1.607677     1.600034     1.592391     1.584748     1.577105     1.569462     1.561819
      1.554176     1.546533     1.538890     1.531246     1.523603     1.515960     1.508317     1.500674     1.493031     1.485388
      1.477745     1.470102     1.462458     1.454815     1.447172     1.439529     1.431886     1.424243     1.416600     1.408957
      1.401314     1.393671     1.386027     1.378384     1.370741     1.363098     1.355455     1.347812     1.340169     1.332526
      1.324883     1.317240     1.309596     1.301953     1.294310     1.286667     1.279024     1.271381     1.263738     1.256095
      1.248452     1.240808     1.233165     1.225522     1.217879     1.210236     1.202593     1.194950     1.187307     1.179664
      1.172021     1.164377     1.156734     1.149091     1.141448     1.133805     1.126162     1.118519     1.110876     1.103233
      1.095590     1.087946     1.080303     1.072660     1.065017     1.057374     1.049731     1.042088     1.034445     1.026802
      1.019158     1.011515     1.003872     0.996229     0.988586     0.980943     0.973300     0.965657     0.958014     0.950371
      0.942727     0.935084     0.927441     0.919798     0.912155     0.904512     0.896869     0.889226     0.881583     0.873940
      0.866296     0.858653     0.851010     0.843367     0.835724     0.828081     0.820438     0.812795     0.805152     0.797508
      0.789865     0.782222     0.774579     0.766936     0.759293     0.751650     0.744007     0.736364     0.728721     0.721077
      0.713434     0.705791     0.698148     0.690505     0.682862     0.675219     0.667576     0.659933     0.652290     0.644646
      0.637003     0.629360     0.621717     0.614074     0.606431     0.598788     0.591145     0.583502     0.575858     0.568215
      0.560572     0.552929     0.545286     0.537643     0.530000     0.522357     0.514714     0.507071     0.499427     0.491784
      0.484141     0.476498     0.468855     0.461212     0.453569     0.445925     0.438282     0.430639     0.422996     0.415353
      0.407710     0.400067     0.392424     0.384780     0.377137     0.369494     0.361851     0.354208     0.346565     0.338922
      0.331278     0.323635     0.315992     0.308349     0.300706     0.293063     0.285420     0.277777     0.270133     0.262490
      0.254847     0.247204     0.239561     0.231918     0.224275     0.216631     0.208988     0.201345
 NY phased data points follow
  -8.65688E+00 -5.82462E+00 -6.61377E+00 -6.37636E+00 -5.93656E+00 -9.57265E+00 -7.69258E+00 -5.51689E+00 -4.62984E+00 -4.45149E+00
  -5.14448E+00 -3.05043E+00 -5.55555E+00 -1.43983E+00 -2.33217E+00 -2.62432E+00 -4.81863E-01 -9.49649E-01  1.48193E-01  1.33924E+00
   1.44783E+00  2.66980E+00  4.21356E+00  3.08911E+00  5.07888E+00  5.34113E+00  5.69410E+00  6.04543E+00  7.75242E+00  6.20265E+00
   6.43996E+00  5.61929E+00  9.08134E+00  1.05977E+01  7.39811E+00  1.29156E+01  1.16200E+01  9.64051E+00  1.29085E+01  1.23667E+01
   1.46234E+01  1.10148E+01  1.22714E+01  1.58637E+01  1.52425E+01  1.28301E+01  2.01806E+01  1.66983E+01  1.79988E+01  1.84947E+01
   1.65842E+01  1.71193E+01  1.82671E+01  1.98931E+01  2.08195E+01  2.23413E+01  1.97252E+01  2.63496E+01  2.28588E+01  2.10822E+01
   2.57072E+01  2.22508E+01  2.46153E+01  2.29641E+01  2.21508E+01  2.47619E+01  2.53798E+01  2.49664E+01  2.25979E+01  2.66210E+01
   2.82939E+01  2.58008E+01  2.55277E+01  2.87362E+01  2.64664E+01  2.48383E+01  2.70140E+01  2.80330E+01  2.69771E+01  2.67442E+01
   2.62801E+01  2.80045E+01  2.86339E+01  2.75865E+01  2.89992E+01  2.87107E+01  2.89071E+01  2.97826E+01  3.00742E+01  2.57585E+01
   2.83100E+01  3.02746E+01  2.76814E+01  2.67575E+01  3.19089E+01  2.96217E+01  2.99229E+01  2.91602E+01  2.66083E+01  2.95074E+01
   2.82040E+01  2.70534E+01  2.71105E+01  3.23073E+01  3.09557E+01  2.99793E+01  3.04193E+01  2.80507E+01  3.10155E+01  3.07402E+01
   2.76959E+01  3.27918E+01  2.62990E+01  2.78433E+01  2.40902E+01  2.80115E+01  2.42879E+01  2.48011E+01  2.36724E+01  2.44732E+01
   2.71981E+01  2.12919E+01  2.30661E+01  2.41906E+01  2.22578E+01  2.19457E+01  2.22727E+01  2.38352E+01  2.32193E+01  2.42547E+01
   2.17928E+01  1.99674E+01  1.64141E+01  2.26799E+01  1.81495E+01  2.00630E+01  1.93572E+01  1.78563E+01  1.47722E+01  1.52135E+01
   1.56494E+01  1.51318E+01  1.24308E+01  1.03553E+01  1.23297E+01  1.13630E+01  1.29796E+01  7.05610E+00  6.19445E+00  1.00185E+01
   8.38344E+00  5.06653E+00  4.54025E+00  4.45865E+00  2.89579E+00  4.52264E-01  6.03782E-01 -4.87511E-01  4.28226E-01 -2.01816E+00
  -3.62223E+00 -4.41966E+00 -4.09448E+00 -6.60186E+00 -7.82621E+00 -6.12597E+00 -8.30515E+00 -7.18498E+00 -1.24622E+01 -1.23630E+01
  -1.26258E+01 -1.45340E+01 -1.35393E+01 -1.45566E+01 -1.63651E+01 -1.88079E+01 -2.00063E+01 -2.05655E+01 -2.23678E+01 -1.96428E+01
  -2.66469E+01 -2.73401E+01 -2.53640E+01 -2.50107E+01 -2.70583E+01 -2.70595E+01 -2.86347E+01 -3.17000E+01 -2.91195E+01 -3.23679E+01
  -3.19714E+01 -3.40003E+01 -3.27412E+01 -3.79952E+01 -3.75444E+01 -4.04050E+01 -3.88896E+01 -3.70297E+01 -4.07247E+01 -4.06080E+01
  -4.47024E+01 -4.18532E+01 -4.48975E+01 -4.35260E+01 -4.50092E+01 -4.78645E+01 -4.70348E+01 -5.08658E+01 -5.19996E+01 -5.08189E+01
  -4.98353E+01 -5.05153E+01 -5.30102E+01 -4.95245E+01 -5.19630E+01 -5.28524E+01 -5.57228E+01 -5.40678E+01 -5.84827E+01 -5.58430E+01
  -5.66478E+01 -5.88051E+01 -5.62121E+01 -5.85723E+01 -5.95546E+01 -6.13764E+01 -6.27331E+01 -6.26271E+01 -6.18137E+01 -6.36560E+01
  -6.58869E+01 -6.63792E+01 -6.48936E+01 -6.64936E+01 -6.70845E+01 -6.66904E+01 -6.77782E+01 -7.00002E+01 -7.06507E+01 -7.31819E+01
  -7.45059E+01 -7.38726E+01 -7.41794E+01 -7.49463E+01 -7.61610E+01 -7.74953E+01 -8.01175E+01 -7.99919E+01 -7.88221E+01 -7.95418E+01
  -7.78415E+01 -8.02310E+01 -7.74410E+01 -7.89061E+01 -7.60497E+01 -7.63561E+01 -7.52703E+01 -7.52903E+01 -7.49132E+01 -7.28378E+01
  -7.65361E+01 -7.92590E+01 -7.90407E+01 -7.79174E+01 -7.46919E+01 -6.98441E+01 -6.87613E+01 -6.88198E+01 -6.79137E+01 -6.30778E+01
  -6.27371E+01 -6.05058E+01 -5.77975E+01 -5.78464E+01 -5.62609E+01 -5.21490E+01 -5.25579E+01 -4.97590E+01 -4.48802E+01 -4.20369E+01
  -3.99756E+01 -3.26939E+01 -2.84431E+01 -2.70628E+01 -2.02983E+01 -1.30714E+01 -5.95847E+00 -2.36895E+00  5.73202E+00  9.91115E+00
   2.06723E+01  2.52630E+01  3.03699E+01  4.02056E+01  5.23852E+01  6.03749E+01  6.69085E+01  7.98839E+01  9.09022E+01  1.07879E+02
   1.21589E+02  1.33616E+02  1.47507E+02  1.64561E+02  1.80166E+02  1.90004E+02  2.07194E+02  2.24463E+02  2.37230E+02  2.50730E+02
   2.67411E+02  2.78710E+02  2.90584E+02  3.00754E+02  3.10440E+02  3.17834E+02  3.21402E+02  3.27319E+02  3.28951E+02  3.28326E+02
   3.27961E+02  3.23491E+02  3.17505E+02  3.09102E+02  3.02474E+02  2.94221E+02  2.82801E+02  2.72450E+02  2.59455E+02  2.45926E+02
   2.31987E+02  2.14216E+02  1.95939E+02  1.78727E+02  1.57149E+02  1.37666E+02  1.21578E+02  9.85890E+01  7.99968E+01  6.05160E+01
   4.07914E+01  2.58650E+01  6.79278E+00 -8.07464E+00 -1.88541E+01 -3.31691E+01 -4.14199E+01 -5.05377E+01 -5.62505E+01 -6.41314E+01
  -6.82348E+01 -7.21879E+01 -7.75624E+01 -7.93892E+01 -8.03802E+01 -8.60611E+01 -8.39479E+01 -8.56657E+01 -8.59234E+01 -8.88003E+01
  -9.01756E+01 -9.35040E+01 -9.07274E+01 -8.75473E+01 -8.95075E+01 -8.85187E+01 -9.03283E+01 -8.80324E+01 -8.91753E+01 -8.84488E+01
  -8.81550E+01 -9.09342E+01 -8.82906E+01 -8.80150E+01 -9.01491E+01 -8.95784E+01 -8.99632E+01 -9.14772E+01 -9.09427E+01 -9.13674E+01
  -8.88733E+01 -9.09705E+01 -9.30706E+01 -9.28537E+01 -9.04176E+01 -9.49393E+01 -9.52508E+01 -9.42799E+01 -9.22322E+01 -8.96107E+01
  -9.06377E+01 -9.18779E+01 -9.35743E+01 -9.45092E+01 -8.99137E+01 -9.02523E+01 -8.92753E+01 -8.82936E+01 -8.71827E+01 -8.66692E+01
  -8.75675E+01 -8.55945E+01 -8.59034E+01 -8.40921E+01 -8.13185E+01 -8.17549E+01 -8.25266E+01 -8.38981E+01 -8.19793E+01 -8.03111E+01
  -7.48142E+01 -7.84401E+01 -7.60665E+01 -7.70739E+01 -7.59357E+01 -7.44329E+01 -7.33330E+01 -7.14076E+01 -7.22140E+01 -7.26000E+01
  -7.21926E+01 -7.23677E+01 -6.86799E+01 -6.55416E+01 -6.56838E+01 -6.75561E+01 -6.77581E+01 -6.37408E+01 -6.28688E+01 -6.31620E+01
  -5.95706E+01 -6.06343E+01 -5.75871E+01 -5.70678E+01 -5.33534E+01 -5.20395E+01 -5.07142E+01 -4.67547E+01 -4.68666E+01 -4.35033E+01
  -4.36720E+01 -4.11219E+01 -3.92558E+01 -3.93424E+01 -3.79958E+01 -3.65752E+01 -3.39570E+01 -3.01971E+01 -3.19920E+01 -2.87350E+01
  -2.61491E+01 -2.64189E+01 -2.30879E+01 -2.23054E+01 -1.76049E+01 -1.65279E+01 -1.47297E+01 -1.24227E+01 -7.78812E+00 -8.47225E+00
  -4.50724E+00 -4.51602E+00 -3.40713E+00 -8.84594E-01  1.54616E+00  7.26048E+00  6.49269E+00  7.59223E+00  1.19981E+01  1.31394E+01
   1.57206E+01  1.46057E+01  1.70310E+01  1.51522E+01  2.00834E+01  2.01252E+01  2.46741E+01  2.36417E+01  2.59911E+01  2.81519E+01
   3.15127E+01  3.27996E+01  3.14152E+01  3.44267E+01  3.57168E+01  3.77868E+01  4.08362E+01  4.00042E+01  4.13559E+01  4.27956E+01
   4.45732E+01  4.70218E+01  4.49674E+01  4.73064E+01  4.52687E+01  4.92196E+01  5.02841E+01  5.24868E+01
 NY points of the fit to the data follow
  -7.80054E+00 -7.01612E+00 -7.24685E+00 -6.22805E+00 -6.48460E+00 -5.03784E+00 -4.88492E+00 -2.44661E+00 -2.94977E+00 -3.58255E-01
  -1.58635E+00  9.89931E-01 -7.36037E-01  1.52747E+00 -8.31693E-01  1.76767E+00 -4.41711E-01  2.04114E+00  1.58058E-01  2.24420E+00
   9.95593E-01  2.83953E+00  2.27090E+00  3.69702E+00  4.04122E+00  4.99256E+00  6.10590E+00  6.48634E+00  8.08471E+00  7.85737E+00
   9.66878E+00  9.02130E+00  1.09143E+01  1.00359E+01  1.18601E+01  1.08528E+01  1.24488E+01  1.14598E+01  1.27955E+01  1.19563E+01
   1.30882E+01  1.25795E+01  1.36798E+01  1.35808E+01  1.46597E+01  1.48615E+01  1.59043E+01  1.63145E+01  1.71548E+01  1.75599E+01
   1.82011E+01  1.85921E+01  1.91137E+01  1.94574E+01  1.98882E+01  2.02848E+01  2.07225E+01  2.11458E+01  2.15619E+01  2.19825E+01
   2.23781E+01  2.27954E+01  2.31356E+01  2.35164E+01  2.38375E+01  2.41929E+01  2.44985E+01  2.48247E+01  2.51131E+01  2.54077E+01
   2.56787E+01  2.59426E+01  2.61966E+01  2.64348E+01  2.66729E+01  2.68837E+01  2.70972E+01  2.72797E+01  2.74658E+01  2.76236E+01
   2.77906E+01  2.79335E+01  2.80745E+01  2.82044E+01  2.83352E+01  2.85299E+01  2.86966E+01  2.88876E+01  2.90699E+01  2.92210E+01
   2.94110E+01  2.95055E+01  2.96945E+01  2.97051E+01  2.98742E+01  2.97717E+01  2.98955E+01  2.96690E+01  2.97246E+01  2.93845E+01
   2.93592E+01  2.89419E+01  2.88348E+01  2.83753E+01  2.81954E+01  2.77237E+01  2.74895E+01  2.70547E+01  2.68881E+01  2.67267E+01
   2.65208E+01  2.65636E+01  2.62561E+01  2.64563E+01  2.60343E+01  2.63800E+01  2.58187E+01  2.61979E+01  2.54350E+01  2.57303E+01
   2.47574E+01  2.48930E+01  2.37770E+01  2.37039E+01  2.25486E+01  2.22662E+01  2.11371E+01  2.06575E+01  1.95979E+01  1.89583E+01
   1.80111E+01  1.72721E+01  1.64511E+01  1.56623E+01  1.49470E+01  1.41470E+01  1.34898E+01  1.26963E+01  1.20520E+01  1.12652E+01
   1.06040E+01  9.81426E+00  9.12140E+00  8.32005E+00  7.59640E+00  6.78767E+00  6.03534E+00  5.21974E+00  4.45678E+00  3.65558E+00
   2.87891E+00  2.07936E+00  1.29184E+00  4.88494E-01 -3.08416E-01 -1.11486E+00 -1.92125E+00 -2.73817E+00 -3.55851E+00 -4.38701E+00
  -5.22174E+00 -6.06118E+00 -6.90755E+00 -7.75766E+00 -8.61332E+00 -9.47563E+00 -1.03385E+01 -1.12217E+01 -1.20926E+01 -1.29913E+01
  -1.38653E+01 -1.47708E+01 -1.56286E+01 -1.65235E+01 -1.73577E+01 -1.82557E+01 -1.91188E+01 -2.00278E+01 -2.09739E+01 -2.19255E+01
  -2.29527E+01 -2.39027E+01 -2.49712E+01 -2.58319E+01 -2.68578E+01 -2.76170E+01 -2.86184E+01 -2.92347E+01 -3.02176E+01 -3.07445E+01
  -3.17450E+01 -3.23254E+01 -3.35547E+01 -3.41066E+01 -3.54044E+01 -3.59357E+01 -3.72868E+01 -3.78334E+01 -3.92291E+01 -3.97807E+01
  -4.11435E+01 -4.16676E+01 -4.29083E+01 -4.33843E+01 -4.44522E+01 -4.48872E+01 -4.57763E+01 -4.62131E+01 -4.69720E+01 -4.74264E+01
  -4.80919E+01 -4.85767E+01 -4.91934E+01 -4.97525E+01 -5.04068E+01 -5.10511E+01 -5.17777E+01 -5.25541E+01 -5.34832E+01 -5.42802E+01
  -5.52860E+01 -5.60264E+01 -5.70045E+01 -5.75871E+01 -5.85511E+01 -5.91256E+01 -6.00626E+01 -6.06776E+01 -6.15682E+01 -6.22416E+01
  -6.30506E+01 -6.38353E+01 -6.45474E+01 -6.54058E+01 -6.59961E+01 -6.69061E+01 -6.73811E+01 -6.82876E+01 -6.86560E+01 -6.95011E+01
  -6.97752E+01 -7.05470E+01 -7.07441E+01 -7.14303E+01 -7.15770E+01 -7.21757E+01 -7.22881E+01 -7.28088E+01 -7.28856E+01 -7.33374E+01
  -7.33780E+01 -7.37704E+01 -7.37761E+01 -7.41147E+01 -7.40890E+01 -7.43507E+01 -7.42753E+01 -7.44362E+01 -7.42994E+01 -7.43170E+01
  -7.40876E+01 -7.39441E+01 -7.36016E+01 -7.32791E+01 -7.28086E+01 -7.23107E+01 -7.16815E+01 -7.09863E+01 -7.01564E+01 -6.92241E+01
  -6.81391E+01 -6.69178E+01 -6.55136E+01 -6.39326E+01 -6.21363E+01 -6.01184E+01 -5.78445E+01 -5.52973E+01 -5.24462E+01 -4.92627E+01
  -4.57185E+01 -4.17808E+01 -3.74190E+01 -3.26010E+01 -2.72984E+01 -2.14829E+01 -1.51320E+01 -8.22572E+00 -7.52996E-01  7.29288E+00
   1.59071E+01  2.50784E+01  3.47832E+01  4.49908E+01  5.56593E+01  6.67414E+01  7.81821E+01  8.99250E+01  1.01912E+02  1.14092E+02
   1.26417E+02  1.38854E+02  1.51386E+02  1.64014E+02  1.76770E+02  1.89721E+02  2.03003E+02  2.16903E+02  2.32185E+02  2.49310E+02
   2.62471E+02  2.78859E+02  2.88646E+02  3.02914E+02  3.08486E+02  3.19087E+02  3.18530E+02  3.28026E+02  3.24592E+02  3.30705E+02
   3.24424E+02  3.25436E+02  3.16763E+02  3.12730E+02  3.03189E+02  2.94780E+02  2.84989E+02  2.72096E+02  2.61751E+02  2.44289E+02
   2.32870E+02  2.11493E+02  1.98436E+02  1.74852E+02  1.60393E+02  1.36300E+02  1.20796E+02  9.73021E+01  8.11431E+01  5.92363E+01
   4.33457E+01  2.40572E+01  9.56987E+00 -6.24262E+00 -1.82610E+01 -3.02728E+01 -3.94615E+01 -4.82174E+01 -5.46630E+01 -6.06935E+01
  -6.53198E+01 -6.97230E+01 -7.30662E+01 -7.61915E+01 -7.85709E+01 -8.08987E+01 -8.27338E+01 -8.41683E+01 -8.53205E+01 -8.62577E+01
  -8.70317E+01 -8.76803E+01 -8.82369E+01 -8.87254E+01 -8.91678E+01 -8.95784E+01 -8.99709E+01 -9.03518E+01 -9.07282E+01 -9.11008E+01
  -9.14714E+01 -9.18366E+01 -9.21949E+01 -9.25401E+01 -9.28688E+01 -9.31737E+01 -9.34509E+01 -9.36936E+01 -9.38984E+01 -9.40594E+01
  -9.41748E+01 -9.42400E+01 -9.42550E+01 -9.42168E+01 -9.41267E+01 -9.39830E+01 -9.37883E+01 -9.35420E+01 -9.32472E+01 -9.29040E+01
  -9.25159E+01 -9.20830E+01 -9.16090E+01 -9.10942E+01 -9.05419E+01 -8.99523E+01 -8.93285E+01 -8.86704E+01 -8.79809E+01 -8.72596E+01
  -8.65097E+01 -8.57305E+01 -8.49250E+01 -8.40924E+01 -8.32353E+01 -8.23530E+01 -8.14479E+01 -8.05189E+01 -7.95686E+01 -7.85958E+01
  -7.76027E+01 -7.65883E+01 -7.55547E+01 -7.45007E+01 -7.34284E+01 -7.23366E+01 -7.12274E+01 -7.00995E+01 -6.89550E+01 -6.77924E+01
  -6.66140E+01 -6.54182E+01 -6.42071E+01 -6.29794E+01 -6.17370E+01 -6.04786E+01 -5.92061E+01 -5.79181E+01 -5.66166E+01 -5.53002E+01
  -5.39708E+01 -5.26270E+01 -5.12708E+01 -4.99007E+01 -4.85186E+01 -4.71232E+01 -4.57163E+01 -4.42965E+01 -4.28657E+01 -4.14225E+01
  -3.99687E+01 -3.85030E+01 -3.70273E+01 -3.55400E+01 -3.40432E+01 -3.25352E+01 -3.10181E+01 -2.94904E+01 -2.79539E+01 -2.64073E+01
  -2.48523E+01 -2.32876E+01 -2.17150E+01 -2.01330E+01 -1.85436E+01 -1.69453E+01 -1.53399E+01 -1.37260E+01 -1.21055E+01 -1.04768E+01
  -8.84193E+00 -7.19935E+00 -5.55096E+00 -3.89527E+00 -2.23416E+00 -5.66143E-01  1.10688E+00  2.78642E+00  4.47055E+00  6.16081E+00
   7.85529E+00  9.55549E+00  1.12595E+01  1.29689E+01  1.46817E+01  1.63994E+01  1.81202E+01  1.98455E+01  2.15735E+01  2.33057E+01
   2.50402E+01  2.67784E+01  2.85186E+01  3.02622E+01  3.20072E+01  3.37554E+01  3.55046E+01  3.72566E+01  3.90093E+01  4.07644E+01
   4.25198E+01  4.42772E+01  4.60348E+01  4.77939E+01  4.95528E+01  5.13131E+01  5.30729E+01  5.48338E+01
 NY background values follow
    -9.929E+00   -9.388E+00   -8.845E+00   -8.298E+00   -7.748E+00   -7.195E+00   -6.640E+00   -6.082E+00   -5.522E+00   -4.960E+00
    -4.396E+00   -3.831E+00   -3.264E+00   -2.697E+00   -2.128E+00   -1.559E+00   -9.887E-01   -4.186E-01    1.516E-01    7.216E-01
     1.291E+00    1.860E+00    2.429E+00    2.996E+00    3.562E+00    4.127E+00    4.690E+00    5.251E+00    5.810E+00    6.366E+00
     6.921E+00    7.472E+00    8.021E+00    8.566E+00    9.108E+00    9.647E+00    1.018E+01    1.071E+01    1.124E+01    1.176E+01
     1.228E+01    1.279E+01    1.330E+01    1.380E+01    1.430E+01    1.479E+01    1.527E+01    1.575E+01    1.623E+01    1.669E+01
     1.715E+01    1.760E+01    1.805E+01    1.849E+01    1.892E+01    1.934E+01    1.975E+01    2.016E+01    2.056E+01    2.095E+01
     2.133E+01    2.170E+01    2.206E+01    2.241E+01    2.275E+01    2.308E+01    2.341E+01    2.372E+01    2.402E+01    2.431E+01
     2.459E+01    2.486E+01    2.511E+01    2.536E+01    2.559E+01    2.581E+01    2.602E+01    2.621E+01    2.640E+01    2.657E+01
     2.672E+01    2.687E+01    2.700E+01    2.711E+01    2.722E+01    2.730E+01    2.738E+01    2.744E+01    2.748E+01    2.751E+01
     2.752E+01    2.752E+01    2.750E+01    2.747E+01    2.742E+01    2.735E+01    2.727E+01    2.717E+01    2.705E+01    2.692E+01
     2.677E+01    2.660E+01    2.641E+01    2.621E+01    2.599E+01    2.575E+01    2.550E+01    2.523E+01    2.495E+01    2.465E+01
     2.433E+01    2.400E+01    2.365E+01    2.329E+01    2.291E+01    2.252E+01    2.211E+01    2.169E+01    2.125E+01    2.081E+01
     2.034E+01    1.987E+01    1.938E+01    1.887E+01    1.836E+01    1.783E+01    1.729E+01    1.674E+01    1.617E+01    1.559E+01
     1.500E+01    1.440E+01    1.379E+01    1.317E+01    1.253E+01    1.189E+01    1.123E+01    1.057E+01    9.890E+00    9.203E+00
     8.507E+00    7.801E+00    7.086E+00    6.361E+00    5.627E+00    4.885E+00    4.134E+00    3.374E+00    2.606E+00    1.830E+00
     1.046E+00    2.544E-01   -5.447E-01   -1.351E+00   -2.165E+00   -2.985E+00   -3.812E+00   -4.646E+00   -5.486E+00   -6.332E+00
    -7.184E+00   -8.042E+00   -8.906E+00   -9.775E+00   -1.065E+01   -1.153E+01   -1.241E+01   -1.330E+01   -1.419E+01   -1.509E+01
    -1.599E+01   -1.689E+01   -1.780E+01   -1.872E+01   -1.963E+01   -2.055E+01   -2.147E+01   -2.239E+01   -2.332E+01   -2.425E+01
    -2.518E+01   -2.611E+01   -2.704E+01   -2.798E+01   -2.891E+01   -2.985E+01   -3.079E+01   -3.173E+01   -3.267E+01   -3.361E+01
    -3.455E+01   -3.549E+01   -3.643E+01   -3.737E+01   -3.831E+01   -3.925E+01   -4.018E+01   -4.112E+01   -4.205E+01   -4.299E+01
    -4.392E+01   -4.484E+01   -4.577E+01   -4.670E+01   -4.762E+01   -4.854E+01   -4.946E+01   -5.037E+01   -5.129E+01   -5.220E+01
    -5.311E+01   -5.401E+01   -5.492E+01   -5.582E+01   -5.672E+01   -5.761E+01   -5.850E+01   -5.939E+01   -6.028E+01   -6.116E+01
    -6.204E+01   -6.292E+01   -6.379E+01   -6.466E+01   -6.552E+01   -6.639E+01   -6.724E+01   -6.810E+01   -6.895E+01   -6.980E+01
    -7.064E+01   -7.148E+01   -7.231E+01   -7.314E+01   -7.397E+01   -7.479E+01   -7.561E+01   -7.642E+01   -7.723E+01   -7.804E+01
    -7.884E+01   -7.963E+01   -8.042E+01   -8.121E+01   -8.199E+01   -8.276E+01   -8.353E+01   -8.429E+01   -8.505E+01   -8.581E+01
    -8.656E+01   -8.730E+01   -8.804E+01   -8.877E+01   -8.949E+01   -9.021E+01   -9.093E+01   -9.164E+01   -9.234E+01   -9.304E+01
    -9.373E+01   -9.441E+01   -9.509E+01   -9.576E+01   -9.643E+01   -9.708E+01   -9.774E+01   -9.838E+01   -9.902E+01   -9.965E+01
    -1.003E+02   -1.009E+02   -1.015E+02   -1.021E+02   -1.027E+02   -1.033E+02   -1.039E+02   -1.045E+02   -1.050E+02   -1.056E+02
    -1.061E+02   -1.067E+02   -1.072E+02   -1.077E+02   -1.083E+02   -1.088E+02   -1.093E+02   -1.098E+02   -1.103E+02   -1.108E+02
    -1.112E+02   -1.117E+02   -1.121E+02   -1.126E+02   -1.130E+02   -1.135E+02   -1.139E+02   -1.143E+02   -1.147E+02   -1.151E+02
    -1.155E+02   -1.159E+02   -1.162E+02   -1.166E+02   -1.169E+02   -1.173E+02   -1.176E+02   -1.179E+02   -1.182E+02   -1.185E+02
    -1.188E+02   -1.191E+02   -1.194E+02   -1.196E+02   -1.199E+02   -1.201E+02   -1.204E+02   -1.206E+02   -1.208E+02   -1.210E+02
    -1.212E+02   -1.213E+02   -1.215E+02   -1.217E+02   -1.218E+02   -1.219E+02   -1.221E+02   -1.222E+02   -1.223E+02   -1.223E+02
    -1.224E+02   -1.225E+02   -1.225E+02   -1.226E+02   -1.226E+02   -1.226E+02   -1.226E+02   -1.226E+02   -1.226E+02   -1.225E+02
    -1.225E+02   -1.224E+02   -1.224E+02   -1.223E+02   -1.222E+02   -1.221E+02   -1.219E+02   -1.218E+02   -1.217E+02   -1.215E+02
    -1.213E+02   -1.211E+02   -1.209E+02   -1.207E+02   -1.205E+02   -1.202E+02   -1.200E+02   -1.197E+02   -1.194E+02   -1.191E+02
    -1.188E+02   -1.185E+02   -1.181E+02   -1.178E+02   -1.174E+02   -1.170E+02   -1.166E+02   -1.162E+02   -1.157E+02   -1.153E+02
    -1.148E+02   -1.143E+02   -1.139E+02   -1.133E+02   -1.128E+02   -1.123E+02   -1.117E+02   -1.111E+02   -1.106E+02   -1.100E+02
    -1.093E+02   -1.087E+02   -1.080E+02   -1.074E+02   -1.067E+02   -1.060E+02   -1.053E+02   -1.045E+02   -1.038E+02   -1.030E+02
    -1.022E+02   -1.014E+02   -1.006E+02   -9.978E+01   -9.892E+01   -9.805E+01   -9.716E+01   -9.626E+01   -9.534E+01   -9.439E+01
    -9.344E+01   -9.246E+01   -9.147E+01   -9.046E+01   -8.943E+01   -8.839E+01   -8.733E+01   -8.626E+01   -8.517E+01   -8.406E+01
    -8.294E+01   -8.180E+01   -8.065E+01   -7.948E+01   -7.830E+01   -7.710E+01   -7.589E+01   -7.466E+01   -7.342E+01   -7.217E+01
    -7.090E+01   -6.962E+01   -6.833E+01   -6.702E+01   -6.570E+01   -6.436E+01   -6.302E+01   -6.166E+01   -6.029E+01   -5.891E+01
    -5.751E+01   -5.610E+01   -5.469E+01   -5.326E+01   -5.182E+01   -5.037E+01   -4.890E+01   -4.743E+01   -4.595E+01   -4.445E+01
    -4.295E+01   -4.144E+01   -3.991E+01   -3.838E+01   -3.684E+01   -3.529E+01   -3.373E+01   -3.216E+01   -3.058E+01   -2.900E+01
    -2.740E+01   -2.580E+01   -2.419E+01   -2.257E+01   -2.095E+01   -1.931E+01   -1.768E+01   -1.603E+01   -1.438E+01   -1.272E+01
    -1.105E+01   -9.378E+00   -7.699E+00   -6.015E+00   -4.325E+00   -2.630E+00   -9.292E-01    7.766E-01    2.487E+00    4.203E+00
     5.923E+00    7.647E+00    9.375E+00    1.111E+01    1.284E+01    1.458E+01    1.633E+01    1.807E+01    1.982E+01    2.158E+01
     2.333E+01    2.509E+01    2.685E+01    2.861E+01    3.038E+01    3.214E+01    3.391E+01    3.568E+01    3.745E+01    3.922E+01
     4.100E+01    4.277E+01    4.454E+01    4.632E+01    4.809E+01    4.987E+01    5.164E+01    5.341E+01
 Ala      Conc. = 8.94E+03
