 LCModel (Version 6.3-1L) Copyright: S.W. Provencher.          Ref.: Magn. Reson. Med. 30:672-679 (1993).                
 Slice#2 Row#3 Col#7  PD_24_press_2_raw_act
 36 lines in following concentration table = NCONC+1
    Conc.  %SD /Cr+PCr  Metabolite                                         
  257.409 170%   0.146 Ala                                                 
  199.875 189%   0.113 Asp                                                 
 1.06E+03  72%   0.604 Cr                                                  
  696.700 112%   0.396 PCr                                                 
  174.137 134% 9.9E-02 GABA                                                
   95.342 243% 5.4E-02 Glc                                                 
 1.06E+03  84%   0.601 Gln                                                 
    0.000 999%   0.000 Glu                                                 
    0.000 999%   0.000 GPC                                                 
  857.823   8%   0.487 PCh                                                 
    0.000 999%   0.000 GSH                                                 
 1.25E+03  65%   0.709 Ins                                                 
  211.871 237%   0.120 Lac                                                 
 2.70E+03  13%   1.533 NAA                                                 
  193.871 197%   0.110 NAAG                                                
  201.390  32%   0.114 Scyllo                                              
  576.870  63%   0.328 Tau                                                 
 1.06E+03  27%   0.602 -CrCH2                                              
  857.823   8%   0.487 GPC+PCh                                             
 2.89E+03   8%   1.643 NAA+NAAG                                            
 1.76E+03  10%   1.000 Cr+PCr                                              
 1.06E+03  84%   0.601 Glu+Gln                                             
 2.33E+03  42%   1.321 Lip13a                                              
    0.000 999%   0.000 Lip13b                                              
  530.624  70%   0.301 Lip09                                               
 1.02E+03  47%   0.580 MM09                                                
  383.156  63%   0.218 Lip20                                               
 1.76E+03  44%   0.998 MM20                                                
  331.605  70%   0.188 MM12                                                
 1.71E+03  37%   0.971 MM14                                                
   39.089 988% 2.2E-02 MM17                                                
 2.33E+03  42%   1.321 Lip13a+Lip13b                                       
 4.37E+03  18%   2.481 MM14+Lip13a+Lip13b+MM12                             
 1.55E+03  24%   0.881 MM09+Lip09                                          
 2.14E+03  35%   1.215 MM20+Lip20                                          
   6 lines in following misc. output table
  FWHM = 0.069 ppm    S/N =   4                                            
  Data shift = 0.015 ppm                                                   
  Ph: -38 deg      -8.0 deg/ppm                                            
  alphaB,S = 8.5E+01,   2.0E+02                                            
   14 spline knots.   Ns = 8(1)                                            
   2 inflections.     1 extrema                                            
  498 points on ppm-axis = NY
      4.000000     3.992357     3.984714     3.977070     3.969427     3.961784     3.954141     3.946497     3.938854     3.931211
      3.923568     3.915925     3.908281     3.900638     3.892995     3.885352     3.877708     3.870065     3.862422     3.854779
      3.847136     3.839492     3.831849     3.824206     3.816563     3.808919     3.801276     3.793633     3.785990     3.778347
      3.770703     3.763060     3.755417     3.747774     3.740130     3.732487     3.724844     3.717201     3.709558     3.701914
      3.694271     3.686628     3.678985     3.671341     3.663698     3.656055     3.648412     3.640769     3.633125     3.625482
      3.617839     3.610196     3.602552     3.594909     3.587266     3.579623     3.571980     3.564336     3.556693     3.549050
      3.541407     3.533763     3.526120     3.518477     3.510834     3.503191     3.495547     3.487904     3.480261     3.472618
      3.464974     3.457331     3.449688     3.442045     3.434402     3.426758     3.419115     3.411472     3.403829     3.396185
      3.388542     3.380899     3.373256     3.365613     3.357969     3.350326     3.342683     3.335040     3.327396     3.319753
      3.312110     3.304467     3.296824     3.289180     3.281537     3.273894     3.266251     3.258607     3.250964     3.243321
      3.235678     3.228034     3.220391     3.212748     3.205105     3.197462     3.189818     3.182175     3.174532     3.166889
      3.159245     3.151602     3.143959     3.136316     3.128673     3.121029     3.113386     3.105743     3.098100     3.090456
      3.082813     3.075170     3.067527     3.059884     3.052240     3.044597     3.036954     3.029311     3.021667     3.014024
      3.006381     2.998738     2.991095     2.983451     2.975808     2.968165     2.960522     2.952878     2.945235     2.937592
      2.929949     2.922306     2.914662     2.907019     2.899376     2.891733     2.884089     2.876446     2.868803     2.861160
      2.853517     2.845873     2.838230     2.830587     2.822944     2.815300     2.807657     2.800014     2.792371     2.784728
      2.777084     2.769441     2.761798     2.754155     2.746511     2.738868     2.731225     2.723582     2.715939     2.708295
      2.700652     2.693009     2.685366     2.677722     2.670079     2.662436     2.654793     2.647150     2.639506     2.631863
      2.624220     2.616577     2.608933     2.601290     2.593647     2.586004     2.578361     2.570717     2.563074     2.555431
      2.547788     2.540144     2.532501     2.524858     2.517215     2.509572     2.501928     2.494285     2.486642     2.478999
      2.471355     2.463712     2.456069     2.448426     2.440783     2.433139     2.425496     2.417853     2.410210     2.402566
      2.394923     2.387280     2.379637     2.371994     2.364350     2.356707     2.349064     2.341421     2.333777     2.326134
      2.318491     2.310848     2.303205     2.295561     2.287918     2.280275     2.272632     2.264988     2.257345     2.249702
      2.242059     2.234416     2.226772     2.219129     2.211486     2.203843     2.196199     2.188556     2.180913     2.173270
      2.165627     2.157983     2.150340     2.142697     2.135054     2.127410     2.119767     2.112124     2.104481     2.096838
      2.089194     2.081551     2.073908     2.066265     2.058621     2.050978     2.043335     2.035692     2.028049     2.020405
      2.012762     2.005119     1.997476     1.989833     1.982190     1.974546     1.966903     1.959260     1.951617     1.943974
      1.936331     1.928688     1.921045     1.913402     1.905759     1.898115     1.890472     1.882829     1.875186     1.867543
      1.859900     1.852257     1.844614     1.836971     1.829327     1.821684     1.814041     1.806398     1.798755     1.791112
      1.783469     1.775826     1.768183     1.760540     1.752896     1.745253     1.737610     1.729967     1.722324     1.714681
      1.707038     1.699395     1.691752     1.684108     1.676465     1.668822     1.661179     1.653536     1.645893     1.638250
      1.630607     1.622964     1.615321     1.607677     1.600034     1.592391     1.584748     1.577105     1.569462     1.561819
      1.554176     1.546533     1.538890     1.531246     1.523603     1.515960     1.508317     1.500674     1.493031     1.485388
      1.477745     1.470102     1.462458     1.454815     1.447172     1.439529     1.431886     1.424243     1.416600     1.408957
      1.401314     1.393671     1.386027     1.378384     1.370741     1.363098     1.355455     1.347812     1.340169     1.332526
      1.324883     1.317240     1.309596     1.301953     1.294310     1.286667     1.279024     1.271381     1.263738     1.256095
      1.248452     1.240808     1.233165     1.225522     1.217879     1.210236     1.202593     1.194950     1.187307     1.179664
      1.172021     1.164377     1.156734     1.149091     1.141448     1.133805     1.126162     1.118519     1.110876     1.103233
      1.095590     1.087946     1.080303     1.072660     1.065017     1.057374     1.049731     1.042088     1.034445     1.026802
      1.019158     1.011515     1.003872     0.996229     0.988586     0.980943     0.973300     0.965657     0.958014     0.950371
      0.942727     0.935084     0.927441     0.919798     0.912155     0.904512     0.896869     0.889226     0.881583     0.873940
      0.866296     0.858653     0.851010     0.843367     0.835724     0.828081     0.820438     0.812795     0.805152     0.797508
      0.789865     0.782222     0.774579     0.766936     0.759293     0.751650     0.744007     0.736364     0.728721     0.721077
      0.713434     0.705791     0.698148     0.690505     0.682862     0.675219     0.667576     0.659933     0.652290     0.644646
      0.637003     0.629360     0.621717     0.614074     0.606431     0.598788     0.591145     0.583502     0.575858     0.568215
      0.560572     0.552929     0.545286     0.537643     0.530000     0.522357     0.514714     0.507071     0.499427     0.491784
      0.484141     0.476498     0.468855     0.461212     0.453569     0.445925     0.438282     0.430639     0.422996     0.415353
      0.407710     0.400067     0.392424     0.384780     0.377137     0.369494     0.361851     0.354208     0.346565     0.338922
      0.331278     0.323635     0.315992     0.308349     0.300706     0.293063     0.285420     0.277777     0.270133     0.262490
      0.254847     0.247204     0.239561     0.231918     0.224275     0.216631     0.208988     0.201345
 NY phased data points follow
  -5.43562E+00 -3.83168E+01 -3.84882E+01 -6.41534E+01 -2.24562E+01 -1.98211E+01 -7.18463E+00 -3.11307E+01 -1.31836E+01 -2.10671E+01
   3.49977E+00 -1.43305E+00  9.46896E+00 -2.39440E+01 -8.33707E+00 -2.82421E+01 -7.01983E+00 -2.53295E+01 -1.49958E+01 -3.40628E+01
  -3.57848E+00 -3.21433E+01 -3.75049E+01 -3.14551E+01 -3.46964E+01 -4.10856E+01 -2.12995E+01 -2.03424E+01 -2.41171E+01 -3.43836E+01
  -1.15942E+01 -4.05375E+01 -9.77869E+00 -3.25933E+01  8.40886E-01 -2.84866E+01 -6.09436E+00 -1.49335E+01 -1.87545E+01 -9.23960E+00
  -5.97014E+00 -2.22052E+01 -5.17315E+00 -2.88411E+01 -5.17589E+00 -1.91560E+01 -7.06182E+00 -2.25620E+01  7.43574E+00  1.37402E+00
   3.29535E-01 -1.56762E+01 -1.40340E+01 -1.14079E+01 -4.31317E+00 -7.31236E+00  7.27572E+00 -1.21905E+01  8.68776E+00 -2.31292E+01
   3.66750E+00 -1.10090E+01 -7.83434E+00 -2.23044E+01 -9.11486E+00 -1.57327E+01 -1.78301E+00 -1.91194E+01 -1.56491E+01 -1.22374E+01
  -1.31396E+01 -2.60151E+01 -1.38689E+01 -1.27462E+01 -2.08363E+01 -5.11190E+00 -1.04128E+01 -1.93973E+01 -2.44400E-01 -2.01819E+01
   1.16833E+00 -1.58866E+01  4.01552E+00 -1.45543E+00  9.51939E-01 -1.41682E+01 -2.02506E+00  2.17352E+00 -6.37707E+00  5.38422E+00
   9.93616E+00 -6.76968E+00  4.90578E+00 -3.60083E+00  1.29174E+01 -4.82500E+00  6.16318E+00 -1.87265E+01  2.94894E+01  1.24312E+01
   4.73354E+01  2.82927E+01  7.54406E+01  5.52410E+01  6.61133E+01  3.30211E+01  2.85534E+01  2.75421E+01  2.81123E+01  1.31473E+01
   1.30843E+01 -2.54035E+01  1.63726E+01  1.49767E+00 -3.98290E+00 -1.60688E+01 -3.76938E+00 -1.63109E+01 -1.12198E+01 -5.29781E+00
  -8.32768E+00  5.74434E+00  1.14988E+01 -2.46753E+00  1.70924E+01  1.87550E+01  3.42427E+01  3.73989E+01  5.00049E+01  3.09005E+01
   4.35136E+01  2.53372E+01  1.62605E+01 -3.64048E+00  6.18585E+00 -8.23530E+00 -7.11110E+00 -1.78179E+00 -5.33660E+00 -1.07035E+01
  -9.07063E+00 -8.54837E+00 -1.57678E+00 -3.75143E+00 -8.40090E+00 -2.69427E+01 -5.12084E-02 -9.46597E+00 -7.20660E+00 -1.45136E+01
  -6.58690E+00 -1.35880E+01  3.93005E-01 -1.74381E+01 -7.68555E-01 -9.40554E+00 -3.48353E+00 -6.27934E+00 -1.33777E+01 -8.87859E+00
  -1.55370E+01 -1.18535E+01 -1.47237E+01 -1.59841E+01 -7.18708E+00 -1.05990E+01 -1.27602E+01 -2.31992E+01 -1.56479E+01 -1.38640E+01
  -1.57574E+01 -1.03841E+01 -1.55062E+01 -2.24909E+01 -1.57601E+01 -3.13947E+01 -1.02086E+01 -2.04605E+01 -2.76880E+01 -1.88525E+01
  -1.44820E+01 -1.91009E+01 -5.04249E+00 -9.39305E+00 -6.67049E+00 -2.07101E+01 -1.22975E+01 -8.23018E+00  5.40336E+00 -1.07517E+01
   7.31703E+00 -9.72889E+00  1.44532E+01 -6.82907E+00  1.26608E+01 -9.88247E+00 -2.08991E+00 -1.26314E+01 -1.77118E+01 -1.67849E+01
  -2.32280E+01 -3.41451E+00 -7.22955E+00 -1.53914E+01  5.60514E+00 -3.45422E+00 -1.35012E+01 -1.51142E+01 -1.72787E+01 -1.34108E+01
  -4.01537E+00 -1.40900E+01  1.72896E+01 -2.69504E+00  1.23543E+01 -1.40926E+00  1.01136E-02  1.98390E+00 -3.22842E-01  1.63537E+01
   1.31582E+01  1.96965E+01  3.61414E+00  4.33414E+00 -4.55874E+00  1.65369E+01  2.20880E+01 -8.88008E-01  1.71344E+01 -4.62317E+00
  -3.13786E+00  2.98322E+00 -6.83091E+00 -1.25406E+00 -8.49472E+00  5.71355E+00  6.72446E+00 -1.21994E+01  8.31091E-01 -5.74070E+00
   4.49712E+00 -1.12257E+01  3.35816E+00 -1.12386E+01 -2.77713E+00 -1.52000E+01  1.45809E+01 -1.95347E-01  1.10476E+01  7.92111E-01
   2.39141E+01  5.91119E+00  1.24408E+01  1.58497E+01  3.56107E+01  4.74625E+01  3.45379E+01  4.25089E+01  7.15121E+01  7.94972E+01
   8.71702E+01  8.87755E+01  7.23785E+01  5.57241E+01  4.84761E+01  2.62510E+01  3.09632E+01  1.76147E+01  2.64839E+01  2.27240E+01
   3.08291E+01  5.13222E+00 -7.64107E+00 -7.85594E+00  5.38736E-01  6.98989E+00  3.69624E+00  7.83685E+00 -5.48584E+00 -6.50533E+00
   4.69587E+00 -2.58576E+00 -1.44553E+00  1.65555E+01  5.30212E+00  9.02517E+00  7.86848E+00 -1.02145E+01  3.51362E+00  3.28437E+00
  -1.41599E+01 -1.93148E+01 -1.04396E+01  3.57563E+00 -1.41017E+01 -8.49576E+00  6.02231E+00 -1.52863E+01 -7.60385E+00  1.31112E+00
  -3.65241E-01 -9.31875E+00  7.67659E-02  1.10674E+01  8.54799E+00 -9.60398E-01  5.71104E+00  2.64608E+00 -3.88789E-01  4.86169E+00
   2.26599E+00  4.64329E+00  1.26318E+01 -2.65489E+00  6.93532E+00  1.19515E+01  9.91988E+00  2.00854E+01  3.11108E+00  1.33685E+01
  -1.14929E+00  1.85260E+00  2.34699E+00  2.48612E+00  5.13493E+00  1.74139E+01  1.64255E+01  1.68008E+01  2.07904E+01 -1.41794E+00
   1.09972E+01  2.32640E+01  1.28768E+01  3.26265E+00  2.44464E+01  2.01666E+01  2.09633E+01  2.66841E+01  2.77760E+01  2.63631E+01
   3.25862E+01  1.39683E+01  1.82425E+01  1.10183E+01  1.13991E+01  1.47065E+01  1.77640E+01  5.63070E+00  3.72899E+01  5.42875E+00
   1.93506E+01  5.90623E+00  1.79475E+01  1.43781E+01  1.35264E+01  7.39883E+00  1.67284E+01  1.81158E+01  1.72550E+01  1.29714E+01
   2.56257E+01 -1.02939E+00  4.59875E+00  9.92027E+00  1.30907E+01  2.57984E+01  1.43729E+01  2.85641E+01  1.76760E+01  1.77719E+01
   2.60418E+01  2.42315E+01  2.23250E+00  1.45326E+01  1.67943E+01  2.40514E+01  1.46062E+01  2.21872E+01  8.16083E+00  4.49273E+00
   7.49988E+00  8.01466E+00 -6.79060E+00  2.35895E+01  2.07745E+01  2.68788E+01  8.87061E+00 -7.16928E+00  8.74548E+00  1.63913E+01
   1.00827E+01  7.20179E+00  1.34947E+01 -4.05437E+00  3.04433E+01 -2.81961E+00 -8.58523E-01  1.23235E+01  1.76243E+01 -7.39627E+00
   2.74689E+01  3.55772E+00  1.99433E+01  2.18338E+01  1.94397E+01  2.87492E+01  2.41149E+01  1.65464E+01  2.30967E+01  1.95774E+01
   2.07139E+01 -5.46236E+00  2.37640E+01  3.26801E-01  1.37976E+01  2.96673E+01  1.62972E+01  2.00262E+01  1.58854E+01  1.84163E+01
   6.90179E+00  1.52796E+01  1.11559E+01  1.40440E+01  1.39436E+01  2.25722E+01  2.98343E+01  1.81583E+01  6.42548E-01  2.75983E+01
   8.90943E+00  9.50912E+00  2.82485E+00  5.12291E+00  2.18759E+01  5.70933E+00 -1.16047E+01  7.20079E+00  1.43954E+01  8.50065E+00
  -1.09681E+00  7.76142E+00 -4.01339E+00  2.92978E-01  1.05718E+01  6.72587E+00  1.99532E+01  2.60448E+00  9.43627E+00  1.38174E+01
   2.25653E+00  2.76311E+01  1.30976E+01  1.44757E+00  1.52488E+01  4.66378E+00  1.70072E+01  1.34022E+01  1.90539E+01  1.10597E+01
   2.97731E+01  8.07043E+00 -2.30816E+00  3.02193E+01  1.81522E+01  1.73001E+01  8.67747E+00  7.35329E+00  1.45013E+01  2.41289E+01
   5.80604E+00  1.84864E+01  1.47364E+01  6.27279E+00  7.92739E+00  2.72702E+01 -2.03572E+00  5.08556E+00  1.47624E+01  5.08036E+00
   5.46667E+00  3.24912E+00  6.75833E+00 -2.66946E+00  1.30313E+01  1.12141E+01  4.20748E+00  2.01998E+01  1.36222E+01  8.55347E+00
   1.81673E+00  1.50518E+01 -4.01389E+00  1.20462E+01  9.61672E+00  4.85150E+00  1.49878E+01  1.45735E+01
 NY points of the fit to the data follow
  -1.89882E+01 -2.02170E+01 -2.14132E+01 -2.21047E+01 -2.19733E+01 -2.11760E+01 -1.98132E+01 -1.78366E+01 -1.51584E+01 -1.19460E+01
  -8.77179E+00 -6.37217E+00 -5.26289E+00 -5.48126E+00 -6.68495E+00 -8.41096E+00 -1.03097E+01 -1.21878E+01 -1.41075E+01 -1.59925E+01
  -1.74196E+01 -1.81909E+01 -1.84108E+01 -1.85495E+01 -1.86771E+01 -1.87525E+01 -1.87273E+01 -1.85575E+01 -1.82064E+01 -1.76848E+01
  -1.70536E+01 -1.64118E+01 -1.58854E+01 -1.55536E+01 -1.54176E+01 -1.54480E+01 -1.56282E+01 -1.59320E+01 -1.62728E+01 -1.64977E+01
  -1.64517E+01 -1.60760E+01 -1.53866E+01 -1.44960E+01 -1.34805E+01 -1.24306E+01 -1.15353E+01 -1.10241E+01 -1.10205E+01 -1.14868E+01
  -1.22664E+01 -1.31134E+01 -1.38346E+01 -1.43493E+01 -1.46291E+01 -1.47082E+01 -1.45704E+01 -1.41680E+01 -1.35698E+01 -1.29694E+01
  -1.25560E+01 -1.23825E+01 -1.23943E+01 -1.25213E+01 -1.26611E+01 -1.27378E+01 -1.27328E+01 -1.26261E+01 -1.23839E+01 -1.20091E+01
  -1.15454E+01 -1.10685E+01 -1.06519E+01 -1.03728E+01 -1.02614E+01 -1.03298E+01 -1.05638E+01 -1.08732E+01 -1.09869E+01 -1.06470E+01
  -9.92832E+00 -8.96148E+00 -7.80758E+00 -6.55785E+00 -5.36459E+00 -4.43323E+00 -4.01078E+00 -4.26646E+00 -5.11053E+00 -6.29404E+00
  -7.55912E+00 -8.69236E+00 -9.58985E+00 -1.01589E+01 -9.93570E+00 -7.36832E+00 -1.71092E+00  6.20137E+00  1.53851E+01  2.53684E+01
   3.57333E+01  4.54147E+01  5.27142E+01  5.59848E+01  5.45048E+01  4.88802E+01  4.06079E+01  3.12091E+01  2.17640E+01  1.28921E+01
   4.87056E+00 -1.99561E+00 -7.07986E+00 -9.58589E+00 -1.03760E+01 -1.07012E+01 -1.08394E+01 -1.08058E+01 -1.03509E+01 -8.50684E+00
  -4.67649E+00  6.60499E-01  6.98945E+00  1.40262E+01  2.14723E+01  2.85774E+01  3.41135E+01  3.68603E+01  3.62226E+01  3.25310E+01
   2.67979E+01  2.01381E+01  1.33636E+01  6.94745E+00  1.14466E+00 -3.82677E+00 -7.55968E+00 -9.45803E+00 -9.98771E+00 -1.01453E+01
  -1.01907E+01 -1.01840E+01 -1.01502E+01 -1.01034E+01 -1.00564E+01 -1.00215E+01 -1.00041E+01 -1.00113E+01 -1.00347E+01 -1.00543E+01
  -1.00597E+01 -1.00503E+01 -1.00473E+01 -1.01017E+01 -1.02322E+01 -1.04140E+01 -1.06137E+01 -1.07963E+01 -1.09717E+01 -1.11487E+01
  -1.12896E+01 -1.13411E+01 -1.12859E+01 -1.11691E+01 -1.10749E+01 -1.10760E+01 -1.11956E+01 -1.14176E+01 -1.17267E+01 -1.21052E+01
  -1.24973E+01 -1.28865E+01 -1.32465E+01 -1.35686E+01 -1.38207E+01 -1.39170E+01 -1.38435E+01 -1.36382E+01 -1.33739E+01 -1.31465E+01
  -1.29542E+01 -1.26982E+01 -1.23178E+01 -1.18215E+01 -1.12510E+01 -1.06473E+01 -1.00336E+01 -9.37563E+00 -8.64184E+00 -7.89687E+00
  -7.26534E+00 -6.85411E+00 -6.64321E+00 -6.51840E+00 -6.37826E+00 -6.16951E+00 -5.86648E+00 -5.45458E+00 -4.89195E+00 -4.17451E+00
  -3.39973E+00 -2.74453E+00 -2.45741E+00 -2.65018E+00 -3.30101E+00 -4.38003E+00 -5.79024E+00 -7.30039E+00 -8.66573E+00 -9.65941E+00
  -1.01230E+01 -1.00127E+01 -9.40679E+00 -8.44245E+00 -7.24159E+00 -5.92976E+00 -4.63001E+00 -3.43390E+00 -2.40808E+00 -1.61514E+00
  -1.07310E+00 -6.58460E-01 -3.20510E-01 -1.31582E-01 -8.39199E-02 -1.21926E-01 -2.19461E-01 -3.75394E-01 -6.20662E-01 -9.06326E-01
  -1.14145E+00 -1.25610E+00 -1.20393E+00 -9.36843E-01 -4.54561E-01  1.89588E-01  9.72424E-01  1.83958E+00  2.66407E+00  3.29306E+00
   3.60996E+00  3.58392E+00  3.31036E+00  2.97042E+00  2.72737E+00  2.66424E+00  2.81973E+00  3.31407E+00  4.28658E+00  5.72164E+00
   7.55052E+00  9.88615E+00  1.37731E+01  2.03465E+01  2.89652E+01  3.86664E+01  4.88633E+01  5.91929E+01  6.88296E+01  7.62160E+01
   7.96359E+01  7.80927E+01  7.18933E+01  6.24841E+01  5.16134E+01  4.06393E+01  3.03853E+01  2.11651E+01  1.32004E+01  6.98054E+00
   3.38805E+00  2.19793E+00  1.75055E+00  1.49298E+00  1.31256E+00  1.16438E+00  1.02381E+00  8.80077E-01  7.34429E-01  5.89793E-01
   4.51851E-01  3.34195E-01  2.46855E-01  1.93109E-01  1.74696E-01  1.89717E-01  2.32917E-01  2.95162E-01  3.67019E-01  4.44133E-01
   5.25194E-01  6.06200E-01  6.85368E-01  7.63331E-01  8.41002E-01  9.21377E-01  1.00872E+00  1.10406E+00  1.20829E+00  1.32307E+00
   1.44897E+00  1.58550E+00  1.73378E+00  1.89384E+00  2.06439E+00  2.24560E+00  2.43847E+00  2.64426E+00  2.86450E+00  3.10086E+00
   3.35634E+00  3.63400E+00  3.93698E+00  4.26882E+00  4.63366E+00  5.03639E+00  5.48366E+00  5.98616E+00  6.56696E+00  7.26217E+00
   8.02876E+00  8.78299E+00  9.47893E+00  1.00899E+01  1.05773E+01  1.08770E+01  1.09334E+01  1.08054E+01  1.06445E+01  1.05787E+01
   1.07004E+01  1.10640E+01  1.16930E+01  1.25698E+01  1.36234E+01  1.47449E+01  1.58265E+01  1.67877E+01  1.75497E+01  1.81323E+01
   1.85743E+01  1.88553E+01  1.89679E+01  1.89150E+01  1.87050E+01  1.83695E+01  1.79045E+01  1.73298E+01  1.67339E+01  1.62074E+01
   1.58297E+01  1.56546E+01  1.57031E+01  1.59519E+01  1.63299E+01  1.67401E+01  1.70964E+01  1.73439E+01  1.74181E+01  1.72972E+01
   1.70267E+01  1.66459E+01  1.61800E+01  1.56500E+01  1.50931E+01  1.45802E+01  1.41219E+01  1.36906E+01  1.32772E+01  1.28806E+01
   1.25024E+01  1.21449E+01  1.18110E+01  1.15034E+01  1.12248E+01  1.09774E+01  1.07636E+01  1.05850E+01  1.04432E+01  1.03396E+01
   1.02756E+01  1.02524E+01  1.02712E+01  1.03330E+01  1.04388E+01  1.05896E+01  1.07864E+01  1.10295E+01  1.13192E+01  1.16548E+01
   1.20352E+01  1.24582E+01  1.29205E+01  1.34174E+01  1.39428E+01  1.44890E+01  1.50472E+01  1.56068E+01  1.61566E+01  1.66842E+01
   1.71770E+01  1.76225E+01  1.80088E+01  1.83254E+01  1.85634E+01  1.87160E+01  1.87790E+01  1.87510E+01  1.86334E+01  1.84302E+01
   1.81483E+01  1.77964E+01  1.73849E+01  1.69257E+01  1.64309E+01  1.59132E+01  1.53843E+01  1.48553E+01  1.43361E+01  1.38351E+01
   1.33592E+01  1.29136E+01  1.25020E+01  1.21264E+01  1.17878E+01  1.14861E+01  1.12203E+01  1.09887E+01  1.07890E+01  1.06187E+01
   1.04754E+01  1.03563E+01  1.02591E+01  1.01810E+01  1.01200E+01  1.00739E+01  1.00409E+01  1.00193E+01  1.00078E+01  1.00049E+01
   1.00097E+01  1.00210E+01  1.00382E+01  1.00605E+01  1.00874E+01  1.01181E+01  1.01524E+01  1.01897E+01  1.02299E+01  1.02726E+01
   1.03175E+01  1.03644E+01  1.04130E+01  1.04633E+01  1.05151E+01  1.05682E+01  1.06226E+01  1.06781E+01  1.07345E+01  1.07920E+01
   1.08503E+01  1.09095E+01  1.09693E+01  1.10298E+01  1.10910E+01  1.11528E+01  1.12152E+01  1.12780E+01  1.13413E+01  1.14051E+01
   1.14692E+01  1.15339E+01  1.15989E+01  1.16642E+01  1.17298E+01  1.17958E+01  1.18621E+01  1.19287E+01  1.19955E+01  1.20626E+01
   1.21299E+01  1.21975E+01  1.22654E+01  1.23335E+01  1.24019E+01  1.24704E+01  1.25391E+01  1.26081E+01  1.26773E+01  1.27468E+01
   1.28164E+01  1.28863E+01  1.29564E+01  1.30268E+01  1.30975E+01  1.31684E+01  1.32396E+01  1.33111E+01
 NY background values follow
    -2.212E+01   -2.205E+01   -2.198E+01   -2.191E+01   -2.184E+01   -2.177E+01   -2.169E+01   -2.162E+01   -2.155E+01   -2.148E+01
    -2.141E+01   -2.134E+01   -2.126E+01   -2.119E+01   -2.112E+01   -2.105E+01   -2.098E+01   -2.091E+01   -2.083E+01   -2.076E+01
    -2.069E+01   -2.062E+01   -2.055E+01   -2.047E+01   -2.040E+01   -2.033E+01   -2.026E+01   -2.019E+01   -2.012E+01   -2.004E+01
    -1.997E+01   -1.990E+01   -1.983E+01   -1.976E+01   -1.969E+01   -1.961E+01   -1.954E+01   -1.947E+01   -1.940E+01   -1.933E+01
    -1.925E+01   -1.918E+01   -1.911E+01   -1.904E+01   -1.897E+01   -1.890E+01   -1.882E+01   -1.875E+01   -1.868E+01   -1.861E+01
    -1.854E+01   -1.846E+01   -1.839E+01   -1.832E+01   -1.825E+01   -1.818E+01   -1.811E+01   -1.803E+01   -1.796E+01   -1.789E+01
    -1.782E+01   -1.775E+01   -1.767E+01   -1.760E+01   -1.753E+01   -1.746E+01   -1.739E+01   -1.731E+01   -1.724E+01   -1.717E+01
    -1.710E+01   -1.703E+01   -1.696E+01   -1.688E+01   -1.681E+01   -1.674E+01   -1.667E+01   -1.660E+01   -1.652E+01   -1.645E+01
    -1.638E+01   -1.631E+01   -1.624E+01   -1.616E+01   -1.609E+01   -1.602E+01   -1.595E+01   -1.588E+01   -1.581E+01   -1.573E+01
    -1.566E+01   -1.559E+01   -1.552E+01   -1.545E+01   -1.537E+01   -1.530E+01   -1.523E+01   -1.516E+01   -1.509E+01   -1.501E+01
    -1.494E+01   -1.487E+01   -1.480E+01   -1.473E+01   -1.466E+01   -1.458E+01   -1.451E+01   -1.444E+01   -1.437E+01   -1.430E+01
    -1.422E+01   -1.415E+01   -1.408E+01   -1.401E+01   -1.394E+01   -1.386E+01   -1.379E+01   -1.372E+01   -1.365E+01   -1.358E+01
    -1.350E+01   -1.343E+01   -1.336E+01   -1.329E+01   -1.322E+01   -1.314E+01   -1.307E+01   -1.300E+01   -1.293E+01   -1.286E+01
    -1.279E+01   -1.271E+01   -1.264E+01   -1.257E+01   -1.250E+01   -1.243E+01   -1.235E+01   -1.228E+01   -1.221E+01   -1.214E+01
    -1.207E+01   -1.199E+01   -1.192E+01   -1.185E+01   -1.178E+01   -1.171E+01   -1.163E+01   -1.156E+01   -1.149E+01   -1.142E+01
    -1.135E+01   -1.127E+01   -1.120E+01   -1.113E+01   -1.106E+01   -1.099E+01   -1.091E+01   -1.084E+01   -1.077E+01   -1.070E+01
    -1.063E+01   -1.055E+01   -1.048E+01   -1.041E+01   -1.034E+01   -1.027E+01   -1.020E+01   -1.012E+01   -1.005E+01   -9.979E+00
    -9.907E+00   -9.836E+00   -9.764E+00   -9.692E+00   -9.620E+00   -9.548E+00   -9.476E+00   -9.404E+00   -9.332E+00   -9.260E+00
    -9.188E+00   -9.116E+00   -9.044E+00   -8.972E+00   -8.900E+00   -8.828E+00   -8.756E+00   -8.684E+00   -8.613E+00   -8.541E+00
    -8.469E+00   -8.397E+00   -8.325E+00   -8.253E+00   -8.181E+00   -8.109E+00   -8.037E+00   -7.965E+00   -7.893E+00   -7.821E+00
    -7.749E+00   -7.677E+00   -7.605E+00   -7.534E+00   -7.462E+00   -7.390E+00   -7.318E+00   -7.246E+00   -7.174E+00   -7.102E+00
    -7.030E+00   -6.958E+00   -6.886E+00   -6.814E+00   -6.742E+00   -6.670E+00   -6.598E+00   -6.527E+00   -6.455E+00   -6.383E+00
    -6.311E+00   -6.239E+00   -6.167E+00   -6.095E+00   -6.023E+00   -5.951E+00   -5.879E+00   -5.807E+00   -5.736E+00   -5.664E+00
    -5.592E+00   -5.520E+00   -5.448E+00   -5.376E+00   -5.304E+00   -5.232E+00   -5.160E+00   -5.088E+00   -5.017E+00   -4.945E+00
    -4.873E+00   -4.801E+00   -4.729E+00   -4.657E+00   -4.585E+00   -4.513E+00   -4.441E+00   -4.370E+00   -4.298E+00   -4.226E+00
    -4.154E+00   -4.082E+00   -4.010E+00   -3.938E+00   -3.866E+00   -3.795E+00   -3.723E+00   -3.651E+00   -3.579E+00   -3.507E+00
    -3.435E+00   -3.363E+00   -3.291E+00   -3.220E+00   -3.148E+00   -3.076E+00   -3.004E+00   -2.932E+00   -2.860E+00   -2.789E+00
    -2.717E+00   -2.645E+00   -2.573E+00   -2.501E+00   -2.429E+00   -2.357E+00   -2.286E+00   -2.214E+00   -2.142E+00   -2.070E+00
    -1.998E+00   -1.926E+00   -1.855E+00   -1.783E+00   -1.711E+00   -1.639E+00   -1.567E+00   -1.496E+00   -1.424E+00   -1.352E+00
    -1.280E+00   -1.208E+00   -1.137E+00   -1.065E+00   -9.929E-01   -9.212E-01   -8.494E-01   -7.776E-01   -7.058E-01   -6.340E-01
    -5.622E-01   -4.904E-01   -4.186E-01   -3.469E-01   -2.751E-01   -2.033E-01   -1.315E-01   -5.978E-02    1.199E-02    8.375E-02
     1.555E-01    2.273E-01    2.990E-01    3.708E-01    4.425E-01    5.143E-01    5.860E-01    6.578E-01    7.295E-01    8.012E-01
     8.730E-01    9.447E-01    1.016E+00    1.088E+00    1.160E+00    1.232E+00    1.303E+00    1.375E+00    1.447E+00    1.518E+00
     1.590E+00    1.662E+00    1.734E+00    1.805E+00    1.877E+00    1.949E+00    2.020E+00    2.092E+00    2.164E+00    2.235E+00
     2.307E+00    2.379E+00    2.450E+00    2.522E+00    2.594E+00    2.665E+00    2.737E+00    2.809E+00    2.880E+00    2.952E+00
     3.024E+00    3.095E+00    3.167E+00    3.239E+00    3.310E+00    3.382E+00    3.454E+00    3.525E+00    3.597E+00    3.668E+00
     3.740E+00    3.812E+00    3.883E+00    3.955E+00    4.027E+00    4.098E+00    4.170E+00    4.241E+00    4.313E+00    4.385E+00
     4.456E+00    4.528E+00    4.599E+00    4.671E+00    4.742E+00    4.814E+00    4.886E+00    4.957E+00    5.029E+00    5.100E+00
     5.172E+00    5.243E+00    5.315E+00    5.386E+00    5.458E+00    5.529E+00    5.601E+00    5.673E+00    5.744E+00    5.816E+00
     5.887E+00    5.959E+00    6.030E+00    6.102E+00    6.173E+00    6.245E+00    6.316E+00    6.388E+00    6.459E+00    6.531E+00
     6.602E+00    6.674E+00    6.745E+00    6.816E+00    6.888E+00    6.959E+00    7.031E+00    7.102E+00    7.174E+00    7.245E+00
     7.317E+00    7.388E+00    7.459E+00    7.531E+00    7.602E+00    7.674E+00    7.745E+00    7.817E+00    7.888E+00    7.959E+00
     8.031E+00    8.102E+00    8.174E+00    8.245E+00    8.316E+00    8.388E+00    8.459E+00    8.530E+00    8.602E+00    8.673E+00
     8.744E+00    8.816E+00    8.887E+00    8.958E+00    9.030E+00    9.101E+00    9.172E+00    9.244E+00    9.315E+00    9.386E+00
     9.458E+00    9.529E+00    9.600E+00    9.672E+00    9.743E+00    9.814E+00    9.886E+00    9.957E+00    1.003E+01    1.010E+01
     1.017E+01    1.024E+01    1.031E+01    1.038E+01    1.046E+01    1.053E+01    1.060E+01    1.067E+01    1.074E+01    1.081E+01
     1.088E+01    1.095E+01    1.103E+01    1.110E+01    1.117E+01    1.124E+01    1.131E+01    1.138E+01    1.145E+01    1.152E+01
     1.159E+01    1.167E+01    1.174E+01    1.181E+01    1.188E+01    1.195E+01    1.202E+01    1.209E+01    1.216E+01    1.224E+01
     1.231E+01    1.238E+01    1.245E+01    1.252E+01    1.259E+01    1.266E+01    1.273E+01    1.280E+01    1.288E+01    1.295E+01
     1.302E+01    1.309E+01    1.316E+01    1.323E+01    1.330E+01    1.337E+01    1.344E+01    1.351E+01
 Ala      Conc. = 2.57E+02
