 LCModel (Version 6.3-1L) Copyright: S.W. Provencher.          Ref.: Magn. Reson. Med. 30:672-679 (1993).                
 Slice#2 Row#3 Col#1  PD_24_press_2_raw_act
 36 lines in following concentration table = NCONC+1
    Conc.  %SD /Cr+PCr  Metabolite                                         
 5.65E+03  26%   0.000 Ala                                                 
    0.000 999%   0.000 Asp                                                 
    0.000 999%   0.000 Cr                                                  
    0.000 999%   0.000 PCr                                                 
    0.000 999%   0.000 GABA                                                
    0.000 999%   0.000 Glc                                                 
 7.23E+03  17%   0.000 Gln                                                 
    0.000 999%   0.000 Glu                                                 
    0.000 999%   0.000 GPC                                                 
    0.000 999%   0.000 PCh                                                 
    0.000 999%   0.000 GSH                                                 
    0.000 999%   0.000 Ins                                                 
 3.61E+03  42%   0.000 Lac                                                 
    0.000 999%   0.000 NAA                                                 
    0.000 999%   0.000 NAAG                                                
 1.87E-03 999%   0.000 Scyllo                                              
    0.000 999%   0.000 Tau                                                 
    0.000 999%   0.000 -CrCH2                                              
    0.000 999%   0.000 GPC+PCh                                             
    0.000 999%   0.000 NAA+NAAG                                            
    0.000 999%   0.000 Cr+PCr                                              
 7.23E+03  31%   0.000 Glu+Gln                                             
  315.417 224%   0.000 Lip13a                                              
    0.000 999%   0.000 Lip13b                                              
    0.000 999%   0.000 Lip09                                               
 2.31E+03  16%   0.000 MM09                                                
  195.714 101%   0.000 Lip20                                               
 5.53E+03  10%   0.000 MM20                                                
  730.671  34%   0.000 MM12                                                
 4.21E+03  16%   0.000 MM14                                                
 2.15E+03  27%   0.000 MM17                                                
  315.417 224%   0.000 Lip13a+Lip13b                                       
 5.25E+03  22%   0.000 MM14+Lip13a+Lip13b+MM12                             
 2.31E+03  16%   0.000 MM09+Lip09                                          
 5.73E+03   9%   0.000 MM20+Lip20                                          
   6 lines in following misc. output table
  FWHM = 0.138 ppm    S/N =   5                                            
  Data shift =-0.015 ppm                                                   
  Ph: 159 deg      23.5 deg/ppm                                            
  alphaB,S = 1.4E+00,   1.8E+02                                            
   10 spline knots.   Ns = 9(2)                                            
  (13) 2 infls.   ( 7) 1 extrs.                                            
  498 points on ppm-axis = NY
      4.000000     3.992357     3.984714     3.977070     3.969427     3.961784     3.954141     3.946497     3.938854     3.931211
      3.923568     3.915925     3.908281     3.900638     3.892995     3.885352     3.877708     3.870065     3.862422     3.854779
      3.847136     3.839492     3.831849     3.824206     3.816563     3.808919     3.801276     3.793633     3.785990     3.778347
      3.770703     3.763060     3.755417     3.747774     3.740130     3.732487     3.724844     3.717201     3.709558     3.701914
      3.694271     3.686628     3.678985     3.671341     3.663698     3.656055     3.648412     3.640769     3.633125     3.625482
      3.617839     3.610196     3.602552     3.594909     3.587266     3.579623     3.571980     3.564336     3.556693     3.549050
      3.541407     3.533763     3.526120     3.518477     3.510834     3.503191     3.495547     3.487904     3.480261     3.472618
      3.464974     3.457331     3.449688     3.442045     3.434402     3.426758     3.419115     3.411472     3.403829     3.396185
      3.388542     3.380899     3.373256     3.365613     3.357969     3.350326     3.342683     3.335040     3.327396     3.319753
      3.312110     3.304467     3.296824     3.289180     3.281537     3.273894     3.266251     3.258607     3.250964     3.243321
      3.235678     3.228034     3.220391     3.212748     3.205105     3.197462     3.189818     3.182175     3.174532     3.166889
      3.159245     3.151602     3.143959     3.136316     3.128673     3.121029     3.113386     3.105743     3.098100     3.090456
      3.082813     3.075170     3.067527     3.059884     3.052240     3.044597     3.036954     3.029311     3.021667     3.014024
      3.006381     2.998738     2.991095     2.983451     2.975808     2.968165     2.960522     2.952878     2.945235     2.937592
      2.929949     2.922306     2.914662     2.907019     2.899376     2.891733     2.884089     2.876446     2.868803     2.861160
      2.853517     2.845873     2.838230     2.830587     2.822944     2.815300     2.807657     2.800014     2.792371     2.784728
      2.777084     2.769441     2.761798     2.754155     2.746511     2.738868     2.731225     2.723582     2.715939     2.708295
      2.700652     2.693009     2.685366     2.677722     2.670079     2.662436     2.654793     2.647150     2.639506     2.631863
      2.624220     2.616577     2.608933     2.601290     2.593647     2.586004     2.578361     2.570717     2.563074     2.555431
      2.547788     2.540144     2.532501     2.524858     2.517215     2.509572     2.501928     2.494285     2.486642     2.478999
      2.471355     2.463712     2.456069     2.448426     2.440783     2.433139     2.425496     2.417853     2.410210     2.402566
      2.394923     2.387280     2.379637     2.371994     2.364350     2.356707     2.349064     2.341421     2.333777     2.326134
      2.318491     2.310848     2.303205     2.295561     2.287918     2.280275     2.272632     2.264988     2.257345     2.249702
      2.242059     2.234416     2.226772     2.219129     2.211486     2.203843     2.196199     2.188556     2.180913     2.173270
      2.165627     2.157983     2.150340     2.142697     2.135054     2.127410     2.119767     2.112124     2.104481     2.096838
      2.089194     2.081551     2.073908     2.066265     2.058621     2.050978     2.043335     2.035692     2.028049     2.020405
      2.012762     2.005119     1.997476     1.989833     1.982190     1.974546     1.966903     1.959260     1.951617     1.943974
      1.936331     1.928688     1.921045     1.913402     1.905759     1.898115     1.890472     1.882829     1.875186     1.867543
      1.859900     1.852257     1.844614     1.836971     1.829327     1.821684     1.814041     1.806398     1.798755     1.791112
      1.783469     1.775826     1.768183     1.760540     1.752896     1.745253     1.737610     1.729967     1.722324     1.714681
      1.707038     1.699395     1.691752     1.684108     1.676465     1.668822     1.661179     1.653536     1.645893     1.638250
      1.630607     1.622964     1.615321     1.607677     1.600034     1.592391     1.584748     1.577105     1.569462     1.561819
      1.554176     1.546533     1.538890     1.531246     1.523603     1.515960     1.508317     1.500674     1.493031     1.485388
      1.477745     1.470102     1.462458     1.454815     1.447172     1.439529     1.431886     1.424243     1.416600     1.408957
      1.401314     1.393671     1.386027     1.378384     1.370741     1.363098     1.355455     1.347812     1.340169     1.332526
      1.324883     1.317240     1.309596     1.301953     1.294310     1.286667     1.279024     1.271381     1.263738     1.256095
      1.248452     1.240808     1.233165     1.225522     1.217879     1.210236     1.202593     1.194950     1.187307     1.179664
      1.172021     1.164377     1.156734     1.149091     1.141448     1.133805     1.126162     1.118519     1.110876     1.103233
      1.095590     1.087946     1.080303     1.072660     1.065017     1.057374     1.049731     1.042088     1.034445     1.026802
      1.019158     1.011515     1.003872     0.996229     0.988586     0.980943     0.973300     0.965657     0.958014     0.950371
      0.942727     0.935084     0.927441     0.919798     0.912155     0.904512     0.896869     0.889226     0.881583     0.873940
      0.866296     0.858653     0.851010     0.843367     0.835724     0.828081     0.820438     0.812795     0.805152     0.797508
      0.789865     0.782222     0.774579     0.766936     0.759293     0.751650     0.744007     0.736364     0.728721     0.721077
      0.713434     0.705791     0.698148     0.690505     0.682862     0.675219     0.667576     0.659933     0.652290     0.644646
      0.637003     0.629360     0.621717     0.614074     0.606431     0.598788     0.591145     0.583502     0.575858     0.568215
      0.560572     0.552929     0.545286     0.537643     0.530000     0.522357     0.514714     0.507071     0.499427     0.491784
      0.484141     0.476498     0.468855     0.461212     0.453569     0.445925     0.438282     0.430639     0.422996     0.415353
      0.407710     0.400067     0.392424     0.384780     0.377137     0.369494     0.361851     0.354208     0.346565     0.338922
      0.331278     0.323635     0.315992     0.308349     0.300706     0.293063     0.285420     0.277777     0.270133     0.262490
      0.254847     0.247204     0.239561     0.231918     0.224275     0.216631     0.208988     0.201345
 NY phased data points follow
   8.50817E+01  8.88452E+01  9.03791E+01  8.39291E+01  7.13806E+01  8.08617E+01  6.73763E+01  7.79585E+01  8.45587E+01  7.64283E+01
   7.75709E+01  7.75983E+01  6.93582E+01  7.20845E+01  6.58603E+01  7.33385E+01  7.06776E+01  6.39006E+01  6.39961E+01  7.10127E+01
   6.59358E+01  7.48675E+01  6.82976E+01  6.75461E+01  6.43199E+01  6.77682E+01  6.15783E+01  6.56202E+01  6.18961E+01  6.64577E+01
   6.20028E+01  6.61882E+01  6.21461E+01  5.72540E+01  5.81524E+01  6.11209E+01  6.02825E+01  5.61491E+01  5.73686E+01  5.95668E+01
   6.38301E+01  5.23309E+01  5.34005E+01  4.92171E+01  5.03069E+01  5.84504E+01  5.50050E+01  5.22529E+01  5.24580E+01  6.03189E+01
   5.13062E+01  5.31497E+01  5.38700E+01  4.81078E+01  4.57193E+01  4.57623E+01  4.46441E+01  4.64587E+01  4.34263E+01  5.14774E+01
   4.53272E+01  5.20121E+01  4.43528E+01  4.39591E+01  4.92993E+01  4.08155E+01  4.48549E+01  4.86552E+01  4.74888E+01  4.17275E+01
   4.65857E+01  4.90663E+01  4.36642E+01  4.74540E+01  4.71288E+01  4.40140E+01  4.62122E+01  4.57829E+01  4.13362E+01  4.04202E+01
   3.68519E+01  4.50424E+01  3.30350E+01  4.32342E+01  3.98665E+01  4.53286E+01  4.07001E+01  4.11744E+01  4.27233E+01  3.91004E+01
   3.40164E+01  4.66165E+01  4.24587E+01  4.36885E+01  3.83002E+01  3.89458E+01  4.09029E+01  3.70990E+01  3.24967E+01  3.89447E+01
   2.70932E+01  3.09125E+01  3.09046E+01  3.27562E+01  2.47331E+01  2.74248E+01  2.70141E+01  3.26378E+01  3.03221E+01  3.60107E+01
   3.08256E+01  3.64196E+01  3.12510E+01  3.24294E+01  2.86290E+01  3.99974E+01  3.99709E+01  3.91461E+01  3.68681E+01  3.47103E+01
   3.66708E+01  3.11058E+01  3.26579E+01  2.92173E+01  3.28067E+01  2.37585E+01  2.30804E+01  3.41687E+01  2.92879E+01  2.42064E+01
   2.59631E+01  2.77796E+01  3.00956E+01  2.77731E+01  2.82777E+01  3.21104E+01  2.66865E+01  3.21855E+01  3.44766E+01  2.97211E+01
   3.19022E+01  2.75115E+01  2.00607E+01  3.82984E+01  3.39631E+01  3.23669E+01  2.73834E+01  2.96536E+01  2.88325E+01  3.42835E+01
   3.11544E+01  2.75041E+01  3.00374E+01  2.92455E+01  2.80732E+01  2.46654E+01  2.45564E+01  2.93403E+01  3.21889E+01  2.18815E+01
   1.67610E+01  2.92130E+01  2.91400E+01  2.89556E+01  2.05360E+01  2.31411E+01  2.43734E+01  2.55700E+01  1.49862E+01  2.23836E+01
   1.91908E+01  2.46911E+01  2.05577E+01  1.90358E+01  2.64899E+01  2.48135E+01  2.10438E+01  2.18236E+01  1.74198E+01  2.55658E+01
   1.39456E+01  1.90572E+01  2.28088E+01  2.23587E+01  2.10546E+01  2.02806E+01  1.38902E+01  2.09381E+01  9.91856E+00  1.20127E+01
   1.86532E+01  1.49778E+01  1.39951E+01  1.46233E+01  1.57116E+01  1.43480E+01  2.12598E+01  2.02644E+01  2.44767E+01  1.78232E+01
   1.56256E+01  1.58744E+01  2.15872E+01  1.33166E+01  2.24571E+01  1.85328E+01  1.72196E+01  2.75533E+01  1.38022E+01  2.22084E+01
   2.12800E+01  2.04133E+01  1.59091E+01  2.76190E+01  2.33503E+01  2.43244E+01  2.32653E+01  3.03762E+01  2.65174E+01  2.99922E+01
   2.63225E+01  3.33043E+01  2.83172E+01  3.08560E+01  3.73520E+01  2.86187E+01  3.16640E+01  4.29634E+01  3.53906E+01  3.49709E+01
   2.45124E+01  3.22744E+01  3.36641E+01  3.84126E+01  3.57151E+01  3.49090E+01  3.53666E+01  4.40065E+01  3.59967E+01  4.05376E+01
   3.68137E+01  3.85909E+01  3.15350E+01  3.49241E+01  3.94127E+01  4.13625E+01  2.89818E+01  2.81986E+01  3.71675E+01  3.35016E+01
   3.38672E+01  3.53732E+01  2.33882E+01  2.66295E+01  2.33812E+01  2.32080E+01  2.16010E+01  3.10043E+01  2.53851E+01  1.89581E+01
   1.79322E+01  2.07738E+01  2.67838E+01  3.17192E+01  2.19253E+01  2.71832E+01  2.96615E+01  3.28346E+01  2.52281E+01  3.04068E+01
   2.20628E+01  2.22460E+01  2.17959E+01  2.19570E+01  2.55907E+01  2.14167E+01  1.47242E+01  2.48743E+01  1.44093E+01  1.39776E+01
   1.66340E+01  1.40996E+01  1.56979E+01  1.96396E+01  8.23853E+00  1.16736E+01  7.52003E+00  1.84184E+01  8.11403E+00  1.31444E+01
   1.75427E+01  1.48299E+01  5.84291E+00  1.12330E+01  6.15515E+00  8.77666E+00  8.55913E+00  6.42647E+00  8.43296E+00  7.38641E+00
   9.77574E+00  1.25075E+01  1.63710E+01  2.05257E+01  9.38675E+00  1.40436E+01  1.18864E+01  1.98529E+01  1.77079E+01  2.53671E+01
   2.47504E+01  3.58044E+01  3.55722E+01  4.13003E+01  4.14596E+01  4.74329E+01  5.60612E+01  5.49133E+01  5.89110E+01  6.43731E+01
   6.52746E+01  6.14571E+01  6.51558E+01  5.88265E+01  5.50778E+01  5.65255E+01  5.81629E+01  5.93822E+01  6.10674E+01  6.12760E+01
   5.21776E+01  5.95425E+01  5.82172E+01  5.43453E+01  5.01977E+01  5.09075E+01  5.12083E+01  5.37172E+01  5.33973E+01  4.39399E+01
   4.23786E+01  4.93575E+01  4.05189E+01  4.13723E+01  3.84916E+01  3.85832E+01  3.80447E+01  3.21356E+01  2.06731E+01  2.95487E+01
   2.78997E+01  2.29353E+01  2.30742E+01  2.78909E+01  2.58603E+01  2.36994E+01  1.38258E+01  2.42963E+01  1.82378E+01  2.32168E+01
   2.48764E+01  2.25520E+01  2.47437E+01  2.27800E+01  2.74230E+01  2.41925E+01  2.47413E+01  1.45753E+01  1.55979E+01  1.51878E+01
   1.76400E+01  1.43041E+01  1.94064E+01  1.98547E+01  8.44947E+00  2.27858E+01  2.08274E+01  2.21958E+01  1.49596E+01  1.79481E+01
   1.83456E+01  1.45944E+01  2.05436E+01  1.64232E+01  1.83263E+01  1.81734E+01  1.74130E+01  1.35982E+01  2.31519E+01  1.75327E+01
   1.99965E+01  1.92614E+01  1.50807E+01  1.32784E+01  1.59065E+01  1.18781E+01  1.49085E+01  1.67936E+01  1.52577E+01  1.90838E+01
   1.77903E+01  1.90553E+01  1.65436E+01  1.83005E+01  1.08866E+01  1.63896E+01  2.05700E+01  1.86666E+01  2.15010E+01  1.47099E+01
   1.49257E+01  1.23712E+01  9.37006E+00  9.44248E+00  1.29904E+01  1.06991E+01  2.08645E+01  1.38422E+01  1.30104E+01  1.25435E+01
   2.05140E+01  1.89479E+01  1.89224E+01  1.15451E+01  9.10944E+00  1.14281E+01  1.21785E+01  1.45651E+01  1.69226E+01  1.30701E+01
   9.47690E+00  1.30255E+01  1.22807E+01  1.10857E+01  2.18163E+00  1.13340E+01  9.38606E+00  1.45086E+01  9.84778E+00  1.37965E+01
   1.47472E+01  1.05439E+01  7.61466E+00  1.03026E+01  3.59671E+00  1.34876E+01  1.07673E+01  8.98608E+00  7.81109E+00  9.73610E+00
   8.34171E+00  2.87866E+00  1.38025E+01  1.07207E+01  6.61476E+00  1.57946E+01  7.29064E+00  1.58353E+01  9.12925E+00  1.68901E+01
   8.77865E+00  7.09289E+00  9.88065E+00  7.03848E+00  1.28310E+01  1.30522E+01  7.61424E+00  9.42130E+00  4.49405E+00  5.40731E+00
   9.94445E+00  8.59086E+00  6.13400E+00  4.57732E+00  4.22563E+00  5.35248E+00  7.16104E+00  4.49592E+00  1.14910E+01  2.49338E+00
   1.46659E+01  1.14475E+01  4.82544E+00  4.41214E+00  8.49463E+00  1.05349E+01  8.84831E+00  1.07031E+01  1.52692E+01  1.43411E+01
   9.03894E+00  6.43841E+00  4.92198E+00  3.44900E+00  1.24579E+01  2.67095E+00  1.17402E+01  6.71793E+00
 NY points of the fit to the data follow
   7.34342E+01  7.39440E+01  7.25932E+01  7.28357E+01  7.17660E+01  7.20885E+01  7.11388E+01  7.14737E+01  7.06305E+01  7.10397E+01
   7.02207E+01  7.06473E+01  6.97352E+01  7.04792E+01  6.93459E+01  7.03681E+01  6.87767E+01  6.99239E+01  6.77483E+01  6.89897E+01
   6.62923E+01  6.77880E+01  6.50172E+01  6.68869E+01  6.44709E+01  6.63572E+01  6.44189E+01  6.58656E+01  6.43590E+01  6.49408E+01
   6.38844E+01  6.36032E+01  6.30330E+01  6.21208E+01  6.22329E+01  6.09637E+01  6.17897E+01  6.01496E+01  6.15043E+01  5.96222E+01
   6.10247E+01  5.86632E+01  5.97961E+01  5.72831E+01  5.81573E+01  5.57873E+01  5.66375E+01  5.52049E+01  5.60047E+01  5.46883E+01
   5.50066E+01  5.37682E+01  5.36250E+01  5.23143E+01  5.18896E+01  5.13481E+01  5.11081E+01  5.06780E+01  5.03775E+01  4.99718E+01
   4.95137E+01  4.90349E+01  4.85678E+01  4.81145E+01  4.76815E+01  4.72587E+01  4.68541E+01  4.64525E+01  4.60687E+01  4.56825E+01
   4.53145E+01  4.49408E+01  4.45859E+01  4.42232E+01  4.38793E+01  4.35265E+01  4.31920E+01  4.28482E+01  4.25217E+01  4.21867E+01
   4.18676E+01  4.15414E+01  4.12295E+01  4.09127E+01  4.06084E+01  4.03020E+01  4.00061E+01  3.97112E+01  3.94255E+01  3.91421E+01
   3.88663E+01  3.85945E+01  3.83298E+01  3.80707E+01  3.78187E+01  3.75751E+01  3.73393E+01  3.71116E+01  3.68921E+01  3.66815E+01
   3.64799E+01  3.62882E+01  3.61067E+01  3.59360E+01  3.57765E+01  3.56282E+01  3.54915E+01  3.53660E+01  3.52522E+01  3.51492E+01
   3.50571E+01  3.49748E+01  3.49019E+01  3.48369E+01  3.47789E+01  3.47259E+01  3.46767E+01  3.46290E+01  3.45810E+01  3.45304E+01
   3.44750E+01  3.44125E+01  3.43407E+01  3.42575E+01  3.41609E+01  3.40490E+01  3.39203E+01  3.37737E+01  3.36082E+01  3.34232E+01
   3.32187E+01  3.29948E+01  3.27521E+01  3.24916E+01  3.22145E+01  3.19225E+01  3.16171E+01  3.13008E+01  3.09749E+01  3.06427E+01
   3.03045E+01  2.99649E+01  2.96228E+01  2.92840E+01  2.89454E+01  2.86141E+01  2.82851E+01  2.79663E+01  2.76514E+01  2.73488E+01
   2.70507E+01  2.67659E+01  2.64864E+01  2.62197E+01  2.59591E+01  2.57099E+01  2.54673E+01  2.52341E+01  2.50083E+01  2.47894E+01
   2.45789E+01  2.43723E+01  2.41756E+01  2.39800E+01  2.37961E+01  2.36110E+01  2.34387E+01  2.32641E+01  2.31029E+01  2.29390E+01
   2.27889E+01  2.26385E+01  2.24990E+01  2.23645E+01  2.22367E+01  2.21204E+01  2.20020E+01  2.18800E+01  2.17540E+01  2.15815E+01
   2.13965E+01  2.11325E+01  2.08339E+01  2.04481E+01  2.00185E+01  1.95623E+01  1.90159E+01  1.86077E+01  1.80287E+01  1.78668E+01
   1.73912E+01  1.76364E+01  1.73409E+01  1.78996E+01  1.77469E+01  1.84191E+01  1.82472E+01  1.87687E+01  1.82926E+01  1.84450E+01
   1.75214E+01  1.73751E+01  1.61655E+01  1.62734E+01  1.50452E+01  1.57292E+01  1.46998E+01  1.60686E+01  1.52629E+01  1.70893E+01
   1.63691E+01  1.83346E+01  1.76202E+01  1.97523E+01  1.91688E+01  2.15883E+01  2.13266E+01  2.39421E+01  2.40114E+01  2.65401E+01
   2.67286E+01  2.88324E+01  2.88996E+01  3.02906E+01  3.02292E+01  3.08325E+01  3.07248E+01  3.10510E+01  3.11045E+01  3.15496E+01
   3.15794E+01  3.22804E+01  3.18544E+01  3.23271E+01  3.12698E+01  3.23781E+01  3.06848E+01  3.21935E+01  2.99401E+01  3.18356E+01
   2.93382E+01  3.17062E+01  2.92778E+01  3.20269E+01  2.97205E+01  3.27213E+01  3.04108E+01  3.33248E+01  3.09121E+01  3.35003E+01
   3.08970E+01  3.28633E+01  3.03739E+01  3.20296E+01  2.99274E+01  3.13911E+01  2.97859E+01  3.10430E+01  2.94025E+01  2.99442E+01
   2.82223E+01  2.84196E+01  2.68118E+01  2.68673E+01  2.57054E+01  2.56557E+01  2.45456E+01  2.43993E+01  2.33847E+01  2.30416E+01
   2.21130E+01  2.16476E+01  2.07594E+01  2.02347E+01  1.95257E+01  1.90519E+01  1.84918E+01  1.80585E+01  1.76197E+01  1.71855E+01
   1.68010E+01  1.63989E+01  1.60145E+01  1.56566E+01  1.53276E+01  1.50270E+01  1.47519E+01  1.45051E+01  1.42872E+01  1.40929E+01
   1.39273E+01  1.37864E+01  1.36765E+01  1.35943E+01  1.35488E+01  1.35400E+01  1.35790E+01  1.36693E+01  1.38266E+01  1.40617E+01
   1.43943E+01  1.48407E+01  1.54252E+01  1.61728E+01  1.71110E+01  1.82728E+01  1.96928E+01  2.14235E+01  2.35483E+01  2.61435E+01
   2.88935E+01  3.23955E+01  3.55447E+01  3.98826E+01  4.29901E+01  4.78700E+01  5.01569E+01  5.52587E+01  5.58916E+01  6.04456E+01
   5.91510E+01  6.27985E+01  5.97748E+01  6.25245E+01  5.86279E+01  6.10114E+01  5.73431E+01  5.94280E+01  5.64385E+01  5.81142E+01
   5.57792E+01  5.65585E+01  5.47970E+01  5.47001E+01  5.32190E+01  5.23121E+01  5.12182E+01  5.00783E+01  4.91206E+01  4.76329E+01
   4.65658E+01  4.52549E+01  4.31824E+01  4.14171E+01  3.83344E+01  3.69212E+01  3.32634E+01  3.26509E+01  2.90794E+01  3.06497E+01
   2.68043E+01  2.86263E+01  2.47433E+01  2.65799E+01  2.26798E+01  2.40528E+01  2.01847E+01  2.24423E+01  1.98556E+01  2.21979E+01
   2.05281E+01  2.28970E+01  2.14781E+01  2.29150E+01  2.15783E+01  2.20513E+01  2.08259E+01  2.05049E+01  1.97860E+01  1.99773E+01
   1.92690E+01  1.90567E+01  1.83954E+01  1.78752E+01  1.72379E+01  1.62581E+01  1.56799E+01  1.53172E+01  1.50790E+01  1.49316E+01
   1.48587E+01  1.48513E+01  1.49032E+01  1.50103E+01  1.51688E+01  1.53749E+01  1.56248E+01  1.59139E+01  1.62373E+01  1.65892E+01
   1.69631E+01  1.73519E+01  1.77476E+01  1.81418E+01  1.85258E+01  1.88905E+01  1.92271E+01  1.95269E+01  1.97818E+01  1.99847E+01
   2.01295E+01  2.02116E+01  2.02277E+01  2.01762E+01  2.00572E+01  1.98725E+01  1.96252E+01  1.93201E+01  1.89630E+01  1.85607E+01
   1.81208E+01  1.76509E+01  1.71590E+01  1.66530E+01  1.61403E+01  1.56276E+01  1.51210E+01  1.46258E+01  1.41465E+01  1.36866E+01
   1.32488E+01  1.28350E+01  1.24463E+01  1.20833E+01  1.17460E+01  1.14340E+01  1.11463E+01  1.08821E+01  1.06399E+01  1.04186E+01
   1.02167E+01  1.00328E+01  9.86551E+00  9.71341E+00  9.57525E+00  9.44985E+00  9.33606E+00  9.23287E+00  9.13931E+00  9.05450E+00
   8.97768E+00  8.90813E+00  8.84523E+00  8.78834E+00  8.73699E+00  8.69067E+00  8.64898E+00  8.61152E+00  8.57797E+00  8.54798E+00
   8.52129E+00  8.49762E+00  8.47677E+00  8.45851E+00  8.44265E+00  8.42901E+00  8.41743E+00  8.40778E+00  8.39991E+00  8.39372E+00
   8.38906E+00  8.38587E+00  8.38401E+00  8.38343E+00  8.38402E+00  8.38574E+00  8.38846E+00  8.39218E+00  8.39678E+00  8.40226E+00
   8.40852E+00  8.41556E+00  8.42327E+00  8.43166E+00  8.44065E+00  8.45024E+00  8.46037E+00  8.47101E+00  8.48213E+00  8.49370E+00
   8.50569E+00  8.51808E+00  8.53084E+00  8.54395E+00  8.55739E+00  8.57114E+00  8.58518E+00  8.59950E+00  8.61408E+00  8.62891E+00
   8.64397E+00  8.65927E+00  8.67479E+00  8.69055E+00  8.70652E+00  8.72273E+00  8.73919E+00  8.75593E+00
 NY background values follow
     7.298E+01    7.255E+01    7.211E+01    7.168E+01    7.124E+01    7.081E+01    7.038E+01    6.994E+01    6.951E+01    6.908E+01
     6.865E+01    6.821E+01    6.778E+01    6.735E+01    6.692E+01    6.649E+01    6.606E+01    6.564E+01    6.521E+01    6.478E+01
     6.435E+01    6.393E+01    6.350E+01    6.308E+01    6.266E+01    6.223E+01    6.181E+01    6.139E+01    6.097E+01    6.056E+01
     6.014E+01    5.972E+01    5.931E+01    5.890E+01    5.848E+01    5.807E+01    5.766E+01    5.726E+01    5.685E+01    5.644E+01
     5.604E+01    5.564E+01    5.524E+01    5.484E+01    5.444E+01    5.405E+01    5.365E+01    5.326E+01    5.287E+01    5.248E+01
     5.210E+01    5.171E+01    5.133E+01    5.095E+01    5.057E+01    5.019E+01    4.982E+01    4.944E+01    4.907E+01    4.870E+01
     4.834E+01    4.797E+01    4.761E+01    4.725E+01    4.690E+01    4.654E+01    4.619E+01    4.584E+01    4.549E+01    4.515E+01
     4.481E+01    4.447E+01    4.413E+01    4.380E+01    4.347E+01    4.314E+01    4.281E+01    4.249E+01    4.217E+01    4.185E+01
     4.154E+01    4.122E+01    4.091E+01    4.061E+01    4.030E+01    4.000E+01    3.970E+01    3.940E+01    3.911E+01    3.882E+01
     3.853E+01    3.824E+01    3.795E+01    3.767E+01    3.739E+01    3.712E+01    3.684E+01    3.657E+01    3.630E+01    3.603E+01
     3.577E+01    3.551E+01    3.525E+01    3.499E+01    3.473E+01    3.448E+01    3.423E+01    3.398E+01    3.374E+01    3.350E+01
     3.326E+01    3.302E+01    3.278E+01    3.255E+01    3.232E+01    3.209E+01    3.186E+01    3.164E+01    3.142E+01    3.120E+01
     3.098E+01    3.077E+01    3.055E+01    3.034E+01    3.014E+01    2.993E+01    2.973E+01    2.953E+01    2.933E+01    2.913E+01
     2.894E+01    2.875E+01    2.856E+01    2.837E+01    2.818E+01    2.800E+01    2.782E+01    2.764E+01    2.746E+01    2.729E+01
     2.712E+01    2.695E+01    2.678E+01    2.662E+01    2.645E+01    2.629E+01    2.613E+01    2.597E+01    2.582E+01    2.566E+01
     2.551E+01    2.536E+01    2.522E+01    2.507E+01    2.492E+01    2.478E+01    2.464E+01    2.450E+01    2.436E+01    2.423E+01
     2.409E+01    2.396E+01    2.383E+01    2.369E+01    2.357E+01    2.344E+01    2.331E+01    2.318E+01    2.306E+01    2.294E+01
     2.281E+01    2.269E+01    2.257E+01    2.245E+01    2.234E+01    2.222E+01    2.210E+01    2.199E+01    2.187E+01    2.176E+01
     2.165E+01    2.153E+01    2.142E+01    2.131E+01    2.120E+01    2.109E+01    2.098E+01    2.087E+01    2.076E+01    2.065E+01
     2.054E+01    2.044E+01    2.033E+01    2.022E+01    2.011E+01    2.001E+01    1.990E+01    1.979E+01    1.969E+01    1.958E+01
     1.947E+01    1.937E+01    1.926E+01    1.915E+01    1.904E+01    1.894E+01    1.883E+01    1.872E+01    1.861E+01    1.850E+01
     1.839E+01    1.828E+01    1.817E+01    1.806E+01    1.795E+01    1.784E+01    1.772E+01    1.761E+01    1.750E+01    1.738E+01
     1.727E+01    1.715E+01    1.704E+01    1.692E+01    1.681E+01    1.669E+01    1.657E+01    1.646E+01    1.634E+01    1.622E+01
     1.610E+01    1.598E+01    1.587E+01    1.575E+01    1.563E+01    1.551E+01    1.539E+01    1.527E+01    1.516E+01    1.504E+01
     1.492E+01    1.480E+01    1.468E+01    1.456E+01    1.444E+01    1.433E+01    1.421E+01    1.409E+01    1.397E+01    1.385E+01
     1.374E+01    1.362E+01    1.350E+01    1.339E+01    1.327E+01    1.316E+01    1.304E+01    1.293E+01    1.281E+01    1.270E+01
     1.258E+01    1.247E+01    1.236E+01    1.225E+01    1.214E+01    1.203E+01    1.192E+01    1.181E+01    1.170E+01    1.159E+01
     1.148E+01    1.138E+01    1.127E+01    1.117E+01    1.106E+01    1.096E+01    1.086E+01    1.075E+01    1.065E+01    1.055E+01
     1.046E+01    1.036E+01    1.026E+01    1.017E+01    1.007E+01    9.978E+00    9.886E+00    9.795E+00    9.704E+00    9.615E+00
     9.527E+00    9.440E+00    9.354E+00    9.269E+00    9.185E+00    9.103E+00    9.021E+00    8.940E+00    8.861E+00    8.782E+00
     8.705E+00    8.628E+00    8.553E+00    8.479E+00    8.406E+00    8.333E+00    8.262E+00    8.192E+00    8.123E+00    8.055E+00
     7.989E+00    7.923E+00    7.858E+00    7.794E+00    7.732E+00    7.670E+00    7.610E+00    7.550E+00    7.492E+00    7.434E+00
     7.378E+00    7.323E+00    7.268E+00    7.215E+00    7.163E+00    7.112E+00    7.062E+00    7.013E+00    6.965E+00    6.918E+00
     6.872E+00    6.827E+00    6.783E+00    6.740E+00    6.698E+00    6.658E+00    6.618E+00    6.579E+00    6.542E+00    6.505E+00
     6.469E+00    6.435E+00    6.401E+00    6.369E+00    6.337E+00    6.307E+00    6.277E+00    6.249E+00    6.221E+00    6.195E+00
     6.169E+00    6.145E+00    6.122E+00    6.099E+00    6.078E+00    6.058E+00    6.039E+00    6.020E+00    6.003E+00    5.987E+00
     5.971E+00    5.957E+00    5.943E+00    5.931E+00    5.919E+00    5.909E+00    5.899E+00    5.890E+00    5.882E+00    5.875E+00
     5.868E+00    5.863E+00    5.858E+00    5.854E+00    5.851E+00    5.849E+00    5.848E+00    5.847E+00    5.847E+00    5.848E+00
     5.849E+00    5.852E+00    5.855E+00    5.858E+00    5.863E+00    5.868E+00    5.873E+00    5.880E+00    5.886E+00    5.894E+00
     5.902E+00    5.911E+00    5.920E+00    5.930E+00    5.941E+00    5.952E+00    5.964E+00    5.976E+00    5.989E+00    6.002E+00
     6.016E+00    6.030E+00    6.044E+00    6.060E+00    6.075E+00    6.091E+00    6.108E+00    6.124E+00    6.142E+00    6.159E+00
     6.177E+00    6.196E+00    6.215E+00    6.234E+00    6.253E+00    6.273E+00    6.293E+00    6.313E+00    6.334E+00    6.355E+00
     6.376E+00    6.397E+00    6.419E+00    6.441E+00    6.463E+00    6.485E+00    6.508E+00    6.531E+00    6.553E+00    6.577E+00
     6.600E+00    6.623E+00    6.647E+00    6.670E+00    6.694E+00    6.718E+00    6.742E+00    6.766E+00    6.791E+00    6.815E+00
     6.840E+00    6.864E+00    6.889E+00    6.914E+00    6.939E+00    6.964E+00    6.990E+00    7.015E+00    7.040E+00    7.066E+00
     7.091E+00    7.117E+00    7.142E+00    7.168E+00    7.194E+00    7.220E+00    7.245E+00    7.271E+00    7.297E+00    7.323E+00
     7.349E+00    7.375E+00    7.401E+00    7.427E+00    7.453E+00    7.479E+00    7.505E+00    7.531E+00    7.557E+00    7.583E+00
     7.609E+00    7.635E+00    7.661E+00    7.686E+00    7.712E+00    7.738E+00    7.764E+00    7.789E+00    7.815E+00    7.840E+00
     7.866E+00    7.891E+00    7.916E+00    7.941E+00    7.966E+00    7.991E+00    8.016E+00    8.041E+00    8.066E+00    8.090E+00
     8.115E+00    8.139E+00    8.163E+00    8.187E+00    8.211E+00    8.235E+00    8.258E+00    8.282E+00
 Ala      Conc. = 5.65E+03
