 LCModel (Version 6.3-1L) Copyright: S.W. Provencher.          Ref.: Magn. Reson. Med. 30:672-679 (1993).                
 Slice#1 Row#5 Col#6  PD_24_press_2_raw_act
 36 lines in following concentration table = NCONC+1
    Conc.  %SD /Cr+PCr  Metabolite                                         
  109.150 225%   0.146 Ala                                                 
   75.308 231%   0.101 Asp                                                 
    0.000 999%   0.000 Cr                                                  
  746.346  18%   1.000 PCr                                                 
   81.933 127%   0.110 GABA                                                
   64.200 164% 8.6E-02 Glc                                                 
  166.520 292%   0.223 Gln                                                 
    0.000 999%   0.000 Glu                                                 
    0.000 999%   0.000 GPC                                                 
  286.762  16%   0.384 PCh                                                 
    0.000 999%   0.000 GSH                                                 
    0.000 999%   0.000 Ins                                                 
   49.052 548% 6.6E-02 Lac                                                 
 1.13E+03  16%   1.517 NAA                                                 
  209.083  93%   0.280 NAAG                                                
   63.968  49% 8.6E-02 Scyllo                                              
  241.788  70%   0.324 Tau                                                 
  902.693  21%   1.209 -CrCH2                                              
  286.762  16%   0.384 GPC+PCh                                             
 1.34E+03  15%   1.797 NAA+NAAG                                            
  746.346  18%   1.000 Cr+PCr                                              
  166.520 292%   0.223 Glu+Gln                                             
 3.74E+03  33%   5.008 Lip13a                                              
   42.427 999% 5.7E-02 Lip13b                                              
  590.306  87%   0.791 Lip09                                               
 2.69E+03  20%   3.606 MM09                                                
  866.512  44%   1.161 Lip20                                               
 5.85E+03  14%   7.834 MM20                                                
  710.123  62%   0.951 MM12                                                
    0.000 999%   0.000 MM14                                                
 1.05E+03  45%   1.407 MM17                                                
 3.78E+03  21%   5.064 Lip13a+Lip13b                                       
 4.49E+03  15%   6.016 MM14+Lip13a+Lip13b+MM12                             
 3.28E+03  12%   4.397 MM09+Lip09                                          
 6.71E+03  12%   8.995 MM20+Lip20                                          
   6 lines in following misc. output table
  FWHM = 0.046 ppm    S/N =   3                                            
  Data shift = 0.038 ppm                                                   
  Ph: -85 deg     -28.3 deg/ppm                                            
  alphaB,S = 3.6E+00,   3.2E+01                                            
   14 spline knots.   Ns = 6(1)                                            
  (10) 2 infls.   (11) 1 extrs.                                            
  498 points on ppm-axis = NY
      4.000000     3.992357     3.984714     3.977070     3.969427     3.961784     3.954141     3.946497     3.938854     3.931211
      3.923568     3.915925     3.908281     3.900638     3.892995     3.885352     3.877708     3.870065     3.862422     3.854779
      3.847136     3.839492     3.831849     3.824206     3.816563     3.808919     3.801276     3.793633     3.785990     3.778347
      3.770703     3.763060     3.755417     3.747774     3.740130     3.732487     3.724844     3.717201     3.709558     3.701914
      3.694271     3.686628     3.678985     3.671341     3.663698     3.656055     3.648412     3.640769     3.633125     3.625482
      3.617839     3.610196     3.602552     3.594909     3.587266     3.579623     3.571980     3.564336     3.556693     3.549050
      3.541407     3.533763     3.526120     3.518477     3.510834     3.503191     3.495547     3.487904     3.480261     3.472618
      3.464974     3.457331     3.449688     3.442045     3.434402     3.426758     3.419115     3.411472     3.403829     3.396185
      3.388542     3.380899     3.373256     3.365613     3.357969     3.350326     3.342683     3.335040     3.327396     3.319753
      3.312110     3.304467     3.296824     3.289180     3.281537     3.273894     3.266251     3.258607     3.250964     3.243321
      3.235678     3.228034     3.220391     3.212748     3.205105     3.197462     3.189818     3.182175     3.174532     3.166889
      3.159245     3.151602     3.143959     3.136316     3.128673     3.121029     3.113386     3.105743     3.098100     3.090456
      3.082813     3.075170     3.067527     3.059884     3.052240     3.044597     3.036954     3.029311     3.021667     3.014024
      3.006381     2.998738     2.991095     2.983451     2.975808     2.968165     2.960522     2.952878     2.945235     2.937592
      2.929949     2.922306     2.914662     2.907019     2.899376     2.891733     2.884089     2.876446     2.868803     2.861160
      2.853517     2.845873     2.838230     2.830587     2.822944     2.815300     2.807657     2.800014     2.792371     2.784728
      2.777084     2.769441     2.761798     2.754155     2.746511     2.738868     2.731225     2.723582     2.715939     2.708295
      2.700652     2.693009     2.685366     2.677722     2.670079     2.662436     2.654793     2.647150     2.639506     2.631863
      2.624220     2.616577     2.608933     2.601290     2.593647     2.586004     2.578361     2.570717     2.563074     2.555431
      2.547788     2.540144     2.532501     2.524858     2.517215     2.509572     2.501928     2.494285     2.486642     2.478999
      2.471355     2.463712     2.456069     2.448426     2.440783     2.433139     2.425496     2.417853     2.410210     2.402566
      2.394923     2.387280     2.379637     2.371994     2.364350     2.356707     2.349064     2.341421     2.333777     2.326134
      2.318491     2.310848     2.303205     2.295561     2.287918     2.280275     2.272632     2.264988     2.257345     2.249702
      2.242059     2.234416     2.226772     2.219129     2.211486     2.203843     2.196199     2.188556     2.180913     2.173270
      2.165627     2.157983     2.150340     2.142697     2.135054     2.127410     2.119767     2.112124     2.104481     2.096838
      2.089194     2.081551     2.073908     2.066265     2.058621     2.050978     2.043335     2.035692     2.028049     2.020405
      2.012762     2.005119     1.997476     1.989833     1.982190     1.974546     1.966903     1.959260     1.951617     1.943974
      1.936331     1.928688     1.921045     1.913402     1.905759     1.898115     1.890472     1.882829     1.875186     1.867543
      1.859900     1.852257     1.844614     1.836971     1.829327     1.821684     1.814041     1.806398     1.798755     1.791112
      1.783469     1.775826     1.768183     1.760540     1.752896     1.745253     1.737610     1.729967     1.722324     1.714681
      1.707038     1.699395     1.691752     1.684108     1.676465     1.668822     1.661179     1.653536     1.645893     1.638250
      1.630607     1.622964     1.615321     1.607677     1.600034     1.592391     1.584748     1.577105     1.569462     1.561819
      1.554176     1.546533     1.538890     1.531246     1.523603     1.515960     1.508317     1.500674     1.493031     1.485388
      1.477745     1.470102     1.462458     1.454815     1.447172     1.439529     1.431886     1.424243     1.416600     1.408957
      1.401314     1.393671     1.386027     1.378384     1.370741     1.363098     1.355455     1.347812     1.340169     1.332526
      1.324883     1.317240     1.309596     1.301953     1.294310     1.286667     1.279024     1.271381     1.263738     1.256095
      1.248452     1.240808     1.233165     1.225522     1.217879     1.210236     1.202593     1.194950     1.187307     1.179664
      1.172021     1.164377     1.156734     1.149091     1.141448     1.133805     1.126162     1.118519     1.110876     1.103233
      1.095590     1.087946     1.080303     1.072660     1.065017     1.057374     1.049731     1.042088     1.034445     1.026802
      1.019158     1.011515     1.003872     0.996229     0.988586     0.980943     0.973300     0.965657     0.958014     0.950371
      0.942727     0.935084     0.927441     0.919798     0.912155     0.904512     0.896869     0.889226     0.881583     0.873940
      0.866296     0.858653     0.851010     0.843367     0.835724     0.828081     0.820438     0.812795     0.805152     0.797508
      0.789865     0.782222     0.774579     0.766936     0.759293     0.751650     0.744007     0.736364     0.728721     0.721077
      0.713434     0.705791     0.698148     0.690505     0.682862     0.675219     0.667576     0.659933     0.652290     0.644646
      0.637003     0.629360     0.621717     0.614074     0.606431     0.598788     0.591145     0.583502     0.575858     0.568215
      0.560572     0.552929     0.545286     0.537643     0.530000     0.522357     0.514714     0.507071     0.499427     0.491784
      0.484141     0.476498     0.468855     0.461212     0.453569     0.445925     0.438282     0.430639     0.422996     0.415353
      0.407710     0.400067     0.392424     0.384780     0.377137     0.369494     0.361851     0.354208     0.346565     0.338922
      0.331278     0.323635     0.315992     0.308349     0.300706     0.293063     0.285420     0.277777     0.270133     0.262490
      0.254847     0.247204     0.239561     0.231918     0.224275     0.216631     0.208988     0.201345
 NY phased data points follow
  -7.76778E+01 -7.38532E+01 -7.40437E+01 -8.86476E+01 -5.65901E+01 -5.24827E+01 -6.26242E+01 -5.98322E+01 -5.48306E+01 -5.04156E+01
  -6.07894E+01 -6.84289E+01 -6.88095E+01 -6.85411E+01 -5.11323E+01 -4.87683E+01 -5.38547E+01 -4.54249E+01 -5.43086E+01 -3.69910E+01
  -4.79395E+01 -6.57379E+01 -5.93447E+01 -4.53391E+01 -5.86607E+01 -5.87816E+01 -5.13056E+01 -4.71035E+01 -6.50132E+01 -5.69625E+01
  -5.38324E+01 -4.64261E+01 -5.66084E+01 -4.58033E+01 -6.35825E+01 -4.44014E+01 -4.04651E+01 -4.16782E+01 -5.38054E+01 -2.77676E+01
  -4.21951E+01 -5.44001E+01 -5.88193E+01 -3.21623E+01 -5.16439E+01 -5.92147E+01 -3.06733E+01 -3.10954E+01 -5.25182E+01 -2.67541E+01
  -4.71033E+01 -2.73386E+01 -4.77658E+01 -4.07936E+01 -4.30638E+01 -4.59450E+01 -4.58442E+01 -2.50910E+01 -4.19448E+01 -5.03967E+01
  -5.61877E+01 -5.02236E+01 -3.29097E+01 -3.42675E+01 -4.71578E+01 -5.26250E+01 -4.50999E+01 -4.65110E+01 -3.35679E+01 -4.19343E+01
  -3.28422E+01 -1.72365E+01 -3.98896E+01 -3.41181E+01 -4.07486E+01 -2.71278E+01 -4.03983E+01 -1.72043E+01 -4.72190E+01 -4.55286E+01
  -3.46709E+01 -1.55015E+01 -1.09075E+01 -1.80177E+01 -3.29949E+01 -2.94011E+01 -3.04181E+01 -1.54208E+01 -3.32265E+01 -3.01316E+01
  -3.93079E+01 -2.15187E+01 -3.01056E+01 -3.38447E+01 -2.40270E+01 -3.44902E+01 -3.57795E+01 -1.94562E+01 -2.52046E+01 -1.90835E+01
  -1.13185E+01  6.35596E-01 -1.34582E+00  8.54298E+00 -1.04131E+01 -2.51698E+01 -1.67751E+01 -1.43321E+01 -3.77417E+01 -2.53467E+01
  -1.23867E+01 -2.16980E+01 -1.33961E+01 -3.77769E+01 -3.02678E+01 -3.44411E+01 -3.75900E+01 -2.14401E+01 -1.92431E+01 -3.58950E+01
  -1.96520E+01 -1.16627E+01 -2.17660E+01 -1.06341E+01 -9.82100E+00 -2.94700E+00  2.11297E+01  3.23607E+00  4.34516E+00 -4.50394E+00
  -6.47016E+00 -1.86712E+01 -2.21272E+01 -1.79263E+01 -2.18867E+01 -1.44254E+01 -2.82020E+01 -1.82333E+01 -2.23693E+01 -8.22260E+00
  -3.53750E+01 -1.69424E+01 -2.70440E+01 -2.46950E+01 -2.75023E+01 -1.93598E+01 -2.39870E+01 -2.25662E+01 -1.57087E+01 -1.53884E+01
  -2.63817E+01 -1.46251E+01 -8.88520E+00 -9.25270E+00 -1.86333E+01 -1.40577E+01 -1.91687E+01 -2.33184E+01 -1.09851E+01 -1.66510E+01
  -2.47330E+01 -2.87997E+01 -3.02268E+01 -8.41655E+00 -2.54549E+01 -2.00076E+01 -2.59703E+01 -1.55744E+01 -1.14120E+01 -2.10244E+01
  -3.62048E+01 -1.86964E+01 -1.35924E+01 -2.17219E+01 -3.03472E+01 -2.78301E+01 -3.62892E+01 -2.03644E+01 -2.68634E+01 -9.46245E+00
  -2.18386E+01 -2.45355E+01 -2.35224E+01 -4.12987E+01 -1.06671E+01 -1.94809E+01 -1.70265E+01 -2.38203E+01 -1.67765E+01 -2.67369E+01
  -3.40675E+01 -1.04462E+01 -2.01414E+01 -1.84986E+01 -2.77443E+01 -2.75846E+01 -2.35402E+01 -1.98308E+01 -3.11894E+01 -1.18707E+01
  -1.97592E+01 -1.07664E+01  6.02598E+00 -4.89078E+00 -9.37934E+00 -8.52765E+00 -3.54065E+00 -6.92733E+00 -5.08692E+00 -8.63510E+00
  -3.28199E+00 -1.18476E+01 -1.25268E+01 -1.55243E+01 -1.09911E+01  3.08827E+00  7.63158E+00 -6.05783E+00 -9.47132E+00  3.09126E+00
  -9.49452E+00 -1.05505E+01  1.94207E+00 -1.08273E+00  3.53201E+00 -1.51578E+01 -7.52826E+00 -1.76703E+01  1.32279E+00 -7.43247E+00
   6.00594E+00 -1.32299E+00 -2.53010E+01  2.99288E+00 -6.11984E+00  5.69538E+00 -3.83239E+00  3.36932E+00  1.45697E+01 -9.28396E-01
  -2.64598E+00 -5.60654E+00 -3.72299E+00  5.48230E+00  5.40368E+00  9.59455E+00  1.37120E+01 -4.54993E+00  1.32259E+01 -2.93532E+00
   1.95763E+01  2.88591E+01  1.76053E+01  2.90903E+01  3.47810E+01  3.20810E+01  3.45946E+01  3.21630E+01  4.57482E+01  5.46418E+01
   7.04152E+01  4.14114E+01  5.39399E+01  2.28100E+01  2.29018E+01  4.05219E+00 -3.81598E+00 -3.67759E+00  1.31154E+01  1.44562E+01
  -2.79366E+00  2.36244E+01 -5.02238E+00 -5.41787E+00  3.17788E+00  2.83557E-01  1.13369E+00  1.52603E+01 -3.22846E+00  2.00699E+01
  -1.56768E+01  4.09248E+00 -2.95019E+00 -1.33930E+01 -6.63878E+00  7.71151E+00 -4.16779E+00 -7.11473E-01 -6.74610E+00  7.74608E+00
   1.40338E+01  7.35399E+00  4.15624E+00  1.36181E+01 -4.31155E+00  1.09579E+01 -3.55845E+00 -9.57098E+00  1.67337E+01  1.91779E+00
  -2.01628E+01 -6.77795E-01  4.01490E+00  2.04376E+01  9.73230E+00  7.08225E+00 -1.33913E+00 -9.54389E+00 -3.31863E+00  5.63966E-01
  -2.22477E+00 -2.24813E+01 -3.09798E+00  3.14554E+00  4.69251E+00  8.65353E+00  4.53267E+00 -6.57035E+00 -1.29457E+01  3.26518E+00
  -8.79193E+00 -4.42367E+00  6.47591E+00 -5.06656E-01 -1.50492E+01  5.79345E+00  6.23562E+00 -1.77297E+00  1.09013E+01 -1.63517E+00
   1.09406E+01 -2.08964E+00 -5.88368E+00 -9.48956E+00  4.03430E+00 -4.83987E+00 -1.32351E+00  1.76459E+01  1.00453E+01  1.01720E+01
  -3.26504E+00  2.94427E+01  2.45452E+01  2.56130E+01  9.49594E+00  6.02493E+00  3.22854E+01  2.70811E+01  1.59300E+01  2.54234E+01
   1.48637E+01  3.91292E+01  1.55479E+01  3.06864E+01  1.93537E+01  1.58731E+01  3.40533E+01  3.39939E+01  2.58727E+01  1.11246E+01
   1.90466E+01  2.75708E+01  2.48245E+01  2.09949E+01  1.21514E+01  7.89163E+00  1.66647E+01  1.84401E+01  6.80293E+00  1.83232E+01
   2.33389E+01  2.77900E+01  2.00010E+01  3.58825E+00  1.47131E+01  2.29138E+01  1.54458E+01  2.48649E+01  6.12251E+00  9.55162E+00
   1.73842E+01  1.16348E+01  5.20039E+00 -1.04793E+00  1.16503E+01  1.39717E+01  1.77425E+01  1.28183E+01  8.36151E+00  1.47409E+01
   1.48680E+01  1.27099E+00  1.16440E+01 -4.09802E+00  3.91768E+01 -5.79660E+00  8.32142E+00  2.71868E+01  3.09944E+01  2.02047E+01
   1.33464E+01  1.22683E+01  2.01796E+01  2.82669E+01  1.04136E+01  2.97194E+01  2.11799E+01  3.81322E+01  4.04628E+01  4.68338E+01
   3.07638E+01  3.30684E+01  3.56768E+01  3.63329E+01  3.23860E+01  3.68666E+01  3.44357E+01  3.26486E+01  3.00148E+01  1.64701E+01
   2.80165E+01  1.90945E+01  1.66203E+01  2.99483E+01  3.87371E+01  4.06796E+01  2.57729E+01  3.55187E+01  7.69561E+00  4.26705E+01
   7.19481E+00  2.40960E+01  2.21786E+01  2.33311E+01  4.27036E+01  2.86902E+01  3.20260E+01  1.10255E+01  3.18279E+01  2.27359E+01
   8.66673E+00 -5.24563E+00  1.20633E+01  2.09231E+01  8.36479E+00  3.87438E+00  3.06003E+00  2.78560E+01  3.01607E+01  1.02687E+01
   1.84586E+01  3.01231E+01  9.43003E+00  1.42237E+01  1.30039E+01  2.43992E+01  8.53427E+00 -3.74362E-01  8.85612E+00  5.99016E+00
   6.90399E+00  3.39761E+01  2.22954E+01  8.04071E+00  8.96228E+00  2.07659E+01  2.49205E+01  7.27103E+00  2.03603E+01  2.44711E+01
   1.03763E+01  1.63109E+01  2.09522E+01  2.27333E+01  1.88373E+01  7.18836E+00  5.03853E+00  1.54509E+01  1.48223E+01  1.44491E+01
   2.26356E+01  2.05605E+01  2.36877E+01  1.34336E+01  1.47025E+01  2.01024E+01  1.91509E+01  1.08016E+01  1.75387E+01  2.03473E+01
   6.95104E+00  4.65604E+00  1.33832E+01  2.73391E+01  1.73311E+01  1.63570E+01  6.30921E+00  1.31729E+01
 NY points of the fit to the data follow
  -5.16960E+01 -5.15314E+01 -5.14214E+01 -5.15428E+01 -5.18556E+01 -5.22959E+01 -5.29166E+01 -5.36460E+01 -5.41979E+01 -5.42127E+01
  -5.36214E+01 -5.26270E+01 -5.15307E+01 -5.05331E+01 -4.97859E+01 -4.93667E+01 -4.91818E+01 -4.90319E+01 -4.88117E+01 -4.84855E+01
  -4.81073E+01 -4.77358E+01 -4.74031E+01 -4.71632E+01 -4.70777E+01 -4.71314E+01 -4.72060E+01 -4.71887E+01 -4.70322E+01 -4.67314E+01
  -4.63117E+01 -4.58509E+01 -4.54728E+01 -4.52386E+01 -4.51296E+01 -4.50811E+01 -4.50437E+01 -4.49596E+01 -4.48008E+01 -4.46378E+01
  -4.45325E+01 -4.44864E+01 -4.44781E+01 -4.44440E+01 -4.43425E+01 -4.41742E+01 -4.39399E+01 -4.36794E+01 -4.34321E+01 -4.31829E+01
  -4.28944E+01 -4.25718E+01 -4.22591E+01 -4.19929E+01 -4.17993E+01 -4.16677E+01 -4.15750E+01 -4.14900E+01 -4.13684E+01 -4.11888E+01
  -4.09592E+01 -4.06931E+01 -4.04198E+01 -4.01206E+01 -3.98345E+01 -3.96051E+01 -3.94404E+01 -3.93399E+01 -3.92972E+01 -3.92099E+01
  -3.89881E+01 -3.86568E+01 -3.82163E+01 -3.76933E+01 -3.72245E+01 -3.69726E+01 -3.70018E+01 -3.72408E+01 -3.75027E+01 -3.75457E+01
  -3.70808E+01 -3.61510E+01 -3.49660E+01 -3.36213E+01 -3.22767E+01 -3.12770E+01 -3.09766E+01 -3.14101E+01 -3.22897E+01 -3.32664E+01
  -3.41352E+01 -3.47700E+01 -3.50326E+01 -3.49174E+01 -3.45553E+01 -3.38321E+01 -3.21842E+01 -2.85031E+01 -2.36240E+01 -1.81377E+01
  -1.15866E+01 -4.66484E+00  1.30757E-01  3.70365E-01 -3.93701E+00 -1.08372E+01 -1.82121E+01 -2.45941E+01 -2.88522E+01 -3.04918E+01
  -3.05179E+01 -3.02778E+01 -3.00842E+01 -2.98498E+01 -2.95618E+01 -2.92239E+01 -2.88505E+01 -2.84487E+01 -2.79898E+01 -2.73614E+01
  -2.60199E+01 -2.29001E+01 -1.87378E+01 -1.37737E+01 -7.59639E+00 -1.10814E+00  3.19920E+00  3.22580E+00 -8.18801E-01 -7.11491E+00
  -1.37560E+01 -1.94469E+01 -2.31789E+01 -2.45763E+01 -2.46469E+01 -2.45530E+01 -2.44953E+01 -2.44076E+01 -2.43005E+01 -2.42034E+01
  -2.41333E+01 -2.40871E+01 -2.40460E+01 -2.39970E+01 -2.39472E+01 -2.39067E+01 -2.38866E+01 -2.38891E+01 -2.39128E+01 -2.39435E+01
  -2.39608E+01 -2.39608E+01 -2.39414E+01 -2.38953E+01 -2.38401E+01 -2.38242E+01 -2.38454E+01 -2.39089E+01 -2.40553E+01 -2.42425E+01
  -2.43999E+01 -2.44006E+01 -2.41692E+01 -2.38056E+01 -2.35098E+01 -2.34100E+01 -2.35191E+01 -2.37750E+01 -2.40543E+01 -2.42526E+01
  -2.43617E+01 -2.43998E+01 -2.43896E+01 -2.44241E+01 -2.44884E+01 -2.44890E+01 -2.43075E+01 -2.39416E+01 -2.35503E+01 -2.32707E+01
  -2.31001E+01 -2.29577E+01 -2.27355E+01 -2.23862E+01 -2.19685E+01 -2.15134E+01 -2.09833E+01 -2.03574E+01 -1.96910E+01 -1.90612E+01
  -1.85399E+01 -1.81547E+01 -1.79532E+01 -1.78899E+01 -1.78200E+01 -1.76777E+01 -1.75240E+01 -1.73875E+01 -1.71778E+01 -1.68577E+01
  -1.64157E+01 -1.58573E+01 -1.52575E+01 -1.47918E+01 -1.46543E+01 -1.48509E+01 -1.52609E+01 -1.58014E+01 -1.62758E+01 -1.64501E+01
  -1.62546E+01 -1.57719E+01 -1.50925E+01 -1.42474E+01 -1.33113E+01 -1.24043E+01 -1.15973E+01 -1.08560E+01 -1.01422E+01 -9.47160E+00
  -8.82215E+00 -8.14059E+00 -7.45172E+00 -6.82114E+00 -6.30553E+00 -5.92125E+00 -5.61743E+00 -5.33113E+00 -5.00937E+00 -4.58888E+00
  -4.03144E+00 -3.31091E+00 -2.46117E+00 -1.55545E+00 -6.39940E-01  3.00747E-01  1.28032E+00  2.29332E+00  3.35383E+00  4.40824E+00
   5.36828E+00  6.20440E+00  6.95642E+00  7.69579E+00  8.48454E+00  9.35191E+00  1.02962E+01  1.12928E+01  1.23129E+01  1.34554E+01
   1.49989E+01  1.67446E+01  1.86396E+01  2.10925E+01  2.53095E+01  3.12495E+01  3.69987E+01  4.30457E+01  4.99198E+01  5.55975E+01
   5.65385E+01  5.12901E+01  4.16966E+01  3.05511E+01  2.00104E+01  1.17085E+01  6.87604E+00  5.09423E+00  4.39048E+00  3.66423E+00
   2.99922E+00  2.43235E+00  1.93476E+00  1.47841E+00  1.03863E+00  5.92983E-01  1.38928E-01 -2.95763E-01 -6.83091E-01 -1.00745E+00
  -1.25495E+00 -1.41944E+00 -1.50551E+00 -1.52244E+00 -1.48268E+00 -1.39563E+00 -1.26481E+00 -1.09578E+00 -8.93452E-01 -6.54220E-01
  -3.77679E-01 -7.12686E-02  2.49994E-01  5.68186E-01  8.72120E-01  1.15620E+00  1.41330E+00  1.64046E+00  1.84036E+00  2.01452E+00
   2.15700E+00  2.26178E+00  2.32451E+00  2.34364E+00  2.31872E+00  2.25260E+00  2.15187E+00  2.02571E+00  1.88167E+00  1.72779E+00
   1.57131E+00  1.41958E+00  1.27881E+00  1.15539E+00  1.05456E+00  9.81678E-01  9.40965E-01  9.37305E-01  9.75966E-01  1.06623E+00
   1.22744E+00  1.49429E+00  1.80710E+00  2.09480E+00  2.36740E+00  2.56164E+00  2.54629E+00  2.26315E+00  1.82388E+00  1.49214E+00
   1.48336E+00  1.81379E+00  2.51462E+00  3.62233E+00  5.01408E+00  6.42981E+00  7.67509E+00  8.70213E+00  9.55303E+00  1.03091E+01
   1.10649E+01  1.19468E+01  1.29953E+01  1.41382E+01  1.53187E+01  1.64831E+01  1.75493E+01  1.84658E+01  1.92643E+01  2.00564E+01
   2.08962E+01  2.17735E+01  2.26905E+01  2.36316E+01  2.44959E+01  2.51384E+01  2.54800E+01  2.55207E+01  2.52959E+01  2.48544E+01
   2.42554E+01  2.35680E+01  2.28288E+01  2.20384E+01  2.12028E+01  2.03409E+01  1.94702E+01  1.86072E+01  1.77657E+01  1.69581E+01
   1.61942E+01  1.54824E+01  1.48284E+01  1.42372E+01  1.37113E+01  1.32529E+01  1.28621E+01  1.25392E+01  1.22829E+01  1.20926E+01
   1.19667E+01  1.19044E+01  1.19047E+01  1.19672E+01  1.20917E+01  1.22790E+01  1.25300E+01  1.28466E+01  1.32309E+01  1.36856E+01
   1.42134E+01  1.48174E+01  1.55001E+01  1.62638E+01  1.71095E+01  1.80370E+01  1.90441E+01  2.01266E+01  2.12771E+01  2.24858E+01
   2.37391E+01  2.50203E+01  2.63094E+01  2.75838E+01  2.88184E+01  2.99867E+01  3.10614E+01  3.20166E+01  3.28271E+01  3.34720E+01
   3.39334E+01  3.41993E+01  3.42630E+01  3.41244E+01  3.37891E+01  3.32694E+01  3.25822E+01  3.17494E+01  3.07958E+01  2.97486E+01
   2.86356E+01  2.74846E+01  2.63214E+01  2.51700E+01  2.40506E+01  2.29809E+01  2.19738E+01  2.10395E+01  2.01840E+01  1.94107E+01
   1.87197E+01  1.81096E+01  1.75767E+01  1.71165E+01  1.67231E+01  1.63909E+01  1.61135E+01  1.58853E+01  1.57002E+01  1.55534E+01
   1.54395E+01  1.53547E+01  1.52948E+01  1.52567E+01  1.52373E+01  1.52343E+01  1.52452E+01  1.52685E+01  1.53024E+01  1.53458E+01
   1.53972E+01  1.54560E+01  1.55210E+01  1.55918E+01  1.56674E+01  1.57477E+01  1.58319E+01  1.59198E+01  1.60108E+01  1.61048E+01
   1.62015E+01  1.63007E+01  1.64019E+01  1.65053E+01  1.66103E+01  1.67173E+01  1.68256E+01  1.69355E+01  1.70466E+01  1.71590E+01
   1.72724E+01  1.73870E+01  1.75025E+01  1.76189E+01  1.77361E+01  1.78542E+01  1.79729E+01  1.80924E+01  1.82125E+01  1.83332E+01
   1.84544E+01  1.85762E+01  1.86985E+01  1.88213E+01  1.89445E+01  1.90682E+01  1.91922E+01  1.93167E+01  1.94414E+01  1.95666E+01
   1.96921E+01  1.98179E+01  1.99440E+01  2.00704E+01  2.01971E+01  2.03241E+01  2.04513E+01  2.05789E+01
 NY background values follow
    -5.208E+01   -5.191E+01   -5.175E+01   -5.158E+01   -5.142E+01   -5.125E+01   -5.108E+01   -5.092E+01   -5.075E+01   -5.059E+01
    -5.042E+01   -5.025E+01   -5.009E+01   -4.992E+01   -4.976E+01   -4.959E+01   -4.943E+01   -4.926E+01   -4.909E+01   -4.893E+01
    -4.876E+01   -4.860E+01   -4.843E+01   -4.827E+01   -4.810E+01   -4.794E+01   -4.777E+01   -4.760E+01   -4.744E+01   -4.727E+01
    -4.711E+01   -4.694E+01   -4.678E+01   -4.661E+01   -4.645E+01   -4.628E+01   -4.612E+01   -4.595E+01   -4.579E+01   -4.562E+01
    -4.545E+01   -4.529E+01   -4.512E+01   -4.496E+01   -4.479E+01   -4.463E+01   -4.446E+01   -4.430E+01   -4.413E+01   -4.397E+01
    -4.381E+01   -4.364E+01   -4.348E+01   -4.331E+01   -4.315E+01   -4.298E+01   -4.282E+01   -4.265E+01   -4.249E+01   -4.232E+01
    -4.216E+01   -4.200E+01   -4.183E+01   -4.167E+01   -4.150E+01   -4.134E+01   -4.118E+01   -4.101E+01   -4.085E+01   -4.068E+01
    -4.052E+01   -4.036E+01   -4.019E+01   -4.003E+01   -3.987E+01   -3.970E+01   -3.954E+01   -3.938E+01   -3.922E+01   -3.905E+01
    -3.889E+01   -3.873E+01   -3.856E+01   -3.840E+01   -3.824E+01   -3.808E+01   -3.791E+01   -3.775E+01   -3.759E+01   -3.743E+01
    -3.727E+01   -3.710E+01   -3.694E+01   -3.678E+01   -3.662E+01   -3.646E+01   -3.630E+01   -3.614E+01   -3.597E+01   -3.581E+01
    -3.565E+01   -3.549E+01   -3.533E+01   -3.517E+01   -3.501E+01   -3.485E+01   -3.469E+01   -3.453E+01   -3.437E+01   -3.421E+01
    -3.405E+01   -3.389E+01   -3.373E+01   -3.357E+01   -3.341E+01   -3.325E+01   -3.309E+01   -3.293E+01   -3.277E+01   -3.262E+01
    -3.246E+01   -3.230E+01   -3.214E+01   -3.198E+01   -3.182E+01   -3.167E+01   -3.151E+01   -3.135E+01   -3.119E+01   -3.103E+01
    -3.088E+01   -3.072E+01   -3.056E+01   -3.041E+01   -3.025E+01   -3.009E+01   -2.993E+01   -2.978E+01   -2.962E+01   -2.947E+01
    -2.931E+01   -2.915E+01   -2.900E+01   -2.884E+01   -2.869E+01   -2.853E+01   -2.837E+01   -2.822E+01   -2.806E+01   -2.791E+01
    -2.775E+01   -2.760E+01   -2.744E+01   -2.729E+01   -2.714E+01   -2.698E+01   -2.683E+01   -2.667E+01   -2.652E+01   -2.637E+01
    -2.621E+01   -2.606E+01   -2.591E+01   -2.575E+01   -2.560E+01   -2.545E+01   -2.529E+01   -2.514E+01   -2.499E+01   -2.484E+01
    -2.468E+01   -2.453E+01   -2.438E+01   -2.423E+01   -2.408E+01   -2.392E+01   -2.377E+01   -2.362E+01   -2.347E+01   -2.332E+01
    -2.317E+01   -2.302E+01   -2.287E+01   -2.272E+01   -2.256E+01   -2.241E+01   -2.226E+01   -2.211E+01   -2.196E+01   -2.181E+01
    -2.166E+01   -2.151E+01   -2.137E+01   -2.122E+01   -2.107E+01   -2.092E+01   -2.077E+01   -2.062E+01   -2.047E+01   -2.032E+01
    -2.017E+01   -2.003E+01   -1.988E+01   -1.973E+01   -1.958E+01   -1.943E+01   -1.929E+01   -1.914E+01   -1.899E+01   -1.884E+01
    -1.870E+01   -1.855E+01   -1.840E+01   -1.826E+01   -1.811E+01   -1.796E+01   -1.782E+01   -1.767E+01   -1.752E+01   -1.738E+01
    -1.723E+01   -1.708E+01   -1.694E+01   -1.679E+01   -1.665E+01   -1.650E+01   -1.636E+01   -1.621E+01   -1.607E+01   -1.592E+01
    -1.578E+01   -1.563E+01   -1.549E+01   -1.534E+01   -1.520E+01   -1.505E+01   -1.491E+01   -1.476E+01   -1.462E+01   -1.448E+01
    -1.433E+01   -1.419E+01   -1.405E+01   -1.390E+01   -1.376E+01   -1.362E+01   -1.347E+01   -1.333E+01   -1.319E+01   -1.304E+01
    -1.290E+01   -1.276E+01   -1.261E+01   -1.247E+01   -1.233E+01   -1.219E+01   -1.205E+01   -1.190E+01   -1.176E+01   -1.162E+01
    -1.148E+01   -1.134E+01   -1.119E+01   -1.105E+01   -1.091E+01   -1.077E+01   -1.063E+01   -1.049E+01   -1.035E+01   -1.021E+01
    -1.007E+01   -9.924E+00   -9.784E+00   -9.643E+00   -9.502E+00   -9.362E+00   -9.222E+00   -9.081E+00   -8.941E+00   -8.801E+00
    -8.661E+00   -8.521E+00   -8.381E+00   -8.242E+00   -8.102E+00   -7.962E+00   -7.823E+00   -7.683E+00   -7.544E+00   -7.405E+00
    -7.266E+00   -7.126E+00   -6.987E+00   -6.849E+00   -6.710E+00   -6.571E+00   -6.432E+00   -6.293E+00   -6.155E+00   -6.016E+00
    -5.878E+00   -5.740E+00   -5.601E+00   -5.463E+00   -5.325E+00   -5.187E+00   -5.049E+00   -4.911E+00   -4.773E+00   -4.635E+00
    -4.497E+00   -4.360E+00   -4.222E+00   -4.085E+00   -3.947E+00   -3.810E+00   -3.672E+00   -3.535E+00   -3.398E+00   -3.261E+00
    -3.123E+00   -2.986E+00   -2.849E+00   -2.713E+00   -2.576E+00   -2.439E+00   -2.302E+00   -2.165E+00   -2.029E+00   -1.892E+00
    -1.756E+00   -1.619E+00   -1.483E+00   -1.346E+00   -1.210E+00   -1.074E+00   -9.377E-01   -8.016E-01   -6.655E-01   -5.295E-01
    -3.935E-01   -2.576E-01   -1.217E-01    1.411E-02    1.499E-01    2.856E-01    4.213E-01    5.569E-01    6.925E-01    8.280E-01
     9.635E-01    1.099E+00    1.234E+00    1.370E+00    1.505E+00    1.640E+00    1.775E+00    1.911E+00    2.046E+00    2.181E+00
     2.316E+00    2.451E+00    2.586E+00    2.721E+00    2.855E+00    2.990E+00    3.125E+00    3.260E+00    3.395E+00    3.529E+00
     3.664E+00    3.798E+00    3.933E+00    4.067E+00    4.202E+00    4.336E+00    4.471E+00    4.605E+00    4.739E+00    4.874E+00
     5.008E+00    5.142E+00    5.276E+00    5.410E+00    5.544E+00    5.678E+00    5.813E+00    5.947E+00    6.080E+00    6.214E+00
     6.348E+00    6.482E+00    6.616E+00    6.750E+00    6.883E+00    7.017E+00    7.151E+00    7.285E+00    7.418E+00    7.552E+00
     7.685E+00    7.819E+00    7.952E+00    8.086E+00    8.219E+00    8.353E+00    8.486E+00    8.619E+00    8.753E+00    8.886E+00
     9.019E+00    9.153E+00    9.286E+00    9.419E+00    9.552E+00    9.685E+00    9.818E+00    9.952E+00    1.008E+01    1.022E+01
     1.035E+01    1.048E+01    1.062E+01    1.075E+01    1.088E+01    1.102E+01    1.115E+01    1.128E+01    1.141E+01    1.155E+01
     1.168E+01    1.181E+01    1.194E+01    1.208E+01    1.221E+01    1.234E+01    1.248E+01    1.261E+01    1.274E+01    1.287E+01
     1.301E+01    1.314E+01    1.327E+01    1.340E+01    1.354E+01    1.367E+01    1.380E+01    1.393E+01    1.407E+01    1.420E+01
     1.433E+01    1.446E+01    1.460E+01    1.473E+01    1.486E+01    1.499E+01    1.512E+01    1.526E+01    1.539E+01    1.552E+01
     1.565E+01    1.579E+01    1.592E+01    1.605E+01    1.618E+01    1.631E+01    1.645E+01    1.658E+01    1.671E+01    1.684E+01
     1.697E+01    1.711E+01    1.724E+01    1.737E+01    1.750E+01    1.763E+01    1.777E+01    1.790E+01    1.803E+01    1.816E+01
     1.829E+01    1.843E+01    1.856E+01    1.869E+01    1.882E+01    1.895E+01    1.909E+01    1.922E+01    1.935E+01    1.948E+01
     1.961E+01    1.975E+01    1.988E+01    2.001E+01    2.014E+01    2.027E+01    2.041E+01    2.054E+01
 Ala      Conc. = 1.09E+02
