 LCModel (Version 6.3-1L) Copyright: S.W. Provencher.          Ref.: Magn. Reson. Med. 30:672-679 (1993).                
 Slice#1 Row#1 Col#3  PD_24_press_2_raw_act
 36 lines in following concentration table = NCONC+1
    Conc.  %SD /Cr+PCr  Metabolite                                         
  713.509  48%   3.789 Ala                                                 
   56.924  67%   0.302 Asp                                                 
  188.306  46%   1.000 Cr                                                  
    0.000 999%   0.000 PCr                                                 
   32.359  71%   0.172 GABA                                                
   33.004  70%   0.175 Glc                                                 
  994.644  76%   5.282 Gln                                                 
 1.97E+03  44%  10.453 Glu                                                 
   49.272  65%   0.262 GPC                                                 
    0.000 999%   0.000 PCh                                                 
    0.000 999%   0.000 GSH                                                 
  974.122  35%   5.173 Ins                                                 
    0.000 999%   0.000 Lac                                                 
  755.436  15%   4.012 NAA                                                 
    0.000 999%   0.000 NAAG                                                
   11.866  64% 6.3E-02 Scyllo                                              
   56.728  67%   0.301 Tau                                                 
   30.353 134%   0.161 -CrCH2                                              
   49.272  65%   0.262 GPC+PCh                                             
  755.436  15%   4.012 NAA+NAAG                                            
  188.306  46%   1.000 Cr+PCr                                              
 2.96E+03  47%  15.735 Glu+Gln                                             
    0.000 999%   0.000 Lip13a                                              
   11.849 999% 6.3E-02 Lip13b                                              
    3.165 999% 1.7E-02 Lip09                                               
   25.214 315%   0.134 MM09                                                
    1.777 999% 9.4E-03 Lip20                                               
   36.889 369%   0.196 MM20                                                
    6.694 454% 3.6E-02 MM12                                                
    0.000 999%   0.000 MM14                                                
    0.000 999%   0.000 MM17                                                
   11.849 999% 6.3E-02 Lip13a+Lip13b                                       
   18.543 845% 9.8E-02 MM14+Lip13a+Lip13b+MM12                             
   28.379 302%   0.151 MM09+Lip09                                          
   38.666 352%   0.205 MM20+Lip20                                          
   6 lines in following misc. output table
  FWHM = 0.107 ppm    S/N =   2                                            
  Data shift = 0.153 ppm                                                   
  Ph:  16 deg      59.8 deg/ppm                                            
  alphaB,S = 8.5E+01,   5.1E+01                                            
   14 spline knots.   Ns = 7(2)                                            
   2 inflections.     1 extrema                                            
  498 points on ppm-axis = NY
      4.000000     3.992357     3.984714     3.977070     3.969427     3.961784     3.954141     3.946497     3.938854     3.931211
      3.923568     3.915925     3.908281     3.900638     3.892995     3.885352     3.877708     3.870065     3.862422     3.854779
      3.847136     3.839492     3.831849     3.824206     3.816563     3.808919     3.801276     3.793633     3.785990     3.778347
      3.770703     3.763060     3.755417     3.747774     3.740130     3.732487     3.724844     3.717201     3.709558     3.701914
      3.694271     3.686628     3.678985     3.671341     3.663698     3.656055     3.648412     3.640769     3.633125     3.625482
      3.617839     3.610196     3.602552     3.594909     3.587266     3.579623     3.571980     3.564336     3.556693     3.549050
      3.541407     3.533763     3.526120     3.518477     3.510834     3.503191     3.495547     3.487904     3.480261     3.472618
      3.464974     3.457331     3.449688     3.442045     3.434402     3.426758     3.419115     3.411472     3.403829     3.396185
      3.388542     3.380899     3.373256     3.365613     3.357969     3.350326     3.342683     3.335040     3.327396     3.319753
      3.312110     3.304467     3.296824     3.289180     3.281537     3.273894     3.266251     3.258607     3.250964     3.243321
      3.235678     3.228034     3.220391     3.212748     3.205105     3.197462     3.189818     3.182175     3.174532     3.166889
      3.159245     3.151602     3.143959     3.136316     3.128673     3.121029     3.113386     3.105743     3.098100     3.090456
      3.082813     3.075170     3.067527     3.059884     3.052240     3.044597     3.036954     3.029311     3.021667     3.014024
      3.006381     2.998738     2.991095     2.983451     2.975808     2.968165     2.960522     2.952878     2.945235     2.937592
      2.929949     2.922306     2.914662     2.907019     2.899376     2.891733     2.884089     2.876446     2.868803     2.861160
      2.853517     2.845873     2.838230     2.830587     2.822944     2.815300     2.807657     2.800014     2.792371     2.784728
      2.777084     2.769441     2.761798     2.754155     2.746511     2.738868     2.731225     2.723582     2.715939     2.708295
      2.700652     2.693009     2.685366     2.677722     2.670079     2.662436     2.654793     2.647150     2.639506     2.631863
      2.624220     2.616577     2.608933     2.601290     2.593647     2.586004     2.578361     2.570717     2.563074     2.555431
      2.547788     2.540144     2.532501     2.524858     2.517215     2.509572     2.501928     2.494285     2.486642     2.478999
      2.471355     2.463712     2.456069     2.448426     2.440783     2.433139     2.425496     2.417853     2.410210     2.402566
      2.394923     2.387280     2.379637     2.371994     2.364350     2.356707     2.349064     2.341421     2.333777     2.326134
      2.318491     2.310848     2.303205     2.295561     2.287918     2.280275     2.272632     2.264988     2.257345     2.249702
      2.242059     2.234416     2.226772     2.219129     2.211486     2.203843     2.196199     2.188556     2.180913     2.173270
      2.165627     2.157983     2.150340     2.142697     2.135054     2.127410     2.119767     2.112124     2.104481     2.096838
      2.089194     2.081551     2.073908     2.066265     2.058621     2.050978     2.043335     2.035692     2.028049     2.020405
      2.012762     2.005119     1.997476     1.989833     1.982190     1.974546     1.966903     1.959260     1.951617     1.943974
      1.936331     1.928688     1.921045     1.913402     1.905759     1.898115     1.890472     1.882829     1.875186     1.867543
      1.859900     1.852257     1.844614     1.836971     1.829327     1.821684     1.814041     1.806398     1.798755     1.791112
      1.783469     1.775826     1.768183     1.760540     1.752896     1.745253     1.737610     1.729967     1.722324     1.714681
      1.707038     1.699395     1.691752     1.684108     1.676465     1.668822     1.661179     1.653536     1.645893     1.638250
      1.630607     1.622964     1.615321     1.607677     1.600034     1.592391     1.584748     1.577105     1.569462     1.561819
      1.554176     1.546533     1.538890     1.531246     1.523603     1.515960     1.508317     1.500674     1.493031     1.485388
      1.477745     1.470102     1.462458     1.454815     1.447172     1.439529     1.431886     1.424243     1.416600     1.408957
      1.401314     1.393671     1.386027     1.378384     1.370741     1.363098     1.355455     1.347812     1.340169     1.332526
      1.324883     1.317240     1.309596     1.301953     1.294310     1.286667     1.279024     1.271381     1.263738     1.256095
      1.248452     1.240808     1.233165     1.225522     1.217879     1.210236     1.202593     1.194950     1.187307     1.179664
      1.172021     1.164377     1.156734     1.149091     1.141448     1.133805     1.126162     1.118519     1.110876     1.103233
      1.095590     1.087946     1.080303     1.072660     1.065017     1.057374     1.049731     1.042088     1.034445     1.026802
      1.019158     1.011515     1.003872     0.996229     0.988586     0.980943     0.973300     0.965657     0.958014     0.950371
      0.942727     0.935084     0.927441     0.919798     0.912155     0.904512     0.896869     0.889226     0.881583     0.873940
      0.866296     0.858653     0.851010     0.843367     0.835724     0.828081     0.820438     0.812795     0.805152     0.797508
      0.789865     0.782222     0.774579     0.766936     0.759293     0.751650     0.744007     0.736364     0.728721     0.721077
      0.713434     0.705791     0.698148     0.690505     0.682862     0.675219     0.667576     0.659933     0.652290     0.644646
      0.637003     0.629360     0.621717     0.614074     0.606431     0.598788     0.591145     0.583502     0.575858     0.568215
      0.560572     0.552929     0.545286     0.537643     0.530000     0.522357     0.514714     0.507071     0.499427     0.491784
      0.484141     0.476498     0.468855     0.461212     0.453569     0.445925     0.438282     0.430639     0.422996     0.415353
      0.407710     0.400067     0.392424     0.384780     0.377137     0.369494     0.361851     0.354208     0.346565     0.338922
      0.331278     0.323635     0.315992     0.308349     0.300706     0.293063     0.285420     0.277777     0.270133     0.262490
      0.254847     0.247204     0.239561     0.231918     0.224275     0.216631     0.208988     0.201345
 NY phased data points follow
   1.16787E+01  6.03055E+00  2.84688E-01 -4.86326E+00  6.61811E+00 -2.36228E+00  5.91962E+00  1.45797E+00  1.39570E-01 -5.81740E+00
   6.36398E+00  1.66933E+00 -3.38300E-01  2.96376E+00  3.43250E+00 -4.88121E-01  1.16876E+01 -2.29109E+00  2.60465E+00  7.35009E+00
   2.36483E+00  9.14823E+00 -1.71984E+00  1.12042E+01  7.76085E+00 -5.14712E+00  6.02337E+00  5.37012E+00  3.89505E+00  3.55325E+00
   4.87910E+00  1.08101E+01  4.49988E+00  1.06408E+00  2.79597E+00  7.67294E+00 -6.65683E+00  1.45046E-01  5.17319E+00  4.21528E+00
   5.87020E+00  2.74911E+00  8.15694E+00  2.52222E+00 -1.64811E+00 -2.52230E+00  4.07537E+00  8.27723E+00  6.04344E+00  1.59479E+01
  -4.62724E-01  5.93371E+00  1.07321E+01  5.22294E+00  1.04698E+01  2.54818E+00  6.95112E+00  5.34264E+00  1.41884E+00 -3.29831E+00
   2.81899E+00 -8.51736E+00 -6.32268E+00  1.98222E+00  1.28948E+00 -3.64355E+00  1.37006E+01  5.52784E+00  1.29098E+01 -6.92016E+00
  -2.42596E+00  1.20495E+01 -4.85534E+00 -2.15482E+00 -3.83849E-01  5.55662E+00  5.49323E+00  9.25236E-02 -3.58645E+00  1.07279E+01
   2.39771E+01 -8.44543E+00  3.30944E+00 -1.08247E+00  7.54635E+00  3.97058E+00  6.60165E+00 -4.57837E+00  5.58157E+00 -4.15018E+00
  -4.09972E+00  6.44361E+00  3.31199E+00 -6.09820E+00 -1.81511E+00 -4.47464E+00  1.20816E+01  6.02655E+00 -2.64617E-02  8.02859E+00
  -4.47255E+00 -1.52896E+00  6.16331E+00  2.57545E+00  7.93192E+00  5.18379E+00  3.46226E+00  8.82857E+00 -5.55083E-01  2.21951E+00
  -4.97878E+00 -8.43671E+00 -3.29790E+00  1.72679E+00 -6.25913E+00  5.13366E+00  7.44930E+00 -7.47066E+00 -4.69062E+00 -9.30893E-01
  -3.37286E+00  5.04975E+00  3.17141E+00  4.69400E+00 -5.09635E-01  3.27093E+00 -2.34362E-01  3.24774E+00  1.64095E+00  3.12202E+00
   8.06854E-02  4.67731E+00  4.05218E+00 -2.36935E+00  2.10999E+00  6.28931E+00  8.79589E+00  8.99428E-01 -1.89128E+00  9.84274E+00
  -3.93426E-01 -3.90088E+00 -3.03005E-01 -4.67108E+00 -2.71139E+00  6.32408E+00 -7.09440E+00  1.32644E+00 -6.03473E+00 -7.83165E+00
  -5.94844E+00 -8.16654E+00 -1.40536E+01  2.28525E+00  6.04830E+00  2.06248E+00 -2.54095E+00 -4.79748E+00 -2.15828E+00 -7.58242E+00
   3.89180E+00 -3.39517E+00 -3.42798E+00 -8.48323E+00  4.52470E+00 -2.37577E+00 -2.24622E+00  1.64372E+00 -3.17734E+00 -5.30597E+00
   7.12208E+00 -6.94495E+00 -1.46664E+00 -6.75659E+00 -7.15548E-01 -9.81806E+00  4.13999E-01 -8.30108E+00  2.86942E+00  1.92070E+00
  -2.45595E+00  3.06635E+00 -1.86460E+00 -1.93130E+00  2.87349E-01  4.23223E-01  3.28769E-01  3.49507E+00  4.52349E+00 -2.84895E+00
   3.55790E+00 -7.02506E+00  4.77961E+00  7.13241E+00 -2.15421E+00 -2.51709E+00 -4.79570E+00  1.02724E+01 -1.26318E+00 -3.63164E+00
  -3.84610E+00  2.93146E+00 -6.38788E+00  2.67185E+00  3.55538E-01 -1.12198E+01  4.09733E+00  7.81741E-01  2.63598E+00  3.14494E+00
   3.69097E+00  1.22185E+00  1.53985E+00  6.01017E+00 -6.92680E+00  2.33822E+00  1.23276E+00 -6.74505E+00 -5.61291E+00 -7.55024E+00
  -1.30670E+00 -1.44358E+00  3.19582E+00 -3.51427E+00 -6.21107E-01 -3.74176E+00 -3.26089E+00 -4.82512E+00  2.55271E-02 -4.55298E+00
   1.92986E+00 -5.51454E+00  1.88528E+00  8.39174E+00  3.25857E+00  5.54967E+00 -3.36751E+00  3.92425E+00 -2.21894E+00 -8.09908E-01
   1.26535E+00 -1.94081E+00 -1.73188E+00 -4.18520E+00  7.14068E-01 -2.84434E+00  3.37993E+00 -1.86466E+00 -1.52507E+00 -1.39126E-01
  -1.36813E+01 -1.68136E+00 -3.97488E+00  1.31653E+00  2.99815E+00 -1.98218E+00  9.42836E+00  7.08191E+00  4.69267E+00  1.38905E+01
   7.44556E-01  2.21483E+01  1.07799E+01  1.44285E+01  1.24790E+01  1.02311E+01  1.94782E+01  1.29710E+01  1.98470E+01  1.10312E+01
   1.21648E+00  9.11902E+00  6.94863E+00  6.01662E-01  9.03661E+00  3.01127E+00  4.00397E+00  8.84363E-01  1.57857E+00  5.67220E+00
   6.24087E+00  5.13991E+00 -3.38679E-01 -4.03484E+00 -3.66691E+00  9.43575E-01  2.49019E+00  3.22564E+00 -6.31231E-01 -6.14655E+00
  -1.20542E+01 -7.52507E+00 -5.58130E+00 -2.16703E+00  2.00621E+00 -4.81378E+00  4.20677E+00 -1.02302E+01  1.78496E+00 -6.39712E+00
   1.47679E+00  1.97715E+00  1.44066E+00 -3.27921E+00  8.73491E+00  6.68174E+00 -3.40587E+00 -1.01964E+00 -8.79162E+00 -6.20648E+00
   2.69460E+00 -6.76037E-01 -7.82426E+00 -3.58633E-01 -3.68888E+00 -7.71884E+00  1.02624E-01 -3.76774E+00 -5.37218E+00 -3.10574E+00
  -6.69583E+00 -4.52573E+00  1.46303E+00  5.42527E+00  1.99770E+00  1.53327E+01 -1.82537E+00  1.11448E+01  1.75718E+00  7.20866E-01
   4.76585E-01 -6.58935E+00  3.53525E+00  3.87945E-01 -8.51457E+00 -4.07055E+00 -2.98787E+00 -7.38651E+00 -2.11142E+01 -7.31318E+00
   2.77826E-01 -7.78584E+00 -3.90246E+00 -4.47252E+00 -2.18431E-03  5.64683E+00 -2.83177E+00 -2.16209E+00 -3.31483E+00 -4.92873E+00
   3.23717E+00  2.63132E+00  2.89041E+00 -1.87809E+00  4.94775E+00  1.98694E+00  1.47411E+00 -2.83971E+00  2.37815E+00 -3.36308E+00
  -2.95308E+00 -5.43165E+00  5.05820E-02 -8.82748E+00 -8.34600E+00  4.50162E+00  1.56480E+00  2.67713E+00 -3.80567E+00 -7.17803E+00
   2.54648E-01  1.31870E+00  1.38139E+00 -1.49895E+00 -8.65218E+00  3.52349E+00 -9.86385E+00 -4.90884E+00 -1.72935E+00 -4.10853E+00
  -6.42571E+00  4.88784E+00  7.05057E+00 -1.42806E+00  8.93666E+00 -5.21871E+00 -2.31773E-01 -1.16036E+00 -3.52265E+00 -2.12513E+00
   6.01879E+00 -1.82038E+00 -4.92034E+00 -1.49222E+00 -6.65827E+00  6.42264E+00  8.96013E+00  6.29621E+00  3.94147E+00  2.15791E-01
  -2.55414E+00 -4.31151E+00 -1.22369E+01  2.12864E+00 -7.68844E+00  2.65140E+00 -5.64278E+00 -3.63591E+00 -6.86384E+00 -5.19799E-01
  -3.80675E+00  1.24302E+00 -5.95521E+00 -8.33189E-01  2.22892E+00 -8.01389E-01 -7.79899E+00 -2.48369E+00 -2.28084E-01  7.15495E+00
   3.92627E+00  8.90648E+00  4.72862E+00  1.22631E+01 -2.31791E-01 -1.85400E+00 -4.66214E+00 -9.11424E+00 -6.67214E+00 -5.19864E+00
  -3.70121E+00  1.35174E+00 -7.18166E+00 -7.00699E+00  3.17304E+00  2.00270E+00 -6.86939E-01 -2.36083E+00 -4.70603E+00 -2.97060E+00
  -1.61168E+00 -3.99431E+00 -2.10316E+00 -2.47289E+00  3.58985E+00  4.38575E+00  3.43889E+00  5.25191E+00 -4.41358E+00 -3.77552E-02
  -4.67873E+00 -9.42099E+00 -1.93976E+00 -7.93007E+00 -2.29589E+00 -5.27934E+00 -1.77152E+00 -3.58038E+00 -3.67809E+00  7.15949E-01
  -3.98060E+00  1.45054E+00 -1.26534E+00 -1.45986E+01  1.57167E+00  1.85315E+00 -9.80313E+00  2.52048E+00 -1.48058E+00  2.43435E+00
  -5.43146E-01  7.53999E-01 -2.59364E+00 -1.83984E-01  1.61730E+00 -1.22430E+01  5.11058E+00  4.56070E+00 -1.66876E+00 -2.22995E+00
  -9.17748E+00 -1.20561E+00 -2.95184E+00 -8.01455E+00 -9.56419E+00 -4.91609E+00 -7.61568E+00  3.65630E+00  5.93635E+00 -8.97661E+00
  -1.02911E+01 -5.34973E+00  3.89410E-01  1.67523E+00 -5.63671E+00 -2.98677E+00 -2.15017E+00 -7.58553E+00
 NY points of the fit to the data follow
   4.90138E+00  4.67911E+00  4.29528E+00  3.95322E+00  3.65335E+00  3.36297E+00  3.18952E+00  3.02353E+00  3.02284E+00  2.91987E+00
   3.05675E+00  2.99474E+00  3.20738E+00  3.17891E+00  3.56930E+00  3.60215E+00  4.15178E+00  4.14521E+00  4.64202E+00  4.31262E+00
   4.48263E+00  3.80047E+00  3.69823E+00  3.04540E+00  3.10322E+00  2.67875E+00  3.09617E+00  2.79481E+00  3.44807E+00  3.12009E+00
   3.74285E+00  3.11030E+00  3.60152E+00  2.73124E+00  3.22753E+00  2.44897E+00  3.24910E+00  2.83644E+00  3.94491E+00  3.70663E+00
   4.65187E+00  4.34183E+00  4.75816E+00  4.48875E+00  4.66569E+00  4.47857E+00  4.66212E+00  4.65790E+00  4.90387E+00  4.98527E+00
   5.23399E+00  5.38740E+00  5.57257E+00  5.55993E+00  5.47863E+00  5.11139E+00  4.71586E+00  4.09615E+00  3.62331E+00  3.07585E+00
   2.81848E+00  2.53114E+00  2.50875E+00  2.42533E+00  2.59632E+00  2.63086E+00  2.91929E+00  2.83739E+00  3.03876E+00  2.78998E+00
   2.89302E+00  2.62448E+00  2.72054E+00  2.56331E+00  2.72605E+00  2.65309E+00  2.84813E+00  2.77287E+00  2.94209E+00  2.75341E+00
   2.79380E+00  2.44823E+00  2.33142E+00  1.89077E+00  1.73147E+00  1.27859E+00  1.17562E+00  7.44522E-01  7.09352E-01  2.53703E-01
   3.13384E-01 -1.69799E-01 -5.69404E-02 -4.70947E-01 -2.55396E-01 -3.91805E-01 -1.21025E-01  1.13223E-01  3.41971E-01  8.40038E-01
   8.90261E-01  1.49875E+00  1.31430E+00  1.97224E+00  1.57365E+00  2.22745E+00  1.68595E+00  2.33006E+00  1.70850E+00  2.22813E+00
   1.54092E+00  1.77472E+00  1.08563E+00  9.42384E-01  4.41214E-01  1.72875E-01 -1.23856E-01 -3.20825E-01 -4.12164E-01 -3.35562E-01
  -2.05439E-01  1.74517E-01  3.74538E-01  8.62170E-01  1.07940E+00  1.56487E+00  1.77179E+00  2.21818E+00  2.39776E+00  2.75585E+00
   2.88800E+00  3.13374E+00  3.16377E+00  3.14012E+00  2.99519E+00  2.58313E+00  2.26036E+00  1.54701E+00  1.17507E+00  5.49980E-01
   2.60323E-01 -1.62029E-01 -3.45179E-01 -5.83971E-01 -6.63074E-01 -6.92908E-01 -7.14014E-01 -7.16886E-01 -7.27616E-01 -7.24129E-01
  -7.34872E-01 -7.44934E-01 -7.61649E-01 -8.03509E-01 -8.27506E-01 -8.93974E-01 -9.14413E-01 -9.74013E-01 -9.90464E-01 -1.03630E+00
  -1.06171E+00 -1.10102E+00 -1.13528E+00 -1.17242E+00 -1.22776E+00 -1.26781E+00 -1.34971E+00 -1.37320E+00 -1.48049E+00 -1.47406E+00
  -1.59052E+00 -1.57803E+00 -1.69314E+00 -1.74121E+00 -1.83843E+00 -1.95869E+00 -2.00297E+00 -2.15150E+00 -2.14248E+00 -2.31030E+00
  -2.22938E+00 -2.37344E+00 -2.18992E+00 -2.28234E+00 -2.03229E+00 -2.09125E+00 -1.85704E+00 -1.89681E+00 -1.79413E+00 -1.80151E+00
  -1.83725E+00 -1.80050E+00 -1.90574E+00 -1.73420E+00 -1.80619E+00 -1.37621E+00 -1.27829E+00 -6.44602E-01 -5.08632E-01  6.88520E-02
   7.91662E-02  3.34779E-01 -6.14595E-03  4.29391E-02 -4.85914E-01 -4.00886E-01 -7.70094E-01 -4.22296E-01 -3.23486E-01 -3.56942E-02
   3.15661E-01  4.74974E-02  4.04292E-01 -6.31837E-01 -3.65988E-01 -1.78564E+00 -1.12667E+00 -2.40442E+00 -1.03409E+00 -2.07238E+00
  -1.81898E-01 -1.50490E+00 -8.63270E-03 -1.74015E+00 -1.08115E+00 -2.85564E+00 -2.84346E+00 -3.83284E+00 -3.80055E+00 -3.53199E+00
  -3.03377E+00 -1.81235E+00 -1.13431E+00  3.63435E-01  5.95499E-01  1.54899E+00  1.23520E+00  1.62035E+00  1.00592E+00  9.81327E-01
   2.38325E-01  1.09040E-01 -3.69570E-01 -5.21310E-01 -6.92768E-01 -9.52547E-01 -1.05958E+00 -1.69569E+00 -1.67803E+00 -2.55163E+00
  -2.18480E+00 -2.72162E+00 -1.49954E+00 -1.07476E+00  5.97927E-01  2.01774E+00  3.71971E+00  5.83421E+00  7.09848E+00  9.57218E+00
   1.02333E+01  1.26540E+01  1.25780E+01  1.47865E+01  1.40322E+01  1.59195E+01  1.41989E+01  1.53488E+01  1.24123E+01  1.24450E+01
   8.76395E+00  7.92108E+00  4.98529E+00  4.03874E+00  2.16203E+00  1.45599E+00  4.33845E-01  7.55025E-02 -3.23714E-02 -2.46584E-02
  -3.34562E-02  1.37602E-02  1.35707E-02 -7.41754E-03 -5.23385E-02 -1.09822E-01 -1.81588E-01 -2.52396E-01 -3.20629E-01 -3.84564E-01
  -4.33200E-01 -4.68129E-01 -4.95190E-01 -5.16159E-01 -5.37596E-01 -5.53285E-01 -5.74055E-01 -5.88241E-01 -6.11063E-01 -6.23605E-01
  -6.42717E-01 -6.50747E-01 -6.64566E-01 -6.68080E-01 -6.75536E-01 -6.74965E-01 -6.77857E-01 -6.73255E-01 -6.71355E-01 -6.64050E-01
  -6.59398E-01 -6.52752E-01 -6.54846E-01 -6.77718E-01 -7.10429E-01 -6.18653E-01 -5.85131E-01 -2.93213E-01 -8.82246E-02  4.25744E-01
   9.07913E-01  1.30848E+00  1.81005E+00  1.72937E+00  2.09981E+00  1.40574E+00  1.65159E+00  4.19198E-01  8.84432E-01 -6.86769E-01
   1.24363E-01 -1.62651E+00 -5.56534E-01 -2.52412E+00 -1.47001E+00 -3.45963E+00 -2.47998E+00 -3.97663E+00 -2.93176E+00 -3.41244E+00
  -1.98975E+00 -1.67205E+00 -2.27068E-01  4.17201E-01  1.33906E+00  1.88880E+00  1.99222E+00  1.97150E+00  1.57203E+00  1.30545E+00
   8.06787E-01  4.91577E-01  3.14931E-02 -2.50169E-01 -4.34465E-01 -5.70772E-01 -6.81442E-01 -7.75293E-01 -8.59626E-01 -9.35777E-01
  -1.00673E+00 -1.07131E+00 -1.13116E+00 -1.18458E+00 -1.23323E+00 -1.27570E+00 -1.31403E+00 -1.34713E+00 -1.37727E+00 -1.40345E+00
  -1.42787E+00 -1.44938E+00 -1.46997E+00 -1.48831E+00 -1.50622E+00 -1.52224E+00 -1.53807E+00 -1.55215E+00 -1.56612E+00 -1.57837E+00
  -1.59051E+00 -1.60094E+00 -1.61123E+00 -1.61974E+00 -1.62806E+00 -1.63456E+00 -1.64083E+00 -1.64527E+00 -1.64947E+00 -1.65186E+00
  -1.65409E+00 -1.65464E+00 -1.65523E+00 -1.65439E+00 -1.65389E+00 -1.65235E+00 -1.65160E+00 -1.65031E+00 -1.65034E+00 -1.65038E+00
  -1.65228E+00 -1.65469E+00 -1.65943E+00 -1.66506E+00 -1.67329E+00 -1.68258E+00 -1.69451E+00 -1.70743E+00 -1.72279E+00 -1.73883E+00
  -1.75692E+00 -1.77523E+00 -1.79508E+00 -1.81461E+00 -1.83517E+00 -1.85492E+00 -1.87524E+00 -1.89435E+00 -1.91370E+00 -1.93159E+00
  -1.94954E+00 -1.96590E+00 -1.98226E+00 -1.99702E+00 -2.01181E+00 -2.02508E+00 -2.03846E+00 -2.05043E+00 -2.06261E+00 -2.07349E+00
  -2.08471E+00 -2.09475E+00 -2.10521E+00 -2.11458E+00 -2.12446E+00 -2.13333E+00 -2.14276E+00 -2.15124E+00 -2.16034E+00 -2.16851E+00
  -2.17733E+00 -2.18527E+00 -2.19389E+00 -2.20163E+00 -2.21009E+00 -2.21767E+00 -2.22598E+00 -2.23344E+00 -2.24164E+00 -2.24899E+00
  -2.25708E+00 -2.26433E+00 -2.27234E+00 -2.27951E+00 -2.28745E+00 -2.29455E+00 -2.30242E+00 -2.30945E+00 -2.31726E+00 -2.32424E+00
  -2.33199E+00 -2.33891E+00 -2.34660E+00 -2.35347E+00 -2.36112E+00 -2.36794E+00 -2.37554E+00 -2.38232E+00 -2.38986E+00 -2.39660E+00
  -2.40410E+00 -2.41079E+00 -2.41824E+00 -2.42489E+00 -2.43229E+00 -2.43889E+00 -2.44625E+00 -2.45280E+00 -2.46011E+00 -2.46660E+00
  -2.47386E+00 -2.48031E+00 -2.48751E+00 -2.49390E+00 -2.50105E+00 -2.50738E+00 -2.51446E+00 -2.52073E+00 -2.52775E+00 -2.53394E+00
  -2.54088E+00 -2.54700E+00 -2.55385E+00 -2.55987E+00 -2.56663E+00 -2.57254E+00 -2.57917E+00 -2.58495E+00
 NY background values follow
     5.459E-01    5.395E-01    5.331E-01    5.267E-01    5.203E-01    5.139E-01    5.076E-01    5.012E-01    4.948E-01    4.884E-01
     4.820E-01    4.756E-01    4.692E-01    4.629E-01    4.565E-01    4.501E-01    4.437E-01    4.373E-01    4.309E-01    4.245E-01
     4.181E-01    4.117E-01    4.054E-01    3.990E-01    3.926E-01    3.862E-01    3.798E-01    3.734E-01    3.670E-01    3.606E-01
     3.542E-01    3.478E-01    3.415E-01    3.351E-01    3.287E-01    3.223E-01    3.159E-01    3.095E-01    3.031E-01    2.967E-01
     2.903E-01    2.839E-01    2.775E-01    2.712E-01    2.648E-01    2.584E-01    2.520E-01    2.456E-01    2.392E-01    2.328E-01
     2.264E-01    2.200E-01    2.136E-01    2.072E-01    2.008E-01    1.944E-01    1.881E-01    1.817E-01    1.753E-01    1.689E-01
     1.625E-01    1.561E-01    1.497E-01    1.433E-01    1.369E-01    1.305E-01    1.241E-01    1.177E-01    1.113E-01    1.049E-01
     9.853E-02    9.214E-02    8.574E-02    7.935E-02    7.295E-02    6.656E-02    6.016E-02    5.377E-02    4.737E-02    4.097E-02
     3.458E-02    2.818E-02    2.179E-02    1.539E-02    8.994E-03    2.597E-03   -3.799E-03   -1.020E-02   -1.659E-02   -2.299E-02
    -2.939E-02   -3.578E-02   -4.218E-02   -4.858E-02   -5.497E-02   -6.137E-02   -6.777E-02   -7.417E-02   -8.056E-02   -8.696E-02
    -9.336E-02   -9.976E-02   -1.062E-01   -1.126E-01   -1.189E-01   -1.253E-01   -1.317E-01   -1.381E-01   -1.445E-01   -1.509E-01
    -1.573E-01   -1.637E-01   -1.701E-01   -1.765E-01   -1.829E-01   -1.893E-01   -1.957E-01   -2.021E-01   -2.085E-01   -2.149E-01
    -2.213E-01   -2.277E-01   -2.341E-01   -2.405E-01   -2.469E-01   -2.533E-01   -2.597E-01   -2.661E-01   -2.725E-01   -2.789E-01
    -2.853E-01   -2.917E-01   -2.981E-01   -3.045E-01   -3.109E-01   -3.173E-01   -3.237E-01   -3.301E-01   -3.365E-01   -3.429E-01
    -3.493E-01   -3.557E-01   -3.621E-01   -3.685E-01   -3.749E-01   -3.813E-01   -3.877E-01   -3.941E-01   -4.005E-01   -4.069E-01
    -4.133E-01   -4.197E-01   -4.261E-01   -4.325E-01   -4.389E-01   -4.453E-01   -4.517E-01   -4.581E-01   -4.645E-01   -4.709E-01
    -4.773E-01   -4.837E-01   -4.901E-01   -4.965E-01   -5.029E-01   -5.093E-01   -5.157E-01   -5.221E-01   -5.285E-01   -5.349E-01
    -5.413E-01   -5.477E-01   -5.541E-01   -5.605E-01   -5.669E-01   -5.733E-01   -5.797E-01   -5.861E-01   -5.925E-01   -5.989E-01
    -6.053E-01   -6.117E-01   -6.181E-01   -6.245E-01   -6.309E-01   -6.373E-01   -6.437E-01   -6.501E-01   -6.565E-01   -6.629E-01
    -6.693E-01   -6.757E-01   -6.821E-01   -6.885E-01   -6.949E-01   -7.013E-01   -7.077E-01   -7.141E-01   -7.205E-01   -7.269E-01
    -7.333E-01   -7.397E-01   -7.461E-01   -7.525E-01   -7.589E-01   -7.653E-01   -7.717E-01   -7.781E-01   -7.845E-01   -7.909E-01
    -7.973E-01   -8.037E-01   -8.101E-01   -8.165E-01   -8.229E-01   -8.293E-01   -8.357E-01   -8.421E-01   -8.485E-01   -8.549E-01
    -8.613E-01   -8.677E-01   -8.741E-01   -8.805E-01   -8.869E-01   -8.933E-01   -8.997E-01   -9.061E-01   -9.125E-01   -9.189E-01
    -9.253E-01   -9.317E-01   -9.381E-01   -9.445E-01   -9.509E-01   -9.573E-01   -9.637E-01   -9.701E-01   -9.765E-01   -9.829E-01
    -9.893E-01   -9.957E-01   -1.002E+00   -1.008E+00   -1.015E+00   -1.021E+00   -1.028E+00   -1.034E+00   -1.040E+00   -1.047E+00
    -1.053E+00   -1.060E+00   -1.066E+00   -1.072E+00   -1.079E+00   -1.085E+00   -1.092E+00   -1.098E+00   -1.104E+00   -1.111E+00
    -1.117E+00   -1.124E+00   -1.130E+00   -1.136E+00   -1.143E+00   -1.149E+00   -1.156E+00   -1.162E+00   -1.168E+00   -1.175E+00
    -1.181E+00   -1.188E+00   -1.194E+00   -1.200E+00   -1.207E+00   -1.213E+00   -1.220E+00   -1.226E+00   -1.232E+00   -1.239E+00
    -1.245E+00   -1.252E+00   -1.258E+00   -1.264E+00   -1.271E+00   -1.277E+00   -1.283E+00   -1.290E+00   -1.296E+00   -1.303E+00
    -1.309E+00   -1.315E+00   -1.322E+00   -1.328E+00   -1.335E+00   -1.341E+00   -1.347E+00   -1.354E+00   -1.360E+00   -1.367E+00
    -1.373E+00   -1.379E+00   -1.386E+00   -1.392E+00   -1.399E+00   -1.405E+00   -1.411E+00   -1.418E+00   -1.424E+00   -1.431E+00
    -1.437E+00   -1.443E+00   -1.450E+00   -1.456E+00   -1.462E+00   -1.469E+00   -1.475E+00   -1.482E+00   -1.488E+00   -1.494E+00
    -1.501E+00   -1.507E+00   -1.514E+00   -1.520E+00   -1.526E+00   -1.533E+00   -1.539E+00   -1.546E+00   -1.552E+00   -1.558E+00
    -1.565E+00   -1.571E+00   -1.577E+00   -1.584E+00   -1.590E+00   -1.597E+00   -1.603E+00   -1.609E+00   -1.616E+00   -1.622E+00
    -1.629E+00   -1.635E+00   -1.641E+00   -1.648E+00   -1.654E+00   -1.660E+00   -1.667E+00   -1.673E+00   -1.680E+00   -1.686E+00
    -1.692E+00   -1.699E+00   -1.705E+00   -1.712E+00   -1.718E+00   -1.724E+00   -1.731E+00   -1.737E+00   -1.743E+00   -1.750E+00
    -1.756E+00   -1.763E+00   -1.769E+00   -1.775E+00   -1.782E+00   -1.788E+00   -1.795E+00   -1.801E+00   -1.807E+00   -1.814E+00
    -1.820E+00   -1.826E+00   -1.833E+00   -1.839E+00   -1.846E+00   -1.852E+00   -1.858E+00   -1.865E+00   -1.871E+00   -1.877E+00
    -1.884E+00   -1.890E+00   -1.897E+00   -1.903E+00   -1.909E+00   -1.916E+00   -1.922E+00   -1.928E+00   -1.935E+00   -1.941E+00
    -1.948E+00   -1.954E+00   -1.960E+00   -1.967E+00   -1.973E+00   -1.979E+00   -1.986E+00   -1.992E+00   -1.999E+00   -2.005E+00
    -2.011E+00   -2.018E+00   -2.024E+00   -2.030E+00   -2.037E+00   -2.043E+00   -2.050E+00   -2.056E+00   -2.062E+00   -2.069E+00
    -2.075E+00   -2.081E+00   -2.088E+00   -2.094E+00   -2.101E+00   -2.107E+00   -2.113E+00   -2.120E+00   -2.126E+00   -2.132E+00
    -2.139E+00   -2.145E+00   -2.152E+00   -2.158E+00   -2.164E+00   -2.171E+00   -2.177E+00   -2.183E+00   -2.190E+00   -2.196E+00
    -2.202E+00   -2.209E+00   -2.215E+00   -2.222E+00   -2.228E+00   -2.234E+00   -2.241E+00   -2.247E+00   -2.253E+00   -2.260E+00
    -2.266E+00   -2.272E+00   -2.279E+00   -2.285E+00   -2.292E+00   -2.298E+00   -2.304E+00   -2.311E+00   -2.317E+00   -2.323E+00
    -2.330E+00   -2.336E+00   -2.342E+00   -2.349E+00   -2.355E+00   -2.362E+00   -2.368E+00   -2.374E+00   -2.381E+00   -2.387E+00
    -2.393E+00   -2.400E+00   -2.406E+00   -2.412E+00   -2.419E+00   -2.425E+00   -2.432E+00   -2.438E+00   -2.444E+00   -2.451E+00
    -2.457E+00   -2.463E+00   -2.470E+00   -2.476E+00   -2.482E+00   -2.489E+00   -2.495E+00   -2.501E+00   -2.508E+00   -2.514E+00
    -2.520E+00   -2.527E+00   -2.533E+00   -2.540E+00   -2.546E+00   -2.552E+00   -2.559E+00   -2.565E+00   -2.571E+00   -2.578E+00
    -2.584E+00   -2.590E+00   -2.597E+00   -2.603E+00   -2.609E+00   -2.616E+00   -2.622E+00   -2.628E+00
 Ala      Conc. = 7.14E+02
