 LCModel (Version 6.3-1L) Copyright: S.W. Provencher.          Ref.: Magn. Reson. Med. 30:672-679 (1993).                
 Slice#2 Row#7 Col#1  PD_24_press_2_raw_act
 36 lines in following concentration table = NCONC+1
    Conc.  %SD /Cr+PCr  Metabolite                                         
 1.47E+03  41%   0.939 Ala                                                 
    0.000 999%   0.000 Asp                                                 
 1.57E+03   8%   1.000 Cr                                                  
    0.000 999%   0.000 PCr                                                 
    0.000 999%   0.000 GABA                                                
   37.890 598% 2.4E-02 Glc                                                 
 9.88E+03  15%   6.302 Gln                                                 
 5.41E+03  34%   3.452 Glu                                                 
  542.963  11%   0.346 GPC                                                 
    0.000 999%   0.000 PCh                                                 
 1.54E+03  16%   0.985 GSH                                                 
 4.44E+03  21%   2.833 Ins                                                 
    0.000 999%   0.000 Lac                                                 
 1.61E+03   8%   1.026 NAA                                                 
    0.000 999%   0.000 NAAG                                                
  199.473  30%   0.127 Scyllo                                              
  609.488  58%   0.389 Tau                                                 
    0.000 999%   0.000 -CrCH2                                              
  542.963  11%   0.346 GPC+PCh                                             
 1.61E+03   8%   1.026 NAA+NAAG                                            
 1.57E+03   8%   1.000 Cr+PCr                                              
 1.53E+04  20%   9.753 Glu+Gln                                             
    0.000 999%   0.000 Lip13a                                              
  136.889 108% 8.7E-02 Lip13b                                              
   36.095 111% 2.3E-02 Lip09                                               
 2.22E+03  11%   1.419 MM09                                                
   20.389 111% 1.3E-02 Lip20                                               
 3.34E+03  11%   2.128 MM20                                                
  667.412  11%   0.426 MM12                                                
 1.67E+03  11%   1.067 MM14                                                
  836.337  11%   0.533 MM17                                                
  136.889 108% 8.7E-02 Lip13a+Lip13b                                       
 2.48E+03  13%   1.580 MM14+Lip13a+Lip13b+MM12                             
 2.26E+03  11%   1.442 MM09+Lip09                                          
 3.36E+03  11%   2.141 MM20+Lip20                                          
   6 lines in following misc. output table
  FWHM = 0.122 ppm    S/N =   4                                            
  Data shift =-0.008 ppm                                                   
  Ph: -49 deg     -34.7 deg/ppm                                            
  alphaB,S = 4.6E-01,   1.9E+02                                            
   14 spline knots.   Ns = 7(2)                                            
  ( 9) 2 infls.   ( 7) 1 extrs.                                            
  498 points on ppm-axis = NY
      4.000000     3.992357     3.984714     3.977070     3.969427     3.961784     3.954141     3.946497     3.938854     3.931211
      3.923568     3.915925     3.908281     3.900638     3.892995     3.885352     3.877708     3.870065     3.862422     3.854779
      3.847136     3.839492     3.831849     3.824206     3.816563     3.808919     3.801276     3.793633     3.785990     3.778347
      3.770703     3.763060     3.755417     3.747774     3.740130     3.732487     3.724844     3.717201     3.709558     3.701914
      3.694271     3.686628     3.678985     3.671341     3.663698     3.656055     3.648412     3.640769     3.633125     3.625482
      3.617839     3.610196     3.602552     3.594909     3.587266     3.579623     3.571980     3.564336     3.556693     3.549050
      3.541407     3.533763     3.526120     3.518477     3.510834     3.503191     3.495547     3.487904     3.480261     3.472618
      3.464974     3.457331     3.449688     3.442045     3.434402     3.426758     3.419115     3.411472     3.403829     3.396185
      3.388542     3.380899     3.373256     3.365613     3.357969     3.350326     3.342683     3.335040     3.327396     3.319753
      3.312110     3.304467     3.296824     3.289180     3.281537     3.273894     3.266251     3.258607     3.250964     3.243321
      3.235678     3.228034     3.220391     3.212748     3.205105     3.197462     3.189818     3.182175     3.174532     3.166889
      3.159245     3.151602     3.143959     3.136316     3.128673     3.121029     3.113386     3.105743     3.098100     3.090456
      3.082813     3.075170     3.067527     3.059884     3.052240     3.044597     3.036954     3.029311     3.021667     3.014024
      3.006381     2.998738     2.991095     2.983451     2.975808     2.968165     2.960522     2.952878     2.945235     2.937592
      2.929949     2.922306     2.914662     2.907019     2.899376     2.891733     2.884089     2.876446     2.868803     2.861160
      2.853517     2.845873     2.838230     2.830587     2.822944     2.815300     2.807657     2.800014     2.792371     2.784728
      2.777084     2.769441     2.761798     2.754155     2.746511     2.738868     2.731225     2.723582     2.715939     2.708295
      2.700652     2.693009     2.685366     2.677722     2.670079     2.662436     2.654793     2.647150     2.639506     2.631863
      2.624220     2.616577     2.608933     2.601290     2.593647     2.586004     2.578361     2.570717     2.563074     2.555431
      2.547788     2.540144     2.532501     2.524858     2.517215     2.509572     2.501928     2.494285     2.486642     2.478999
      2.471355     2.463712     2.456069     2.448426     2.440783     2.433139     2.425496     2.417853     2.410210     2.402566
      2.394923     2.387280     2.379637     2.371994     2.364350     2.356707     2.349064     2.341421     2.333777     2.326134
      2.318491     2.310848     2.303205     2.295561     2.287918     2.280275     2.272632     2.264988     2.257345     2.249702
      2.242059     2.234416     2.226772     2.219129     2.211486     2.203843     2.196199     2.188556     2.180913     2.173270
      2.165627     2.157983     2.150340     2.142697     2.135054     2.127410     2.119767     2.112124     2.104481     2.096838
      2.089194     2.081551     2.073908     2.066265     2.058621     2.050978     2.043335     2.035692     2.028049     2.020405
      2.012762     2.005119     1.997476     1.989833     1.982190     1.974546     1.966903     1.959260     1.951617     1.943974
      1.936331     1.928688     1.921045     1.913402     1.905759     1.898115     1.890472     1.882829     1.875186     1.867543
      1.859900     1.852257     1.844614     1.836971     1.829327     1.821684     1.814041     1.806398     1.798755     1.791112
      1.783469     1.775826     1.768183     1.760540     1.752896     1.745253     1.737610     1.729967     1.722324     1.714681
      1.707038     1.699395     1.691752     1.684108     1.676465     1.668822     1.661179     1.653536     1.645893     1.638250
      1.630607     1.622964     1.615321     1.607677     1.600034     1.592391     1.584748     1.577105     1.569462     1.561819
      1.554176     1.546533     1.538890     1.531246     1.523603     1.515960     1.508317     1.500674     1.493031     1.485388
      1.477745     1.470102     1.462458     1.454815     1.447172     1.439529     1.431886     1.424243     1.416600     1.408957
      1.401314     1.393671     1.386027     1.378384     1.370741     1.363098     1.355455     1.347812     1.340169     1.332526
      1.324883     1.317240     1.309596     1.301953     1.294310     1.286667     1.279024     1.271381     1.263738     1.256095
      1.248452     1.240808     1.233165     1.225522     1.217879     1.210236     1.202593     1.194950     1.187307     1.179664
      1.172021     1.164377     1.156734     1.149091     1.141448     1.133805     1.126162     1.118519     1.110876     1.103233
      1.095590     1.087946     1.080303     1.072660     1.065017     1.057374     1.049731     1.042088     1.034445     1.026802
      1.019158     1.011515     1.003872     0.996229     0.988586     0.980943     0.973300     0.965657     0.958014     0.950371
      0.942727     0.935084     0.927441     0.919798     0.912155     0.904512     0.896869     0.889226     0.881583     0.873940
      0.866296     0.858653     0.851010     0.843367     0.835724     0.828081     0.820438     0.812795     0.805152     0.797508
      0.789865     0.782222     0.774579     0.766936     0.759293     0.751650     0.744007     0.736364     0.728721     0.721077
      0.713434     0.705791     0.698148     0.690505     0.682862     0.675219     0.667576     0.659933     0.652290     0.644646
      0.637003     0.629360     0.621717     0.614074     0.606431     0.598788     0.591145     0.583502     0.575858     0.568215
      0.560572     0.552929     0.545286     0.537643     0.530000     0.522357     0.514714     0.507071     0.499427     0.491784
      0.484141     0.476498     0.468855     0.461212     0.453569     0.445925     0.438282     0.430639     0.422996     0.415353
      0.407710     0.400067     0.392424     0.384780     0.377137     0.369494     0.361851     0.354208     0.346565     0.338922
      0.331278     0.323635     0.315992     0.308349     0.300706     0.293063     0.285420     0.277777     0.270133     0.262490
      0.254847     0.247204     0.239561     0.231918     0.224275     0.216631     0.208988     0.201345
 NY phased data points follow
  -1.94140E+02 -1.85932E+02 -1.82518E+02 -1.77285E+02 -1.77613E+02 -1.60853E+02 -1.65207E+02 -1.61247E+02 -1.56591E+02 -1.58205E+02
  -1.52149E+02 -1.47921E+02 -1.46061E+02 -1.48891E+02 -1.37392E+02 -1.34379E+02 -1.41279E+02 -1.37815E+02 -1.38292E+02 -1.42965E+02
  -1.38528E+02 -1.31888E+02 -1.29101E+02 -1.31182E+02 -1.20027E+02 -1.19915E+02 -1.18776E+02 -1.19698E+02 -1.16585E+02 -1.09737E+02
  -1.09533E+02 -1.11091E+02 -1.05021E+02 -1.02636E+02 -1.02434E+02 -1.01800E+02 -1.00682E+02 -1.01553E+02 -9.80679E+01 -9.53728E+01
  -9.47943E+01 -9.70700E+01 -9.35481E+01 -8.73164E+01 -8.93114E+01 -9.39753E+01 -8.86453E+01 -7.81631E+01 -8.54884E+01 -8.12052E+01
  -8.43035E+01 -7.81197E+01 -8.13798E+01 -8.03780E+01 -7.99349E+01 -8.48607E+01 -8.46936E+01 -8.05933E+01 -8.02620E+01 -7.99379E+01
  -7.13192E+01 -7.13449E+01 -7.43555E+01 -7.14073E+01 -6.68629E+01 -6.79020E+01 -6.74768E+01 -7.05368E+01 -7.45157E+01 -6.83813E+01
  -6.34013E+01 -6.87430E+01 -6.21234E+01 -5.85715E+01 -5.87921E+01 -5.80701E+01 -5.55054E+01 -5.61123E+01 -5.79895E+01 -5.24994E+01
  -5.22000E+01 -5.69655E+01 -5.49137E+01 -5.37726E+01 -4.87091E+01 -5.34794E+01 -4.62963E+01 -4.92588E+01 -5.12318E+01 -4.39640E+01
  -4.38744E+01 -4.03290E+01 -3.22059E+01 -3.90970E+01 -3.04559E+01 -3.44169E+01 -2.55487E+01 -2.55194E+01 -2.61498E+01 -2.03659E+01
  -2.39713E+01 -2.21182E+01 -3.07741E+01 -1.67831E+01 -1.89688E+01 -1.96932E+01 -1.34684E+01 -1.28242E+01 -1.74446E+01 -1.28783E+01
  -2.04906E+01 -1.80299E+01 -2.10457E+01 -2.53814E+01 -1.41992E+01 -1.96298E+01 -2.13212E+01 -1.35428E+01 -1.35445E+01 -9.56226E+00
  -3.65446E+00 -3.05412E+00 -1.90572E+00 -6.87787E+00 -6.06401E+00 -8.24144E-01  4.09810E+00  7.75460E-01  6.58626E+00  7.72829E+00
   1.61944E+01  5.81367E+00  1.07904E+01  3.96139E+00  3.13441E+00 -5.31753E+00 -1.28245E+01 -3.74325E+00 -1.02343E+01 -1.19608E+01
  -6.17999E+00 -6.86330E+00 -3.24459E+00 -4.27602E+00 -8.52182E+00 -8.59434E+00 -2.76778E+00  2.73294E+00 -5.51480E+00 -8.34683E+00
  -4.22305E+00 -4.17446E+00 -6.67142E+00 -1.83203E+00 -5.77828E+00 -1.24912E+00 -6.10439E+00  1.42352E+00 -4.10485E+00 -2.12030E-01
   8.79691E-01  1.54591E+00 -6.11158E+00 -5.72249E+00  2.60204E-02 -2.63300E+00 -6.61698E+00  9.02746E-01 -1.06389E+00 -5.15094E+00
  -4.69646E+00  8.44459E-01 -2.24008E+00 -6.46703E+00 -2.24912E+00 -4.17910E+00 -3.17813E+00  2.79896E-01  2.25184E+00 -2.10368E+00
  -2.76888E+00 -1.10323E+00  2.52675E+00  4.66034E+00 -1.35838E+00  5.50307E+00  1.53302E+00  2.27941E+00  8.17292E+00  5.62329E+00
   1.04809E+01  1.00439E+01  1.13348E+01  1.04642E+01  1.75431E+01  1.52274E+01  2.04867E+01  2.21730E+01  1.87164E+01  1.64991E+01
   1.76507E+01  1.63118E+01  1.98507E+01  2.06331E+01  1.88882E+01  2.23978E+01  1.85829E+01  2.28735E+01  2.41381E+01  2.37230E+01
   2.33719E+01  2.82761E+01  2.65183E+01  3.03717E+01  2.89092E+01  2.66326E+01  2.92629E+01  3.14567E+01  3.59419E+01  3.92405E+01
   3.36463E+01  3.67484E+01  3.49693E+01  3.52970E+01  3.94063E+01  3.23965E+01  4.04972E+01  3.37378E+01  3.64512E+01  3.86007E+01
   3.31647E+01  3.47188E+01  3.42388E+01  3.35252E+01  3.09324E+01  3.46793E+01  3.21039E+01  2.88282E+01  3.21328E+01  3.38614E+01
   3.26810E+01  2.58659E+01  2.62480E+01  2.42521E+01  3.08301E+01  2.81120E+01  3.16142E+01  3.59705E+01  3.69257E+01  3.43926E+01
   3.88042E+01  4.19808E+01  4.33503E+01  4.66579E+01  4.97488E+01  5.15995E+01  6.03427E+01  5.43504E+01  5.37211E+01  6.08185E+01
   6.29635E+01  6.88271E+01  7.37450E+01  7.56669E+01  7.07930E+01  6.21823E+01  6.65526E+01  5.58181E+01  5.51494E+01  5.17980E+01
   5.63724E+01  5.07311E+01  5.48527E+01  4.63451E+01  4.74170E+01  4.19862E+01  4.17995E+01  4.19794E+01  4.68258E+01  4.00271E+01
   4.24613E+01  3.63988E+01  3.98259E+01  3.73500E+01  4.09862E+01  3.90116E+01  3.92013E+01  4.06250E+01  4.01176E+01  3.64292E+01
   4.37456E+01  4.32982E+01  4.09223E+01  3.88295E+01  4.43531E+01  3.72562E+01  4.44116E+01  3.95407E+01  4.74872E+01  4.00384E+01
   4.30915E+01  4.18323E+01  3.99132E+01  4.72278E+01  4.10718E+01  3.70193E+01  4.27973E+01  4.49648E+01  4.90322E+01  4.42909E+01
   5.36420E+01  5.25750E+01  5.24732E+01  5.65948E+01  5.96353E+01  6.79419E+01  6.06065E+01  6.42319E+01  6.80687E+01  6.47425E+01
   7.49708E+01  6.88908E+01  6.58270E+01  6.23837E+01  6.38953E+01  6.63642E+01  6.73907E+01  6.24003E+01  6.22992E+01  6.48952E+01
   5.84438E+01  5.93246E+01  5.44731E+01  4.71870E+01  4.85708E+01  5.47678E+01  5.03388E+01  4.86622E+01  5.20047E+01  4.60104E+01
   4.54307E+01  4.41765E+01  3.99804E+01  4.23422E+01  3.93363E+01  4.01738E+01  3.92572E+01  4.96289E+01  3.96716E+01  4.16049E+01
   4.51399E+01  4.38447E+01  4.22284E+01  3.95592E+01  4.61129E+01  4.70173E+01  4.48692E+01  4.59492E+01  4.54975E+01  4.41551E+01
   4.68642E+01  4.09422E+01  4.32325E+01  4.54062E+01  3.82436E+01  3.94490E+01  4.32848E+01  4.22472E+01  3.87223E+01  3.97574E+01
   4.01097E+01  3.78469E+01  4.42013E+01  3.93533E+01  3.93355E+01  4.53743E+01  4.07169E+01  4.04448E+01  4.50536E+01  4.11944E+01
   4.71708E+01  4.57093E+01  3.91072E+01  4.38317E+01  5.09336E+01  4.57757E+01  4.58299E+01  4.97180E+01  4.83347E+01  4.45038E+01
   4.81998E+01  4.85700E+01  4.42988E+01  3.76776E+01  4.43827E+01  4.45076E+01  4.13650E+01  4.09724E+01  4.10525E+01  4.18609E+01
   4.06236E+01  4.58923E+01  4.17852E+01  4.59948E+01  3.80666E+01  3.98541E+01  4.47216E+01  3.90096E+01  4.51202E+01  4.19521E+01
   4.17435E+01  4.68947E+01  3.92506E+01  3.66010E+01  4.16370E+01  4.03114E+01  3.91935E+01  3.46210E+01  3.74375E+01  4.04535E+01
   3.59242E+01  3.55443E+01  3.56598E+01  3.95215E+01  4.49318E+01  3.52415E+01  4.07846E+01  3.85539E+01  4.83202E+01  4.23705E+01
   4.06434E+01  3.58270E+01  4.70361E+01  3.95196E+01  4.41238E+01  4.21771E+01  3.77081E+01  4.11792E+01  3.66124E+01  3.62367E+01
   3.81246E+01  4.24343E+01  4.28021E+01  4.13665E+01  4.14719E+01  4.13224E+01  4.09463E+01  3.89770E+01  4.31914E+01  4.23346E+01
   3.69219E+01  3.74024E+01  4.11622E+01  3.36220E+01  4.31023E+01  4.45362E+01  4.40058E+01  4.50643E+01  3.71523E+01  4.03701E+01
   4.21324E+01  4.43443E+01  4.07182E+01  4.10252E+01  4.11944E+01  3.83357E+01  3.84227E+01  3.94319E+01  3.98316E+01  4.01419E+01
   4.42921E+01  4.25005E+01  3.90680E+01  3.61058E+01  3.85662E+01  3.73182E+01  3.67449E+01  3.59230E+01  3.99314E+01  3.56840E+01
   3.79263E+01  3.75199E+01  3.75483E+01  3.59215E+01  3.60846E+01  3.80683E+01  3.91577E+01  3.39668E+01  3.25639E+01  3.47003E+01
   2.99921E+01  3.44196E+01  3.53094E+01  3.39265E+01  3.49009E+01  3.32474E+01  2.97230E+01  3.45193E+01
 NY points of the fit to the data follow
  -1.80532E+02 -1.78387E+02 -1.75561E+02 -1.73537E+02 -1.70168E+02 -1.68488E+02 -1.64684E+02 -1.63342E+02 -1.59183E+02 -1.58044E+02
  -1.53338E+02 -1.52145E+02 -1.47748E+02 -1.47236E+02 -1.43710E+02 -1.43504E+02 -1.40766E+02 -1.40686E+02 -1.37682E+02 -1.37065E+02
  -1.33337E+02 -1.32115E+02 -1.27572E+02 -1.26359E+02 -1.21876E+02 -1.21030E+02 -1.17206E+02 -1.16758E+02 -1.13437E+02 -1.12765E+02
  -1.09096E+02 -1.08726E+02 -1.04948E+02 -1.04414E+02 -1.01271E+02 -1.00745E+02 -9.90705E+01 -9.84688E+01 -9.78013E+01 -9.66583E+01
  -9.61383E+01 -9.46397E+01 -9.38436E+01 -9.20465E+01 -9.15176E+01 -8.98421E+01 -8.95284E+01 -8.74979E+01 -8.70448E+01 -8.54041E+01
  -8.44916E+01 -8.31707E+01 -8.25519E+01 -8.17836E+01 -8.15641E+01 -8.10770E+01 -8.10407E+01 -8.00837E+01 -7.96676E+01 -7.83036E+01
  -7.77279E+01 -7.61105E+01 -7.54817E+01 -7.38486E+01 -7.30036E+01 -7.10528E+01 -7.00061E+01 -6.81879E+01 -6.72460E+01 -6.55371E+01
  -6.45959E+01 -6.29870E+01 -6.18284E+01 -6.05680E+01 -5.92926E+01 -5.85301E+01 -5.71371E+01 -5.67200E+01 -5.52000E+01 -5.51278E+01
  -5.36062E+01 -5.38545E+01 -5.22402E+01 -5.27049E+01 -5.09037E+01 -5.14797E+01 -4.96182E+01 -5.02561E+01 -4.81708E+01 -4.76822E+01
  -4.54514E+01 -4.37236E+01 -4.16005E+01 -3.84867E+01 -3.66833E+01 -3.25670E+01 -3.14354E+01 -2.70080E+01 -2.68214E+01 -2.24248E+01
  -2.29696E+01 -1.84718E+01 -1.96620E+01 -1.53522E+01 -1.71592E+01 -1.40395E+01 -1.65555E+01 -1.49623E+01 -1.76851E+01 -1.73090E+01
  -1.97189E+01 -1.99753E+01 -2.14855E+01 -2.07512E+01 -2.09971E+01 -1.96658E+01 -1.87733E+01 -1.69166E+01 -1.49405E+01 -1.27075E+01
  -9.73529E+00 -7.10941E+00 -4.02001E+00 -2.18524E+00  6.50924E-01  1.91218E+00  4.42709E+00  4.98687E+00  6.89894E+00  6.29622E+00
   7.32766E+00  5.71915E+00  5.80066E+00  3.65677E+00  2.93933E+00  7.86499E-01 -3.81503E-01 -1.88755E+00 -3.14727E+00 -4.04451E+00
  -5.28099E+00 -5.60877E+00 -6.69451E+00 -6.55448E+00 -7.34048E+00 -6.32224E+00 -6.68654E+00 -5.93348E+00 -6.15748E+00 -5.57804E+00
  -5.59889E+00 -5.02047E+00 -4.96999E+00 -4.61658E+00 -4.52440E+00 -4.32061E+00 -4.12277E+00 -3.88395E+00 -3.54483E+00 -3.19580E+00
  -2.81324E+00 -2.46421E+00 -2.10273E+00 -1.78951E+00 -1.42889E+00 -1.13525E+00 -7.55484E-01 -5.00934E-01 -1.69423E-01  8.14705E-02
   3.39391E-01  5.93025E-01  7.63099E-01  1.03788E+00  1.16902E+00  1.55786E+00  1.80623E+00  2.40153E+00  2.83616E+00  3.58353E+00
   3.97976E+00  4.78968E+00  4.83720E+00  5.36344E+00  5.08845E+00  5.27813E+00  4.80538E+00  5.10403E+00  5.13039E+00  5.92899E+00
   6.68910E+00  8.39755E+00  9.70938E+00  1.19298E+01  1.30359E+01  1.48382E+01  1.42222E+01  1.57866E+01  1.40897E+01  1.58398E+01
   1.34995E+01  1.60723E+01  1.39861E+01  1.74389E+01  1.56174E+01  1.93860E+01  1.75091E+01  2.07254E+01  1.81346E+01  2.06231E+01
   1.80669E+01  2.06098E+01  1.91889E+01  2.21708E+01  2.21920E+01  2.53558E+01  2.64133E+01  2.91885E+01  3.00676E+01  3.21900E+01
   3.23805E+01  3.37053E+01  3.30863E+01  3.45535E+01  3.38102E+01  3.56855E+01  3.49301E+01  3.72582E+01  3.54413E+01  3.77737E+01
   3.64172E+01  3.81610E+01  3.70681E+01  3.77268E+01  3.73251E+01  3.67332E+01  3.67058E+01  3.52571E+01  3.61045E+01  3.40475E+01
   3.56749E+01  3.27374E+01  3.52942E+01  3.18401E+01  3.49212E+01  3.13078E+01  3.49256E+01  3.29697E+01  3.73339E+01  3.70063E+01
   4.19244E+01  4.32310E+01  4.82756E+01  5.00999E+01  5.42734E+01  5.61333E+01  5.94663E+01  6.08137E+01  6.33362E+01  6.45505E+01
   6.61681E+01  6.63041E+01  6.70382E+01  6.59350E+01  6.55489E+01  6.32023E+01  6.19096E+01  5.88370E+01  5.69914E+01  5.39805E+01
   5.21675E+01  4.98870E+01  4.83658E+01  4.65335E+01  4.52328E+01  4.36956E+01  4.25931E+01  4.13620E+01  4.08097E+01  4.07339E+01
   4.06003E+01  4.05215E+01  4.05279E+01  4.04236E+01  4.04623E+01  4.04003E+01  4.04643E+01  4.04296E+01  4.05010E+01  4.04905E+01
   4.05558E+01  4.05936E+01  4.07064E+01  4.08064E+01  4.09575E+01  4.11151E+01  4.13105E+01  4.15303E+01  4.17802E+01  4.20673E+01
   4.24060E+01  4.27975E+01  4.32600E+01  4.37934E+01  4.44185E+01  4.51326E+01  4.59566E+01  4.68853E+01  4.79409E+01  4.91121E+01
   5.04242E+01  5.18802E+01  5.35517E+01  5.54503E+01  5.70531E+01  5.90207E+01  6.02581E+01  6.20235E+01  6.25568E+01  6.37441E+01
   6.32889E+01  6.40343E+01  6.29609E+01  6.32825E+01  6.18506E+01  6.18957E+01  6.02275E+01  5.99002E+01  5.80969E+01  5.72022E+01
   5.54895E+01  5.41404E+01  5.27965E+01  5.14285E+01  5.07735E+01  4.96479E+01  4.97277E+01  4.87412E+01  4.91186E+01  4.79881E+01
   4.83777E+01  4.71327E+01  4.74224E+01  4.62520E+01  4.65166E+01  4.57690E+01  4.57912E+01  4.50827E+01  4.49960E+01  4.44127E+01
   4.42636E+01  4.38023E+01  4.35937E+01  4.35488E+01  4.35582E+01  4.35669E+01  4.35419E+01  4.34651E+01  4.33317E+01  4.31477E+01
   4.29276E+01  4.26899E+01  4.24539E+01  4.22360E+01  4.20478E+01  4.18954E+01  4.17804E+01  4.17009E+01  4.16534E+01  4.16337E+01
   4.16387E+01  4.16663E+01  4.17159E+01  4.17880E+01  4.18839E+01  4.20054E+01  4.21544E+01  4.23322E+01  4.25397E+01  4.27768E+01
   4.30427E+01  4.33353E+01  4.36515E+01  4.39869E+01  4.43361E+01  4.46928E+01  4.50497E+01  4.53990E+01  4.57325E+01  4.60415E+01
   4.63179E+01  4.65538E+01  4.67421E+01  4.68766E+01  4.69528E+01  4.69671E+01  4.69181E+01  4.68055E+01  4.66313E+01  4.63985E+01
   4.61121E+01  4.57778E+01  4.54028E+01  4.49948E+01  4.45618E+01  4.41122E+01  4.36540E+01  4.31950E+01  4.27423E+01  4.23020E+01
   4.18791E+01  4.14782E+01  4.11025E+01  4.07547E+01  4.04364E+01  4.01485E+01  3.98913E+01  3.96645E+01  3.94672E+01  3.92982E+01
   3.91562E+01  3.90393E+01  3.89459E+01  3.88740E+01  3.88217E+01  3.87872E+01  3.87686E+01  3.87642E+01  3.87723E+01  3.87913E+01
   3.88198E+01  3.88563E+01  3.88996E+01  3.89485E+01  3.90018E+01  3.90585E+01  3.91177E+01  3.91785E+01  3.92400E+01  3.93014E+01
   3.93621E+01  3.94213E+01  3.94784E+01  3.95328E+01  3.95837E+01  3.96309E+01  3.96736E+01  3.97113E+01  3.97436E+01  3.97699E+01
   3.97899E+01  3.98030E+01  3.98087E+01  3.98069E+01  3.97976E+01  3.97809E+01  3.97570E+01  3.97260E+01  3.96880E+01  3.96433E+01
   3.95920E+01  3.95342E+01  3.94702E+01  3.94001E+01  3.93241E+01  3.92424E+01  3.91551E+01  3.90625E+01  3.89647E+01  3.88620E+01
   3.87545E+01  3.86424E+01  3.85260E+01  3.84054E+01  3.82808E+01  3.81525E+01  3.80207E+01  3.78855E+01  3.77472E+01  3.76060E+01
   3.74621E+01  3.73157E+01  3.71671E+01  3.70164E+01  3.68640E+01  3.67100E+01  3.65547E+01  3.63983E+01  3.62410E+01  3.60832E+01
   3.59250E+01  3.57667E+01  3.56087E+01  3.54512E+01  3.52945E+01  3.51389E+01  3.49848E+01  3.48326E+01
 NY background values follow
    -1.977E+02   -1.958E+02   -1.939E+02   -1.920E+02   -1.901E+02   -1.881E+02   -1.862E+02   -1.843E+02   -1.824E+02   -1.805E+02
    -1.786E+02   -1.767E+02   -1.748E+02   -1.729E+02   -1.710E+02   -1.692E+02   -1.673E+02   -1.654E+02   -1.635E+02   -1.616E+02
    -1.598E+02   -1.579E+02   -1.561E+02   -1.542E+02   -1.524E+02   -1.505E+02   -1.487E+02   -1.469E+02   -1.450E+02   -1.432E+02
    -1.414E+02   -1.396E+02   -1.378E+02   -1.361E+02   -1.343E+02   -1.325E+02   -1.308E+02   -1.290E+02   -1.273E+02   -1.256E+02
    -1.238E+02   -1.221E+02   -1.204E+02   -1.188E+02   -1.171E+02   -1.154E+02   -1.138E+02   -1.121E+02   -1.105E+02   -1.089E+02
    -1.073E+02   -1.057E+02   -1.041E+02   -1.026E+02   -1.010E+02   -9.946E+01   -9.793E+01   -9.641E+01   -9.490E+01   -9.341E+01
    -9.193E+01   -9.047E+01   -8.901E+01   -8.757E+01   -8.614E+01   -8.473E+01   -8.333E+01   -8.194E+01   -8.056E+01   -7.920E+01
    -7.785E+01   -7.651E+01   -7.519E+01   -7.388E+01   -7.259E+01   -7.131E+01   -7.004E+01   -6.878E+01   -6.754E+01   -6.632E+01
    -6.510E+01   -6.390E+01   -6.272E+01   -6.155E+01   -6.039E+01   -5.925E+01   -5.812E+01   -5.701E+01   -5.591E+01   -5.482E+01
    -5.375E+01   -5.270E+01   -5.166E+01   -5.063E+01   -4.962E+01   -4.862E+01   -4.763E+01   -4.666E+01   -4.570E+01   -4.475E+01
    -4.382E+01   -4.290E+01   -4.199E+01   -4.109E+01   -4.020E+01   -3.932E+01   -3.846E+01   -3.760E+01   -3.676E+01   -3.593E+01
    -3.510E+01   -3.429E+01   -3.348E+01   -3.269E+01   -3.190E+01   -3.112E+01   -3.035E+01   -2.959E+01   -2.883E+01   -2.809E+01
    -2.735E+01   -2.662E+01   -2.589E+01   -2.517E+01   -2.446E+01   -2.375E+01   -2.305E+01   -2.236E+01   -2.166E+01   -2.098E+01
    -2.030E+01   -1.962E+01   -1.895E+01   -1.828E+01   -1.762E+01   -1.696E+01   -1.630E+01   -1.565E+01   -1.500E+01   -1.435E+01
    -1.370E+01   -1.306E+01   -1.242E+01   -1.179E+01   -1.116E+01   -1.053E+01   -9.905E+00   -9.284E+00   -8.667E+00   -8.054E+00
    -7.444E+00   -6.838E+00   -6.236E+00   -5.638E+00   -5.044E+00   -4.454E+00   -3.867E+00   -3.285E+00   -2.708E+00   -2.134E+00
    -1.564E+00   -9.993E-01   -4.385E-01    1.178E-01    6.697E-01    1.217E+00    1.760E+00    2.298E+00    2.832E+00    3.361E+00
     3.885E+00    4.404E+00    4.918E+00    5.428E+00    5.932E+00    6.432E+00    6.926E+00    7.416E+00    7.900E+00    8.379E+00
     8.852E+00    9.321E+00    9.784E+00    1.024E+01    1.069E+01    1.114E+01    1.158E+01    1.202E+01    1.245E+01    1.287E+01
     1.329E+01    1.371E+01    1.412E+01    1.452E+01    1.492E+01    1.531E+01    1.570E+01    1.608E+01    1.646E+01    1.683E+01
     1.719E+01    1.755E+01    1.791E+01    1.826E+01    1.860E+01    1.894E+01    1.927E+01    1.960E+01    1.992E+01    2.024E+01
     2.055E+01    2.085E+01    2.115E+01    2.145E+01    2.174E+01    2.202E+01    2.230E+01    2.257E+01    2.284E+01    2.310E+01
     2.335E+01    2.360E+01    2.385E+01    2.409E+01    2.432E+01    2.455E+01    2.477E+01    2.499E+01    2.520E+01    2.540E+01
     2.560E+01    2.580E+01    2.599E+01    2.618E+01    2.636E+01    2.654E+01    2.672E+01    2.689E+01    2.706E+01    2.723E+01
     2.739E+01    2.755E+01    2.771E+01    2.787E+01    2.802E+01    2.818E+01    2.833E+01    2.848E+01    2.863E+01    2.878E+01
     2.892E+01    2.907E+01    2.922E+01    2.936E+01    2.951E+01    2.966E+01    2.981E+01    2.995E+01    3.010E+01    3.026E+01
     3.041E+01    3.056E+01    3.072E+01    3.088E+01    3.104E+01    3.120E+01    3.137E+01    3.154E+01    3.171E+01    3.188E+01
     3.206E+01    3.224E+01    3.243E+01    3.262E+01    3.282E+01    3.301E+01    3.321E+01    3.342E+01    3.362E+01    3.383E+01
     3.403E+01    3.424E+01    3.445E+01    3.466E+01    3.487E+01    3.508E+01    3.529E+01    3.550E+01    3.571E+01    3.592E+01
     3.612E+01    3.633E+01    3.653E+01    3.673E+01    3.692E+01    3.712E+01    3.730E+01    3.749E+01    3.767E+01    3.784E+01
     3.802E+01    3.818E+01    3.834E+01    3.850E+01    3.864E+01    3.879E+01    3.892E+01    3.905E+01    3.917E+01    3.928E+01
     3.939E+01    3.948E+01    3.957E+01    3.965E+01    3.972E+01    3.978E+01    3.983E+01    3.987E+01    3.990E+01    3.992E+01
     3.993E+01    3.993E+01    3.992E+01    3.990E+01    3.988E+01    3.984E+01    3.980E+01    3.975E+01    3.970E+01    3.964E+01
     3.957E+01    3.949E+01    3.941E+01    3.932E+01    3.923E+01    3.913E+01    3.903E+01    3.892E+01    3.881E+01    3.870E+01
     3.858E+01    3.846E+01    3.833E+01    3.821E+01    3.808E+01    3.795E+01    3.781E+01    3.768E+01    3.754E+01    3.741E+01
     3.727E+01    3.713E+01    3.699E+01    3.686E+01    3.672E+01    3.658E+01    3.645E+01    3.632E+01    3.619E+01    3.606E+01
     3.593E+01    3.581E+01    3.569E+01    3.557E+01    3.545E+01    3.534E+01    3.523E+01    3.513E+01    3.503E+01    3.493E+01
     3.484E+01    3.475E+01    3.466E+01    3.458E+01    3.450E+01    3.443E+01    3.436E+01    3.429E+01    3.423E+01    3.418E+01
     3.412E+01    3.407E+01    3.403E+01    3.399E+01    3.396E+01    3.392E+01    3.390E+01    3.388E+01    3.386E+01    3.385E+01
     3.385E+01    3.384E+01    3.385E+01    3.386E+01    3.387E+01    3.389E+01    3.392E+01    3.395E+01    3.398E+01    3.403E+01
     3.407E+01    3.413E+01    3.419E+01    3.425E+01    3.432E+01    3.440E+01    3.448E+01    3.457E+01    3.466E+01    3.477E+01
     3.487E+01    3.498E+01    3.510E+01    3.522E+01    3.534E+01    3.547E+01    3.560E+01    3.574E+01    3.587E+01    3.601E+01
     3.615E+01    3.629E+01    3.644E+01    3.658E+01    3.673E+01    3.688E+01    3.702E+01    3.717E+01    3.731E+01    3.746E+01
     3.760E+01    3.774E+01    3.788E+01    3.802E+01    3.815E+01    3.828E+01    3.841E+01    3.853E+01    3.865E+01    3.877E+01
     3.888E+01    3.898E+01    3.908E+01    3.918E+01    3.926E+01    3.935E+01    3.942E+01    3.949E+01    3.955E+01    3.960E+01
     3.965E+01    3.969E+01    3.971E+01    3.973E+01    3.974E+01    3.974E+01    3.974E+01    3.972E+01    3.970E+01    3.967E+01
     3.963E+01    3.959E+01    3.954E+01    3.948E+01    3.941E+01    3.934E+01    3.926E+01    3.918E+01    3.909E+01    3.899E+01
     3.889E+01    3.879E+01    3.868E+01    3.856E+01    3.845E+01    3.832E+01    3.819E+01    3.806E+01    3.793E+01    3.779E+01
     3.765E+01    3.751E+01    3.736E+01    3.721E+01    3.706E+01    3.690E+01    3.675E+01    3.659E+01    3.643E+01    3.627E+01
     3.611E+01    3.595E+01    3.579E+01    3.563E+01    3.546E+01    3.530E+01    3.514E+01    3.498E+01
 Ala      Conc. = 1.47E+03
