 LCModel (Version 6.3-1L) Copyright: S.W. Provencher.          Ref.: Magn. Reson. Med. 30:672-679 (1993).                
 Slice#3 Row#6 Col#12  PD_24_press_2_raw_act
 36 lines in following concentration table = NCONC+1
    Conc.  %SD /Cr+PCr  Metabolite                                         
    0.000 999%   0.000 Ala                                                 
   48.776 103%   0.000 Asp                                                 
    0.000 999%   0.000 Cr                                                  
    0.000 999%   0.000 PCr                                                 
   24.445 124%   0.000 GABA                                                
   28.815 104%   0.000 Glc                                                 
  487.224 110%   0.000 Gln                                                 
   45.716 999%   0.000 Glu                                                 
    0.000 999%   0.000 GPC                                                 
    0.000 999%   0.000 PCh                                                 
    0.000 999%   0.000 GSH                                                 
    0.000 999%   0.000 Ins                                                 
    0.000 999%   0.000 Lac                                                 
  967.444  17%   0.000 NAA                                                 
    0.000 999%   0.000 NAAG                                                
    9.440 103%   0.000 Scyllo                                              
   35.307 139%   0.000 Tau                                                 
    0.000 999%   0.000 -CrCH2                                              
    0.000 999%   0.000 GPC+PCh                                             
  967.444  17%   0.000 NAA+NAAG                                            
    0.000 999%   0.000 Cr+PCr                                              
  532.941 165%   0.000 Glu+Gln                                             
 3.89E+03  25%   0.000 Lip13a                                              
    0.000 999%   0.000 Lip13b                                              
 1.36E+03  21%   0.000 Lip09                                               
 2.63E+03  15%   0.000 MM09                                                
  603.555  35%   0.000 Lip20                                               
 1.03E+03  58%   0.000 MM20                                                
  968.085  51%   0.000 MM12                                                
 2.40E+03  22%   0.000 MM14                                                
 1.39E+03  29%   0.000 MM17                                                
 3.89E+03  25%   0.000 Lip13a+Lip13b                                       
 7.25E+03  10%   0.000 MM14+Lip13a+Lip13b+MM12                             
 3.98E+03   8%   0.000 MM09+Lip09                                          
 1.64E+03  36%   0.000 MM20+Lip20                                          
   6 lines in following misc. output table
  FWHM = 0.076 ppm    S/N =   3                                            
  Data shift = 0.023 ppm                                                   
  Ph:  97 deg      39.3 deg/ppm                                            
  alphaB,S = 8.5E+01,   2.6E+01                                            
   14 spline knots.   Ns = 7(2)                                            
   2 inflections.     1 extrema                                            
  498 points on ppm-axis = NY
      4.000000     3.992357     3.984714     3.977070     3.969427     3.961784     3.954141     3.946497     3.938854     3.931211
      3.923568     3.915925     3.908281     3.900638     3.892995     3.885352     3.877708     3.870065     3.862422     3.854779
      3.847136     3.839492     3.831849     3.824206     3.816563     3.808919     3.801276     3.793633     3.785990     3.778347
      3.770703     3.763060     3.755417     3.747774     3.740130     3.732487     3.724844     3.717201     3.709558     3.701914
      3.694271     3.686628     3.678985     3.671341     3.663698     3.656055     3.648412     3.640769     3.633125     3.625482
      3.617839     3.610196     3.602552     3.594909     3.587266     3.579623     3.571980     3.564336     3.556693     3.549050
      3.541407     3.533763     3.526120     3.518477     3.510834     3.503191     3.495547     3.487904     3.480261     3.472618
      3.464974     3.457331     3.449688     3.442045     3.434402     3.426758     3.419115     3.411472     3.403829     3.396185
      3.388542     3.380899     3.373256     3.365613     3.357969     3.350326     3.342683     3.335040     3.327396     3.319753
      3.312110     3.304467     3.296824     3.289180     3.281537     3.273894     3.266251     3.258607     3.250964     3.243321
      3.235678     3.228034     3.220391     3.212748     3.205105     3.197462     3.189818     3.182175     3.174532     3.166889
      3.159245     3.151602     3.143959     3.136316     3.128673     3.121029     3.113386     3.105743     3.098100     3.090456
      3.082813     3.075170     3.067527     3.059884     3.052240     3.044597     3.036954     3.029311     3.021667     3.014024
      3.006381     2.998738     2.991095     2.983451     2.975808     2.968165     2.960522     2.952878     2.945235     2.937592
      2.929949     2.922306     2.914662     2.907019     2.899376     2.891733     2.884089     2.876446     2.868803     2.861160
      2.853517     2.845873     2.838230     2.830587     2.822944     2.815300     2.807657     2.800014     2.792371     2.784728
      2.777084     2.769441     2.761798     2.754155     2.746511     2.738868     2.731225     2.723582     2.715939     2.708295
      2.700652     2.693009     2.685366     2.677722     2.670079     2.662436     2.654793     2.647150     2.639506     2.631863
      2.624220     2.616577     2.608933     2.601290     2.593647     2.586004     2.578361     2.570717     2.563074     2.555431
      2.547788     2.540144     2.532501     2.524858     2.517215     2.509572     2.501928     2.494285     2.486642     2.478999
      2.471355     2.463712     2.456069     2.448426     2.440783     2.433139     2.425496     2.417853     2.410210     2.402566
      2.394923     2.387280     2.379637     2.371994     2.364350     2.356707     2.349064     2.341421     2.333777     2.326134
      2.318491     2.310848     2.303205     2.295561     2.287918     2.280275     2.272632     2.264988     2.257345     2.249702
      2.242059     2.234416     2.226772     2.219129     2.211486     2.203843     2.196199     2.188556     2.180913     2.173270
      2.165627     2.157983     2.150340     2.142697     2.135054     2.127410     2.119767     2.112124     2.104481     2.096838
      2.089194     2.081551     2.073908     2.066265     2.058621     2.050978     2.043335     2.035692     2.028049     2.020405
      2.012762     2.005119     1.997476     1.989833     1.982190     1.974546     1.966903     1.959260     1.951617     1.943974
      1.936331     1.928688     1.921045     1.913402     1.905759     1.898115     1.890472     1.882829     1.875186     1.867543
      1.859900     1.852257     1.844614     1.836971     1.829327     1.821684     1.814041     1.806398     1.798755     1.791112
      1.783469     1.775826     1.768183     1.760540     1.752896     1.745253     1.737610     1.729967     1.722324     1.714681
      1.707038     1.699395     1.691752     1.684108     1.676465     1.668822     1.661179     1.653536     1.645893     1.638250
      1.630607     1.622964     1.615321     1.607677     1.600034     1.592391     1.584748     1.577105     1.569462     1.561819
      1.554176     1.546533     1.538890     1.531246     1.523603     1.515960     1.508317     1.500674     1.493031     1.485388
      1.477745     1.470102     1.462458     1.454815     1.447172     1.439529     1.431886     1.424243     1.416600     1.408957
      1.401314     1.393671     1.386027     1.378384     1.370741     1.363098     1.355455     1.347812     1.340169     1.332526
      1.324883     1.317240     1.309596     1.301953     1.294310     1.286667     1.279024     1.271381     1.263738     1.256095
      1.248452     1.240808     1.233165     1.225522     1.217879     1.210236     1.202593     1.194950     1.187307     1.179664
      1.172021     1.164377     1.156734     1.149091     1.141448     1.133805     1.126162     1.118519     1.110876     1.103233
      1.095590     1.087946     1.080303     1.072660     1.065017     1.057374     1.049731     1.042088     1.034445     1.026802
      1.019158     1.011515     1.003872     0.996229     0.988586     0.980943     0.973300     0.965657     0.958014     0.950371
      0.942727     0.935084     0.927441     0.919798     0.912155     0.904512     0.896869     0.889226     0.881583     0.873940
      0.866296     0.858653     0.851010     0.843367     0.835724     0.828081     0.820438     0.812795     0.805152     0.797508
      0.789865     0.782222     0.774579     0.766936     0.759293     0.751650     0.744007     0.736364     0.728721     0.721077
      0.713434     0.705791     0.698148     0.690505     0.682862     0.675219     0.667576     0.659933     0.652290     0.644646
      0.637003     0.629360     0.621717     0.614074     0.606431     0.598788     0.591145     0.583502     0.575858     0.568215
      0.560572     0.552929     0.545286     0.537643     0.530000     0.522357     0.514714     0.507071     0.499427     0.491784
      0.484141     0.476498     0.468855     0.461212     0.453569     0.445925     0.438282     0.430639     0.422996     0.415353
      0.407710     0.400067     0.392424     0.384780     0.377137     0.369494     0.361851     0.354208     0.346565     0.338922
      0.331278     0.323635     0.315992     0.308349     0.300706     0.293063     0.285420     0.277777     0.270133     0.262490
      0.254847     0.247204     0.239561     0.231918     0.224275     0.216631     0.208988     0.201345
 NY phased data points follow
   3.21347E+00  4.27357E+00  9.04881E+00  1.05270E+01  1.07806E+01  6.21298E+00  1.60761E+01  9.30734E-01  1.31795E+01  4.93739E+00
   2.70287E+00  4.16821E+00  5.62483E+00 -7.82791E-02 -1.16840E+00  3.70304E+00  4.82984E+00  4.73097E+00  4.19418E+00 -1.62183E-01
   3.01895E+00  5.25390E+00  2.57070E-01  6.25088E+00  1.83886E-02 -2.02304E+00  6.92085E+00  7.77312E+00  9.31139E+00  5.81616E+00
  -6.21333E+00  2.65624E+00  2.80363E+00  1.52909E-01  1.62509E+00  1.23570E+00  4.30571E+00  6.51225E+00  6.38498E-01  3.85446E+00
   6.24154E+00  5.67023E+00  6.01155E+00  1.78896E+00  4.48808E+00  2.62143E+00  3.14263E+00 -2.08419E+00  2.15181E+00  4.17827E+00
   1.88069E+00  9.69479E-01 -8.13442E-01  4.74915E+00 -1.27689E+00  6.69144E+00 -5.76103E-01  7.38336E+00 -5.18411E+00  1.60614E+00
  -6.36415E-01  2.39108E+00 -2.29818E+00  4.47400E+00 -4.90199E+00 -1.99841E+00  1.82375E+00  3.62278E+00  1.76370E-01  3.74300E+00
   5.00423E+00  8.06195E+00  3.69738E+00 -2.04937E+00  4.59008E+00  1.48281E+00  1.90916E+00  6.01979E-01  6.40953E+00  3.67230E+00
   1.50257E+00  2.28722E+00  6.75256E+00  1.20557E+00 -6.34313E-01  2.65247E+00  9.38462E-01  9.16565E-01  5.80333E+00 -1.31774E-01
  -3.38273E+00 -2.79096E+00  4.71138E+00  1.11583E+01  3.47650E+00  3.62406E+00  2.45434E+00  1.37731E+00  7.24513E+00  8.80241E+00
   5.03060E+00  8.62628E-01 -3.17253E+00  1.94996E+00 -5.34340E+00 -2.51078E-01 -2.76137E+00  1.22438E+00 -1.55980E+00 -5.50491E+00
   4.02940E-01 -4.09966E+00  1.58760E+00  5.44934E+00  4.24426E+00  7.18169E-01  4.09288E-01  3.87750E+00 -2.83745E+00 -4.50346E+00
   7.74172E-01  2.65786E+00  3.80745E+00  1.97350E+00  3.13750E+00  1.68602E+00 -2.92311E-01  1.32959E+00 -2.89052E+00 -8.08874E+00
   1.13366E+00  1.25294E+00  2.79267E+00 -5.81331E+00  1.82019E+00  4.28000E+00  1.20064E+00  3.35409E+00  2.85131E+00  4.20169E+00
  -1.46832E-01  3.64707E+00  1.90099E-01 -4.97229E+00 -1.43191E+00  2.70956E+00  1.90652E+00 -2.56775E+00 -5.44265E-01  7.35057E+00
   3.74191E+00  7.13618E+00 -4.53160E+00 -8.98729E-01 -2.79208E+00 -1.64625E+00  2.44259E-01  6.84070E+00  7.29810E+00 -1.49866E+00
  -2.04109E+00 -9.41240E-01 -1.26000E+00  3.12156E+00  1.19416E+00 -2.22026E+00  1.82424E+00  1.19893E+00 -2.15030E+00 -3.81823E+00
   2.51461E+00 -4.96701E+00 -7.35108E+00  1.05331E+00 -3.12786E+00 -4.39332E+00 -3.52929E+00 -4.13990E+00 -1.26214E+00 -3.85760E+00
   4.25965E-01 -1.85340E+00 -7.12479E-01  6.49644E+00 -9.62686E-01 -1.81986E+00 -3.36880E+00  2.10994E+00 -4.81526E+00 -8.82944E-01
  -2.18941E+00  4.12401E+00 -4.80826E-01 -5.52812E-01 -8.60103E-01  2.71886E+00  1.18033E+00  4.58087E+00  2.56661E+00  6.67333E+00
  -3.52904E+00 -2.21539E-01  1.62324E+00  8.87659E-01  3.18173E+00 -4.06799E+00  9.09883E-01  5.88363E+00 -4.19023E+00  3.43360E+00
  -2.74053E+00  3.85629E-03  3.35046E+00 -3.63917E+00  6.80918E-01  5.11726E+00  7.37697E+00  1.27547E+00  3.11162E+00  6.39993E+00
   1.49997E+00  6.96843E+00  5.75775E+00  1.64724E+00 -3.94841E+00 -5.40225E-01  6.53425E+00 -9.79379E-01  4.51182E-01  5.47861E+00
   8.19164E+00  3.20001E+00  1.56625E+00  1.38782E+00 -6.13254E-02  2.59677E+00  7.58754E+00  1.30730E+00  1.47182E+00  5.32353E+00
  -2.24444E+00 -1.44020E+00  1.44562E+00  1.04621E+01 -2.69023E+00  5.03233E+00  4.42260E+00  1.77500E+00  1.16553E+00  1.00838E+01
   4.09163E+00  8.93921E+00  8.49919E+00  5.69731E+00  1.29367E+01  1.10622E+01  1.56403E+01  1.30613E+01  1.50961E+01  2.05415E+01
   2.15748E+01  2.69626E+01  2.70910E+01  1.97083E+01  1.61420E+01  1.50967E+01  1.41271E+01  8.52683E+00  8.78358E+00  1.03363E+01
   7.50271E+00  4.29571E+00  3.43111E+00 -6.84588E-01  8.86230E+00  1.61867E+00  9.20569E+00 -1.73108E+00 -3.18909E-01 -2.52749E+00
   4.13206E+00  1.63897E+00  5.57416E-01  3.32688E+00 -1.55266E+00  4.38788E-01 -3.70955E+00  5.51923E+00  7.07970E+00  2.56840E+00
   2.89803E+00 -3.63140E-01 -3.95391E+00  1.65591E+00  9.79979E+00  5.95733E+00  8.61591E+00  9.52493E+00  7.36777E+00  6.35797E+00
   6.90459E-01  1.78300E+00  6.16938E+00  4.12726E+00  1.02906E+01  5.67960E+00  2.82987E+00  5.92681E+00  7.59000E+00  7.47319E+00
   4.67146E+00  1.01648E+01  6.14616E+00  1.01634E+01  9.43757E+00  8.05030E+00  1.16900E+01  4.92313E+00  6.60957E+00  1.24539E+01
   1.00073E+00  1.16841E+01  1.18146E+01  1.34166E+01  9.72065E+00  1.64216E+01  1.19443E+01  1.53914E+01  1.88031E+01  2.16789E+01
   1.85603E+01  1.42904E+01  1.20532E+01  1.39722E+01  1.93121E+01  1.18492E+01  1.61795E+01  4.34684E+00  1.29348E+01  1.24251E+01
   7.30122E+00  1.29665E+01  1.75546E+01  1.30937E+01  1.00068E+01  1.07782E+01  1.56533E+01  1.09114E+01  1.14074E+01  1.49709E+01
   8.75283E+00  1.41672E+01  1.00618E+01  1.06579E+01  8.81472E+00  1.37345E+01  9.80176E+00  1.44003E+01  1.21072E+01  1.19214E+01
   1.26075E+01  1.27862E+01  7.61233E+00  1.77495E+01  9.89210E+00  1.73294E+01  1.68458E+01  1.15428E+01  1.38976E+01  1.47461E+01
   9.95589E+00  1.31677E+01  2.12032E+01  1.11869E+01  1.24997E+01  1.52662E+01  1.16064E+01  1.00334E+01  1.12829E+01  1.14713E+01
   1.52339E+01  1.23953E+01  8.82692E+00  1.60425E+01  2.05998E+01  2.09493E+01  2.18225E+01  1.95475E+01  1.99064E+01  1.44175E+01
   1.51799E+01  1.65705E+01  2.31121E+01  1.57735E+01  1.52689E+01  1.01382E+01  1.85211E+01  2.26151E+01  1.96113E+01  1.43764E+01
   1.62807E+01  2.28000E+01  1.68068E+01  1.77699E+01  1.21861E+01  1.49772E+01  1.84666E+01  1.87934E+01  1.39925E+01  1.11889E+01
   8.50889E+00  1.38865E+01  1.03008E+01  1.12684E+01  1.04785E+01  1.31683E+01  9.41226E+00  1.03131E+01  9.31240E+00  6.47206E+00
   9.95835E+00  9.35083E+00  9.39942E+00  6.35321E+00  7.17536E+00  1.10187E+01  6.81550E+00  2.29746E+00  1.00045E+01  1.19152E+01
   8.46134E+00  3.12504E+00 -4.71047E-01  5.09922E+00  3.06623E+00  7.64319E+00  4.95883E+00  3.78135E+00  7.34280E+00 -6.51474E-01
   3.44431E+00  6.07995E+00 -2.89943E+00 -3.31326E+00  2.32520E+00 -3.49160E+00 -2.70032E-01  2.90203E+00 -5.82757E+00  2.18076E+00
   1.83391E-01  2.93706E+00 -1.99381E+00 -5.52456E+00 -5.07016E+00 -1.01789E+00 -1.24175E+00 -5.29230E+00 -4.13171E+00 -5.72629E+00
  -5.87197E+00 -8.09251E+00 -5.24942E+00 -4.78738E+00 -8.63892E+00 -1.35240E+00 -4.32676E+00 -6.57189E+00 -8.66208E+00 -6.15527E+00
  -6.46976E+00 -9.24693E+00 -7.12320E+00 -5.48170E+00 -4.77233E+00 -8.38365E+00 -8.82724E+00 -5.13817E+00 -7.11973E+00 -2.37969E+00
  -5.63155E+00 -5.37144E+00 -6.11867E-01 -1.18160E+01 -9.03230E+00 -3.93585E+00 -2.49756E+00 -5.15705E+00 -1.19680E+01 -8.22911E+00
  -4.72196E+00 -8.52658E+00 -1.07020E+01 -1.20626E+01 -3.71745E-01 -7.93786E+00 -4.88982E+00 -9.17743E+00
 NY points of the fit to the data follow
   3.97128E+00  3.95547E+00  3.93591E+00  3.91990E+00  3.89941E+00  3.88154E+00  3.85573E+00  3.83332E+00  3.80262E+00  3.78580E+00
   3.77160E+00  3.76328E+00  3.76349E+00  3.75434E+00  3.73416E+00  3.72550E+00  3.69005E+00  3.70521E+00  3.67032E+00  3.72600E+00
   3.69372E+00  3.74978E+00  3.69120E+00  3.73449E+00  3.63672E+00  3.65944E+00  3.55185E+00  3.54480E+00  3.52637E+00  3.52758E+00
   3.70367E+00  3.65592E+00  3.91501E+00  3.71256E+00  3.80371E+00  3.49527E+00  3.42778E+00  3.21476E+00  3.14752E+00  3.13788E+00
   3.10548E+00  3.15522E+00  3.14717E+00  3.17478E+00  3.12717E+00  3.12509E+00  3.10180E+00  3.04142E+00  2.94269E+00  2.92090E+00
   2.87699E+00  2.85267E+00  2.82703E+00  2.83248E+00  2.80032E+00  2.75938E+00  2.72013E+00  2.69269E+00  2.65605E+00  2.63668E+00
   2.60284E+00  2.59326E+00  2.56132E+00  2.56454E+00  2.53256E+00  2.53643E+00  2.49886E+00  2.50668E+00  2.46068E+00  2.47443E+00
   2.43075E+00  2.44215E+00  2.41531E+00  2.42794E+00  2.42796E+00  2.43156E+00  2.43456E+00  2.41084E+00  2.41034E+00  2.36907E+00
   2.38336E+00  2.34555E+00  2.37266E+00  2.34776E+00  2.39650E+00  2.36584E+00  2.40980E+00  2.35917E+00  2.33870E+00  2.26961E+00
   2.20284E+00  2.12329E+00  2.04703E+00  1.99186E+00  1.93574E+00  1.90308E+00  1.86326E+00  1.85541E+00  1.82706E+00  1.83875E+00
   1.81913E+00  1.81889E+00  1.77121E+00  1.76103E+00  1.74068E+00  1.73426E+00  1.72987E+00  1.72261E+00  1.72390E+00  1.71537E+00
   1.72648E+00  1.71794E+00  1.72951E+00  1.72847E+00  1.73203E+00  1.73237E+00  1.74565E+00  1.75063E+00  1.76219E+00  1.77390E+00
   1.78740E+00  1.79756E+00  1.81604E+00  1.82491E+00  1.84765E+00  1.85859E+00  1.88357E+00  1.89285E+00  1.91093E+00  1.91102E+00
   1.91714E+00  1.90321E+00  1.89569E+00  1.87183E+00  1.85653E+00  1.82842E+00  1.81311E+00  1.78572E+00  1.76981E+00  1.75295E+00
   1.73404E+00  1.71872E+00  1.69525E+00  1.67752E+00  1.66242E+00  1.64463E+00  1.62897E+00  1.59844E+00  1.56906E+00  1.51482E+00
   1.48615E+00  1.43126E+00  1.40814E+00  1.35540E+00  1.31468E+00  1.22341E+00  1.16948E+00  1.05663E+00  9.97111E-01  8.58845E-01
   7.74699E-01  6.19480E-01  5.37619E-01  4.67736E-01  3.60855E-01  3.71883E-01  1.83131E-01  1.42344E-01 -1.06105E-01 -2.49252E-01
  -4.64136E-01 -6.15609E-01 -7.55631E-01 -9.13092E-01 -1.02926E+00 -1.23506E+00 -1.22303E+00 -1.35535E+00 -1.19474E+00 -1.35292E+00
  -1.16153E+00 -1.38004E+00 -1.15417E+00 -1.27594E+00 -1.08792E+00 -1.11968E+00 -9.43959E-01 -9.19252E-01 -7.48680E-01 -6.19165E-01
  -5.05647E-01 -2.67274E-01 -2.46314E-01 -9.08355E-03 -1.84186E-01  6.47664E-02 -1.54840E-01  1.90303E-01 -6.45089E-02  3.00339E-01
   1.06818E-01  4.31880E-01  3.18068E-01  5.58364E-01  2.84282E-01  3.11691E-01 -1.65148E-01 -3.30867E-01 -9.28766E-01 -9.99518E-01
  -1.44998E+00 -1.20859E+00 -1.26899E+00 -8.71639E-01 -5.98099E-01 -2.02194E-01  1.12180E-01  3.74301E-01  5.63792E-01  7.66210E-01
   8.67688E-01  9.82240E-01  1.05764E+00  1.14493E+00  1.16493E+00  1.36119E+00  1.44137E+00  1.52455E+00  1.50071E+00  1.63182E+00
   1.52068E+00  1.63237E+00  1.49404E+00  1.65939E+00  1.51067E+00  1.77470E+00  1.62949E+00  2.03878E+00  2.02963E+00  2.49716E+00
   2.54081E+00  2.84775E+00  2.81525E+00  2.84472E+00  2.79529E+00  2.81092E+00  3.14626E+00  3.49827E+00  4.54725E+00  5.25386E+00
   6.32188E+00  7.23335E+00  8.49458E+00  9.59694E+00  1.13719E+01  1.27820E+01  1.45674E+01  1.61834E+01  1.83832E+01  2.02917E+01
   2.19203E+01  2.32714E+01  2.19003E+01  2.17684E+01  1.79037E+01  1.67317E+01  1.29209E+01  1.16927E+01  9.22597E+00  8.31884E+00
   6.34688E+00  5.58453E+00  4.23349E+00  3.77393E+00  3.38888E+00  3.04679E+00  1.72475E+00  1.23700E+00  1.05337E+00  9.48103E-01
   8.88773E-01  8.67565E-01  8.85580E-01  9.37838E-01  1.02960E+00  1.16042E+00  1.32898E+00  1.53356E+00  1.77284E+00  2.04384E+00
   2.34358E+00  2.66970E+00  3.01333E+00  3.37509E+00  3.74420E+00  4.11896E+00  4.48624E+00  4.84573E+00  5.18430E+00  5.50082E+00
   5.78637E+00  6.03898E+00  6.25449E+00  6.43509E+00  6.58080E+00  6.69583E+00  6.78580E+00  6.85842E+00  6.92186E+00  6.98604E+00
   7.06150E+00  7.15790E+00  7.28517E+00  7.45157E+00  7.66416E+00  7.92761E+00  8.24459E+00  8.61497E+00  9.03613E+00  9.50270E+00
   1.00070E+01  1.05389E+01  1.10870E+01  1.16383E+01  1.21793E+01  1.26962E+01  1.31761E+01  1.36069E+01  1.39784E+01  1.42825E+01
   1.45138E+01  1.46692E+01  1.47490E+01  1.47559E+01  1.46954E+01  1.45751E+01  1.44049E+01  1.41956E+01  1.39591E+01  1.37078E+01
   1.34537E+01  1.32079E+01  1.29808E+01  1.27810E+01  1.26153E+01  1.24889E+01  1.24047E+01  1.23636E+01  1.23650E+01  1.24062E+01
   1.24831E+01  1.25905E+01  1.27220E+01  1.28706E+01  1.30289E+01  1.31892E+01  1.33441E+01  1.34866E+01  1.36102E+01  1.37092E+01
   1.37789E+01  1.38158E+01  1.38178E+01  1.37838E+01  1.37144E+01  1.36117E+01  1.34791E+01  1.33215E+01  1.31449E+01  1.29567E+01
   1.27651E+01  1.25791E+01  1.24083E+01  1.22623E+01  1.21509E+01  1.20832E+01  1.20675E+01  1.21112E+01  1.22198E+01  1.23972E+01
   1.26451E+01  1.29627E+01  1.33467E+01  1.37910E+01  1.42869E+01  1.48234E+01  1.53871E+01  1.59628E+01  1.65343E+01  1.70847E+01
   1.75970E+01  1.80555E+01  1.84459E+01  1.87560E+01  1.89769E+01  1.91027E+01  1.91309E+01  1.90627E+01  1.89027E+01  1.86583E+01
   1.83395E+01  1.79580E+01  1.75265E+01  1.70581E+01  1.65654E+01  1.60597E+01  1.55509E+01  1.50466E+01  1.45524E+01  1.40713E+01
   1.36042E+01  1.31500E+01  1.27060E+01  1.22684E+01  1.18326E+01  1.13937E+01  1.09473E+01  1.04893E+01  1.00167E+01  9.52747E+00
   9.02093E+00  8.49755E+00  7.95897E+00  7.40784E+00  6.84761E+00  6.28230E+00  5.71625E+00  5.15392E+00  4.59964E+00  4.05743E+00
   3.53087E+00  3.02296E+00  2.53614E+00  2.07218E+00  1.63229E+00  1.21706E+00  8.26596E-01  4.60574E-01  1.18305E-01 -2.01164E-01
  -4.98991E-01 -7.76469E-01 -1.03497E+00 -1.27589E+00 -1.50060E+00 -1.71043E+00 -1.90665E+00 -2.09046E+00 -2.26297E+00 -2.42519E+00
  -2.57807E+00 -2.72241E+00 -2.85901E+00 -2.98855E+00 -3.11164E+00 -3.22884E+00 -3.34065E+00 -3.44751E+00 -3.54982E+00 -3.64795E+00
  -3.74222E+00 -3.83292E+00 -3.92031E+00 -4.00464E+00 -4.08612E+00 -4.16495E+00 -4.24130E+00 -4.31535E+00 -4.38723E+00 -4.45709E+00
  -4.52504E+00 -4.59122E+00 -4.65573E+00 -4.71864E+00 -4.78007E+00 -4.84008E+00 -4.89877E+00 -4.95621E+00 -5.01245E+00 -5.06756E+00
  -5.12160E+00 -5.17463E+00 -5.22669E+00 -5.27783E+00 -5.32810E+00 -5.37753E+00 -5.42617E+00 -5.47405E+00 -5.52122E+00 -5.56771E+00
  -5.61353E+00 -5.65873E+00 -5.70333E+00 -5.74737E+00 -5.79087E+00 -5.83385E+00 -5.87634E+00 -5.91837E+00
 NY background values follow
     3.450E+00    3.427E+00    3.405E+00    3.383E+00    3.360E+00    3.338E+00    3.315E+00    3.293E+00    3.271E+00    3.248E+00
     3.226E+00    3.203E+00    3.181E+00    3.158E+00    3.136E+00    3.113E+00    3.091E+00    3.069E+00    3.046E+00    3.024E+00
     3.001E+00    2.979E+00    2.956E+00    2.934E+00    2.911E+00    2.889E+00    2.866E+00    2.844E+00    2.821E+00    2.799E+00
     2.776E+00    2.754E+00    2.731E+00    2.709E+00    2.686E+00    2.664E+00    2.641E+00    2.619E+00    2.596E+00    2.574E+00
     2.551E+00    2.529E+00    2.506E+00    2.484E+00    2.461E+00    2.439E+00    2.416E+00    2.394E+00    2.371E+00    2.349E+00
     2.326E+00    2.304E+00    2.281E+00    2.259E+00    2.236E+00    2.214E+00    2.191E+00    2.168E+00    2.146E+00    2.123E+00
     2.101E+00    2.078E+00    2.056E+00    2.033E+00    2.011E+00    1.988E+00    1.965E+00    1.943E+00    1.920E+00    1.898E+00
     1.875E+00    1.853E+00    1.830E+00    1.808E+00    1.785E+00    1.762E+00    1.740E+00    1.717E+00    1.695E+00    1.672E+00
     1.649E+00    1.627E+00    1.604E+00    1.582E+00    1.559E+00    1.537E+00    1.514E+00    1.491E+00    1.469E+00    1.446E+00
     1.424E+00    1.401E+00    1.378E+00    1.356E+00    1.333E+00    1.311E+00    1.288E+00    1.265E+00    1.243E+00    1.220E+00
     1.198E+00    1.175E+00    1.152E+00    1.130E+00    1.107E+00    1.085E+00    1.062E+00    1.039E+00    1.017E+00    9.941E-01
     9.714E-01    9.488E-01    9.262E-01    9.036E-01    8.810E-01    8.584E-01    8.357E-01    8.131E-01    7.905E-01    7.679E-01
     7.452E-01    7.226E-01    7.000E-01    6.774E-01    6.547E-01    6.321E-01    6.095E-01    5.868E-01    5.642E-01    5.416E-01
     5.190E-01    4.963E-01    4.737E-01    4.511E-01    4.284E-01    4.058E-01    3.832E-01    3.605E-01    3.379E-01    3.153E-01
     2.926E-01    2.700E-01    2.474E-01    2.247E-01    2.021E-01    1.795E-01    1.568E-01    1.342E-01    1.115E-01    8.891E-02
     6.627E-02    4.364E-02    2.100E-02   -1.637E-03   -2.427E-02   -4.691E-02   -6.955E-02   -9.218E-02   -1.148E-01   -1.375E-01
    -1.601E-01   -1.827E-01   -2.054E-01   -2.280E-01   -2.506E-01   -2.733E-01   -2.959E-01   -3.185E-01   -3.412E-01   -3.638E-01
    -3.865E-01   -4.091E-01   -4.317E-01   -4.544E-01   -4.770E-01   -4.996E-01   -5.223E-01   -5.449E-01   -5.675E-01   -5.902E-01
    -6.128E-01   -6.354E-01   -6.580E-01   -6.807E-01   -7.033E-01   -7.259E-01   -7.486E-01   -7.712E-01   -7.938E-01   -8.164E-01
    -8.391E-01   -8.617E-01   -8.843E-01   -9.069E-01   -9.296E-01   -9.522E-01   -9.748E-01   -9.974E-01   -1.020E+00   -1.043E+00
    -1.065E+00   -1.088E+00   -1.111E+00   -1.133E+00   -1.156E+00   -1.178E+00   -1.201E+00   -1.224E+00   -1.246E+00   -1.269E+00
    -1.291E+00   -1.314E+00   -1.337E+00   -1.359E+00   -1.382E+00   -1.404E+00   -1.427E+00   -1.450E+00   -1.472E+00   -1.495E+00
    -1.517E+00   -1.540E+00   -1.563E+00   -1.585E+00   -1.608E+00   -1.630E+00   -1.653E+00   -1.676E+00   -1.698E+00   -1.721E+00
    -1.743E+00   -1.766E+00   -1.789E+00   -1.811E+00   -1.834E+00   -1.856E+00   -1.879E+00   -1.901E+00   -1.924E+00   -1.947E+00
    -1.969E+00   -1.992E+00   -2.014E+00   -2.037E+00   -2.059E+00   -2.082E+00   -2.105E+00   -2.127E+00   -2.150E+00   -2.172E+00
    -2.195E+00   -2.217E+00   -2.240E+00   -2.262E+00   -2.285E+00   -2.307E+00   -2.330E+00   -2.353E+00   -2.375E+00   -2.398E+00
    -2.420E+00   -2.443E+00   -2.465E+00   -2.488E+00   -2.510E+00   -2.533E+00   -2.555E+00   -2.578E+00   -2.600E+00   -2.623E+00
    -2.645E+00   -2.668E+00   -2.690E+00   -2.713E+00   -2.735E+00   -2.758E+00   -2.780E+00   -2.803E+00   -2.825E+00   -2.848E+00
    -2.870E+00   -2.893E+00   -2.915E+00   -2.938E+00   -2.960E+00   -2.983E+00   -3.005E+00   -3.028E+00   -3.050E+00   -3.073E+00
    -3.095E+00   -3.118E+00   -3.140E+00   -3.163E+00   -3.185E+00   -3.207E+00   -3.230E+00   -3.252E+00   -3.275E+00   -3.297E+00
    -3.320E+00   -3.342E+00   -3.365E+00   -3.387E+00   -3.409E+00   -3.432E+00   -3.454E+00   -3.477E+00   -3.499E+00   -3.522E+00
    -3.544E+00   -3.566E+00   -3.589E+00   -3.611E+00   -3.634E+00   -3.656E+00   -3.678E+00   -3.701E+00   -3.723E+00   -3.746E+00
    -3.768E+00   -3.790E+00   -3.813E+00   -3.835E+00   -3.857E+00   -3.880E+00   -3.902E+00   -3.924E+00   -3.947E+00   -3.969E+00
    -3.992E+00   -4.014E+00   -4.036E+00   -4.059E+00   -4.081E+00   -4.103E+00   -4.126E+00   -4.148E+00   -4.170E+00   -4.193E+00
    -4.215E+00   -4.237E+00   -4.259E+00   -4.282E+00   -4.304E+00   -4.326E+00   -4.349E+00   -4.371E+00   -4.393E+00   -4.415E+00
    -4.438E+00   -4.460E+00   -4.482E+00   -4.505E+00   -4.527E+00   -4.549E+00   -4.571E+00   -4.594E+00   -4.616E+00   -4.638E+00
    -4.660E+00   -4.683E+00   -4.705E+00   -4.727E+00   -4.749E+00   -4.771E+00   -4.794E+00   -4.816E+00   -4.838E+00   -4.860E+00
    -4.883E+00   -4.905E+00   -4.927E+00   -4.949E+00   -4.971E+00   -4.993E+00   -5.016E+00   -5.038E+00   -5.060E+00   -5.082E+00
    -5.104E+00   -5.126E+00   -5.149E+00   -5.171E+00   -5.193E+00   -5.215E+00   -5.237E+00   -5.259E+00   -5.281E+00   -5.304E+00
    -5.326E+00   -5.348E+00   -5.370E+00   -5.392E+00   -5.414E+00   -5.436E+00   -5.458E+00   -5.480E+00   -5.502E+00   -5.524E+00
    -5.547E+00   -5.569E+00   -5.591E+00   -5.613E+00   -5.635E+00   -5.657E+00   -5.679E+00   -5.701E+00   -5.723E+00   -5.745E+00
    -5.767E+00   -5.789E+00   -5.811E+00   -5.833E+00   -5.855E+00   -5.877E+00   -5.899E+00   -5.921E+00   -5.943E+00   -5.965E+00
    -5.987E+00   -6.009E+00   -6.031E+00   -6.053E+00   -6.075E+00   -6.097E+00   -6.119E+00   -6.141E+00   -6.163E+00   -6.184E+00
    -6.206E+00   -6.228E+00   -6.250E+00   -6.272E+00   -6.294E+00   -6.316E+00   -6.338E+00   -6.360E+00   -6.382E+00   -6.403E+00
    -6.425E+00   -6.447E+00   -6.469E+00   -6.491E+00   -6.513E+00   -6.535E+00   -6.556E+00   -6.578E+00   -6.600E+00   -6.622E+00
    -6.644E+00   -6.665E+00   -6.687E+00   -6.709E+00   -6.731E+00   -6.753E+00   -6.774E+00   -6.796E+00   -6.818E+00   -6.840E+00
    -6.862E+00   -6.883E+00   -6.905E+00   -6.927E+00   -6.948E+00   -6.970E+00   -6.992E+00   -7.014E+00   -7.035E+00   -7.057E+00
    -7.079E+00   -7.100E+00   -7.122E+00   -7.144E+00   -7.165E+00   -7.187E+00   -7.209E+00   -7.230E+00   -7.252E+00   -7.274E+00
    -7.295E+00   -7.317E+00   -7.339E+00   -7.360E+00   -7.382E+00   -7.403E+00   -7.425E+00   -7.447E+00   -7.468E+00   -7.490E+00
    -7.511E+00   -7.533E+00   -7.555E+00   -7.576E+00   -7.598E+00   -7.619E+00   -7.641E+00   -7.662E+00
 Asp      Conc. = 4.88E+01
