 LCModel (Version 6.3-1L) Copyright: S.W. Provencher.          Ref.: Magn. Reson. Med. 30:672-679 (1993).                
 Slice#2 Row#7 Col#5  PD_24_press_2_raw_act
 36 lines in following concentration table = NCONC+1
    Conc.  %SD /Cr+PCr  Metabolite                                         
    0.000 999%   0.000 Ala                                                 
    0.000 999%   0.000 Asp                                                 
 1.32E+03  40%   0.359 Cr                                                  
 2.35E+03  24%   0.641 PCr                                                 
    0.000 999%   0.000 GABA                                                
  511.673  69%   0.139 Glc                                                 
 1.06E+03  49%   0.288 Gln                                                 
 2.71E+03  21%   0.738 Glu                                                 
 1.18E+03   5%   0.321 GPC                                                 
    0.000 999%   0.000 PCh                                                 
  604.660  29%   0.165 GSH                                                 
 3.13E+03  19%   0.853 Ins                                                 
  468.740  62%   0.128 Lac                                                 
 5.43E+03   5%   1.480 NAA                                                 
   37.585 720% 1.0E-02 NAAG                                                
  247.005  26% 6.7E-02 Scyllo                                              
  954.913  50%   0.260 Tau                                                 
  459.540  59%   0.125 -CrCH2                                              
 1.18E+03   5%   0.321 GPC+PCh                                             
 5.47E+03   4%   1.490 NAA+NAAG                                            
 3.67E+03   4%   1.000 Cr+PCr                                              
 3.77E+03  21%   1.027 Glu+Gln                                             
 1.82E+03 124%   0.497 Lip13a                                              
  942.587 158%   0.257 Lip13b                                              
  230.589 243% 6.3E-02 Lip09                                               
 3.07E+03  21%   0.836 MM09                                                
  639.094  60%   0.174 Lip20                                               
 6.81E+03  14%   1.855 MM20                                                
  902.364  49%   0.246 MM12                                                
 2.29E+03  35%   0.622 MM14                                                
 1.86E+03  25%   0.508 MM17                                                
 2.77E+03  42%   0.753 Lip13a+Lip13b                                       
 5.95E+03  14%   1.622 MM14+Lip13a+Lip13b+MM12                             
 3.30E+03  14%   0.899 MM09+Lip09                                          
 7.45E+03  13%   2.029 MM20+Lip20                                          
   6 lines in following misc. output table
  FWHM = 0.046 ppm    S/N =  12                                            
  Data shift = 0.015 ppm                                                   
  Ph: -49 deg     -14.3 deg/ppm                                            
  alphaB,S = 2.9E+00,   9.5E+01                                            
   14 spline knots.   Ns = 6(1)                                            
  (11) 2 infls.   ( 1) 1 extrs.                                            
  498 points on ppm-axis = NY
      4.000000     3.992357     3.984714     3.977070     3.969427     3.961784     3.954141     3.946497     3.938854     3.931211
      3.923568     3.915925     3.908281     3.900638     3.892995     3.885352     3.877708     3.870065     3.862422     3.854779
      3.847136     3.839492     3.831849     3.824206     3.816563     3.808919     3.801276     3.793633     3.785990     3.778347
      3.770703     3.763060     3.755417     3.747774     3.740130     3.732487     3.724844     3.717201     3.709558     3.701914
      3.694271     3.686628     3.678985     3.671341     3.663698     3.656055     3.648412     3.640769     3.633125     3.625482
      3.617839     3.610196     3.602552     3.594909     3.587266     3.579623     3.571980     3.564336     3.556693     3.549050
      3.541407     3.533763     3.526120     3.518477     3.510834     3.503191     3.495547     3.487904     3.480261     3.472618
      3.464974     3.457331     3.449688     3.442045     3.434402     3.426758     3.419115     3.411472     3.403829     3.396185
      3.388542     3.380899     3.373256     3.365613     3.357969     3.350326     3.342683     3.335040     3.327396     3.319753
      3.312110     3.304467     3.296824     3.289180     3.281537     3.273894     3.266251     3.258607     3.250964     3.243321
      3.235678     3.228034     3.220391     3.212748     3.205105     3.197462     3.189818     3.182175     3.174532     3.166889
      3.159245     3.151602     3.143959     3.136316     3.128673     3.121029     3.113386     3.105743     3.098100     3.090456
      3.082813     3.075170     3.067527     3.059884     3.052240     3.044597     3.036954     3.029311     3.021667     3.014024
      3.006381     2.998738     2.991095     2.983451     2.975808     2.968165     2.960522     2.952878     2.945235     2.937592
      2.929949     2.922306     2.914662     2.907019     2.899376     2.891733     2.884089     2.876446     2.868803     2.861160
      2.853517     2.845873     2.838230     2.830587     2.822944     2.815300     2.807657     2.800014     2.792371     2.784728
      2.777084     2.769441     2.761798     2.754155     2.746511     2.738868     2.731225     2.723582     2.715939     2.708295
      2.700652     2.693009     2.685366     2.677722     2.670079     2.662436     2.654793     2.647150     2.639506     2.631863
      2.624220     2.616577     2.608933     2.601290     2.593647     2.586004     2.578361     2.570717     2.563074     2.555431
      2.547788     2.540144     2.532501     2.524858     2.517215     2.509572     2.501928     2.494285     2.486642     2.478999
      2.471355     2.463712     2.456069     2.448426     2.440783     2.433139     2.425496     2.417853     2.410210     2.402566
      2.394923     2.387280     2.379637     2.371994     2.364350     2.356707     2.349064     2.341421     2.333777     2.326134
      2.318491     2.310848     2.303205     2.295561     2.287918     2.280275     2.272632     2.264988     2.257345     2.249702
      2.242059     2.234416     2.226772     2.219129     2.211486     2.203843     2.196199     2.188556     2.180913     2.173270
      2.165627     2.157983     2.150340     2.142697     2.135054     2.127410     2.119767     2.112124     2.104481     2.096838
      2.089194     2.081551     2.073908     2.066265     2.058621     2.050978     2.043335     2.035692     2.028049     2.020405
      2.012762     2.005119     1.997476     1.989833     1.982190     1.974546     1.966903     1.959260     1.951617     1.943974
      1.936331     1.928688     1.921045     1.913402     1.905759     1.898115     1.890472     1.882829     1.875186     1.867543
      1.859900     1.852257     1.844614     1.836971     1.829327     1.821684     1.814041     1.806398     1.798755     1.791112
      1.783469     1.775826     1.768183     1.760540     1.752896     1.745253     1.737610     1.729967     1.722324     1.714681
      1.707038     1.699395     1.691752     1.684108     1.676465     1.668822     1.661179     1.653536     1.645893     1.638250
      1.630607     1.622964     1.615321     1.607677     1.600034     1.592391     1.584748     1.577105     1.569462     1.561819
      1.554176     1.546533     1.538890     1.531246     1.523603     1.515960     1.508317     1.500674     1.493031     1.485388
      1.477745     1.470102     1.462458     1.454815     1.447172     1.439529     1.431886     1.424243     1.416600     1.408957
      1.401314     1.393671     1.386027     1.378384     1.370741     1.363098     1.355455     1.347812     1.340169     1.332526
      1.324883     1.317240     1.309596     1.301953     1.294310     1.286667     1.279024     1.271381     1.263738     1.256095
      1.248452     1.240808     1.233165     1.225522     1.217879     1.210236     1.202593     1.194950     1.187307     1.179664
      1.172021     1.164377     1.156734     1.149091     1.141448     1.133805     1.126162     1.118519     1.110876     1.103233
      1.095590     1.087946     1.080303     1.072660     1.065017     1.057374     1.049731     1.042088     1.034445     1.026802
      1.019158     1.011515     1.003872     0.996229     0.988586     0.980943     0.973300     0.965657     0.958014     0.950371
      0.942727     0.935084     0.927441     0.919798     0.912155     0.904512     0.896869     0.889226     0.881583     0.873940
      0.866296     0.858653     0.851010     0.843367     0.835724     0.828081     0.820438     0.812795     0.805152     0.797508
      0.789865     0.782222     0.774579     0.766936     0.759293     0.751650     0.744007     0.736364     0.728721     0.721077
      0.713434     0.705791     0.698148     0.690505     0.682862     0.675219     0.667576     0.659933     0.652290     0.644646
      0.637003     0.629360     0.621717     0.614074     0.606431     0.598788     0.591145     0.583502     0.575858     0.568215
      0.560572     0.552929     0.545286     0.537643     0.530000     0.522357     0.514714     0.507071     0.499427     0.491784
      0.484141     0.476498     0.468855     0.461212     0.453569     0.445925     0.438282     0.430639     0.422996     0.415353
      0.407710     0.400067     0.392424     0.384780     0.377137     0.369494     0.361851     0.354208     0.346565     0.338922
      0.331278     0.323635     0.315992     0.308349     0.300706     0.293063     0.285420     0.277777     0.270133     0.262490
      0.254847     0.247204     0.239561     0.231918     0.224275     0.216631     0.208988     0.201345
 NY phased data points follow
  -7.50201E+01 -6.42044E+01 -5.89766E+01 -5.51445E+01 -5.48106E+01 -2.93920E+01 -3.51016E+01  1.00677E+01 -6.47807E+00  3.45457E+01
   3.04468E+01  4.15417E+01  2.00063E+01  1.68853E+01 -7.27355E+00 -2.83489E+00 -2.66326E+01 -2.42214E+01 -5.68742E+01 -4.15828E+01
  -5.63571E+01 -5.13546E+01 -4.73286E+01 -3.42495E+01 -4.53968E+01 -2.33338E+01 -3.48905E+01 -1.74150E+01 -3.26705E+01 -1.34234E+01
  -1.97233E+01 -3.10992E+01 -2.23611E+01 -2.41694E+01 -2.62028E+01 -2.72931E+01 -3.91098E+01 -3.89615E+01 -1.97438E+01 -1.82493E+01
  -2.90232E+01 -1.31338E+01 -2.59883E+01 -9.18292E+00 -1.46423E+01 -1.06085E+01 -7.46607E+00  2.57528E+00  2.68712E+00  5.28562E+00
  -1.92199E+01 -8.37159E+00 -1.47193E+01 -2.61279E+01 -1.76607E+01 -9.19982E+00 -3.19649E+01 -1.93618E+01 -1.55186E+01 -1.41982E+01
  -3.47893E+01 -1.63701E+01 -2.83357E+01 -2.80189E+01 -3.47136E+01 -3.04345E+01 -3.28247E+01 -3.52418E+01 -2.94238E+01 -1.64436E+01
  -3.13695E+01 -2.55924E+01 -1.59892E+01 -1.52561E+01 -1.30530E+01 -8.93919E+00 -2.62402E+01 -1.00544E+01 -1.92521E+01 -1.45910E+01
  -1.82422E+01 -9.22692E+00 -1.63838E+01 -1.44223E+01 -1.90225E+01 -1.18518E+01 -8.01595E+00 -2.72822E+01 -2.00874E+01 -6.47291E+00
  -1.60823E+01 -4.84310E+00 -1.98665E+01 -3.15037E+00 -2.29112E+01 -3.67137E+00 -2.00610E+01 -6.68885E+00  4.81557E+00  1.64523E+01
   3.95828E+01  7.43977E+01  8.60097E+01  1.12436E+02  9.52706E+01  7.38943E+01  3.45137E+01  4.58439E+01  1.48239E+01  1.32033E+01
   1.78124E+00  9.56101E+00 -5.04545E+00  1.37028E+00 -1.56465E+01 -2.22848E+00 -1.46923E+01 -3.62300E+00 -1.80375E+01 -1.66186E+00
  -2.16292E+00  4.08771E+00 -2.81015E+00  3.74915E+01  4.46162E+01  9.31454E+01  1.13015E+02  1.22280E+02  1.05998E+02  9.30369E+01
   7.75185E+01  5.00353E+01  3.80315E+01  2.94553E+01  1.42209E+01  2.82775E+00  1.80530E+00 -1.80060E+00 -4.17458E+00  4.91766E+00
  -8.23772E+00 -2.22656E+00 -2.10118E+01 -1.10461E+01 -5.31630E+00 -4.99344E+00 -9.34902E+00 -6.94068E+00 -7.55474E+00 -1.24733E+01
  -1.09395E+00  3.39691E+00 -9.07577E+00  5.33117E+00 -1.51673E+01  8.86865E+00 -1.27607E+01  1.30762E+00 -1.34472E+01  4.02475E+00
  -2.78297E+00 -2.57573E+00 -1.01311E+01 -1.12921E+01 -1.53723E+01  4.81860E+00 -1.27260E+01 -1.51592E+00 -1.28317E+01 -6.33639E+00
  -1.95664E+01 -6.20954E+00 -1.70729E+01 -1.72870E+01 -2.75002E+01 -1.41850E+01 -2.97721E+01 -1.76135E+01 -3.30374E+01 -1.68882E+01
  -2.15779E+01 -2.94333E+01 -2.32259E+01 -2.93224E+01 -2.00594E+01 -1.19183E+01 -1.23529E+01 -6.08711E+00 -8.90783E+00 -3.69255E-01
  -6.01870E+00  2.23319E+01 -3.96599E+00  1.52066E+01  3.44943E+00  1.04093E+01  3.42462E+00 -8.25483E-01 -6.37509E+00  5.85410E+00
  -4.47564E+00  1.60047E+01  8.64759E+00  1.26732E+01 -5.36794E-01  5.81038E+00  1.64129E+00 -5.98849E-01 -5.52648E+00 -1.15748E+01
  -4.79722E+00  6.96000E-01  1.13343E+01  2.11638E+01  2.75051E+01  2.89199E+01  2.53881E+01  2.44531E+01  1.64807E+01  1.66110E+01
   6.19648E-01 -6.85113E-02 -1.40054E+01  9.51463E+00  1.51300E+01  1.27581E+01  1.11725E+01  2.18553E+01  2.78016E+01  1.42694E+01
   2.15661E+01  2.32672E+01  2.00874E+01  3.36413E+01  3.22926E+01  2.08167E+01  2.52903E+01  3.00732E+01  1.01845E+01  1.57321E+01
   1.67640E+01  2.70411E+01  1.36941E+01  1.93466E+01  1.97504E+01  2.84699E+01  1.55596E+01  2.85991E+01  2.86507E+01  3.40087E+01
   3.57186E+01  4.26096E+01  3.75133E+01  4.34438E+01  4.78274E+01  6.60590E+01  9.36136E+01  1.27728E+02  1.58031E+02  2.14927E+02
   2.21764E+02  2.14200E+02  1.80888E+02  1.46743E+02  1.19494E+02  8.81349E+01  6.78072E+01  3.95421E+01  3.46202E+01  3.90961E+01
   1.56355E+01  3.43082E+01  2.85318E+01  3.01454E+01  1.38585E+01  3.33321E+01  1.66077E+01  1.04978E+01  1.12147E+01  1.82173E+00
   1.59387E+01  1.58627E+01  1.13532E+01  1.20220E+01  1.11431E+01  8.71098E+00  6.29963E+00  1.82925E+01  2.37254E+01  1.43288E+01
   1.46735E+01  1.72465E+01  5.95436E+00  2.55500E+01  2.73402E+01  2.53634E+01  2.35707E+01  3.33088E+01  2.70005E+01  2.95172E+01
   2.44561E+01  2.19165E+01  1.96879E+01  3.39804E+01  2.62860E+01  3.36223E+01  3.30631E+01  3.22719E+01  1.32179E+01  2.58930E+01
   2.78525E+01  2.20266E+01  2.25219E+01  1.77364E+01  1.59487E+01  1.76181E+01  9.08803E+00  1.35327E+01  4.52626E+00 -1.40659E+00
   2.04177E+00  2.20055E+01  3.22776E+00  1.70246E+01  1.43960E+01  3.47604E+01  8.76332E+00  2.26272E+01  4.70361E+00  3.33574E+01
   2.06583E+01  3.05818E+01  1.48795E+01  3.78008E+01  3.29951E+01  3.34643E+01  3.90159E+01  3.03093E+01  3.26078E+01  3.57355E+01
   2.65669E+01  3.08345E+01  3.42574E+01  2.52156E+01  4.06197E+01  3.70705E+01  3.27966E+01  4.85762E+01  2.72718E+01  3.40306E+01
   3.20391E+01  3.34318E+01  2.84281E+01  3.86647E+01  4.30902E+01  3.57985E+01  4.05192E+01  4.55989E+01  3.74955E+01  4.18483E+01
   3.88803E+01  4.07856E+01  3.27591E+01  3.37843E+01  2.61067E+01  3.04745E+01  2.75308E+01  4.29242E+01  2.33340E+01  3.34935E+01
   1.50301E+01  2.69882E+01  1.85444E+01  3.32740E+01  1.57175E+01  2.62927E+01  1.55589E+01  2.60396E+01  2.80640E+01  2.14142E+01
   1.47075E+01  1.97415E+01  3.37922E+00  2.33886E+01  5.82848E+00  1.83441E+01  9.20837E+00  1.67214E+01  1.60691E+01  3.65622E+01
   2.09428E+00  1.94297E+01  3.04534E+01  3.31872E+01  1.36682E+01  1.98424E+01  2.37269E+01  3.82039E+01  2.42704E+01  3.12352E+01
   2.35452E+01  5.30829E+01  3.46840E+01  5.15690E+01  4.71065E+01  3.85797E+01  4.76137E+01  4.60891E+01  4.17345E+01  4.10127E+01
   3.52706E+01  2.86218E+01  3.28415E+01  3.82310E+01  2.68632E+01  3.59184E+01  1.98194E+01  4.04466E+01  3.31957E+01  3.77671E+01
   3.59118E+01  2.29093E+01  2.58644E+01  3.18554E+01  2.84281E+01  2.99208E+01  2.13788E+01  2.99140E+01  1.46752E+01  1.98831E+01
   2.67867E+01  3.59242E+01  2.30540E+01  3.98665E+01  1.49503E+01  2.20886E+01  1.98574E+01  2.57670E+01  1.77691E+01  2.77011E+01
   1.15900E+01  1.03210E+01  2.28692E+01  2.36112E+01  1.55411E+01  2.19723E+01  1.78425E+01  2.43942E+01  1.87701E+01  1.70417E+01
   8.54482E+00  7.85919E+00  1.44511E+01  2.04232E+01  1.58583E+01  1.65710E+01  1.71952E+01  1.88503E+01  8.99225E+00  2.92401E+01
   1.22797E+01  2.73558E+01  1.32093E+01  3.21137E+01  1.74493E+01  1.67333E+01  2.28644E+01  2.05001E+01  1.06494E+01  2.50173E+01
   2.25838E+01  1.13624E+01  2.07641E+01  1.87608E+01  4.44459E+00  2.70667E+01  1.92072E+01  2.47055E+01  1.17559E+01  3.31824E+01
   1.55718E+01  2.47696E+01  9.82829E+00  2.09398E+01  1.60264E+01  3.15780E+01  2.72373E+01  2.65900E+01  2.02246E+01  2.24301E+01
   1.51623E+01  1.97800E+01  1.19562E+01  3.26846E+01  9.93293E+00  2.78444E+01  5.57323E+00  1.76143E+01
 NY points of the fit to the data follow
  -4.81590E+01 -4.88418E+01 -4.89199E+01 -4.77934E+01 -4.34220E+01 -3.49110E+01 -2.23136E+01 -6.21530E+00  1.13287E+01  2.59791E+01
   3.30921E+01  3.10514E+01  2.22396E+01  1.08686E+01  4.88777E-02 -9.39346E+00 -1.80140E+01 -2.55148E+01 -3.02971E+01 -3.26076E+01
  -3.35734E+01 -3.41332E+01 -3.47788E+01 -3.53289E+01 -3.52704E+01 -3.45132E+01 -3.27840E+01 -2.97633E+01 -2.56392E+01 -2.13761E+01
  -1.81233E+01 -1.65087E+01 -1.65818E+01 -1.81259E+01 -2.06870E+01 -2.38220E+01 -2.71452E+01 -2.97414E+01 -3.11652E+01 -3.19510E+01
  -3.18908E+01 -3.03800E+01 -2.71785E+01 -2.26408E+01 -1.71890E+01 -1.14312E+01 -6.83651E+00 -5.12222E+00 -6.75873E+00 -1.08700E+01
  -1.57314E+01 -1.99849E+01 -2.33527E+01 -2.59324E+01 -2.74163E+01 -2.73250E+01 -2.58129E+01 -2.36001E+01 -2.13369E+01 -1.96745E+01
  -1.91725E+01 -1.99000E+01 -2.14532E+01 -2.30250E+01 -2.40250E+01 -2.43690E+01 -2.41581E+01 -2.34890E+01 -2.25565E+01 -2.13617E+01
  -1.97913E+01 -1.80919E+01 -1.65468E+01 -1.53253E+01 -1.45868E+01 -1.45695E+01 -1.54711E+01 -1.70131E+01 -1.87407E+01 -2.00320E+01
  -2.01870E+01 -1.90767E+01 -1.73242E+01 -1.52939E+01 -1.32226E+01 -1.18895E+01 -1.20423E+01 -1.37130E+01 -1.61515E+01 -1.83670E+01
  -1.97818E+01 -2.06708E+01 -2.15557E+01 -2.23942E+01 -2.26591E+01 -2.19728E+01 -1.97765E+01 -1.26876E+01  1.04306E+00  2.07245E+01
   4.56142E+01  7.22419E+01  9.29262E+01  1.00014E+02  9.20684E+01  7.44908E+01  5.47879E+01  3.74310E+01  2.26182E+01  9.09815E+00
  -2.44321E+00 -8.80581E+00 -1.10293E+01 -1.20731E+01 -1.27176E+01 -1.31960E+01 -1.35032E+01 -1.36690E+01 -1.36486E+01 -1.32368E+01
  -1.14691E+01 -4.89501E+00  9.17473E+00  3.01350E+01  5.69106E+01  8.60982E+01  1.09929E+02  1.19925E+02  1.13457E+02  9.55452E+01
   7.42466E+01  5.47651E+01  3.77606E+01  2.19510E+01  7.79351E+00 -1.12606E+00 -4.38271E+00 -5.26733E+00 -5.11500E+00 -4.52762E+00
  -3.91738E+00 -3.48878E+00 -3.36347E+00 -3.55481E+00 -3.92627E+00 -4.37849E+00 -4.86752E+00 -5.32765E+00 -5.76219E+00 -6.11514E+00
  -6.37698E+00 -6.56156E+00 -6.65386E+00 -6.63301E+00 -6.51804E+00 -6.50464E+00 -6.77610E+00 -7.36885E+00 -8.26265E+00 -9.20450E+00
  -9.81774E+00 -9.79030E+00 -9.03681E+00 -7.95453E+00 -7.25333E+00 -7.42138E+00 -8.33471E+00 -9.45707E+00 -1.03911E+01 -1.12406E+01
  -1.22555E+01 -1.35271E+01 -1.48212E+01 -1.58269E+01 -1.64610E+01 -1.66866E+01 -1.63327E+01 -1.54717E+01 -1.46123E+01 -1.42170E+01
  -1.42229E+01 -1.42910E+01 -1.41584E+01 -1.37590E+01 -1.32724E+01 -1.25275E+01 -1.07994E+01 -7.84792E+00 -4.20868E+00 -9.14444E-01
   1.25170E+00  2.26069E+00  2.37786E+00  2.00000E+00  1.45545E+00  8.69817E-01  4.55266E-01  5.61567E-01  1.44789E+00  3.19660E+00
   5.61257E+00  8.23437E+00  1.05037E+01  1.17212E+01  1.10908E+01  8.62181E+00  4.81438E+00  3.90322E-01 -3.57734E+00 -5.87197E+00
  -5.64131E+00 -3.01595E+00  1.52436E+00  7.22677E+00  1.27990E+01  1.64481E+01  1.67263E+01  1.34597E+01  7.87662E+00  1.99446E+00
  -2.84961E+00 -5.71566E+00 -5.69300E+00 -2.56568E+00  2.78659E+00  8.37531E+00  1.28265E+01  1.59082E+01  1.78157E+01  1.86921E+01
   1.86507E+01  1.83370E+01  1.84857E+01  1.92648E+01  2.04306E+01  2.18634E+01  2.32411E+01  2.40625E+01  2.41389E+01  2.35794E+01
   2.27677E+01  2.22588E+01  2.25737E+01  2.38251E+01  2.56886E+01  2.77519E+01  2.95347E+01  3.08719E+01  3.19111E+01  3.29500E+01
   3.41766E+01  3.56745E+01  3.76441E+01  4.07350E+01  4.86417E+01  6.65851E+01  9.40417E+01  1.29674E+02  1.70059E+02  2.05204E+02
   2.21627E+02  2.12873E+02  1.84636E+02  1.49362E+02  1.16779E+02  8.95438E+01  6.57985E+01  4.46908E+01  3.01253E+01  2.45093E+01
   2.22084E+01  2.08871E+01  2.01332E+01  1.96490E+01  1.91890E+01  1.86793E+01  1.80961E+01  1.74722E+01  1.68513E+01  1.62633E+01
   1.57377E+01  1.53381E+01  1.51058E+01  1.50244E+01  1.50685E+01  1.52299E+01  1.55141E+01  1.59268E+01  1.64616E+01  1.71118E+01
   1.78813E+01  1.87613E+01  1.97319E+01  2.07655E+01  2.18311E+01  2.28944E+01  2.39174E+01  2.48633E+01  2.56975E+01  2.63866E+01
   2.69032E+01  2.72275E+01  2.73468E+01  2.72560E+01  2.69600E+01  2.64747E+01  2.58255E+01  2.50446E+01  2.41688E+01  2.32359E+01
   2.22840E+01  2.13508E+01  2.04704E+01  1.96718E+01  1.89783E+01  1.84067E+01  1.79681E+01  1.76687E+01  1.75103E+01  1.74903E+01
   1.76024E+01  1.78376E+01  1.81853E+01  1.86345E+01  1.91735E+01  1.97900E+01  2.04710E+01  2.12037E+01  2.19760E+01  2.27766E+01
   2.35948E+01  2.44199E+01  2.52425E+01  2.60547E+01  2.68513E+01  2.76301E+01  2.83925E+01  2.91452E+01  2.99034E+01  3.06989E+01
   3.16015E+01  3.27530E+01  3.41212E+01  3.54458E+01  3.65297E+01  3.70941E+01  3.67804E+01  3.54767E+01  3.35858E+01  3.19983E+01
   3.14230E+01  3.19836E+01  3.35433E+01  3.58754E+01  3.85651E+01  4.10083E+01  4.24757E+01  4.26170E+01  4.17770E+01  4.03812E+01
   3.86638E+01  3.66810E+01  3.45106E+01  3.24874E+01  3.07779E+01  2.92914E+01  2.79873E+01  2.68462E+01  2.58514E+01  2.49853E+01
   2.42312E+01  2.35739E+01  2.30011E+01  2.25036E+01  2.20751E+01  2.17115E+01  2.14102E+01  2.11700E+01  2.09907E+01  2.08732E+01
   2.08186E+01  2.08283E+01  2.09040E+01  2.10479E+01  2.12626E+01  2.15514E+01  2.19174E+01  2.23638E+01  2.28935E+01  2.35094E+01
   2.42135E+01  2.50070E+01  2.58892E+01  2.68569E+01  2.79048E+01  2.90245E+01  3.02045E+01  3.14293E+01  3.26801E+01  3.39342E+01
   3.51662E+01  3.63487E+01  3.74529E+01  3.84494E+01  3.93100E+01  4.00088E+01  4.05238E+01  4.08379E+01  4.09400E+01  4.08252E+01
   4.04956E+01  3.99599E+01  3.92334E+01  3.83371E+01  3.72962E+01  3.61390E+01  3.48954E+01  3.35958E+01  3.22701E+01  3.09457E+01
   2.96471E+01  2.83950E+01  2.72063E+01  2.60936E+01  2.50659E+01  2.41283E+01  2.32823E+01  2.25270E+01  2.18589E+01  2.12736E+01
   2.07651E+01  2.03269E+01  1.99519E+01  1.96331E+01  1.93640E+01  1.91386E+01  1.89513E+01  1.87969E+01  1.86707E+01  1.85686E+01
   1.84875E+01  1.84243E+01  1.83768E+01  1.83424E+01  1.83193E+01  1.83060E+01  1.83012E+01  1.83041E+01  1.83134E+01  1.83283E+01
   1.83481E+01  1.83723E+01  1.84004E+01  1.84321E+01  1.84669E+01  1.85044E+01  1.85442E+01  1.85863E+01  1.86305E+01  1.86766E+01
   1.87243E+01  1.87733E+01  1.88237E+01  1.88754E+01  1.89284E+01  1.89825E+01  1.90374E+01  1.90931E+01  1.91496E+01  1.92071E+01
   1.92653E+01  1.93242E+01  1.93836E+01  1.94436E+01  1.95042E+01  1.95654E+01  1.96273E+01  1.96895E+01  1.97521E+01  1.98151E+01
   1.98787E+01  1.99428E+01  2.00073E+01  2.00722E+01  2.01374E+01  2.02031E+01  2.02694E+01  2.03362E+01  2.04034E+01  2.04709E+01
   2.05389E+01  2.06076E+01  2.06770E+01  2.07469E+01  2.08174E+01  2.08886E+01  2.09605E+01  2.10335E+01
 NY background values follow
    -5.106E+01   -5.077E+01   -5.048E+01   -5.019E+01   -4.990E+01   -4.961E+01   -4.932E+01   -4.903E+01   -4.874E+01   -4.845E+01
    -4.816E+01   -4.787E+01   -4.758E+01   -4.729E+01   -4.700E+01   -4.671E+01   -4.642E+01   -4.613E+01   -4.584E+01   -4.555E+01
    -4.526E+01   -4.497E+01   -4.468E+01   -4.439E+01   -4.410E+01   -4.381E+01   -4.352E+01   -4.323E+01   -4.294E+01   -4.265E+01
    -4.236E+01   -4.207E+01   -4.178E+01   -4.149E+01   -4.120E+01   -4.092E+01   -4.063E+01   -4.034E+01   -4.005E+01   -3.977E+01
    -3.948E+01   -3.919E+01   -3.891E+01   -3.862E+01   -3.834E+01   -3.805E+01   -3.777E+01   -3.748E+01   -3.720E+01   -3.691E+01
    -3.663E+01   -3.635E+01   -3.607E+01   -3.578E+01   -3.550E+01   -3.522E+01   -3.494E+01   -3.466E+01   -3.438E+01   -3.410E+01
    -3.382E+01   -3.354E+01   -3.327E+01   -3.299E+01   -3.271E+01   -3.244E+01   -3.216E+01   -3.189E+01   -3.161E+01   -3.134E+01
    -3.107E+01   -3.079E+01   -3.052E+01   -3.025E+01   -2.998E+01   -2.971E+01   -2.944E+01   -2.917E+01   -2.891E+01   -2.864E+01
    -2.837E+01   -2.811E+01   -2.784E+01   -2.758E+01   -2.732E+01   -2.705E+01   -2.679E+01   -2.653E+01   -2.627E+01   -2.601E+01
    -2.575E+01   -2.550E+01   -2.524E+01   -2.498E+01   -2.473E+01   -2.447E+01   -2.422E+01   -2.397E+01   -2.372E+01   -2.347E+01
    -2.322E+01   -2.297E+01   -2.272E+01   -2.247E+01   -2.223E+01   -2.198E+01   -2.174E+01   -2.150E+01   -2.125E+01   -2.101E+01
    -2.077E+01   -2.053E+01   -2.029E+01   -2.006E+01   -1.982E+01   -1.958E+01   -1.935E+01   -1.911E+01   -1.888E+01   -1.865E+01
    -1.842E+01   -1.819E+01   -1.796E+01   -1.773E+01   -1.750E+01   -1.727E+01   -1.705E+01   -1.682E+01   -1.660E+01   -1.638E+01
    -1.616E+01   -1.594E+01   -1.572E+01   -1.550E+01   -1.528E+01   -1.506E+01   -1.485E+01   -1.463E+01   -1.442E+01   -1.421E+01
    -1.400E+01   -1.379E+01   -1.358E+01   -1.337E+01   -1.316E+01   -1.295E+01   -1.275E+01   -1.254E+01   -1.234E+01   -1.214E+01
    -1.194E+01   -1.173E+01   -1.154E+01   -1.134E+01   -1.114E+01   -1.094E+01   -1.075E+01   -1.055E+01   -1.036E+01   -1.016E+01
    -9.971E+00   -9.780E+00   -9.589E+00   -9.400E+00   -9.212E+00   -9.024E+00   -8.838E+00   -8.652E+00   -8.467E+00   -8.283E+00
    -8.100E+00   -7.918E+00   -7.737E+00   -7.557E+00   -7.378E+00   -7.199E+00   -7.022E+00   -6.845E+00   -6.670E+00   -6.495E+00
    -6.321E+00   -6.148E+00   -5.976E+00   -5.804E+00   -5.634E+00   -5.465E+00   -5.296E+00   -5.128E+00   -4.961E+00   -4.795E+00
    -4.630E+00   -4.466E+00   -4.303E+00   -4.141E+00   -3.979E+00   -3.819E+00   -3.659E+00   -3.500E+00   -3.342E+00   -3.185E+00
    -3.029E+00   -2.874E+00   -2.720E+00   -2.567E+00   -2.415E+00   -2.263E+00   -2.113E+00   -1.963E+00   -1.814E+00   -1.667E+00
    -1.520E+00   -1.374E+00   -1.229E+00   -1.085E+00   -9.419E-01   -7.997E-01   -6.585E-01   -5.182E-01   -3.789E-01   -2.405E-01
    -1.031E-01    3.345E-02    1.690E-01    3.036E-01    4.373E-01    5.700E-01    7.018E-01    8.326E-01    9.625E-01    1.091E+00
     1.219E+00    1.347E+00    1.473E+00    1.598E+00    1.722E+00    1.846E+00    1.969E+00    2.090E+00    2.211E+00    2.331E+00
     2.451E+00    2.569E+00    2.686E+00    2.803E+00    2.919E+00    3.034E+00    3.149E+00    3.262E+00    3.375E+00    3.487E+00
     3.599E+00    3.709E+00    3.819E+00    3.928E+00    4.037E+00    4.144E+00    4.251E+00    4.358E+00    4.463E+00    4.568E+00
     4.673E+00    4.776E+00    4.879E+00    4.982E+00    5.083E+00    5.185E+00    5.285E+00    5.385E+00    5.484E+00    5.583E+00
     5.681E+00    5.779E+00    5.876E+00    5.973E+00    6.069E+00    6.164E+00    6.259E+00    6.353E+00    6.447E+00    6.541E+00
     6.633E+00    6.726E+00    6.818E+00    6.909E+00    7.000E+00    7.091E+00    7.181E+00    7.270E+00    7.359E+00    7.448E+00
     7.536E+00    7.624E+00    7.712E+00    7.799E+00    7.885E+00    7.972E+00    8.057E+00    8.143E+00    8.228E+00    8.313E+00
     8.397E+00    8.481E+00    8.565E+00    8.648E+00    8.731E+00    8.814E+00    8.896E+00    8.978E+00    9.060E+00    9.141E+00
     9.222E+00    9.303E+00    9.384E+00    9.464E+00    9.544E+00    9.624E+00    9.704E+00    9.783E+00    9.862E+00    9.941E+00
     1.002E+01    1.010E+01    1.018E+01    1.025E+01    1.033E+01    1.041E+01    1.049E+01    1.056E+01    1.064E+01    1.072E+01
     1.079E+01    1.087E+01    1.095E+01    1.102E+01    1.110E+01    1.117E+01    1.125E+01    1.132E+01    1.140E+01    1.147E+01
     1.155E+01    1.162E+01    1.170E+01    1.177E+01    1.185E+01    1.192E+01    1.200E+01    1.207E+01    1.214E+01    1.222E+01
     1.229E+01    1.236E+01    1.244E+01    1.251E+01    1.258E+01    1.265E+01    1.273E+01    1.280E+01    1.287E+01    1.295E+01
     1.302E+01    1.309E+01    1.316E+01    1.323E+01    1.331E+01    1.338E+01    1.345E+01    1.352E+01    1.359E+01    1.367E+01
     1.374E+01    1.381E+01    1.388E+01    1.395E+01    1.402E+01    1.409E+01    1.417E+01    1.424E+01    1.431E+01    1.438E+01
     1.445E+01    1.452E+01    1.459E+01    1.466E+01    1.473E+01    1.480E+01    1.487E+01    1.494E+01    1.502E+01    1.509E+01
     1.516E+01    1.523E+01    1.530E+01    1.537E+01    1.544E+01    1.551E+01    1.558E+01    1.565E+01    1.572E+01    1.579E+01
     1.586E+01    1.593E+01    1.600E+01    1.607E+01    1.614E+01    1.621E+01    1.628E+01    1.635E+01    1.642E+01    1.649E+01
     1.656E+01    1.663E+01    1.670E+01    1.677E+01    1.684E+01    1.691E+01    1.698E+01    1.705E+01    1.712E+01    1.719E+01
     1.726E+01    1.732E+01    1.739E+01    1.746E+01    1.753E+01    1.760E+01    1.767E+01    1.774E+01    1.781E+01    1.788E+01
     1.795E+01    1.802E+01    1.809E+01    1.815E+01    1.822E+01    1.829E+01    1.836E+01    1.843E+01    1.850E+01    1.857E+01
     1.863E+01    1.870E+01    1.877E+01    1.884E+01    1.891E+01    1.897E+01    1.904E+01    1.911E+01    1.918E+01    1.925E+01
     1.931E+01    1.938E+01    1.945E+01    1.951E+01    1.958E+01    1.965E+01    1.972E+01    1.978E+01    1.985E+01    1.992E+01
     1.998E+01    2.005E+01    2.012E+01    2.018E+01    2.025E+01    2.031E+01    2.038E+01    2.045E+01    2.051E+01    2.058E+01
     2.065E+01    2.071E+01    2.078E+01    2.084E+01    2.091E+01    2.097E+01    2.104E+01    2.110E+01    2.117E+01    2.124E+01
     2.130E+01    2.137E+01    2.143E+01    2.150E+01    2.156E+01    2.163E+01    2.169E+01    2.176E+01    2.182E+01    2.189E+01
     2.195E+01    2.202E+01    2.208E+01    2.215E+01    2.221E+01    2.228E+01    2.234E+01    2.241E+01
 Cr       Conc. = 1.32E+03
