 LCModel (Version 6.3-1L) Copyright: S.W. Provencher.          Ref.: Magn. Reson. Med. 30:672-679 (1993).                
 Slice#2 Row#2 Col#1  PD_24_press_2_raw_act
 36 lines in following concentration table = NCONC+1
    Conc.  %SD /Cr+PCr  Metabolite                                         
    0.000 999%   0.000 Ala                                                 
  185.765  12%   0.324 Asp                                                 
    0.000 999%   0.000 Cr                                                  
  572.653  27%   1.000 PCr                                                 
  110.983  12%   0.194 GABA                                                
  111.453  12%   0.195 Glc                                                 
 4.51E+03  34%   7.870 Gln                                                 
    0.000 999%   0.000 Glu                                                 
    0.000 999%   0.000 GPC                                                 
  235.721  30%   0.412 PCh                                                 
  107.861 272%   0.188 GSH                                                 
 2.56E+03  30%   4.465 Ins                                                 
  627.678 161%   1.096 Lac                                                 
 2.43E+03   7%   4.235 NAA                                                 
    0.000 999%   0.000 NAAG                                                
   37.284  12% 6.5E-02 Scyllo                                              
  186.440  12%   0.326 Tau                                                 
   57.269  28%   0.100 -CrCH2                                              
  235.721  30%   0.412 GPC+PCh                                             
 2.43E+03   7%   4.235 NAA+NAAG                                            
  572.653  27%   1.000 Cr+PCr                                              
 4.51E+03  34%   7.870 Glu+Gln                                             
  323.498 315%   0.565 Lip13a                                              
   74.490 488%   0.130 Lip13b                                              
   60.577 379%   0.106 Lip09                                               
  400.350  57%   0.699 MM09                                                
   74.116 207%   0.129 Lip20                                               
  710.301  52%   1.240 MM20                                                
  123.265  66%   0.215 MM12                                                
  197.634 122%   0.345 MM14                                                
    0.000 999%   0.000 MM17                                                
  397.988 187%   0.695 Lip13a+Lip13b                                       
  718.887  98%   1.255 MM14+Lip13a+Lip13b+MM12                             
  460.927  47%   0.805 MM09+Lip09                                          
  784.417  45%   1.370 MM20+Lip20                                          
   6 lines in following misc. output table
  FWHM = 0.199 ppm    S/N =   3                                            
  Data shift = 0.275 ppm                                                   
  Ph:  54 deg      89.0 deg/ppm                                            
  alphaB,S = 5.3E-01,   3.2E+02                                            
    9 spline knots.   Ns = 9(2)                                            
  ( 6) 4 infls.   ( 1) 1 extrs.                                            
  498 points on ppm-axis = NY
      4.000000     3.992357     3.984714     3.977070     3.969427     3.961784     3.954141     3.946497     3.938854     3.931211
      3.923568     3.915925     3.908281     3.900638     3.892995     3.885352     3.877708     3.870065     3.862422     3.854779
      3.847136     3.839492     3.831849     3.824206     3.816563     3.808919     3.801276     3.793633     3.785990     3.778347
      3.770703     3.763060     3.755417     3.747774     3.740130     3.732487     3.724844     3.717201     3.709558     3.701914
      3.694271     3.686628     3.678985     3.671341     3.663698     3.656055     3.648412     3.640769     3.633125     3.625482
      3.617839     3.610196     3.602552     3.594909     3.587266     3.579623     3.571980     3.564336     3.556693     3.549050
      3.541407     3.533763     3.526120     3.518477     3.510834     3.503191     3.495547     3.487904     3.480261     3.472618
      3.464974     3.457331     3.449688     3.442045     3.434402     3.426758     3.419115     3.411472     3.403829     3.396185
      3.388542     3.380899     3.373256     3.365613     3.357969     3.350326     3.342683     3.335040     3.327396     3.319753
      3.312110     3.304467     3.296824     3.289180     3.281537     3.273894     3.266251     3.258607     3.250964     3.243321
      3.235678     3.228034     3.220391     3.212748     3.205105     3.197462     3.189818     3.182175     3.174532     3.166889
      3.159245     3.151602     3.143959     3.136316     3.128673     3.121029     3.113386     3.105743     3.098100     3.090456
      3.082813     3.075170     3.067527     3.059884     3.052240     3.044597     3.036954     3.029311     3.021667     3.014024
      3.006381     2.998738     2.991095     2.983451     2.975808     2.968165     2.960522     2.952878     2.945235     2.937592
      2.929949     2.922306     2.914662     2.907019     2.899376     2.891733     2.884089     2.876446     2.868803     2.861160
      2.853517     2.845873     2.838230     2.830587     2.822944     2.815300     2.807657     2.800014     2.792371     2.784728
      2.777084     2.769441     2.761798     2.754155     2.746511     2.738868     2.731225     2.723582     2.715939     2.708295
      2.700652     2.693009     2.685366     2.677722     2.670079     2.662436     2.654793     2.647150     2.639506     2.631863
      2.624220     2.616577     2.608933     2.601290     2.593647     2.586004     2.578361     2.570717     2.563074     2.555431
      2.547788     2.540144     2.532501     2.524858     2.517215     2.509572     2.501928     2.494285     2.486642     2.478999
      2.471355     2.463712     2.456069     2.448426     2.440783     2.433139     2.425496     2.417853     2.410210     2.402566
      2.394923     2.387280     2.379637     2.371994     2.364350     2.356707     2.349064     2.341421     2.333777     2.326134
      2.318491     2.310848     2.303205     2.295561     2.287918     2.280275     2.272632     2.264988     2.257345     2.249702
      2.242059     2.234416     2.226772     2.219129     2.211486     2.203843     2.196199     2.188556     2.180913     2.173270
      2.165627     2.157983     2.150340     2.142697     2.135054     2.127410     2.119767     2.112124     2.104481     2.096838
      2.089194     2.081551     2.073908     2.066265     2.058621     2.050978     2.043335     2.035692     2.028049     2.020405
      2.012762     2.005119     1.997476     1.989833     1.982190     1.974546     1.966903     1.959260     1.951617     1.943974
      1.936331     1.928688     1.921045     1.913402     1.905759     1.898115     1.890472     1.882829     1.875186     1.867543
      1.859900     1.852257     1.844614     1.836971     1.829327     1.821684     1.814041     1.806398     1.798755     1.791112
      1.783469     1.775826     1.768183     1.760540     1.752896     1.745253     1.737610     1.729967     1.722324     1.714681
      1.707038     1.699395     1.691752     1.684108     1.676465     1.668822     1.661179     1.653536     1.645893     1.638250
      1.630607     1.622964     1.615321     1.607677     1.600034     1.592391     1.584748     1.577105     1.569462     1.561819
      1.554176     1.546533     1.538890     1.531246     1.523603     1.515960     1.508317     1.500674     1.493031     1.485388
      1.477745     1.470102     1.462458     1.454815     1.447172     1.439529     1.431886     1.424243     1.416600     1.408957
      1.401314     1.393671     1.386027     1.378384     1.370741     1.363098     1.355455     1.347812     1.340169     1.332526
      1.324883     1.317240     1.309596     1.301953     1.294310     1.286667     1.279024     1.271381     1.263738     1.256095
      1.248452     1.240808     1.233165     1.225522     1.217879     1.210236     1.202593     1.194950     1.187307     1.179664
      1.172021     1.164377     1.156734     1.149091     1.141448     1.133805     1.126162     1.118519     1.110876     1.103233
      1.095590     1.087946     1.080303     1.072660     1.065017     1.057374     1.049731     1.042088     1.034445     1.026802
      1.019158     1.011515     1.003872     0.996229     0.988586     0.980943     0.973300     0.965657     0.958014     0.950371
      0.942727     0.935084     0.927441     0.919798     0.912155     0.904512     0.896869     0.889226     0.881583     0.873940
      0.866296     0.858653     0.851010     0.843367     0.835724     0.828081     0.820438     0.812795     0.805152     0.797508
      0.789865     0.782222     0.774579     0.766936     0.759293     0.751650     0.744007     0.736364     0.728721     0.721077
      0.713434     0.705791     0.698148     0.690505     0.682862     0.675219     0.667576     0.659933     0.652290     0.644646
      0.637003     0.629360     0.621717     0.614074     0.606431     0.598788     0.591145     0.583502     0.575858     0.568215
      0.560572     0.552929     0.545286     0.537643     0.530000     0.522357     0.514714     0.507071     0.499427     0.491784
      0.484141     0.476498     0.468855     0.461212     0.453569     0.445925     0.438282     0.430639     0.422996     0.415353
      0.407710     0.400067     0.392424     0.384780     0.377137     0.369494     0.361851     0.354208     0.346565     0.338922
      0.331278     0.323635     0.315992     0.308349     0.300706     0.293063     0.285420     0.277777     0.270133     0.262490
      0.254847     0.247204     0.239561     0.231918     0.224275     0.216631     0.208988     0.201345
 NY phased data points follow
  -4.85063E+00  3.00172E+00 -5.42712E+00  1.77932E+00  4.87326E+00  2.48535E-01  4.94976E-01  6.40235E+00 -7.65025E+00  3.66748E+00
  -3.36533E-01 -3.23797E+00 -1.58136E+00 -6.01578E+00 -3.97179E+00  1.43916E+00 -3.47533E+00  3.82619E-01 -2.77155E+00  5.59434E-01
  -5.12052E+00 -6.17646E+00 -1.11130E+01 -1.62052E+00 -4.08749E+00 -2.72519E-01 -3.69823E+00 -6.71341E+00  2.92224E+00 -7.01325E-01
  -7.71183E+00 -2.52637E+00  1.08506E+00 -4.28143E+00 -6.84293E+00  5.40430E-01 -1.39188E+00 -4.05001E+00 -7.71159E+00  4.36827E+00
   9.71060E-01 -8.06782E-01 -4.59454E+00 -3.73722E+00  2.06219E+00 -8.10682E-02  1.20116E+00 -9.75488E+00 -4.72299E+00  4.81105E+00
   7.52539E-02 -1.01293E-01 -4.62048E+00 -7.45757E-01 -4.92326E+00 -2.52741E+00  1.44832E-01 -3.68099E+00 -1.01632E+01  8.33184E-01
   2.35545E+00 -7.35683E-01  1.12584E+01  5.78190E+00  1.15412E+00  6.70577E+00  6.92350E+00  8.17286E+00 -2.19931E+00 -2.75442E+00
  -2.94164E+00 -3.57154E+00 -9.88250E+00  1.24187E+00  8.46807E-01 -4.62234E+00  1.46469E+00  1.10772E+00 -1.27023E+01  1.70960E+00
  -1.20559E+01  4.66204E+00 -2.41515E+00  1.34635E+00 -1.45526E+00 -2.72074E+00 -6.46042E+00  3.18929E+00  7.27785E+00  4.20065E-01
   6.26590E+00  8.60985E+00  1.13229E-01 -3.42600E+00 -8.36048E+00 -1.75914E+00 -9.03644E+00 -4.87154E+00 -7.00347E+00 -5.51490E+00
  -2.35063E+00 -6.65586E-01 -2.55425E+00  1.96000E+00  3.20910E+00 -2.82483E+00 -6.65303E+00  3.27526E+00  2.20604E+00  2.41922E+00
   2.38403E+00 -1.72633E+00  5.25115E+00 -7.06308E+00 -1.73834E+00  6.25445E-01 -6.33053E+00 -8.48135E+00  2.65069E+00 -3.66430E+00
  -5.83145E+00  3.25967E+00  6.32501E-01  1.49673E+00  1.29740E+00  1.69514E+00 -2.21617E+00  8.22802E-02 -3.55457E+00 -3.02471E+00
   3.91660E+00 -7.90664E-01  2.61556E-01 -3.98458E-01  2.54331E+00 -2.68283E+00 -2.38096E+00 -1.42687E+00 -5.86322E-01 -2.17618E+00
  -2.07577E+00 -9.00308E+00 -1.00832E+01 -2.17881E+00 -6.41994E+00 -7.63265E+00 -9.22650E+00  9.08557E-01 -7.21407E+00 -4.87475E+00
  -6.96544E+00 -4.79967E+00 -1.42385E+01 -7.69066E+00 -1.07770E+01 -7.16056E+00 -7.29298E+00 -2.61371E+00 -1.67702E+01 -1.15947E+01
  -1.18287E+01 -4.45711E+00 -1.06556E+00 -1.60332E+01 -6.06216E+00 -1.03231E+01 -1.19984E+01 -1.89393E+01 -8.99038E+00 -1.95334E+01
  -1.34256E+01 -1.66716E+01 -1.17903E+01 -4.91028E+00 -1.56455E+01 -1.65828E+01 -1.70288E+01 -1.46456E+01 -1.41584E+01 -2.06611E+01
  -2.21180E+01 -5.77412E+00 -1.51607E+01 -1.29797E+01 -1.30488E+01 -1.25742E+01 -1.05391E+01 -2.44099E+00 -9.59632E+00 -1.38714E+01
  -4.99029E+00 -2.12508E+00 -5.47417E+00 -1.29957E+01 -1.84934E+00 -6.12936E+00 -1.09142E+01 -7.19956E+00 -4.79807E+00 -5.75720E+00
  -4.95222E-01 -3.78582E+00 -6.89995E+00 -2.33789E+00  1.12524E-01 -1.58769E+00  3.74677E+00  2.08685E+00 -9.09450E-01  1.20333E+00
  -6.51379E-01  2.80345E+00  7.16584E+00  8.25691E+00  9.51451E+00  5.85397E+00  1.06482E+01  2.60713E-01  1.44162E+00  1.93332E+00
   3.98227E+00  7.44832E+00 -3.55856E+00  7.67714E-01 -9.56810E-01  2.97500E+00 -7.65341E-01 -7.44466E+00  3.80009E+00  4.88617E-01
   4.93405E+00  3.33247E+00  1.06570E+01  2.86237E+00  4.65415E+00  7.57633E+00  1.19797E+00  1.07401E+01  5.44639E+00  3.62051E+00
   9.61839E+00  8.63524E+00  2.79194E+00  7.48590E+00  6.72729E+00 -5.82209E-01  1.52292E+01  3.80040E+00  7.01727E+00  3.51317E+00
   1.10671E+01  8.53835E+00  6.55362E+00  1.57961E+01  1.31455E+01  8.74144E+00  8.12872E+00  9.78619E+00  1.65394E+01  1.21518E+01
   1.51564E+01  1.35932E+01  1.75721E+01  1.20322E+01  1.64792E+01  1.87429E+01  2.60588E+01  1.66024E+01  1.86587E+01  1.65701E+01
   2.91847E+01  2.43025E+01  2.70554E+01  2.06280E+01  2.59183E+01  2.36262E+01  2.53785E+01  2.07430E+01  2.14695E+01  2.25630E+01
   1.95025E+01  1.48537E+01  1.18115E+01  1.60359E+01  9.70556E+00  7.08673E+00  6.29828E-01 -2.94206E+00 -6.45238E+00 -8.95497E+00
  -1.13792E+01 -4.86224E+00 -8.64983E+00 -1.44531E+01 -1.26077E+01 -7.70279E+00 -1.67544E+01 -1.30593E+01 -1.02605E+01 -9.18922E+00
  -9.97632E+00 -1.18989E+01 -4.91332E+00 -1.12986E+01 -1.06571E+01 -8.16858E+00 -4.87183E+00 -5.22382E+00 -4.09327E-01 -3.08469E+00
  -1.37870E+00 -1.09360E+01  2.42369E+00 -9.81859E+00 -6.42658E-01 -7.31482E+00 -2.84091E+00 -3.34511E+00 -8.61353E+00 -7.91668E+00
  -3.66195E+00 -5.80923E+00 -1.40819E+00 -2.85749E+00 -6.88072E+00  3.42684E+00 -5.22190E-01 -2.11077E-01  3.63659E-01 -5.63740E+00
  -1.50982E+00 -2.79767E+00 -4.18085E+00 -1.18991E+00 -5.09016E+00 -8.30045E-01 -2.86133E+00 -7.16089E+00  1.02788E+00  4.45870E-01
  -1.59289E+00 -2.42493E+00  1.99889E+00 -5.12944E+00 -4.68673E+00  4.98837E+00 -5.97615E+00 -2.75970E-01 -1.86035E+00  1.73238E+00
   4.60641E+00  3.07891E+00 -2.89700E+00  1.35120E+00  1.81231E+00  1.90632E-01  2.92044E+00  5.28057E+00 -3.75201E+00 -2.26110E+00
  -1.72467E-01 -4.25069E+00  3.29601E+00 -1.70714E+00  2.31693E+00  1.43624E+00 -2.01288E+00 -4.04480E+00  2.43560E+00 -4.53911E-01
   6.38519E+00  5.24596E+00  1.41056E+00 -1.47115E+00 -3.08125E+00  2.16521E-01 -2.83382E+00 -1.10735E+00 -2.61851E+00 -1.13058E+00
   2.86427E+00 -8.06369E-01 -1.99763E+00  4.04614E+00 -4.21361E+00  4.81950E+00 -2.43066E-01  6.47814E-01  3.40638E+00  3.90957E+00
   6.22857E+00  6.24605E+00  1.33163E+01 -7.43166E-01  2.52107E+00  4.73766E+00  3.81080E+00 -6.25830E+00 -4.75916E+00 -1.80632E+00
   5.47800E+00 -4.48024E+00  1.71548E+00  6.83815E+00 -2.75083E+00  5.10602E-01  5.16577E-01 -6.48998E+00  4.95163E+00  2.09969E+00
   2.59198E+00 -1.26410E+00  2.79571E+00 -4.39168E+00 -1.08369E+00  1.88259E+00 -7.10139E-01  1.24138E-01  3.74303E+00  7.50434E-01
  -2.67245E+00 -1.26317E+00  2.91984E+00 -5.11453E+00  3.64286E+00  2.82886E+00  1.48070E+00  3.14372E+00  3.26285E+00  2.56606E+00
   4.95582E+00 -3.13866E-01 -3.21841E-01 -2.55676E+00 -1.95392E+00 -2.90299E+00 -1.59759E+00 -7.57568E+00 -2.18117E-01 -7.41456E+00
  -1.88181E+00  4.11396E+00 -1.40544E+00  3.44767E+00  4.43498E+00  6.15895E+00 -5.68997E-01  4.04773E+00  2.11810E+00  2.31971E+00
   1.58454E+00  3.69646E+00 -2.27624E+00 -2.55783E+00  1.46965E+00 -1.20755E+00 -1.94942E+00  3.04751E+00 -5.43589E-01  3.33115E+00
  -2.00089E+00  4.22864E+00  3.27842E+00  9.97067E-01 -2.92057E+00 -3.76579E+00  3.09200E+00  4.52679E+00  2.39745E+00  7.07721E-01
   5.32682E+00  7.78930E-01  2.95302E+00 -4.95528E+00 -5.94548E+00 -1.11971E+00  3.22701E+00  2.99161E+00 -2.22489E+00 -2.00663E+00
   2.40219E-01  1.48158E+00  2.27821E-02 -1.50344E+00 -4.80975E+00 -2.81842E-01  2.95326E-01  2.64023E+00  8.42591E+00 -4.78910E+00
   7.31427E-01  6.70246E-01  7.55601E+00 -4.13347E+00 -5.03853E+00  3.42974E+00  1.06405E+00 -1.04542E+00
 NY points of the fit to the data follow
   6.28006E-01  1.26596E+00  6.91401E-01  1.22451E+00  5.51768E-01  9.62463E-01  9.38231E-02  3.62311E-01 -7.99109E-01 -7.29607E-01
  -1.99979E+00 -1.91168E+00 -2.98969E+00 -2.54250E+00 -3.17369E+00 -2.39299E+00 -2.76350E+00 -2.11690E+00 -2.46571E+00 -2.00831E+00
  -2.50778E+00 -2.12276E+00 -2.73607E+00 -2.47968E+00 -3.10153E+00 -2.99731E+00 -3.48246E+00 -3.47901E+00 -3.60715E+00 -3.47150E+00
  -2.94721E+00 -2.50747E+00 -1.99906E+00 -1.66134E+00 -1.27439E+00 -1.08225E+00 -8.00826E-01 -7.09867E-01 -5.15276E-01 -4.53019E-01
  -3.57448E-01 -2.41667E-01 -2.04003E-01  8.49763E-02  2.54243E-02  4.65841E-01  9.74260E-02  5.72600E-01 -3.38215E-01 -8.15928E-02
  -1.01250E+00 -6.81824E-01 -1.13725E+00 -6.77822E-01 -3.10994E-01  1.39736E-02  2.84051E-01  2.40167E-01  3.16217E-01 -4.84244E-02
  -1.61642E-01 -4.61819E-01 -7.86241E-01 -1.18270E+00 -1.66107E+00 -2.05500E+00 -2.54465E+00 -2.76392E+00 -3.00526E+00 -2.86221E+00
  -2.70555E+00 -2.36759E+00 -2.43102E+00 -2.31651E+00 -2.59273E+00 -2.58861E+00 -2.98938E+00 -3.00416E+00 -3.44687E+00 -3.37957E+00
  -3.80083E+00 -3.64975E+00 -3.91502E+00 -3.65078E+00 -3.79131E+00 -3.21027E+00 -3.44160E+00 -2.86959E+00 -3.23350E+00 -2.76392E+00
  -3.17238E+00 -2.78616E+00 -3.18313E+00 -2.83974E+00 -3.16891E+00 -2.73431E+00 -3.07203E+00 -2.56195E+00 -2.89591E+00 -2.31257E+00
  -2.63237E+00 -1.98239E+00 -2.26160E+00 -1.54177E+00 -1.73570E+00 -9.77809E-01 -1.06365E+00 -2.76143E-01 -5.34995E-02  7.32517E-01
   7.60935E-01  1.38724E+00  1.14853E+00  1.59193E+00  1.13611E+00  1.35589E+00  7.18930E-01  7.21644E-01 -6.04166E-02 -2.17410E-01
  -1.11190E+00 -1.32604E+00 -2.20492E+00 -2.07933E+00 -2.71214E+00 -1.74054E+00 -2.30240E+00 -1.28869E+00 -1.92483E+00 -8.77025E-01
  -1.59812E+00 -5.35691E-01 -1.37797E+00 -3.34798E-01 -1.31700E+00 -3.46752E-01 -1.49539E+00 -6.84625E-01 -1.98618E+00 -1.42505E+00
  -2.83227E+00 -2.60063E+00 -4.01068E+00 -4.12892E+00 -5.38786E+00 -5.75664E+00 -6.56536E+00 -6.88913E+00 -6.91518E+00 -6.91960E+00
  -6.90250E+00 -6.89427E+00 -6.87983E+00 -6.86615E+00 -6.87134E+00 -6.85969E+00 -6.89833E+00 -6.92565E+00 -7.02030E+00 -7.10496E+00
  -7.23747E+00 -7.28730E+00 -7.43022E+00 -7.44457E+00 -7.63720E+00 -7.61904E+00 -7.82181E+00 -7.76568E+00 -7.96807E+00 -7.90229E+00
  -8.13145E+00 -8.02086E+00 -8.22160E+00 -8.06476E+00 -8.22104E+00 -8.04797E+00 -8.22193E+00 -8.06549E+00 -8.30146E+00 -8.22072E+00
  -8.44321E+00 -8.43657E+00 -8.61712E+00 -8.53042E+00 -8.53369E+00 -8.26738E+00 -8.05850E+00 -7.51987E+00 -7.15754E+00 -6.62361E+00
  -6.36645E+00 -6.11955E+00 -6.38029E+00 -6.34794E+00 -6.55639E+00 -6.61736E+00 -6.62790E+00 -6.73046E+00 -6.49705E+00 -6.66682E+00
  -6.20585E+00 -6.34231E+00 -5.72890E+00 -5.90008E+00 -5.22119E+00 -5.40988E+00 -4.63132E+00 -4.82543E+00 -4.00841E+00 -4.19405E+00
  -3.40194E+00 -3.51302E+00 -2.72838E+00 -2.83623E+00 -2.23633E+00 -2.45277E+00 -2.16674E+00 -2.64480E+00 -2.84434E+00 -3.57076E+00
  -3.63533E+00 -4.24222E+00 -3.72291E+00 -3.66291E+00 -2.21990E+00 -1.82756E+00  2.22873E-02  5.07120E-01  2.21893E+00  2.19518E+00
   3.15783E+00  2.35925E+00  2.19350E+00  1.13541E+00  1.29255E+00  2.63663E-01  5.69804E-01 -3.93348E-01  9.84576E-02 -9.06746E-01
  -2.46852E-01 -1.31998E+00 -2.23375E-01 -2.10500E-01  1.89873E+00  2.09940E+00  4.92839E+00  4.73369E+00  7.97933E+00  7.22090E+00
   1.07043E+01  9.39661E+00  1.29741E+01  1.12554E+01  1.47865E+01  1.27736E+01  1.60980E+01  1.39975E+01  1.68231E+01  1.49652E+01
   1.80620E+01  1.67783E+01  2.02619E+01  1.94466E+01  2.31265E+01  2.17722E+01  2.53152E+01  2.32518E+01  2.64010E+01  2.35651E+01
   2.62927E+01  2.27029E+01  2.48379E+01  2.07473E+01  2.21398E+01  1.75155E+01  1.78426E+01  1.28698E+01  1.20082E+01  7.16662E+00
   5.47432E+00  1.88793E+00  3.48063E-01 -2.23557E-01 -5.75150E-01 -8.29329E-01 -1.03631E+00 -1.20061E+00 -1.34700E+00 -1.47057E+00
  -1.58399E+00 -1.68722E+00 -1.78717E+00 -1.87322E+00 -1.95980E+00 -2.03052E+00 -2.10347E+00 -2.16015E+00 -2.21772E+00 -2.25822E+00
  -2.30768E+00 -2.34177E+00 -2.38541E+00 -2.41745E+00 -2.45985E+00 -2.49129E+00 -2.53199E+00 -2.56007E+00 -2.59348E+00 -2.61649E+00
  -2.64151E+00 -2.65741E+00 -2.67125E+00 -2.67959E+00 -2.68362E+00 -2.68242E+00 -2.67747E+00 -2.66667E+00 -2.65172E+00 -2.63008E+00
  -2.60385E+00 -2.56973E+00 -2.53033E+00 -2.48141E+00 -2.42568E+00 -2.35697E+00 -2.27584E+00 -2.16921E+00 -2.01528E+00 -1.76637E+00
  -1.62613E+00 -1.41203E+00 -1.32982E+00 -1.21654E+00 -1.20439E+00 -1.22382E+00 -1.29154E+00 -1.24294E+00 -1.27445E+00 -1.14188E+00
  -1.12793E+00 -9.44882E-01 -8.95037E-01 -6.76680E-01 -6.05398E-01 -3.71269E-01 -2.84096E-01 -3.48271E-02  6.91890E-02  3.23560E-01
   4.34448E-01  6.89744E-01  7.84843E-01  9.94343E-01  1.03473E+00  1.14863E+00  1.09618E+00  1.07150E+00  9.18692E-01  7.71160E-01
   5.55206E-01  3.29569E-01  1.15963E-01 -1.04064E-01 -2.33904E-01 -3.57344E-01 -3.34455E-01 -2.57623E-01 -5.69230E-02  2.57376E-01
   4.09801E-01  4.64524E-01  4.92166E-01  2.91900E-01  1.64340E-01 -2.03053E-01 -4.48208E-01 -6.07128E-01 -7.21322E-01 -8.00886E-01
  -8.56916E-01 -8.88575E-01 -9.02045E-01 -8.93921E-01 -8.68996E-01 -8.23130E-01 -7.60792E-01 -6.77784E-01 -5.78734E-01 -4.59824E-01
  -3.26279E-01 -1.75047E-01 -1.22356E-02  1.64272E-01  3.47402E-01  5.38330E-01  7.29110E-01  9.20219E-01  1.10325E+00  1.27851E+00
   1.43772E+00  1.58166E+00  1.70283E+00  1.80307E+00  1.87623E+00  1.92570E+00  1.94691E+00  1.94488E+00  1.91659E+00  1.86844E+00
   1.79861E+00  1.71441E+00  1.61463E+00  1.50690E+00  1.39001E+00  1.27138E+00  1.14938E+00  1.03084E+00  9.13396E-01  8.03092E-01
   6.96795E-01  5.99791E-01  5.08255E-01  4.26845E-01  3.51198E-01  2.85542E-01  2.25186E-01  1.74118E-01  1.27482E-01  8.91559E-02
   5.42294E-02  2.65791E-02  1.33296E-03 -1.75794E-02 -3.49711E-02 -4.68523E-02 -5.79623E-02 -6.42284E-02 -7.03205E-02 -7.20928E-02
  -7.41694E-02 -7.23509E-02 -7.12158E-02 -6.65080E-02 -6.27666E-02 -5.57108E-02 -4.98483E-02 -4.08827E-02 -3.32898E-02 -2.27492E-02
  -1.37184E-02 -1.87142E-03  8.34167E-03  2.12585E-02  3.24501E-02  4.62635E-02  5.82751E-02  7.28282E-02  8.55068E-02  1.00660E-01
   1.13890E-01  1.29545E-01  1.43227E-01  1.59275E-01  1.73306E-01  1.89659E-01  2.03967E-01  2.20559E-01  2.35067E-01  2.51818E-01
   2.66450E-01  2.83295E-01  2.97995E-01  3.14874E-01  3.29569E-01  3.46405E-01  3.61024E-01  3.77758E-01  3.92241E-01  4.08801E-01
   4.23060E-01  4.39354E-01  4.53306E-01  4.69247E-01  4.82799E-01  4.98272E-01  5.11291E-01  5.26164E-01  5.38515E-01  5.52636E-01
   5.64133E-01  5.77277E-01  5.87666E-01  5.99550E-01  6.08504E-01  6.18728E-01  6.25745E-01  6.33687E-01
 NY background values follow
    -1.112E+01   -1.108E+01   -1.104E+01   -1.101E+01   -1.097E+01   -1.093E+01   -1.089E+01   -1.086E+01   -1.082E+01   -1.078E+01
    -1.074E+01   -1.070E+01   -1.067E+01   -1.063E+01   -1.059E+01   -1.055E+01   -1.051E+01   -1.047E+01   -1.043E+01   -1.039E+01
    -1.036E+01   -1.032E+01   -1.028E+01   -1.024E+01   -1.020E+01   -1.016E+01   -1.012E+01   -1.008E+01   -1.004E+01   -1.000E+01
    -9.961E+00   -9.921E+00   -9.881E+00   -9.842E+00   -9.802E+00   -9.762E+00   -9.722E+00   -9.682E+00   -9.643E+00   -9.603E+00
    -9.563E+00   -9.523E+00   -9.484E+00   -9.444E+00   -9.404E+00   -9.365E+00   -9.325E+00   -9.285E+00   -9.246E+00   -9.206E+00
    -9.167E+00   -9.127E+00   -9.088E+00   -9.049E+00   -9.010E+00   -8.971E+00   -8.932E+00   -8.893E+00   -8.854E+00   -8.815E+00
    -8.776E+00   -8.738E+00   -8.699E+00   -8.661E+00   -8.623E+00   -8.585E+00   -8.547E+00   -8.509E+00   -8.471E+00   -8.434E+00
    -8.397E+00   -8.359E+00   -8.322E+00   -8.285E+00   -8.249E+00   -8.212E+00   -8.176E+00   -8.139E+00   -8.103E+00   -8.067E+00
    -8.032E+00   -7.996E+00   -7.961E+00   -7.926E+00   -7.891E+00   -7.856E+00   -7.822E+00   -7.788E+00   -7.754E+00   -7.720E+00
    -7.686E+00   -7.653E+00   -7.619E+00   -7.586E+00   -7.553E+00   -7.520E+00   -7.488E+00   -7.455E+00   -7.423E+00   -7.390E+00
    -7.358E+00   -7.326E+00   -7.294E+00   -7.263E+00   -7.231E+00   -7.200E+00   -7.168E+00   -7.137E+00   -7.106E+00   -7.075E+00
    -7.044E+00   -7.013E+00   -6.982E+00   -6.951E+00   -6.921E+00   -6.890E+00   -6.860E+00   -6.829E+00   -6.799E+00   -6.768E+00
    -6.738E+00   -6.708E+00   -6.678E+00   -6.647E+00   -6.617E+00   -6.587E+00   -6.557E+00   -6.527E+00   -6.497E+00   -6.466E+00
    -6.436E+00   -6.406E+00   -6.376E+00   -6.346E+00   -6.316E+00   -6.285E+00   -6.255E+00   -6.225E+00   -6.194E+00   -6.164E+00
    -6.134E+00   -6.103E+00   -6.072E+00   -6.042E+00   -6.011E+00   -5.980E+00   -5.949E+00   -5.918E+00   -5.887E+00   -5.856E+00
    -5.825E+00   -5.794E+00   -5.762E+00   -5.730E+00   -5.699E+00   -5.667E+00   -5.635E+00   -5.603E+00   -5.570E+00   -5.538E+00
    -5.505E+00   -5.473E+00   -5.440E+00   -5.407E+00   -5.373E+00   -5.340E+00   -5.306E+00   -5.272E+00   -5.239E+00   -5.204E+00
    -5.170E+00   -5.136E+00   -5.101E+00   -5.067E+00   -5.032E+00   -4.997E+00   -4.962E+00   -4.927E+00   -4.893E+00   -4.858E+00
    -4.823E+00   -4.788E+00   -4.753E+00   -4.718E+00   -4.684E+00   -4.649E+00   -4.614E+00   -4.580E+00   -4.545E+00   -4.511E+00
    -4.477E+00   -4.443E+00   -4.409E+00   -4.376E+00   -4.342E+00   -4.309E+00   -4.276E+00   -4.244E+00   -4.211E+00   -4.179E+00
    -4.147E+00   -4.116E+00   -4.085E+00   -4.054E+00   -4.023E+00   -3.993E+00   -3.963E+00   -3.934E+00   -3.905E+00   -3.876E+00
    -3.848E+00   -3.820E+00   -3.793E+00   -3.766E+00   -3.740E+00   -3.714E+00   -3.689E+00   -3.664E+00   -3.640E+00   -3.616E+00
    -3.593E+00   -3.571E+00   -3.549E+00   -3.528E+00   -3.507E+00   -3.487E+00   -3.468E+00   -3.449E+00   -3.431E+00   -3.414E+00
    -3.397E+00   -3.382E+00   -3.367E+00   -3.352E+00   -3.339E+00   -3.326E+00   -3.314E+00   -3.303E+00   -3.293E+00   -3.283E+00
    -3.275E+00   -3.267E+00   -3.260E+00   -3.254E+00   -3.250E+00   -3.245E+00   -3.242E+00   -3.240E+00   -3.239E+00   -3.239E+00
    -3.240E+00   -3.241E+00   -3.244E+00   -3.247E+00   -3.252E+00   -3.257E+00   -3.263E+00   -3.270E+00   -3.278E+00   -3.287E+00
    -3.296E+00   -3.306E+00   -3.317E+00   -3.328E+00   -3.340E+00   -3.352E+00   -3.366E+00   -3.380E+00   -3.394E+00   -3.409E+00
    -3.424E+00   -3.440E+00   -3.456E+00   -3.473E+00   -3.490E+00   -3.508E+00   -3.526E+00   -3.544E+00   -3.563E+00   -3.582E+00
    -3.601E+00   -3.621E+00   -3.640E+00   -3.660E+00   -3.680E+00   -3.701E+00   -3.721E+00   -3.742E+00   -3.762E+00   -3.783E+00
    -3.803E+00   -3.824E+00   -3.845E+00   -3.866E+00   -3.886E+00   -3.907E+00   -3.927E+00   -3.948E+00   -3.968E+00   -3.988E+00
    -4.008E+00   -4.027E+00   -4.047E+00   -4.066E+00   -4.085E+00   -4.103E+00   -4.121E+00   -4.139E+00   -4.157E+00   -4.174E+00
    -4.191E+00   -4.207E+00   -4.223E+00   -4.238E+00   -4.253E+00   -4.267E+00   -4.281E+00   -4.294E+00   -4.307E+00   -4.318E+00
    -4.330E+00   -4.340E+00   -4.350E+00   -4.360E+00   -4.368E+00   -4.376E+00   -4.383E+00   -4.389E+00   -4.394E+00   -4.399E+00
    -4.403E+00   -4.405E+00   -4.407E+00   -4.408E+00   -4.408E+00   -4.407E+00   -4.406E+00   -4.403E+00   -4.400E+00   -4.396E+00
    -4.391E+00   -4.385E+00   -4.378E+00   -4.371E+00   -4.363E+00   -4.354E+00   -4.344E+00   -4.334E+00   -4.323E+00   -4.311E+00
    -4.299E+00   -4.285E+00   -4.272E+00   -4.257E+00   -4.242E+00   -4.226E+00   -4.210E+00   -4.193E+00   -4.175E+00   -4.157E+00
    -4.139E+00   -4.119E+00   -4.100E+00   -4.079E+00   -4.059E+00   -4.037E+00   -4.015E+00   -3.993E+00   -3.970E+00   -3.947E+00
    -3.924E+00   -3.900E+00   -3.875E+00   -3.850E+00   -3.825E+00   -3.799E+00   -3.773E+00   -3.747E+00   -3.720E+00   -3.693E+00
    -3.666E+00   -3.638E+00   -3.610E+00   -3.582E+00   -3.553E+00   -3.524E+00   -3.495E+00   -3.466E+00   -3.437E+00   -3.407E+00
    -3.377E+00   -3.347E+00   -3.317E+00   -3.286E+00   -3.256E+00   -3.225E+00   -3.194E+00   -3.163E+00   -3.132E+00   -3.101E+00
    -3.070E+00   -3.039E+00   -3.008E+00   -2.976E+00   -2.945E+00   -2.913E+00   -2.882E+00   -2.851E+00   -2.819E+00   -2.788E+00
    -2.756E+00   -2.725E+00   -2.694E+00   -2.663E+00   -2.632E+00   -2.601E+00   -2.570E+00   -2.539E+00   -2.508E+00   -2.478E+00
    -2.447E+00   -2.417E+00   -2.387E+00   -2.356E+00   -2.326E+00   -2.296E+00   -2.266E+00   -2.236E+00   -2.207E+00   -2.177E+00
    -2.147E+00   -2.118E+00   -2.088E+00   -2.059E+00   -2.030E+00   -2.000E+00   -1.971E+00   -1.942E+00   -1.913E+00   -1.884E+00
    -1.856E+00   -1.827E+00   -1.798E+00   -1.770E+00   -1.741E+00   -1.713E+00   -1.685E+00   -1.656E+00   -1.628E+00   -1.600E+00
    -1.572E+00   -1.544E+00   -1.516E+00   -1.488E+00   -1.460E+00   -1.433E+00   -1.405E+00   -1.378E+00   -1.350E+00   -1.323E+00
    -1.295E+00   -1.268E+00   -1.241E+00   -1.214E+00   -1.187E+00   -1.160E+00   -1.133E+00   -1.106E+00   -1.079E+00   -1.052E+00
    -1.025E+00   -9.986E-01   -9.720E-01   -9.454E-01   -9.189E-01   -8.925E-01   -8.661E-01   -8.398E-01   -8.135E-01   -7.873E-01
    -7.611E-01   -7.350E-01   -7.089E-01   -6.829E-01   -6.570E-01   -6.310E-01   -6.052E-01   -5.794E-01   -5.536E-01   -5.279E-01
    -5.022E-01   -4.766E-01   -4.510E-01   -4.255E-01   -4.000E-01   -3.746E-01   -3.492E-01   -3.238E-01
 Asp      Conc. = 1.86E+02
