 LCModel (Version 6.3-1L) Copyright: S.W. Provencher.          Ref.: Magn. Reson. Med. 30:672-679 (1993).                
 Slice#1 Row#4 Col#1  PD_24_press_2_raw_act
 36 lines in following concentration table = NCONC+1
    Conc.  %SD /Cr+PCr  Metabolite                                         
 1.49E+04   9%  12.959 Ala                                                 
  104.101  93% 9.0E-02 Asp                                                 
 1.15E+03  22%   1.000 Cr                                                  
    0.000 999%   0.000 PCr                                                 
   71.268  82% 6.2E-02 GABA                                                
   74.741  79% 6.5E-02 Glc                                                 
 4.84E+03  50%   4.202 Gln                                                 
    0.000 999%   0.000 Glu                                                 
  418.803  27%   0.363 GPC                                                 
    0.000 999%   0.000 PCh                                                 
 1.36E+03  36%   1.176 GSH                                                 
 6.65E+03  20%   5.770 Ins                                                 
    0.000 999%   0.000 Lac                                                 
    0.000 999%   0.000 NAA                                                 
    0.000 999%   0.000 NAAG                                                
   28.578  68% 2.5E-02 Scyllo                                              
  118.010  82%   0.102 Tau                                                 
    0.000 999%   0.000 -CrCH2                                              
  418.803  27%   0.363 GPC+PCh                                             
    0.000 999%   0.000 NAA+NAAG                                            
 1.15E+03  22%   1.000 Cr+PCr                                              
 4.84E+03  50%   4.202 Glu+Gln                                             
    0.000 999%   0.000 Lip13a                                              
    0.000 999%   0.000 Lip13b                                              
    0.000 999%   0.000 Lip09                                               
  230.030  98%   0.200 MM09                                                
    0.000 999%   0.000 Lip20                                               
   53.608 698% 4.7E-02 MM20                                                
   67.135 131% 5.8E-02 MM12                                                
    0.000 999%   0.000 MM14                                                
 1.02E+03  17%   0.885+MM17                                                
    0.000 999%   0.000 Lip13a+Lip13b                                       
   67.135 131% 5.8E-02 MM14+Lip13a+Lip13b+MM12                             
  230.030  98%   0.200 MM09+Lip09                                          
   53.608 698% 4.7E-02 MM20+Lip20                                          
   6 lines in following misc. output table
  FWHM = 0.183 ppm    S/N =   2                                            
  Data shift = 0.092 ppm                                                   
  Ph: 131 deg      63.2 deg/ppm                                            
  alphaB,S = 1.5E+00,   3.9E+02                                            
   11 spline knots.   Ns = 9(2)                                            
  (17) 3 infls.   (15) 1 extrs.                                            
  498 points on ppm-axis = NY
      4.000000     3.992357     3.984714     3.977070     3.969427     3.961784     3.954141     3.946497     3.938854     3.931211
      3.923568     3.915925     3.908281     3.900638     3.892995     3.885352     3.877708     3.870065     3.862422     3.854779
      3.847136     3.839492     3.831849     3.824206     3.816563     3.808919     3.801276     3.793633     3.785990     3.778347
      3.770703     3.763060     3.755417     3.747774     3.740130     3.732487     3.724844     3.717201     3.709558     3.701914
      3.694271     3.686628     3.678985     3.671341     3.663698     3.656055     3.648412     3.640769     3.633125     3.625482
      3.617839     3.610196     3.602552     3.594909     3.587266     3.579623     3.571980     3.564336     3.556693     3.549050
      3.541407     3.533763     3.526120     3.518477     3.510834     3.503191     3.495547     3.487904     3.480261     3.472618
      3.464974     3.457331     3.449688     3.442045     3.434402     3.426758     3.419115     3.411472     3.403829     3.396185
      3.388542     3.380899     3.373256     3.365613     3.357969     3.350326     3.342683     3.335040     3.327396     3.319753
      3.312110     3.304467     3.296824     3.289180     3.281537     3.273894     3.266251     3.258607     3.250964     3.243321
      3.235678     3.228034     3.220391     3.212748     3.205105     3.197462     3.189818     3.182175     3.174532     3.166889
      3.159245     3.151602     3.143959     3.136316     3.128673     3.121029     3.113386     3.105743     3.098100     3.090456
      3.082813     3.075170     3.067527     3.059884     3.052240     3.044597     3.036954     3.029311     3.021667     3.014024
      3.006381     2.998738     2.991095     2.983451     2.975808     2.968165     2.960522     2.952878     2.945235     2.937592
      2.929949     2.922306     2.914662     2.907019     2.899376     2.891733     2.884089     2.876446     2.868803     2.861160
      2.853517     2.845873     2.838230     2.830587     2.822944     2.815300     2.807657     2.800014     2.792371     2.784728
      2.777084     2.769441     2.761798     2.754155     2.746511     2.738868     2.731225     2.723582     2.715939     2.708295
      2.700652     2.693009     2.685366     2.677722     2.670079     2.662436     2.654793     2.647150     2.639506     2.631863
      2.624220     2.616577     2.608933     2.601290     2.593647     2.586004     2.578361     2.570717     2.563074     2.555431
      2.547788     2.540144     2.532501     2.524858     2.517215     2.509572     2.501928     2.494285     2.486642     2.478999
      2.471355     2.463712     2.456069     2.448426     2.440783     2.433139     2.425496     2.417853     2.410210     2.402566
      2.394923     2.387280     2.379637     2.371994     2.364350     2.356707     2.349064     2.341421     2.333777     2.326134
      2.318491     2.310848     2.303205     2.295561     2.287918     2.280275     2.272632     2.264988     2.257345     2.249702
      2.242059     2.234416     2.226772     2.219129     2.211486     2.203843     2.196199     2.188556     2.180913     2.173270
      2.165627     2.157983     2.150340     2.142697     2.135054     2.127410     2.119767     2.112124     2.104481     2.096838
      2.089194     2.081551     2.073908     2.066265     2.058621     2.050978     2.043335     2.035692     2.028049     2.020405
      2.012762     2.005119     1.997476     1.989833     1.982190     1.974546     1.966903     1.959260     1.951617     1.943974
      1.936331     1.928688     1.921045     1.913402     1.905759     1.898115     1.890472     1.882829     1.875186     1.867543
      1.859900     1.852257     1.844614     1.836971     1.829327     1.821684     1.814041     1.806398     1.798755     1.791112
      1.783469     1.775826     1.768183     1.760540     1.752896     1.745253     1.737610     1.729967     1.722324     1.714681
      1.707038     1.699395     1.691752     1.684108     1.676465     1.668822     1.661179     1.653536     1.645893     1.638250
      1.630607     1.622964     1.615321     1.607677     1.600034     1.592391     1.584748     1.577105     1.569462     1.561819
      1.554176     1.546533     1.538890     1.531246     1.523603     1.515960     1.508317     1.500674     1.493031     1.485388
      1.477745     1.470102     1.462458     1.454815     1.447172     1.439529     1.431886     1.424243     1.416600     1.408957
      1.401314     1.393671     1.386027     1.378384     1.370741     1.363098     1.355455     1.347812     1.340169     1.332526
      1.324883     1.317240     1.309596     1.301953     1.294310     1.286667     1.279024     1.271381     1.263738     1.256095
      1.248452     1.240808     1.233165     1.225522     1.217879     1.210236     1.202593     1.194950     1.187307     1.179664
      1.172021     1.164377     1.156734     1.149091     1.141448     1.133805     1.126162     1.118519     1.110876     1.103233
      1.095590     1.087946     1.080303     1.072660     1.065017     1.057374     1.049731     1.042088     1.034445     1.026802
      1.019158     1.011515     1.003872     0.996229     0.988586     0.980943     0.973300     0.965657     0.958014     0.950371
      0.942727     0.935084     0.927441     0.919798     0.912155     0.904512     0.896869     0.889226     0.881583     0.873940
      0.866296     0.858653     0.851010     0.843367     0.835724     0.828081     0.820438     0.812795     0.805152     0.797508
      0.789865     0.782222     0.774579     0.766936     0.759293     0.751650     0.744007     0.736364     0.728721     0.721077
      0.713434     0.705791     0.698148     0.690505     0.682862     0.675219     0.667576     0.659933     0.652290     0.644646
      0.637003     0.629360     0.621717     0.614074     0.606431     0.598788     0.591145     0.583502     0.575858     0.568215
      0.560572     0.552929     0.545286     0.537643     0.530000     0.522357     0.514714     0.507071     0.499427     0.491784
      0.484141     0.476498     0.468855     0.461212     0.453569     0.445925     0.438282     0.430639     0.422996     0.415353
      0.407710     0.400067     0.392424     0.384780     0.377137     0.369494     0.361851     0.354208     0.346565     0.338922
      0.331278     0.323635     0.315992     0.308349     0.300706     0.293063     0.285420     0.277777     0.270133     0.262490
      0.254847     0.247204     0.239561     0.231918     0.224275     0.216631     0.208988     0.201345
 NY phased data points follow
   8.37147E+01  7.45051E+01  7.78208E+01  7.23477E+01  7.23497E+01  7.42824E+01  7.10268E+01  7.04274E+01  6.85307E+01  7.53648E+01
   6.73478E+01  7.35164E+01  6.64629E+01  6.78657E+01  6.40043E+01  6.46204E+01  6.03869E+01  6.94244E+01  6.55924E+01  5.60691E+01
   5.28450E+01  6.44901E+01  5.79014E+01  5.92408E+01  5.97236E+01  5.45890E+01  5.85495E+01  5.25071E+01  4.96887E+01  5.00668E+01
   5.16778E+01  4.70556E+01  4.67544E+01  4.67649E+01  4.83294E+01  5.20508E+01  3.86516E+01  4.10543E+01  4.52459E+01  4.02196E+01
   4.26107E+01  4.05118E+01  3.78846E+01  4.11087E+01  4.68322E+01  4.14055E+01  3.53172E+01  4.01209E+01  3.24293E+01  3.98515E+01
   2.88547E+01  3.71174E+01  4.31880E+01  3.63622E+01  3.41301E+01  3.43106E+01  2.64413E+01  3.31392E+01  2.85829E+01  2.38939E+01
   2.77942E+01  2.70782E+01  2.56509E+01  3.38677E+01  2.90221E+01  1.82945E+01  2.73952E+01  1.59538E+01  2.76179E+01  3.27586E+01
   2.58229E+01  2.39154E+01  1.86523E+01  2.08577E+01  1.87563E+01  1.74963E+01  1.66845E+01  1.13293E+01  2.02596E+01  1.65360E+01
   1.73694E+01  8.52482E+00  8.50054E+00  1.35388E+01  1.29758E+01  1.65084E+01  1.53905E+01  1.21921E+01  7.73104E+00  1.43899E+01
   1.25111E+01  6.12338E+00  1.15356E+01  4.64549E+00  1.88552E+00 -2.11295E+00 -3.46959E+00  1.77459E+00  5.72574E+00  9.22176E+00
   5.64245E+00  2.54291E+00  1.05669E+00 -2.29385E+00  3.59258E+00 -3.12314E+00  1.96572E+00 -1.05586E+00  2.05020E+00 -3.29720E+00
  -1.37739E-01  3.89388E+00  1.44358E+00 -9.96378E-01 -1.95122E-01 -5.42908E+00 -6.52548E+00 -6.22545E+00 -4.26509E+00 -6.54129E+00
  -1.18551E+01 -1.44478E+01 -8.50244E+00  3.26981E+00 -2.93173E+00 -3.59591E+00 -1.86625E+00 -1.45867E+01 -1.19153E+00 -9.12424E+00
  -6.01064E+00 -1.50262E+01 -1.37383E+01 -1.08692E+01 -1.33551E+01 -1.40836E+01 -1.21149E+01 -1.81546E+01 -1.27231E+01 -9.90171E+00
  -1.32305E+01 -1.70593E+01 -1.33582E+01 -1.82991E+01 -8.13606E+00 -1.37377E+01 -1.55432E+01 -2.35106E+01 -1.42988E+01 -2.10122E+01
  -1.34991E+01 -2.73354E+01 -1.12269E+01 -1.51014E+01 -1.50587E+01 -2.55443E+01 -2.00967E+01 -2.47079E+01 -2.08139E+01 -2.59731E+01
  -2.07098E+01 -9.92800E+00 -1.78815E+01 -2.14154E+01 -2.20525E+01 -3.18219E+01 -1.65015E+01 -3.24027E+01 -1.94563E+01 -2.70216E+01
  -2.14474E+01 -3.50460E+01 -2.52370E+01 -3.43368E+01 -2.24780E+01 -3.34260E+01 -2.47135E+01 -3.03083E+01 -2.05779E+01 -3.18029E+01
  -2.79045E+01 -3.17554E+01 -2.30537E+01 -2.61959E+01 -2.69527E+01 -2.68621E+01 -2.68512E+01 -1.90551E+01 -2.85113E+01 -2.62364E+01
  -2.66835E+01 -3.33373E+01 -2.95298E+01 -3.40240E+01 -3.26753E+01 -2.86650E+01 -2.84066E+01 -3.32203E+01 -2.67031E+01 -2.97024E+01
  -3.52362E+01 -3.34424E+01 -3.06849E+01 -3.26734E+01 -2.69911E+01 -3.35370E+01 -2.99651E+01 -3.68843E+01 -3.02120E+01 -2.04305E+01
  -2.32839E+01 -2.72108E+01 -2.84378E+01 -2.67702E+01 -2.31891E+01 -2.21074E+01 -2.86047E+01 -3.80683E+01 -2.66685E+01 -3.02693E+01
  -2.27423E+01 -2.57187E+01 -2.44997E+01 -2.52395E+01 -2.38871E+01 -3.01138E+01 -1.60782E+01 -2.58531E+01 -2.09445E+01 -2.54798E+01
  -2.62451E+01 -2.79164E+01 -2.08307E+01 -2.17785E+01 -2.23371E+01 -2.23529E+01 -2.60486E+01 -2.50684E+01 -2.46041E+01 -2.03565E+01
  -2.79047E+01 -3.10897E+01 -2.51707E+01 -2.84858E+01 -2.75402E+01 -2.86509E+01 -2.47123E+01 -1.70357E+01 -2.63844E+01 -2.39691E+01
  -2.46388E+01 -3.35185E+01 -3.19330E+01 -1.67032E+01 -1.99485E+01 -2.14218E+01 -1.75733E+01 -3.27557E+01 -2.51625E+01 -2.69773E+01
  -2.71776E+01 -2.91725E+01 -2.78792E+01 -2.24151E+01 -3.10445E+01 -2.39639E+01 -2.31577E+01 -2.74731E+01 -2.42354E+01 -2.70944E+01
  -2.07538E+01 -2.29899E+01 -1.79736E+01 -2.83066E+01 -1.98246E+01 -3.02491E+01 -1.51055E+01 -2.69241E+01 -2.53827E+01 -1.84443E+01
  -1.27732E+01 -1.99502E+01 -1.83761E+01 -2.48933E+01 -7.79323E+00 -1.48904E+01 -1.15348E+01 -1.13918E+01 -1.03133E+01 -1.23101E+01
  -1.42357E+01 -9.96901E+00  7.97043E+00  8.01270E+00  8.99641E+00  8.32978E+00  1.64515E+01  1.61589E+01  2.68741E+01  2.51594E+01
   4.33490E+01  4.04447E+01  4.22395E+01  3.53339E+01  4.01886E+01  3.58986E+01  3.68149E+01  3.35962E+01  3.79964E+01  3.62687E+01
   2.88259E+01  2.17139E+01  2.72918E+01  2.64492E+01  1.50898E+01 -2.05204E-01  1.34793E+01  7.20127E+00 -2.98846E-01  5.59748E+00
  -1.30644E+00 -5.60116E+00 -4.59189E-01 -1.24668E+01 -5.46740E+00 -6.30347E+00 -1.35569E+01 -1.80573E+01 -9.20212E+00 -1.21816E+01
  -1.97812E+01 -1.56070E+01 -2.40162E+01 -2.44615E+01 -2.17826E+01 -2.02677E+01 -2.25302E+01 -1.52513E+01 -1.40781E+01 -1.57274E+01
  -2.20385E+01 -2.03542E+01 -7.70952E+00 -1.83266E+01 -2.13254E+01 -1.46727E+01 -7.00263E+00 -1.63697E+01 -1.35409E+01 -8.56970E+00
  -4.06599E+00 -1.23730E+01 -1.16502E+01 -8.31917E+00 -6.93989E+00 -5.53694E+00 -6.74455E+00 -8.62227E+00 -3.43450E+00 -3.27757E+00
  -4.76964E+00 -7.69559E+00  1.38458E+00 -1.39832E+00 -2.63036E+00 -6.54776E+00  3.24883E+00 -6.50554E+00 -3.49524E+00 -8.82186E+00
  -1.03252E+01 -1.32660E+01 -5.41354E+00 -3.33525E+00 -1.05788E+01 -8.72436E+00 -7.28239E+00 -3.78772E+00 -9.75799E+00 -4.82811E+00
   2.76978E+00 -3.62120E+00 -8.20040E+00 -9.43921E+00 -1.35714E+01 -7.16012E+00 -1.45823E+01 -7.22979E+00 -1.38677E+01 -1.28724E+01
  -9.19901E+00 -8.50766E+00 -4.17033E+00 -1.52968E+01 -7.89327E+00 -9.92071E+00 -2.38322E+00 -6.61422E+00 -6.75470E+00 -8.19201E+00
  -7.43478E+00 -1.11577E+01 -7.27341E+00  2.17706E-01 -6.31312E+00 -7.98632E+00 -3.22629E+00 -9.23922E+00 -2.28759E+00 -5.06549E+00
   2.24399E+00 -6.25933E+00 -9.69363E-01 -7.29379E+00 -9.57682E+00 -1.10428E-01 -3.50125E+00 -1.33252E+01 -3.93392E+00  7.67185E-01
   4.40351E+00 -6.64156E-01 -2.45999E-01 -4.26168E+00 -2.88347E+00 -4.25574E-01 -5.11251E-01 -1.22071E+00 -8.59085E-01 -5.86547E-01
   4.62227E+00  3.72423E+00 -5.28887E-01  6.23901E+00 -1.19792E+00  7.10575E-01  5.58454E+00  4.21999E-01 -2.52754E+00  1.22439E+00
   2.73078E-01  3.89767E+00  6.74116E+00  7.69246E+00  1.04007E+01  3.21751E+00 -7.09462E-01  7.02415E-01  6.30201E+00  4.36590E+00
   1.68765E+00  1.33516E+00  3.42184E+00  2.65648E+00  5.87576E+00  2.85640E+00  5.84821E+00  1.09456E+00 -2.99739E+00  7.45023E+00
   9.40516E+00 -1.52856E+00  6.34485E+00  7.73002E-01  1.18168E+00  1.73513E+00  5.32257E+00 -7.87736E+00  3.45518E+00 -6.49304E+00
   2.46344E+00 -1.94383E+00  6.18737E+00 -4.39865E+00 -6.34432E+00  6.61442E+00  4.22630E+00  7.61656E+00  5.10463E+00  1.28117E+00
   3.40888E+00  1.15764E+01  3.59971E+00 -1.12164E+00  8.75774E+00  6.31274E+00  2.64186E+00  1.89316E+00  4.39927E+00  5.09495E+00
   3.49910E+00  4.19514E+00  1.02122E+00  2.51632E+00  5.15304E+00  5.78363E+00  3.51780E+00  8.63231E+00
 NY points of the fit to the data follow
   7.11903E+01  6.97930E+01  6.94057E+01  6.78567E+01  6.77683E+01  6.63389E+01  6.67720E+01  6.59725E+01  6.58105E+01  6.38482E+01
   6.30776E+01  6.03740E+01  6.03361E+01  5.71356E+01  5.75984E+01  5.51364E+01  5.66498E+01  5.45897E+01  5.62903E+01  5.41541E+01
   5.60519E+01  5.40220E+01  5.59047E+01  5.32549E+01  5.50830E+01  5.19537E+01  5.37343E+01  5.02603E+01  5.19276E+01  4.82647E+01
   5.02879E+01  4.76815E+01  5.06745E+01  4.86652E+01  5.15730E+01  4.93058E+01  5.16235E+01  4.88988E+01  5.05556E+01  4.75552E+01
   4.86786E+01  4.57142E+01  4.66409E+01  4.42705E+01  4.52979E+01  4.36156E+01  4.45789E+01  4.33085E+01  4.33781E+01  4.14377E+01
   4.08841E+01  3.89125E+01  3.84494E+01  3.64738E+01  3.58286E+01  3.45138E+01  3.42640E+01  3.30707E+01  3.28314E+01  3.17039E+01
   3.14459E+01  3.03944E+01  2.99815E+01  2.85705E+01  2.80850E+01  2.64548E+01  2.59231E+01  2.41988E+01  2.37659E+01  2.21023E+01
   2.18429E+01  2.04466E+01  2.03313E+01  1.86182E+01  1.82645E+01  1.62941E+01  1.59055E+01  1.38674E+01  1.35565E+01  1.15320E+01
   1.14335E+01  9.47001E+00  9.49155E+00  8.20870E+00  9.47882E+00  8.11651E+00  9.68685E+00  7.79942E+00  9.35306E+00  7.05882E+00
   8.64931E+00  6.18432E+00  7.98053E+00  5.45062E+00  7.42952E+00  4.87253E+00  7.00393E+00  4.38278E+00  6.50257E+00  3.79814E+00
   5.83331E+00  3.08248E+00  4.93062E+00  2.21242E+00  3.87016E+00  1.23402E+00  2.62483E+00  2.80026E-01  1.66635E+00  5.07540E-01
   1.72058E+00  6.81576E-01  1.53545E+00  4.51471E-01  1.05349E+00  1.58708E-01  6.10607E-01 -2.42727E-01 -8.75384E-02 -9.52874E-01
  -1.04486E+00 -1.81520E+00 -1.92033E+00 -2.34310E+00 -1.86688E+00 -2.57692E+00 -2.16559E+00 -3.25715E+00 -2.94243E+00 -4.34739E+00
  -4.11988E+00 -5.89078E+00 -5.76035E+00 -7.82747E+00 -7.77000E+00 -1.00154E+01 -9.99672E+00 -1.22801E+01 -1.22646E+01 -1.45196E+01
  -1.45033E+01 -1.66701E+01 -1.66679E+01 -1.87151E+01 -1.87069E+01 -2.05568E+01 -2.05045E+01 -2.19801E+01 -2.17657E+01 -2.24968E+01
  -2.22765E+01 -2.29019E+01 -2.27672E+01 -2.32636E+01 -2.31793E+01 -2.35166E+01 -2.35114E+01 -2.38906E+01 -2.40475E+01 -2.44045E+01
  -2.46595E+01 -2.49016E+01 -2.51377E+01 -2.52722E+01 -2.54567E+01 -2.55819E+01 -2.57415E+01 -2.59240E+01 -2.60602E+01 -2.62589E+01
  -2.63430E+01 -2.64935E+01 -2.64473E+01 -2.65136E+01 -2.63889E+01 -2.65254E+01 -2.65564E+01 -2.68692E+01 -2.70939E+01 -2.77358E+01
  -2.79570E+01 -2.85154E+01 -2.84902E+01 -2.87244E+01 -2.82269E+01 -2.82465E+01 -2.76164E+01 -2.75405E+01 -2.69186E+01 -2.70694E+01
  -2.66755E+01 -2.73017E+01 -2.76014E+01 -2.83408E+01 -2.81323E+01 -2.87962E+01 -2.81107E+01 -2.87545E+01 -2.77170E+01 -2.84031E+01
  -2.71465E+01 -2.78275E+01 -2.63438E+01 -2.70247E+01 -2.53712E+01 -2.61095E+01 -2.44279E+01 -2.53083E+01 -2.36648E+01 -2.46049E+01
  -2.29725E+01 -2.38821E+01 -2.22342E+01 -2.31405E+01 -2.15616E+01 -2.24390E+01 -2.10794E+01 -2.20936E+01 -2.13588E+01 -2.23114E+01
  -2.15865E+01 -2.23320E+01 -2.13911E+01 -2.17545E+01 -2.07193E+01 -2.15278E+01 -2.06724E+01 -2.18480E+01 -2.11659E+01 -2.27627E+01
  -2.22087E+01 -2.41414E+01 -2.37319E+01 -2.54904E+01 -2.45183E+01 -2.61513E+01 -2.48634E+01 -2.64348E+01 -2.49586E+01 -2.65473E+01
  -2.48759E+01 -2.65368E+01 -2.47213E+01 -2.63397E+01 -2.44461E+01 -2.59963E+01 -2.40990E+01 -2.54667E+01 -2.35856E+01 -2.47290E+01
  -2.29145E+01 -2.38202E+01 -2.21535E+01 -2.29129E+01 -2.14703E+01 -2.20203E+01 -2.08040E+01 -2.12015E+01 -2.03221E+01 -2.03805E+01
  -1.95134E+01 -1.93512E+01 -1.85595E+01 -1.82002E+01 -1.76077E+01 -1.74618E+01 -1.70260E+01 -1.69325E+01 -1.65841E+01 -1.64997E+01
  -1.61479E+01 -1.60038E+01 -1.56036E+01 -1.52943E+01 -1.48599E+01 -1.44713E+01 -1.40477E+01 -1.36171E+01 -1.32295E+01 -1.28016E+01
  -1.24065E+01 -1.19865E+01 -1.15485E+01 -1.10766E+01 -1.05780E+01 -1.00425E+01 -9.47050E+00 -8.85433E+00 -8.19356E+00 -7.48212E+00
  -6.71498E+00 -5.89158E+00 -5.00191E+00 -4.04836E+00 -3.02302E+00 -1.93008E+00 -7.65641E-01  4.64662E-01  1.76240E+00  3.11939E+00
   4.53629E+00  6.01091E+00  7.55064E+00  9.16654E+00  1.08902E+01  1.27723E+01  1.49131E+01  1.74891E+01  2.07738E+01  2.37329E+01
   2.17890E+01  2.16009E+01  1.59445E+01  1.37368E+01  6.20577E+00  3.25132E+00 -3.89909E+00 -1.49683E+00 -5.93390E+00 -1.98391E+00
  -5.58168E+00 -2.00837E+00 -5.31237E+00 -2.33958E+00 -5.32510E+00 -2.42462E+00 -4.92519E+00 -2.30165E+00 -4.47591E+00 -2.63544E+00
  -4.76146E+00 -3.70713E+00 -5.03347E+00 -4.21618E+00 -4.33890E+00 -3.56244E+00 -2.46658E+00 -1.81875E+00 -2.39716E-01 -6.71192E-01
   9.42292E-01 -5.57165E-01  1.03088E+00 -1.14140E+00  8.84994E-01 -1.08218E+00  1.62893E+00 -6.48767E-02  2.87281E+00  8.05665E-01
   4.70628E-01 -3.47574E+00 -5.21179E+00 -9.62664E+00 -1.18847E+01 -1.56727E+01 -1.71898E+01 -1.75681E+01 -1.75827E+01 -1.74398E+01
  -1.72150E+01 -1.69443E+01 -1.66467E+01 -1.63337E+01 -1.60121E+01 -1.56865E+01 -1.53595E+01 -1.50330E+01 -1.47079E+01 -1.43848E+01
  -1.40639E+01 -1.37454E+01 -1.34291E+01 -1.31147E+01 -1.28020E+01 -1.24907E+01 -1.21805E+01 -1.18712E+01 -1.15625E+01 -1.12542E+01
  -1.09462E+01 -1.06385E+01 -1.03312E+01 -1.00244E+01 -9.71846E+00 -9.41389E+00 -9.11131E+00 -8.81152E+00 -8.51554E+00 -8.22452E+00
  -7.93979E+00 -7.66280E+00 -7.39508E+00 -7.13820E+00 -6.89369E+00 -6.66299E+00 -6.44729E+00 -6.24756E+00 -6.06440E+00 -5.89802E+00
  -5.74817E+00 -5.61415E+00 -5.49479E+00 -5.38848E+00 -5.29330E+00 -5.20698E+00 -5.12713E+00 -5.05123E+00 -4.97684E+00 -4.90160E+00
  -4.82342E+00 -4.74049E+00 -4.65138E+00 -4.55499E+00 -4.45063E+00 -4.33797E+00 -4.21702E+00 -4.08808E+00 -3.95169E+00 -3.80852E+00
  -3.65943E+00 -3.50526E+00 -3.34696E+00 -3.18540E+00 -3.02142E+00 -2.85577E+00 -2.68915E+00 -2.52215E+00 -2.35529E+00 -2.18899E+00
  -2.02359E+00 -1.85938E+00 -1.69656E+00 -1.53530E+00 -1.37574E+00 -1.21795E+00 -1.06200E+00 -9.07916E-01 -7.55709E-01 -6.05383E-01
  -4.56939E-01 -3.10352E-01 -1.65609E-01 -2.26690E-02  1.18471E-01  2.57859E-01  3.95505E-01  5.31456E-01  6.65734E-01  7.98380E-01
   9.29407E-01  1.05885E+00  1.18674E+00  1.31311E+00  1.43799E+00  1.56142E+00  1.68340E+00  1.80398E+00  1.92319E+00  2.04106E+00
   2.15762E+00  2.27291E+00  2.38694E+00  2.49976E+00  2.61140E+00  2.72191E+00  2.83131E+00  2.93964E+00  3.04694E+00  3.15325E+00
   3.25863E+00  3.36313E+00  3.46678E+00  3.56964E+00  3.67177E+00  3.77324E+00  3.87411E+00  3.97447E+00  4.07439E+00  4.17395E+00
   4.27326E+00  4.37244E+00  4.47159E+00  4.57087E+00  4.67040E+00  4.77039E+00  4.87101E+00  4.97250E+00  5.07513E+00  5.17918E+00
   5.28501E+00  5.39305E+00  5.50380E+00  5.61786E+00  5.73599E+00  5.85910E+00  5.98838E+00  6.12538E+00
 NY background values follow
     4.444E+01    4.390E+01    4.337E+01    4.284E+01    4.230E+01    4.177E+01    4.124E+01    4.070E+01    4.017E+01    3.964E+01
     3.910E+01    3.857E+01    3.804E+01    3.750E+01    3.697E+01    3.644E+01    3.591E+01    3.538E+01    3.485E+01    3.432E+01
     3.379E+01    3.326E+01    3.273E+01    3.221E+01    3.168E+01    3.115E+01    3.063E+01    3.010E+01    2.958E+01    2.906E+01
     2.854E+01    2.802E+01    2.750E+01    2.698E+01    2.646E+01    2.594E+01    2.543E+01    2.492E+01    2.440E+01    2.389E+01
     2.338E+01    2.287E+01    2.237E+01    2.186E+01    2.136E+01    2.085E+01    2.035E+01    1.985E+01    1.935E+01    1.886E+01
     1.836E+01    1.787E+01    1.738E+01    1.689E+01    1.640E+01    1.592E+01    1.543E+01    1.495E+01    1.447E+01    1.399E+01
     1.352E+01    1.304E+01    1.257E+01    1.210E+01    1.164E+01    1.117E+01    1.071E+01    1.025E+01    9.789E+00    9.333E+00
     8.879E+00    8.427E+00    7.978E+00    7.531E+00    7.087E+00    6.645E+00    6.205E+00    5.768E+00    5.333E+00    4.901E+00
     4.471E+00    4.044E+00    3.619E+00    3.197E+00    2.777E+00    2.360E+00    1.945E+00    1.533E+00    1.124E+00    7.169E-01
     3.128E-01   -8.864E-02   -4.874E-01   -8.834E-01   -1.277E+00   -1.667E+00   -2.055E+00   -2.440E+00   -2.822E+00   -3.202E+00
    -3.578E+00   -3.952E+00   -4.323E+00   -4.691E+00   -5.056E+00   -5.419E+00   -5.778E+00   -6.134E+00   -6.488E+00   -6.838E+00
    -7.186E+00   -7.531E+00   -7.872E+00   -8.211E+00   -8.546E+00   -8.879E+00   -9.208E+00   -9.534E+00   -9.858E+00   -1.018E+01
    -1.049E+01   -1.081E+01   -1.112E+01   -1.143E+01   -1.173E+01   -1.203E+01   -1.233E+01   -1.263E+01   -1.292E+01   -1.321E+01
    -1.349E+01   -1.377E+01   -1.405E+01   -1.433E+01   -1.460E+01   -1.487E+01   -1.513E+01   -1.540E+01   -1.566E+01   -1.591E+01
    -1.617E+01   -1.642E+01   -1.666E+01   -1.690E+01   -1.714E+01   -1.738E+01   -1.761E+01   -1.784E+01   -1.807E+01   -1.829E+01
    -1.851E+01   -1.873E+01   -1.894E+01   -1.915E+01   -1.936E+01   -1.956E+01   -1.976E+01   -1.996E+01   -2.015E+01   -2.034E+01
    -2.053E+01   -2.071E+01   -2.089E+01   -2.106E+01   -2.124E+01   -2.141E+01   -2.157E+01   -2.174E+01   -2.190E+01   -2.205E+01
    -2.220E+01   -2.235E+01   -2.250E+01   -2.264E+01   -2.278E+01   -2.292E+01   -2.305E+01   -2.318E+01   -2.330E+01   -2.343E+01
    -2.354E+01   -2.366E+01   -2.377E+01   -2.388E+01   -2.399E+01   -2.409E+01   -2.419E+01   -2.428E+01   -2.437E+01   -2.446E+01
    -2.455E+01   -2.463E+01   -2.471E+01   -2.478E+01   -2.485E+01   -2.492E+01   -2.499E+01   -2.505E+01   -2.511E+01   -2.516E+01
    -2.521E+01   -2.526E+01   -2.531E+01   -2.535E+01   -2.539E+01   -2.542E+01   -2.546E+01   -2.549E+01   -2.551E+01   -2.553E+01
    -2.555E+01   -2.557E+01   -2.559E+01   -2.560E+01   -2.560E+01   -2.561E+01   -2.561E+01   -2.561E+01   -2.560E+01   -2.559E+01
    -2.558E+01   -2.557E+01   -2.555E+01   -2.553E+01   -2.551E+01   -2.548E+01   -2.545E+01   -2.542E+01   -2.539E+01   -2.535E+01
    -2.531E+01   -2.527E+01   -2.522E+01   -2.517E+01   -2.512E+01   -2.506E+01   -2.501E+01   -2.495E+01   -2.488E+01   -2.482E+01
    -2.475E+01   -2.467E+01   -2.460E+01   -2.452E+01   -2.444E+01   -2.436E+01   -2.428E+01   -2.419E+01   -2.410E+01   -2.400E+01
    -2.391E+01   -2.381E+01   -2.371E+01   -2.361E+01   -2.350E+01   -2.339E+01   -2.328E+01   -2.317E+01   -2.305E+01   -2.294E+01
    -2.282E+01   -2.269E+01   -2.257E+01   -2.244E+01   -2.232E+01   -2.219E+01   -2.206E+01   -2.192E+01   -2.179E+01   -2.165E+01
    -2.151E+01   -2.137E+01   -2.123E+01   -2.108E+01   -2.094E+01   -2.079E+01   -2.064E+01   -2.049E+01   -2.034E+01   -2.019E+01
    -2.003E+01   -1.988E+01   -1.972E+01   -1.956E+01   -1.940E+01   -1.924E+01   -1.908E+01   -1.891E+01   -1.875E+01   -1.858E+01
    -1.842E+01   -1.825E+01   -1.808E+01   -1.791E+01   -1.775E+01   -1.757E+01   -1.740E+01   -1.723E+01   -1.706E+01   -1.689E+01
    -1.671E+01   -1.654E+01   -1.636E+01   -1.619E+01   -1.601E+01   -1.583E+01   -1.566E+01   -1.548E+01   -1.530E+01   -1.512E+01
    -1.495E+01   -1.477E+01   -1.459E+01   -1.441E+01   -1.423E+01   -1.405E+01   -1.387E+01   -1.369E+01   -1.351E+01   -1.333E+01
    -1.315E+01   -1.297E+01   -1.279E+01   -1.261E+01   -1.243E+01   -1.225E+01   -1.207E+01   -1.189E+01   -1.171E+01   -1.153E+01
    -1.135E+01   -1.117E+01   -1.099E+01   -1.081E+01   -1.063E+01   -1.045E+01   -1.027E+01   -1.009E+01   -9.914E+00   -9.735E+00
    -9.557E+00   -9.378E+00   -9.200E+00   -9.022E+00   -8.844E+00   -8.666E+00   -8.489E+00   -8.312E+00   -8.135E+00   -7.959E+00
    -7.783E+00   -7.607E+00   -7.432E+00   -7.257E+00   -7.083E+00   -6.909E+00   -6.735E+00   -6.561E+00   -6.389E+00   -6.216E+00
    -6.044E+00   -5.873E+00   -5.702E+00   -5.531E+00   -5.361E+00   -5.192E+00   -5.023E+00   -4.855E+00   -4.687E+00   -4.520E+00
    -4.353E+00   -4.187E+00   -4.022E+00   -3.857E+00   -3.693E+00   -3.529E+00   -3.366E+00   -3.204E+00   -3.043E+00   -2.882E+00
    -2.722E+00   -2.562E+00   -2.404E+00   -2.246E+00   -2.089E+00   -1.932E+00   -1.777E+00   -1.622E+00   -1.468E+00   -1.314E+00
    -1.162E+00   -1.010E+00   -8.597E-01   -7.099E-01   -5.608E-01   -4.127E-01   -2.654E-01   -1.191E-01    2.641E-02    1.710E-01
     3.146E-01    4.573E-01    5.990E-01    7.398E-01    8.797E-01    1.019E+00    1.156E+00    1.293E+00    1.429E+00    1.564E+00
     1.698E+00    1.831E+00    1.963E+00    2.093E+00    2.223E+00    2.352E+00    2.479E+00    2.606E+00    2.731E+00    2.855E+00
     2.979E+00    3.101E+00    3.222E+00    3.342E+00    3.460E+00    3.578E+00    3.694E+00    3.810E+00    3.924E+00    4.037E+00
     4.148E+00    4.259E+00    4.368E+00    4.476E+00    4.583E+00    4.689E+00    4.794E+00    4.897E+00    4.999E+00    5.100E+00
     5.200E+00    5.298E+00    5.396E+00    5.492E+00    5.587E+00    5.680E+00    5.773E+00    5.864E+00    5.954E+00    6.043E+00
     6.131E+00    6.217E+00    6.302E+00    6.386E+00    6.469E+00    6.551E+00    6.631E+00    6.710E+00    6.788E+00    6.865E+00
     6.941E+00    7.015E+00    7.088E+00    7.160E+00    7.231E+00    7.301E+00    7.369E+00    7.436E+00    7.503E+00    7.567E+00
     7.631E+00    7.693E+00    7.755E+00    7.815E+00    7.873E+00    7.931E+00    7.988E+00    8.043E+00    8.097E+00    8.150E+00
     8.201E+00    8.252E+00    8.301E+00    8.349E+00    8.396E+00    8.442E+00    8.486E+00    8.530E+00    8.572E+00    8.613E+00
     8.652E+00    8.691E+00    8.728E+00    8.764E+00    8.799E+00    8.833E+00    8.866E+00    8.897E+00
 Ala      Conc. = 1.49E+04
