 LCModel (Version 6.3-1L) Copyright: S.W. Provencher.          Ref.: Magn. Reson. Med. 30:672-679 (1993).                
 Slice#3 Row#9 Col#11  PD_24_press_2_raw_act
 36 lines in following concentration table = NCONC+1
    Conc.  %SD /Cr+PCr  Metabolite                                         
    0.000 999%   0.000 Ala                                                 
    0.000 999%   0.000 Asp                                                 
  332.789  95%   0.404 Cr                                                  
  490.952  65%   0.596 PCr                                                 
   54.753 172% 6.6E-02 GABA                                                
   93.558 101%   0.114 Glc                                                 
  316.704  79%   0.384 Gln                                                 
  875.586  31%   1.063 Glu                                                 
  198.526  11%   0.241 GPC                                                 
    0.000 999%   0.000 PCh                                                 
  205.812  40%   0.250 GSH                                                 
 1.03E+03  26%   1.252 Ins                                                 
    0.000 999%   0.000 Lac                                                 
 1.15E+03   8%   1.393 NAA                                                 
  120.520  81%   0.146 NAAG                                                
   60.952  38% 7.4E-02 Scyllo                                              
  103.579 135%   0.126 Tau                                                 
  166.588 127%   0.202 -CrCH2                                              
  198.526  11%   0.241 GPC+PCh                                             
 1.27E+03   6%   1.539 NAA+NAAG                                            
  823.741   8%   1.000 Cr+PCr                                              
 1.19E+03  32%   1.447 Glu+Gln                                             
  529.510  68%   0.643 Lip13a                                              
    0.000 999%   0.000 Lip13b                                              
  137.487  76%   0.167 Lip09                                               
  823.733  19%   1.000 MM09                                                
   72.321  83% 8.8E-02 Lip20                                               
    0.000 999%   0.000 MM20                                                
  193.713  85%   0.235 MM12                                                
 5.44E+03   9%   6.609+MM14                                                
 2.45E+03  17%   2.979+MM17                                                
  529.510  68%   0.643 Lip13a+Lip13b                                       
 6.17E+03   9%   7.487 MM14+Lip13a+Lip13b+MM12                             
  961.220  17%   1.167 MM09+Lip09                                          
   72.321  83% 8.8E-02 MM20+Lip20                                          
   6 lines in following misc. output table
  FWHM = 0.046 ppm    S/N =   8                                            
  Data shift = 0.138 ppm                                                   
  Ph:  13 deg      -1.8 deg/ppm                                            
  alphaB,S = 4.8E+00,   5.1E+01                                            
    7 spline knots.   Ns = 9(2)                                            
  ( 9) 6 infls.   (11) 7 extrs.                                            
  498 points on ppm-axis = NY
      4.000000     3.992357     3.984714     3.977070     3.969427     3.961784     3.954141     3.946497     3.938854     3.931211
      3.923568     3.915925     3.908281     3.900638     3.892995     3.885352     3.877708     3.870065     3.862422     3.854779
      3.847136     3.839492     3.831849     3.824206     3.816563     3.808919     3.801276     3.793633     3.785990     3.778347
      3.770703     3.763060     3.755417     3.747774     3.740130     3.732487     3.724844     3.717201     3.709558     3.701914
      3.694271     3.686628     3.678985     3.671341     3.663698     3.656055     3.648412     3.640769     3.633125     3.625482
      3.617839     3.610196     3.602552     3.594909     3.587266     3.579623     3.571980     3.564336     3.556693     3.549050
      3.541407     3.533763     3.526120     3.518477     3.510834     3.503191     3.495547     3.487904     3.480261     3.472618
      3.464974     3.457331     3.449688     3.442045     3.434402     3.426758     3.419115     3.411472     3.403829     3.396185
      3.388542     3.380899     3.373256     3.365613     3.357969     3.350326     3.342683     3.335040     3.327396     3.319753
      3.312110     3.304467     3.296824     3.289180     3.281537     3.273894     3.266251     3.258607     3.250964     3.243321
      3.235678     3.228034     3.220391     3.212748     3.205105     3.197462     3.189818     3.182175     3.174532     3.166889
      3.159245     3.151602     3.143959     3.136316     3.128673     3.121029     3.113386     3.105743     3.098100     3.090456
      3.082813     3.075170     3.067527     3.059884     3.052240     3.044597     3.036954     3.029311     3.021667     3.014024
      3.006381     2.998738     2.991095     2.983451     2.975808     2.968165     2.960522     2.952878     2.945235     2.937592
      2.929949     2.922306     2.914662     2.907019     2.899376     2.891733     2.884089     2.876446     2.868803     2.861160
      2.853517     2.845873     2.838230     2.830587     2.822944     2.815300     2.807657     2.800014     2.792371     2.784728
      2.777084     2.769441     2.761798     2.754155     2.746511     2.738868     2.731225     2.723582     2.715939     2.708295
      2.700652     2.693009     2.685366     2.677722     2.670079     2.662436     2.654793     2.647150     2.639506     2.631863
      2.624220     2.616577     2.608933     2.601290     2.593647     2.586004     2.578361     2.570717     2.563074     2.555431
      2.547788     2.540144     2.532501     2.524858     2.517215     2.509572     2.501928     2.494285     2.486642     2.478999
      2.471355     2.463712     2.456069     2.448426     2.440783     2.433139     2.425496     2.417853     2.410210     2.402566
      2.394923     2.387280     2.379637     2.371994     2.364350     2.356707     2.349064     2.341421     2.333777     2.326134
      2.318491     2.310848     2.303205     2.295561     2.287918     2.280275     2.272632     2.264988     2.257345     2.249702
      2.242059     2.234416     2.226772     2.219129     2.211486     2.203843     2.196199     2.188556     2.180913     2.173270
      2.165627     2.157983     2.150340     2.142697     2.135054     2.127410     2.119767     2.112124     2.104481     2.096838
      2.089194     2.081551     2.073908     2.066265     2.058621     2.050978     2.043335     2.035692     2.028049     2.020405
      2.012762     2.005119     1.997476     1.989833     1.982190     1.974546     1.966903     1.959260     1.951617     1.943974
      1.936331     1.928688     1.921045     1.913402     1.905759     1.898115     1.890472     1.882829     1.875186     1.867543
      1.859900     1.852257     1.844614     1.836971     1.829327     1.821684     1.814041     1.806398     1.798755     1.791112
      1.783469     1.775826     1.768183     1.760540     1.752896     1.745253     1.737610     1.729967     1.722324     1.714681
      1.707038     1.699395     1.691752     1.684108     1.676465     1.668822     1.661179     1.653536     1.645893     1.638250
      1.630607     1.622964     1.615321     1.607677     1.600034     1.592391     1.584748     1.577105     1.569462     1.561819
      1.554176     1.546533     1.538890     1.531246     1.523603     1.515960     1.508317     1.500674     1.493031     1.485388
      1.477745     1.470102     1.462458     1.454815     1.447172     1.439529     1.431886     1.424243     1.416600     1.408957
      1.401314     1.393671     1.386027     1.378384     1.370741     1.363098     1.355455     1.347812     1.340169     1.332526
      1.324883     1.317240     1.309596     1.301953     1.294310     1.286667     1.279024     1.271381     1.263738     1.256095
      1.248452     1.240808     1.233165     1.225522     1.217879     1.210236     1.202593     1.194950     1.187307     1.179664
      1.172021     1.164377     1.156734     1.149091     1.141448     1.133805     1.126162     1.118519     1.110876     1.103233
      1.095590     1.087946     1.080303     1.072660     1.065017     1.057374     1.049731     1.042088     1.034445     1.026802
      1.019158     1.011515     1.003872     0.996229     0.988586     0.980943     0.973300     0.965657     0.958014     0.950371
      0.942727     0.935084     0.927441     0.919798     0.912155     0.904512     0.896869     0.889226     0.881583     0.873940
      0.866296     0.858653     0.851010     0.843367     0.835724     0.828081     0.820438     0.812795     0.805152     0.797508
      0.789865     0.782222     0.774579     0.766936     0.759293     0.751650     0.744007     0.736364     0.728721     0.721077
      0.713434     0.705791     0.698148     0.690505     0.682862     0.675219     0.667576     0.659933     0.652290     0.644646
      0.637003     0.629360     0.621717     0.614074     0.606431     0.598788     0.591145     0.583502     0.575858     0.568215
      0.560572     0.552929     0.545286     0.537643     0.530000     0.522357     0.514714     0.507071     0.499427     0.491784
      0.484141     0.476498     0.468855     0.461212     0.453569     0.445925     0.438282     0.430639     0.422996     0.415353
      0.407710     0.400067     0.392424     0.384780     0.377137     0.369494     0.361851     0.354208     0.346565     0.338922
      0.331278     0.323635     0.315992     0.308349     0.300706     0.293063     0.285420     0.277777     0.270133     0.262490
      0.254847     0.247204     0.239561     0.231918     0.224275     0.216631     0.208988     0.201345
 NY phased data points follow
   1.22890E+01  1.29021E+01  1.01988E+01  1.28125E+01  1.14303E+01  1.38459E+01  1.05809E+01  1.06411E+01  1.17075E+01  9.82015E+00
   1.11564E+01  9.32116E+00  1.19154E+01  8.97297E+00  9.71868E+00  1.33315E+01  9.55170E+00  1.12039E+01  1.24078E+01  1.16838E+01
   1.30889E+01  8.94216E+00  1.26448E+01  1.21700E+01  1.11327E+01  9.61457E+00  1.03575E+01  7.77251E+00  1.21854E+01  1.09301E+01
   1.18018E+01  1.18984E+01  1.00220E+01  1.11834E+01  1.08760E+01  1.10519E+01  5.64878E+00  1.33596E+01  1.21216E+01  8.06638E+00
   9.86147E+00  1.45206E+01  1.22624E+01  1.24548E+01  9.88783E+00  1.02798E+01  8.82759E+00  1.07156E+01  1.10323E+01  7.63274E+00
   7.67277E+00  6.45578E+00  1.03031E+01  8.75637E+00  9.74485E+00  8.56567E+00  5.86229E+00  8.37519E+00  5.24467E+00  5.66913E+00
   9.18101E+00  7.13008E+00  7.70125E+00  3.99134E+00  7.54559E+00  6.96953E+00  8.32811E+00  1.00907E+01  8.92650E+00  5.62619E+00
   6.50819E+00  1.06275E+01  7.00928E+00  9.04782E+00  7.87059E+00  8.57203E+00  6.85752E+00  5.17902E+00  6.11917E+00  5.32820E+00
   7.94137E+00  6.61941E+00  7.59660E+00  8.78176E+00  1.16952E+01  8.97456E+00  1.30031E+01  1.44979E+01  1.87124E+01  2.01704E+01
   1.62539E+01  1.34588E+01  1.04580E+01  1.14142E+01  1.19989E+01  5.53831E+00  7.61883E+00  6.78201E+00  8.56503E+00  6.77445E+00
   4.88355E+00  6.97403E+00  3.40917E+00  4.56866E+00  5.79376E+00  4.80044E+00  5.21476E+00  7.56092E+00  8.84246E+00  1.11985E+01
   1.66552E+01  2.07317E+01  2.10903E+01  2.45266E+01  2.33602E+01  1.86824E+01  1.83477E+01  1.45941E+01  9.28042E+00  1.22587E+01
   8.63788E+00  8.48322E+00  9.07107E+00  6.40054E+00  1.05446E+01  8.97526E+00  8.39820E+00  6.53551E+00  6.90837E+00  6.98503E+00
   8.27648E+00  9.62359E+00  7.05943E+00  7.02068E+00  7.31891E+00  5.13366E+00  7.00095E+00  4.21223E+00  6.16492E+00  8.71569E+00
   6.44287E+00  5.87747E+00  6.92100E+00  3.94957E+00  4.56301E+00  5.98998E+00  6.63403E+00  3.81756E+00  5.77922E+00  3.63198E+00
   4.39015E+00  5.25098E+00  4.80059E+00  5.66917E+00  2.30548E+00  4.06730E+00  4.51246E-01  1.79468E+00 -4.76487E-01  1.77766E+00
   2.94029E-01  3.01653E-01  2.10136E-01  1.09799E+00  2.13670E+00  1.26182E-02  1.84621E+00  1.49049E+00 -9.78201E-01 -1.21031E+00
   1.10545E+00  1.25170E+00 -1.17840E+00  6.42819E-01 -1.23031E+00 -7.87821E-01  4.83900E+00  2.45424E+00  4.04455E+00  3.16749E+00
  -6.89563E-01  1.81359E+00 -1.87646E+00  2.19207E+00  2.55326E+00  2.38054E+00  2.95685E+00  2.81765E+00  5.03508E+00  1.80189E+00
   2.65404E+00  2.93936E+00  5.76801E+00  2.15948E+00  3.34572E+00  4.78935E+00  2.65595E+00  5.61513E+00  4.02701E+00  6.68645E+00
   9.13234E+00  1.05033E+01  1.10350E+01  2.99258E+00  6.83093E+00  7.55705E+00  3.62969E+00  2.70416E+00  7.08007E+00  3.25171E-01
   6.79674E+00  4.10292E+00  6.95624E+00  4.83965E+00  5.94781E+00  8.93615E+00  6.49603E+00  3.67462E+00  6.77200E+00  6.56158E+00
   4.89519E+00  9.82024E+00  3.92338E+00  5.07933E+00  6.99221E+00  6.88160E+00  2.69715E+00  3.39011E+00  3.92607E+00  3.14058E+00
   2.88363E+00  7.56749E+00  9.35680E+00  6.79225E+00  6.01942E+00  5.65042E+00  6.99761E+00  4.91711E+00  7.18182E+00  8.02909E+00
   1.29774E+01  9.17662E+00  1.77050E+01  1.74952E+01  2.42219E+01  3.59153E+01  3.73678E+01  3.24521E+01  3.03731E+01  2.46162E+01
   2.33878E+01  1.55705E+01  1.55970E+01  1.33270E+01  1.19243E+01  1.38243E+01  1.03811E+01  1.36255E+01  1.08529E+01  1.24137E+01
   1.03548E+01  9.30983E+00  8.23620E+00  8.20205E+00  1.01249E+01  1.08009E+01  9.70715E+00  1.07248E+01  1.22166E+01  1.02696E+01
   8.30542E+00  7.55468E+00  8.57223E+00  7.43986E+00  1.03499E+01  7.99474E+00  7.88095E+00  1.52217E+01  1.09839E+01  1.14929E+01
   1.19158E+01  1.27612E+01  1.45907E+01  1.17439E+01  1.18789E+01  1.38961E+01  1.29592E+01  1.07617E+01  1.14302E+01  1.19986E+01
   1.39393E+01  1.75791E+01  1.71786E+01  1.83502E+01  1.72996E+01  1.88812E+01  2.12271E+01  2.17357E+01  2.31056E+01  1.99104E+01
   2.71134E+01  2.56012E+01  2.94946E+01  3.30515E+01  3.37403E+01  3.16533E+01  3.57970E+01  3.69346E+01  3.75712E+01  4.14924E+01
   4.21472E+01  4.18567E+01  4.27218E+01  4.61714E+01  5.07555E+01  4.75051E+01  5.14350E+01  4.85000E+01  5.17087E+01  4.99744E+01
   4.84267E+01  4.86838E+01  4.54109E+01  4.48732E+01  4.61328E+01  4.41623E+01  3.83980E+01  3.63868E+01  3.61558E+01  3.26828E+01
   2.72704E+01  3.02719E+01  2.84265E+01  2.85306E+01  2.50983E+01  2.04795E+01  2.14448E+01  1.95376E+01  1.95136E+01  2.28780E+01
   1.69082E+01  1.88332E+01  1.79412E+01  1.84583E+01  1.53164E+01  1.42331E+01  1.34283E+01  1.25200E+01  1.51239E+01  1.45989E+01
   1.31702E+01  1.43031E+01  1.33940E+01  9.12609E+00  1.14265E+01  1.57937E+01  1.23523E+01  1.39787E+01  1.20523E+01  1.24095E+01
   9.40895E+00  1.14323E+01  9.43400E+00  1.25733E+01  1.49859E+01  1.43648E+01  1.14576E+01  1.28505E+01  1.15187E+01  1.06445E+01
   1.22217E+01  8.52080E+00  1.14350E+01  1.10305E+01  1.10942E+01  1.26984E+01  1.37322E+01  1.19322E+01  9.24962E+00  1.51334E+01
   9.38128E+00  1.09776E+01  1.16012E+01  1.31876E+01  1.32252E+01  1.16105E+01  8.44387E+00  1.29196E+01  1.57059E+01  1.34463E+01
   1.66584E+01  1.34179E+01  1.38654E+01  1.44126E+01  1.51476E+01  1.60450E+01  1.29842E+01  1.36868E+01  1.28954E+01  1.50603E+01
   1.59295E+01  1.64645E+01  1.50210E+01  1.34311E+01  1.65117E+01  1.29558E+01  1.68955E+01  1.56089E+01  1.34447E+01  1.26465E+01
   1.46787E+01  1.61484E+01  1.13215E+01  1.37942E+01  1.44735E+01  1.61927E+01  1.24084E+01  1.12912E+01  9.98405E+00  1.25495E+01
   1.30738E+01  1.12170E+01  1.19083E+01  1.27058E+01  8.79270E+00  1.16916E+01  1.11488E+01  1.14745E+01  1.27517E+01  1.14560E+01
   1.20464E+01  1.39136E+01  1.31996E+01  8.84204E+00  1.25637E+01  1.27062E+01  1.36614E+01  8.85207E+00  1.14313E+01  1.34282E+01
   1.12925E+01  1.07945E+01  1.24071E+01  8.15056E+00  1.16364E+01  1.20996E+01  1.03918E+01  1.10651E+01  9.79490E+00  7.64578E+00
   1.02059E+01  9.70882E+00  1.18271E+01  1.12203E+01  7.00032E+00  4.78671E+00  9.67720E+00  1.21788E+01  1.06702E+01  8.57483E+00
   1.13015E+01  1.27957E+01  9.32662E+00  1.23022E+01  1.29605E+01  6.72402E+00  6.59991E+00  9.95728E+00  9.53869E+00  6.32314E+00
   8.29856E+00  6.67228E+00  6.36251E+00  7.36324E+00  1.11201E+01  9.52961E+00  4.19628E+00  1.16306E+01  5.98406E+00  1.10640E+01
   5.69495E+00  8.57863E+00  6.90343E+00  6.73792E+00  6.16192E+00  7.71308E+00  7.63482E+00  5.63866E+00  7.58572E+00  5.54391E+00
   7.63763E+00  6.77557E+00  8.42978E+00  5.02539E+00  4.53259E+00  6.88086E+00  6.94485E+00  4.78436E+00
 NY points of the fit to the data follow
   1.42752E+01  1.28884E+01  1.22617E+01  1.14800E+01  1.11992E+01  1.10384E+01  1.08087E+01  1.08602E+01  1.05508E+01  1.02710E+01
   9.78173E+00  9.63251E+00  9.79908E+00  1.02490E+01  1.12352E+01  1.20603E+01  1.31869E+01  1.33232E+01  1.34955E+01  1.27369E+01
   1.21721E+01  1.10484E+01  1.02847E+01  9.61554E+00  9.48881E+00  9.22518E+00  9.44451E+00  9.51775E+00  1.00197E+01  1.06151E+01
   1.14917E+01  1.20341E+01  1.22712E+01  1.24788E+01  1.20276E+01  1.13313E+01  1.04180E+01  9.56359E+00  8.93980E+00  8.35277E+00
   8.15574E+00  8.24959E+00  8.51453E+00  9.03031E+00  9.23105E+00  9.57697E+00  9.39863E+00  9.17093E+00  8.73382E+00  8.27933E+00
   7.81197E+00  7.77078E+00  7.54878E+00  7.98458E+00  7.85525E+00  8.38938E+00  8.23809E+00  8.50088E+00  8.40998E+00  8.46204E+00
   8.38267E+00  8.26351E+00  8.14200E+00  8.06606E+00  7.93369E+00  7.82865E+00  7.55282E+00  7.41992E+00  7.58937E+00  7.58561E+00
   7.80647E+00  7.67795E+00  7.48391E+00  7.29747E+00  6.74555E+00  6.70828E+00  6.32422E+00  6.44056E+00  6.41173E+00  6.36370E+00
   6.54698E+00  6.39159E+00  6.66460E+00  7.19285E+00  9.83450E+00  1.13683E+01  1.44021E+01  1.59451E+01  1.69999E+01  1.74381E+01
   1.53925E+01  1.46580E+01  1.17330E+01  1.07967E+01  8.88317E+00  8.35014E+00  7.68155E+00  7.64053E+00  7.56364E+00  7.60237E+00
   7.27221E+00  7.11821E+00  6.41677E+00  6.23714E+00  5.88043E+00  5.99695E+00  6.39301E+00  7.26626E+00  9.80693E+00  1.34939E+01
   1.63582E+01  2.07139E+01  2.12986E+01  2.36154E+01  2.14542E+01  2.06102E+01  1.73893E+01  1.53996E+01  1.30782E+01  1.15369E+01
   1.01096E+01  9.35901E+00  7.99140E+00  7.80646E+00  7.43721E+00  7.30626E+00  6.92728E+00  6.41602E+00  6.31637E+00  6.04992E+00
   6.36560E+00  6.66271E+00  6.69790E+00  6.81613E+00  6.51879E+00  6.39313E+00  5.85405E+00  5.47428E+00  5.36608E+00  5.41463E+00
   5.43324E+00  5.56752E+00  5.56530E+00  5.64129E+00  5.38149E+00  4.98932E+00  4.38978E+00  3.49377E+00  3.49753E+00  3.48997E+00
   3.43548E+00  3.46414E+00  3.16626E+00  3.10877E+00  2.82770E+00  2.78612E+00  2.66224E+00  2.53987E+00  2.35956E+00  2.26839E+00
   2.12533E+00  2.16270E+00  2.10108E+00  2.05809E+00  2.19098E+00  1.95874E+00  2.22714E+00  1.92027E+00  2.15986E+00  1.86457E+00
   2.16443E+00  2.03387E+00  2.53987E+00  2.66824E+00  3.39579E+00  3.65995E+00  4.21582E+00  4.33753E+00  4.45897E+00  4.38723E+00
   4.00198E+00  4.08012E+00  3.56856E+00  3.90459E+00  3.65694E+00  4.31561E+00  4.64057E+00  5.37060E+00  5.74098E+00  5.96093E+00
   6.03843E+00  5.39595E+00  4.83632E+00  4.02616E+00  3.26980E+00  2.97213E+00  2.85182E+00  3.46468E+00  4.58535E+00  5.10948E+00
   6.79559E+00  6.41607E+00  7.38353E+00  5.74668E+00  5.27618E+00  3.53371E+00  2.88870E+00  2.19090E+00  2.33235E+00  2.81143E+00
   3.77163E+00  4.63099E+00  5.39920E+00  5.70592E+00  5.72836E+00  5.53908E+00  5.20899E+00  5.02722E+00  4.96518E+00  5.30221E+00
   5.68221E+00  6.10663E+00  6.36773E+00  6.56104E+00  6.18011E+00  5.77833E+00  5.10606E+00  4.73587E+00  4.61958E+00  4.52880E+00
   5.12727E+00  5.19402E+00  5.86019E+00  5.76723E+00  5.96504E+00  5.69606E+00  5.67031E+00  5.99507E+00  6.71477E+00  7.34510E+00
   8.66945E+00  1.05609E+01  1.71985E+01  1.99491E+01  2.75415E+01  2.92715E+01  3.30907E+01  3.22035E+01  2.95358E+01  2.69208E+01
   2.22640E+01  1.98014E+01  1.66174E+01  1.51731E+01  1.41381E+01  1.35320E+01  1.34486E+01  1.30976E+01  1.26825E+01  1.22420E+01
   1.13156E+01  1.08500E+01  1.05011E+01  1.04598E+01  1.12578E+01  1.13074E+01  1.16170E+01  1.15239E+01  1.13888E+01  1.10823E+01
   1.03590E+01  1.01927E+01  1.04197E+01  1.04250E+01  1.06947E+01  1.07549E+01  1.11567E+01  1.12441E+01  1.12221E+01  1.09120E+01
   9.53622E+00  9.36959E+00  9.56820E+00  9.83518E+00  1.01697E+01  1.05973E+01  1.10778E+01  1.16354E+01  1.22737E+01  1.29991E+01
   1.38038E+01  1.46866E+01  1.56410E+01  1.66607E+01  1.77527E+01  1.89236E+01  2.01658E+01  2.14805E+01  2.28578E+01  2.42940E+01
   2.57801E+01  2.73126E+01  2.88744E+01  3.04689E+01  3.20831E+01  3.37160E+01  3.53497E+01  3.69843E+01  3.85965E+01  4.01778E+01
   4.16987E+01  4.31479E+01  4.44861E+01  4.57002E+01  4.67494E+01  4.76160E+01  4.82616E+01  4.86728E+01  4.88181E+01  4.86952E+01
   4.82825E+01  4.75938E+01  4.66242E+01  4.54027E+01  4.39406E+01  4.22805E+01  4.04454E+01  3.84871E+01  3.64339E+01  3.43401E+01
   3.22331E+01  3.01630E+01  2.81506E+01  2.62371E+01  2.44333E+01  2.27690E+01  2.12437E+01  1.98763E+01  1.86563E+01  1.75937E+01
   1.66700E+01  1.58892E+01  1.52282E+01  1.46877E+01  1.42426E+01  1.38926E+01  1.36129E+01  1.34038E+01  1.32417E+01  1.31288E+01
   1.30433E+01  1.29894E+01  1.29474E+01  1.29235E+01  1.29002E+01  1.28855E+01  1.28635E+01  1.28439E+01  1.28125E+01  1.27802E+01
   1.27340E+01  1.26860E+01  1.26241E+01  1.25612E+01  1.24858E+01  1.24116E+01  1.23275E+01  1.22473E+01  1.21603E+01  1.20805E+01
   1.19972E+01  1.19244E+01  1.18515E+01  1.17924E+01  1.17364E+01  1.16973E+01  1.16644E+01  1.16514E+01  1.16473E+01  1.16657E+01
   1.16957E+01  1.17505E+01  1.18190E+01  1.19141E+01  1.20243E+01  1.21621E+01  1.23152E+01  1.24954E+01  1.26894E+01  1.29081E+01
   1.31370E+01  1.33855E+01  1.36381E+01  1.39028E+01  1.41628E+01  1.44252E+01  1.46723E+01  1.49107E+01  1.51226E+01  1.53147E+01
   1.54702E+01  1.55967E+01  1.56788E+01  1.57261E+01  1.57252E+01  1.56880E+01  1.56035E+01  1.54856E+01  1.53253E+01  1.51386E+01
   1.49178E+01  1.46798E+01  1.44177E+01  1.41487E+01  1.38656E+01  1.35852E+01  1.32997E+01  1.30246E+01  1.27512E+01  1.24938E+01
   1.22424E+01  1.20103E+01  1.17864E+01  1.15829E+01  1.13880E+01  1.12132E+01  1.10461E+01  1.08980E+01  1.07561E+01  1.06314E+01
   1.05111E+01  1.04062E+01  1.03040E+01  1.02155E+01  1.01280E+01  1.00527E+01  9.97700E+00  9.91226E+00  9.84606E+00  9.78978E+00
   9.73112E+00  9.68156E+00  9.62891E+00  9.58473E+00  9.53691E+00  9.49705E+00  9.45310E+00  9.41672E+00  9.37591E+00  9.34235E+00
   9.30412E+00  9.27289E+00  9.23674E+00  9.20739E+00  9.17296E+00  9.14517E+00  9.11219E+00  9.08569E+00  9.05387E+00  9.02843E+00
   8.99760E+00  8.97306E+00  8.94305E+00  8.91924E+00  8.88989E+00  8.86669E+00  8.83790E+00  8.81521E+00  8.78689E+00  8.76459E+00
   8.73664E+00  8.71468E+00  8.68704E+00  8.66536E+00  8.63796E+00  8.61647E+00  8.58925E+00  8.56792E+00  8.54085E+00  8.51963E+00
   8.49264E+00  8.47148E+00  8.44453E+00  8.42340E+00  8.39648E+00  8.37532E+00  8.34834E+00  8.32711E+00  8.30005E+00  8.27872E+00
   8.25154E+00  8.23003E+00  8.20263E+00  8.18088E+00  8.15324E+00  8.13120E+00  8.10323E+00  8.08083E+00
 NY background values follow
     5.428E+00    5.410E+00    5.392E+00    5.373E+00    5.355E+00    5.337E+00    5.318E+00    5.299E+00    5.281E+00    5.262E+00
     5.243E+00    5.224E+00    5.205E+00    5.185E+00    5.166E+00    5.147E+00    5.127E+00    5.108E+00    5.088E+00    5.069E+00
     5.049E+00    5.029E+00    5.010E+00    4.990E+00    4.970E+00    4.950E+00    4.930E+00    4.911E+00    4.891E+00    4.871E+00
     4.851E+00    4.831E+00    4.811E+00    4.791E+00    4.771E+00    4.751E+00    4.731E+00    4.711E+00    4.691E+00    4.671E+00
     4.651E+00    4.632E+00    4.612E+00    4.592E+00    4.572E+00    4.553E+00    4.533E+00    4.513E+00    4.494E+00    4.474E+00
     4.455E+00    4.436E+00    4.416E+00    4.397E+00    4.378E+00    4.359E+00    4.340E+00    4.321E+00    4.302E+00    4.284E+00
     4.265E+00    4.247E+00    4.228E+00    4.210E+00    4.192E+00    4.174E+00    4.156E+00    4.138E+00    4.121E+00    4.103E+00
     4.086E+00    4.069E+00    4.052E+00    4.035E+00    4.018E+00    4.002E+00    3.985E+00    3.969E+00    3.953E+00    3.937E+00
     3.921E+00    3.906E+00    3.891E+00    3.875E+00    3.860E+00    3.846E+00    3.831E+00    3.817E+00    3.803E+00    3.789E+00
     3.775E+00    3.762E+00    3.748E+00    3.735E+00    3.723E+00    3.710E+00    3.698E+00    3.686E+00    3.674E+00    3.662E+00
     3.651E+00    3.640E+00    3.629E+00    3.619E+00    3.609E+00    3.599E+00    3.589E+00    3.580E+00    3.571E+00    3.562E+00
     3.553E+00    3.545E+00    3.537E+00    3.530E+00    3.522E+00    3.515E+00    3.509E+00    3.502E+00    3.496E+00    3.491E+00
     3.485E+00    3.480E+00    3.476E+00    3.472E+00    3.468E+00    3.464E+00    3.461E+00    3.458E+00    3.455E+00    3.453E+00
     3.451E+00    3.450E+00    3.449E+00    3.448E+00    3.447E+00    3.447E+00    3.448E+00    3.448E+00    3.449E+00    3.450E+00
     3.452E+00    3.454E+00    3.456E+00    3.458E+00    3.461E+00    3.464E+00    3.468E+00    3.472E+00    3.476E+00    3.480E+00
     3.485E+00    3.490E+00    3.495E+00    3.501E+00    3.507E+00    3.513E+00    3.520E+00    3.527E+00    3.534E+00    3.541E+00
     3.549E+00    3.557E+00    3.566E+00    3.574E+00    3.583E+00    3.593E+00    3.602E+00    3.612E+00    3.622E+00    3.632E+00
     3.643E+00    3.654E+00    3.665E+00    3.676E+00    3.688E+00    3.700E+00    3.712E+00    3.725E+00    3.738E+00    3.751E+00
     3.764E+00    3.778E+00    3.791E+00    3.805E+00    3.820E+00    3.834E+00    3.849E+00    3.864E+00    3.879E+00    3.895E+00
     3.911E+00    3.927E+00    3.943E+00    3.960E+00    3.976E+00    3.993E+00    4.011E+00    4.028E+00    4.046E+00    4.064E+00
     4.082E+00    4.100E+00    4.119E+00    4.137E+00    4.156E+00    4.176E+00    4.195E+00    4.215E+00    4.234E+00    4.254E+00
     4.275E+00    4.295E+00    4.316E+00    4.337E+00    4.358E+00    4.379E+00    4.400E+00    4.422E+00    4.444E+00    4.466E+00
     4.488E+00    4.511E+00    4.533E+00    4.556E+00    4.579E+00    4.602E+00    4.625E+00    4.649E+00    4.672E+00    4.696E+00
     4.720E+00    4.744E+00    4.769E+00    4.793E+00    4.818E+00    4.843E+00    4.868E+00    4.893E+00    4.918E+00    4.943E+00
     4.969E+00    4.995E+00    5.021E+00    5.047E+00    5.073E+00    5.099E+00    5.126E+00    5.152E+00    5.179E+00    5.206E+00
     5.233E+00    5.260E+00    5.287E+00    5.314E+00    5.342E+00    5.370E+00    5.397E+00    5.425E+00    5.453E+00    5.481E+00
     5.509E+00    5.537E+00    5.566E+00    5.594E+00    5.622E+00    5.651E+00    5.679E+00    5.708E+00    5.737E+00    5.765E+00
     5.794E+00    5.823E+00    5.852E+00    5.881E+00    5.910E+00    5.938E+00    5.967E+00    5.996E+00    6.025E+00    6.054E+00
     6.083E+00    6.112E+00    6.142E+00    6.171E+00    6.200E+00    6.229E+00    6.257E+00    6.286E+00    6.315E+00    6.344E+00
     6.373E+00    6.402E+00    6.431E+00    6.459E+00    6.488E+00    6.517E+00    6.545E+00    6.574E+00    6.602E+00    6.630E+00
     6.659E+00    6.687E+00    6.715E+00    6.743E+00    6.771E+00    6.799E+00    6.826E+00    6.854E+00    6.882E+00    6.909E+00
     6.936E+00    6.963E+00    6.990E+00    7.017E+00    7.044E+00    7.071E+00    7.097E+00    7.123E+00    7.150E+00    7.176E+00
     7.201E+00    7.227E+00    7.253E+00    7.278E+00    7.303E+00    7.328E+00    7.353E+00    7.377E+00    7.402E+00    7.426E+00
     7.450E+00    7.474E+00    7.497E+00    7.521E+00    7.544E+00    7.567E+00    7.589E+00    7.612E+00    7.634E+00    7.656E+00
     7.678E+00    7.699E+00    7.720E+00    7.741E+00    7.762E+00    7.783E+00    7.803E+00    7.823E+00    7.842E+00    7.862E+00
     7.881E+00    7.899E+00    7.918E+00    7.936E+00    7.954E+00    7.972E+00    7.989E+00    8.006E+00    8.022E+00    8.039E+00
     8.055E+00    8.070E+00    8.085E+00    8.100E+00    8.115E+00    8.129E+00    8.143E+00    8.157E+00    8.170E+00    8.183E+00
     8.195E+00    8.207E+00    8.219E+00    8.230E+00    8.241E+00    8.252E+00    8.262E+00    8.272E+00    8.281E+00    8.290E+00
     8.299E+00    8.307E+00    8.315E+00    8.323E+00    8.330E+00    8.337E+00    8.343E+00    8.349E+00    8.355E+00    8.361E+00
     8.366E+00    8.371E+00    8.375E+00    8.379E+00    8.383E+00    8.386E+00    8.389E+00    8.392E+00    8.395E+00    8.397E+00
     8.398E+00    8.400E+00    8.401E+00    8.402E+00    8.402E+00    8.403E+00    8.403E+00    8.402E+00    8.401E+00    8.400E+00
     8.399E+00    8.398E+00    8.396E+00    8.393E+00    8.391E+00    8.388E+00    8.385E+00    8.382E+00    8.378E+00    8.374E+00
     8.370E+00    8.366E+00    8.361E+00    8.356E+00    8.351E+00    8.346E+00    8.340E+00    8.334E+00    8.328E+00    8.321E+00
     8.314E+00    8.307E+00    8.300E+00    8.293E+00    8.285E+00    8.277E+00    8.269E+00    8.260E+00    8.252E+00    8.243E+00
     8.234E+00    8.225E+00    8.215E+00    8.205E+00    8.195E+00    8.185E+00    8.175E+00    8.164E+00    8.153E+00    8.142E+00
     8.131E+00    8.120E+00    8.108E+00    8.096E+00    8.084E+00    8.072E+00    8.060E+00    8.047E+00    8.035E+00    8.022E+00
     8.009E+00    7.995E+00    7.982E+00    7.968E+00    7.955E+00    7.941E+00    7.926E+00    7.912E+00    7.898E+00    7.883E+00
     7.869E+00    7.854E+00    7.839E+00    7.824E+00    7.808E+00    7.793E+00    7.777E+00    7.762E+00    7.746E+00    7.730E+00
     7.714E+00    7.697E+00    7.681E+00    7.665E+00    7.648E+00    7.631E+00    7.615E+00    7.598E+00    7.581E+00    7.563E+00
     7.546E+00    7.529E+00    7.511E+00    7.494E+00    7.476E+00    7.458E+00    7.441E+00    7.423E+00
 Cr       Conc. = 3.33E+02
