 LCModel (Version 6.3-1L) Copyright: S.W. Provencher.          Ref.: Magn. Reson. Med. 30:672-679 (1993).                
 Slice#1 Row#1 Col#9  PD_24_press_2_raw_act
 36 lines in following concentration table = NCONC+1
    Conc.  %SD /Cr+PCr  Metabolite                                         
    0.000 999%   0.000 Ala                                                 
   28.330  59%   0.293 Asp                                                 
    0.000 999%   0.000 Cr                                                  
   96.690  84%   1.000 PCr                                                 
   17.168  59%   0.178 GABA                                                
   17.015  59%   0.176 Glc                                                 
  659.242  51%   6.818 Gln                                                 
    0.000 999%   0.000 Glu                                                 
  122.859  27%   1.271 GPC                                                 
    0.000 999%   0.000 PCh                                                 
  418.787  29%   4.331 GSH                                                 
 1.42E+03  26%  14.691 Ins                                                 
    0.000 999%   0.000 Lac                                                 
    0.000 999%   0.000 NAA                                                 
  105.071  97%   1.087 NAAG                                                
    5.991  56% 6.2E-02 Scyllo                                              
   28.870  58%   0.299 Tau                                                 
    9.520  95% 9.8E-02 -CrCH2                                              
  122.859  27%   1.271 GPC+PCh                                             
  105.071  97%   1.087 NAA+NAAG                                            
   96.690  84%   1.000 Cr+PCr                                              
  659.242  51%   6.818 Glu+Gln                                             
    0.000 999%   0.000 Lip13a                                              
  517.563  37%   5.353 Lip13b                                              
    0.000 999%   0.000 Lip09                                               
 1.47E+03  17%  15.243 MM09                                                
   79.658 147%   0.824 Lip20                                               
 3.34E+03  13%  34.536 MM20                                                
  389.004  42%   4.023 MM12                                                
 1.97E+03  18%  20.333 MM14                                                
 1.41E+03  17%  14.591 MM17                                                
  517.563  37%   5.353 Lip13a+Lip13b                                       
 2.87E+03  14%  29.709 MM14+Lip13a+Lip13b+MM12                             
 1.47E+03  17%  15.243 MM09+Lip09                                          
 3.42E+03  13%  35.360 MM20+Lip20                                          
   6 lines in following misc. output table
  FWHM = 0.046 ppm    S/N =   1                                            
  Data shift = 0.023 ppm                                                   
  Ph: 103 deg      42.7 deg/ppm                                            
  alphaB,S = 8.5E+01,   1.3E+01                                            
   14 spline knots.   Ns = 5(1)                                            
   2 inflections.     1 extrema                                            
  498 points on ppm-axis = NY
      4.000000     3.992357     3.984714     3.977070     3.969427     3.961784     3.954141     3.946497     3.938854     3.931211
      3.923568     3.915925     3.908281     3.900638     3.892995     3.885352     3.877708     3.870065     3.862422     3.854779
      3.847136     3.839492     3.831849     3.824206     3.816563     3.808919     3.801276     3.793633     3.785990     3.778347
      3.770703     3.763060     3.755417     3.747774     3.740130     3.732487     3.724844     3.717201     3.709558     3.701914
      3.694271     3.686628     3.678985     3.671341     3.663698     3.656055     3.648412     3.640769     3.633125     3.625482
      3.617839     3.610196     3.602552     3.594909     3.587266     3.579623     3.571980     3.564336     3.556693     3.549050
      3.541407     3.533763     3.526120     3.518477     3.510834     3.503191     3.495547     3.487904     3.480261     3.472618
      3.464974     3.457331     3.449688     3.442045     3.434402     3.426758     3.419115     3.411472     3.403829     3.396185
      3.388542     3.380899     3.373256     3.365613     3.357969     3.350326     3.342683     3.335040     3.327396     3.319753
      3.312110     3.304467     3.296824     3.289180     3.281537     3.273894     3.266251     3.258607     3.250964     3.243321
      3.235678     3.228034     3.220391     3.212748     3.205105     3.197462     3.189818     3.182175     3.174532     3.166889
      3.159245     3.151602     3.143959     3.136316     3.128673     3.121029     3.113386     3.105743     3.098100     3.090456
      3.082813     3.075170     3.067527     3.059884     3.052240     3.044597     3.036954     3.029311     3.021667     3.014024
      3.006381     2.998738     2.991095     2.983451     2.975808     2.968165     2.960522     2.952878     2.945235     2.937592
      2.929949     2.922306     2.914662     2.907019     2.899376     2.891733     2.884089     2.876446     2.868803     2.861160
      2.853517     2.845873     2.838230     2.830587     2.822944     2.815300     2.807657     2.800014     2.792371     2.784728
      2.777084     2.769441     2.761798     2.754155     2.746511     2.738868     2.731225     2.723582     2.715939     2.708295
      2.700652     2.693009     2.685366     2.677722     2.670079     2.662436     2.654793     2.647150     2.639506     2.631863
      2.624220     2.616577     2.608933     2.601290     2.593647     2.586004     2.578361     2.570717     2.563074     2.555431
      2.547788     2.540144     2.532501     2.524858     2.517215     2.509572     2.501928     2.494285     2.486642     2.478999
      2.471355     2.463712     2.456069     2.448426     2.440783     2.433139     2.425496     2.417853     2.410210     2.402566
      2.394923     2.387280     2.379637     2.371994     2.364350     2.356707     2.349064     2.341421     2.333777     2.326134
      2.318491     2.310848     2.303205     2.295561     2.287918     2.280275     2.272632     2.264988     2.257345     2.249702
      2.242059     2.234416     2.226772     2.219129     2.211486     2.203843     2.196199     2.188556     2.180913     2.173270
      2.165627     2.157983     2.150340     2.142697     2.135054     2.127410     2.119767     2.112124     2.104481     2.096838
      2.089194     2.081551     2.073908     2.066265     2.058621     2.050978     2.043335     2.035692     2.028049     2.020405
      2.012762     2.005119     1.997476     1.989833     1.982190     1.974546     1.966903     1.959260     1.951617     1.943974
      1.936331     1.928688     1.921045     1.913402     1.905759     1.898115     1.890472     1.882829     1.875186     1.867543
      1.859900     1.852257     1.844614     1.836971     1.829327     1.821684     1.814041     1.806398     1.798755     1.791112
      1.783469     1.775826     1.768183     1.760540     1.752896     1.745253     1.737610     1.729967     1.722324     1.714681
      1.707038     1.699395     1.691752     1.684108     1.676465     1.668822     1.661179     1.653536     1.645893     1.638250
      1.630607     1.622964     1.615321     1.607677     1.600034     1.592391     1.584748     1.577105     1.569462     1.561819
      1.554176     1.546533     1.538890     1.531246     1.523603     1.515960     1.508317     1.500674     1.493031     1.485388
      1.477745     1.470102     1.462458     1.454815     1.447172     1.439529     1.431886     1.424243     1.416600     1.408957
      1.401314     1.393671     1.386027     1.378384     1.370741     1.363098     1.355455     1.347812     1.340169     1.332526
      1.324883     1.317240     1.309596     1.301953     1.294310     1.286667     1.279024     1.271381     1.263738     1.256095
      1.248452     1.240808     1.233165     1.225522     1.217879     1.210236     1.202593     1.194950     1.187307     1.179664
      1.172021     1.164377     1.156734     1.149091     1.141448     1.133805     1.126162     1.118519     1.110876     1.103233
      1.095590     1.087946     1.080303     1.072660     1.065017     1.057374     1.049731     1.042088     1.034445     1.026802
      1.019158     1.011515     1.003872     0.996229     0.988586     0.980943     0.973300     0.965657     0.958014     0.950371
      0.942727     0.935084     0.927441     0.919798     0.912155     0.904512     0.896869     0.889226     0.881583     0.873940
      0.866296     0.858653     0.851010     0.843367     0.835724     0.828081     0.820438     0.812795     0.805152     0.797508
      0.789865     0.782222     0.774579     0.766936     0.759293     0.751650     0.744007     0.736364     0.728721     0.721077
      0.713434     0.705791     0.698148     0.690505     0.682862     0.675219     0.667576     0.659933     0.652290     0.644646
      0.637003     0.629360     0.621717     0.614074     0.606431     0.598788     0.591145     0.583502     0.575858     0.568215
      0.560572     0.552929     0.545286     0.537643     0.530000     0.522357     0.514714     0.507071     0.499427     0.491784
      0.484141     0.476498     0.468855     0.461212     0.453569     0.445925     0.438282     0.430639     0.422996     0.415353
      0.407710     0.400067     0.392424     0.384780     0.377137     0.369494     0.361851     0.354208     0.346565     0.338922
      0.331278     0.323635     0.315992     0.308349     0.300706     0.293063     0.285420     0.277777     0.270133     0.262490
      0.254847     0.247204     0.239561     0.231918     0.224275     0.216631     0.208988     0.201345
 NY phased data points follow
   7.62628E+00  1.14986E+01 -2.64344E+00 -7.41780E-01 -1.98222E+01  1.55601E+00  1.40493E+01  1.79385E+01  1.99185E+01  1.27329E+00
  -1.24548E+01  8.25359E-01 -2.61370E+00  1.48522E+01  1.68464E+00  6.32860E+00 -4.09388E+00  9.65065E+00  1.61154E+01 -1.76745E+00
   1.14982E+01  1.33024E+00 -1.54422E+00 -6.21413E+00 -1.03416E+01  1.19605E+01 -6.24965E+00  1.67239E+01  1.47921E+01  2.44145E+01
   1.85060E+01  8.79748E+00  5.63180E+00 -8.47141E+00 -1.77933E-01  2.11118E+00 -2.16586E+00  1.12156E+01  6.98048E+00  1.02800E+01
   9.66118E-01 -2.84124E+00 -6.50414E+00  1.32689E+01  7.26205E+00  5.60551E+00  5.30912E+00  1.07859E+01  1.12109E+01  1.44327E+01
   7.49597E+00  5.84364E+00 -6.81179E+00  1.18924E+01 -1.09580E+00  1.42852E+00  3.70141E+00  1.74124E+01  4.51053E-01 -6.53680E-01
   1.17500E+01  9.39923E+00  7.69587E+00  4.39172E+00  1.41950E+00  6.60584E+00 -4.15417E+00  7.94185E-01  9.47493E+00  5.70398E+00
   4.29577E+00  8.11308E+00 -2.41674E+00 -1.11233E-01  6.97427E+00  5.15249E+00 -1.05706E+01 -1.01958E+01  7.00283E+00  6.85881E-04
   8.14688E+00  1.31599E+00 -6.64855E+00  7.32891E+00  7.83564E+00 -3.03972E+00 -5.11673E-01  9.29115E+00 -1.10598E+01  4.67046E+00
   8.02592E+00 -1.93141E+00 -3.82607E+00  1.08455E+01  4.07227E+00  8.79195E+00 -1.40776E-01  9.63945E+00 -2.45824E+00  1.78046E+01
   1.17356E+01  1.01121E+01  8.79880E+00  9.71977E+00 -6.34991E+00 -7.11914E-01 -1.87968E+01  4.94937E-01  3.98272E+00 -6.96463E+00
  -7.12367E+00 -4.69487E+00 -4.86630E-01 -4.79710E+00  1.16603E+00  1.14226E+00  3.11428E+00 -5.63406E+00 -2.41459E+00  1.05860E+01
  -2.54992E+00 -5.06170E+00  4.03757E+00  1.16785E+00 -3.52175E+00  2.62426E+00  1.12575E+01  5.51687E+00 -1.75920E+00 -1.86601E+00
   6.43550E+00 -8.82103E+00 -1.04260E+01 -7.23018E+00  2.57434E+00  1.52384E-01  5.85505E+00  2.46241E+00 -9.72206E+00  4.67764E+00
   1.35856E+00  4.59779E+00 -9.58242E+00 -3.75726E+00  8.44722E+00  8.61423E-01  3.09755E+00 -6.38772E-01 -1.27232E+01 -2.29344E+00
  -5.25508E+00 -3.05607E+00  6.40444E+00 -8.80346E+00 -2.94875E-01 -9.26472E-01 -6.95690E+00  4.24046E+00 -1.09543E+01 -8.88815E+00
   3.57907E-01 -5.88834E+00  1.68369E-01 -9.30506E+00 -9.93593E+00 -7.52767E+00 -5.88306E+00 -9.24019E+00 -6.61009E+00 -9.38495E-01
  -2.59603E+00 -1.35903E+00 -9.12903E+00 -1.27130E+01 -2.50886E-01 -1.26532E+01 -3.74437E+00 -9.37428E+00 -1.02444E+01 -2.00425E+01
  -8.20430E+00 -1.48425E+01 -3.93019E+00 -2.17189E+01 -1.09352E+01 -9.48387E+00 -1.18984E+01 -6.14196E+00 -6.57303E+00 -5.24290E+00
  -9.19433E+00 -1.68000E+01 -9.07762E+00 -4.72408E+00 -1.52975E+01 -2.06856E+01 -1.52746E+01 -6.21589E+00 -1.36250E+01 -1.22198E+01
  -5.44329E+00  8.00630E+00 -3.24419E+00 -3.51296E+00 -7.41484E+00 -2.33943E+00 -1.01335E+01 -1.15007E+01 -1.23677E+00 -3.95638E+00
  -6.49264E+00 -3.45144E+00 -1.28559E+01 -4.30169E+00 -6.43320E+00 -6.30522E-02  6.22103E-01  7.22075E+00  8.32375E-01  6.17014E+00
   2.84698E+00  1.27525E-01  1.15793E+00  1.61564E+00  8.68423E-01  1.79781E+01 -1.73975E+00  5.85595E+00  2.78397E+00  5.54783E+00
   2.55561E-01  1.33351E+01  1.24298E+01  5.16367E+00  5.62127E+00  1.40265E+01  4.88087E+00  6.68198E+00  6.22430E+00  1.19202E+01
   1.58471E+01  1.41331E+01  1.21743E+01  1.89598E+01  1.29381E+01  1.70985E+01  1.12694E+01  9.90044E+00  1.45000E+01  1.84647E+01
   5.24630E+00  1.59475E+00  2.14732E+01  2.55236E+00  2.17841E+01  1.20428E+01  8.22353E+00  1.42123E+01  1.17798E+01  1.52230E+01
   2.91509E+00 -1.19954E+00 -1.39997E-01  1.89723E-01 -6.83635E-01  3.04500E+00  7.00651E+00  1.06905E+01  2.51353E+00  1.03378E+01
   1.54057E+00 -2.83134E+00 -2.33426E+00  1.13525E+01  9.09258E+00 -2.86992E+00  1.22807E+01  1.00976E+00 -2.23992E+00 -9.02054E+00
   6.76214E-01  5.06907E+00 -6.91918E-01 -7.25955E+00  1.46452E+00 -3.26357E+00 -2.00804E+00 -1.51111E+00 -3.62544E+00 -1.18477E+01
  -7.49264E+00 -9.24477E+00 -1.22478E+01  1.86488E+00 -1.44231E+01 -1.13431E+01 -5.90697E+00 -6.97312E+00 -4.27710E+00 -6.08153E+00
  -1.22612E+01 -5.00192E+00 -6.08159E+00  8.03071E+00 -1.00917E+01  5.93358E+00  4.50664E+00  2.01959E+00 -1.08153E+00  1.28230E+00
   1.36118E+01  1.89699E+01  1.90873E+01  1.16575E+01  1.02589E+01  1.78940E+01  1.27618E+01  3.10571E+00  1.62531E+01  5.41082E+00
   1.52697E+01  1.44661E+01  1.19844E+01  5.63559E+00  6.39430E+00  4.91473E+00  2.04068E+01  2.05925E+01  2.00441E+01  5.08651E+00
   9.16713E+00  1.26340E+01 -3.73939E+00  2.18579E+01  1.19421E+01  2.70214E+00 -2.26444E+00 -2.80215E-01 -4.69851E+00  2.73736E+00
   2.93159E+00 -2.84207E+00  1.26163E+01 -3.33685E+00  3.73504E+00  1.63415E+01  4.86222E+00  4.64954E-01 -6.04826E-01  6.74445E+00
   6.07863E+00  1.91247E+01  4.73562E+00  6.11204E+00  5.23545E+00 -1.69436E+00  1.86897E+00  1.04346E+01  3.81863E+00  4.32527E+00
  -1.36746E+00  1.12688E+01 -7.41871E+00 -2.83497E-01 -3.98304E+00  4.57064E+00  3.33258E+00 -3.61449E+00 -1.55445E+00 -5.13661E-01
  -1.12126E+00 -5.58070E+00 -3.83790E+00 -4.87975E+00  6.18068E+00 -1.74167E+01 -3.55645E+00 -1.43886E+01  1.20642E+00 -1.04714E+00
  -1.04475E+01 -1.61944E+01 -1.30463E+01 -1.50549E+01 -1.64524E+01 -1.67495E+01 -8.86646E+00  4.34037E+00 -3.09711E+00 -1.79790E+01
   1.92416E+00 -2.15905E+00 -1.50599E+00 -4.67270E+00  7.97213E+00 -5.02070E+00 -3.45936E+00 -1.97757E-01 -1.39161E+00 -1.19133E+01
  -5.53297E-01  5.77877E+00 -8.12738E+00 -2.77882E-01  9.05503E+00  1.28816E+01  1.36570E+00 -7.47226E+00 -6.22747E+00  6.86348E+00
   4.19242E+00  8.92459E+00 -9.89051E+00  2.15758E+00  1.28391E-01 -4.12053E+00  2.50319E+00  9.18906E+00  2.34977E+00  4.94033E+00
  -1.55896E+00  1.09872E+01 -7.32555E-01  1.05060E+01  4.77810E+00 -7.60117E+00  3.63291E-01 -1.12593E+01 -8.58312E+00 -1.67931E+01
  -4.85072E+00 -2.08246E+00 -1.13867E+01 -1.81644E+00 -8.36167E+00 -6.24152E+00  1.47477E+00 -9.19552E-01 -7.65763E+00 -5.11575E+00
  -1.07141E+01  3.58880E+00 -1.57751E+01 -6.51557E+00  1.82689E-01 -6.24019E+00 -1.24795E+01 -6.15986E-01 -2.98293E+00 -4.28645E+00
  -4.05851E+00 -8.97399E+00 -1.12104E+01 -3.06731E+00 -7.85190E+00 -5.48586E+00 -1.36320E+01 -1.03824E+01 -3.73860E+00 -1.32564E+01
  -1.55140E+01 -1.17271E+01 -8.08944E-01 -2.00630E+00 -9.09029E+00 -7.94215E+00 -2.01089E+00 -5.77944E+00 -6.54848E+00 -2.58799E+00
  -6.60390E+00 -3.08286E+00  5.96800E+00 -3.41996E+00  2.69953E+00 -1.07898E+01 -9.28505E-01 -5.72338E+00 -3.52636E+00 -6.16505E+00
   9.22371E+00  7.35713E-01  1.36967E+00  4.53687E+00 -2.91779E+00 -8.63583E-01  5.74876E-01 -1.40963E+01  5.87733E-02 -7.88488E+00
   1.84283E+00 -1.35487E+01 -3.77579E+00 -1.75830E+01 -9.56634E+00 -6.18091E+00  5.10725E-01  4.84876E+00
 NY points of the fit to the data follow
   1.82515E+00  1.61182E+00  1.55234E+00  1.59990E+00  2.05263E+00  2.71119E+00  3.26231E+00  3.55406E+00  3.54292E+00  3.25067E+00
   2.73929E+00  2.18084E+00  1.77475E+00  1.64845E+00  1.64790E+00  1.55225E+00  1.49306E+00  1.53761E+00  1.61132E+00  1.58694E+00
   1.49332E+00  1.20703E+00  6.24325E-01  5.13081E-03  2.36244E-01  2.85756E+00  6.96418E+00  1.11347E+01  1.41974E+01  1.54918E+01
   1.45801E+01  1.13533E+01  7.17139E+00  3.89366E+00  2.79773E+00  2.67791E+00  2.18497E+00  1.91646E+00  1.63102E+00  1.07534E+00
   4.71132E-01  2.64697E-01  1.21593E+00  4.02453E+00  7.99713E+00  1.14363E+01  1.32505E+01  1.30416E+01  1.08764E+01  7.22736E+00
   3.07858E+00 -1.69737E-01 -1.38951E+00 -1.08931E+00 -5.45636E-01  2.28053E-01  1.57455E+00  3.25734E+00  4.61514E+00  5.23985E+00
   5.00388E+00  3.96294E+00  2.37739E+00  8.32861E-01 -2.10435E-03 -1.06473E-02  4.26016E-01  1.24138E+00  2.21020E+00  3.03694E+00
   3.52935E+00  3.64451E+00  3.51514E+00  3.15848E+00  2.59908E+00  1.98229E+00  1.52017E+00  1.33936E+00  1.19134E+00  1.01954E+00
   9.14543E-01  8.55946E-01  5.97183E-01 -1.32362E-01 -1.35782E+00 -2.77254E+00 -3.97978E+00 -4.70755E+00 -4.79965E+00 -4.16672E+00
  -2.92809E+00 -1.55371E+00 -4.26862E-01  2.32395E-01  4.09531E-01  1.96422E-01 -6.95068E-03  1.21825E+00  4.50995E+00  8.08287E+00
   1.05567E+01  1.15024E+01  1.08731E+01  8.49406E+00  4.93251E+00  1.56470E+00 -9.91910E-02 -7.48755E-02 -1.87125E-01 -7.39753E-01
  -7.94787E-01 -6.66112E-01 -5.37916E-01 -4.16543E-01 -3.25310E-01 -3.01648E-01 -3.24692E-01 -3.48183E-01 -3.36247E-01 -2.43531E-01
   3.92151E-03  5.65422E-01  1.75453E+00  3.18960E+00  4.34869E+00  4.99721E+00  5.17354E+00  4.96718E+00  4.63711E+00  4.43047E+00
   4.17332E+00  3.74416E+00  2.84961E+00  1.31000E+00 -2.53524E-01 -1.33940E+00 -1.56818E+00 -7.39182E-01  6.50817E-01  1.79586E+00
   2.33422E+00  2.40071E+00  1.99992E+00  1.34055E+00  7.51885E-01  3.00039E-01 -3.07768E-03 -2.90794E-01 -6.43721E-01 -9.80725E-01
  -1.33630E+00 -1.64754E+00 -1.85079E+00 -1.92661E+00 -1.92345E+00 -1.91086E+00 -1.90218E+00 -1.93116E+00 -2.02725E+00 -2.18214E+00
  -2.33252E+00 -2.44550E+00 -2.53520E+00 -2.59470E+00 -2.64028E+00 -2.69291E+00 -2.72487E+00 -2.71352E+00 -2.66009E+00 -2.59372E+00
  -2.56827E+00 -2.60554E+00 -2.69110E+00 -2.82325E+00 -2.98753E+00 -3.14517E+00 -3.25542E+00 -3.32520E+00 -3.39046E+00 -3.44437E+00
  -3.55984E+00 -3.71267E+00 -3.84613E+00 -3.91584E+00 -3.84408E+00 -3.49989E+00 -2.80250E+00 -1.84371E+00 -9.48072E-01 -5.52477E-01
  -8.12712E-01 -1.72043E+00 -3.32687E+00 -5.31865E+00 -6.81297E+00 -7.25016E+00 -6.55943E+00 -4.96343E+00 -2.87662E+00 -7.96187E-01
   8.49276E-01  1.61975E+00  1.48254E+00  7.55078E-01 -5.17651E-01 -2.58971E+00 -4.76462E+00 -6.14042E+00 -6.46679E+00 -5.79662E+00
  -4.35813E+00 -2.54747E+00 -8.03894E-01  3.40632E-01  6.13718E-01  5.51678E-01  8.05058E-01  1.08815E+00  1.16916E+00  1.25243E+00
   1.39147E+00  1.54277E+00  1.68922E+00  1.82623E+00  1.94643E+00  2.00429E+00  1.82794E+00  1.37131E+00  9.20996E-01  7.45677E-01
   8.59556E-01  1.04274E+00  1.58580E+00  2.74245E+00  4.05267E+00  5.02775E+00  5.73035E+00  6.37551E+00  6.52456E+00  5.91327E+00
   4.91778E+00  4.30446E+00  4.38214E+00  4.73582E+00  5.32959E+00  6.43828E+00  7.76374E+00  8.78680E+00  9.54054E+00  1.02907E+01
   1.10881E+01  1.21942E+01  1.33076E+01  1.39820E+01  1.39880E+01  1.34630E+01  1.24600E+01  1.09995E+01  9.39087E+00  8.08040E+00
   7.37314E+00  6.94757E+00  6.34744E+00  5.71965E+00  5.14386E+00  4.60462E+00  4.07539E+00  3.56172E+00  3.07469E+00  2.62006E+00
   2.19677E+00  1.79557E+00  1.39765E+00  9.91906E-01  5.80923E-01  1.81035E-01 -1.96565E-01 -5.51982E-01 -8.77307E-01 -1.16348E+00
  -1.41850E+00 -1.65291E+00 -1.87085E+00 -2.06947E+00 -2.25160E+00 -2.42222E+00 -2.58169E+00 -2.71627E+00 -2.81847E+00 -2.89231E+00
  -2.93897E+00 -2.95743E+00 -2.95038E+00 -2.91677E+00 -2.85672E+00 -2.76211E+00 -2.61473E+00 -2.40084E+00 -2.11667E+00 -1.75467E+00
  -1.30689E+00 -7.70074E-01 -1.45363E-01  5.63163E-01  1.35233E+00  2.21679E+00  3.14232E+00  4.11121E+00  5.10291E+00  6.09303E+00
   7.05561E+00  7.96395E+00  8.79231E+00  9.51776E+00  1.01214E+01  1.05897E+01  1.09156E+01  1.10984E+01  1.11441E+01  1.10644E+01
   1.08764E+01  1.06002E+01  1.02582E+01  9.87281E+00  9.46509E+00  9.05349E+00  8.65277E+00  8.27337E+00  7.92128E+00  7.59815E+00
   7.30186E+00  7.02722E+00  6.76698E+00  6.51276E+00  6.25607E+00  5.98918E+00  5.70593E+00  5.40246E+00  5.07781E+00  4.73449E+00
   4.37911E+00  4.02272E+00  3.68129E+00  3.37552E+00  3.13007E+00  2.97159E+00  2.92540E+00  3.01086E+00  3.23597E+00  3.59206E+00
   4.05030E+00  4.56129E+00  5.05897E+00  5.46874E+00  5.71896E+00  5.75311E+00  5.54015E+00  5.08017E+00  4.40405E+00  3.56723E+00
   2.63917E+00  1.69128E+00  7.86142E-01 -2.99370E-02 -7.29989E-01 -1.30546E+00 -1.76236E+00 -2.11612E+00 -2.38648E+00 -2.59344E+00
  -2.75458E+00 -2.88377E+00 -2.99095E+00 -3.08253E+00 -3.16214E+00 -3.23138E+00 -3.29045E+00 -3.33868E+00 -3.37486E+00 -3.39746E+00
  -3.40474E+00 -3.39485E+00 -3.36584E+00 -3.31566E+00 -3.24218E+00 -3.14323E+00 -3.01657E+00 -2.86000E+00 -2.67138E+00 -2.44877E+00
  -2.19050E+00 -1.89542E+00 -1.56298E+00 -1.19351E+00 -7.88333E-01 -3.50034E-01  1.17447E-01  6.08654E-01  1.11662E+00  1.63286E+00
   2.14757E+00  2.64976E+00  3.12771E+00  3.56930E+00  3.96253E+00  4.29607E+00  4.55979E+00  4.74525E+00  4.84613E+00  4.85861E+00
   4.78154E+00  4.61651E+00  4.36776E+00  4.04192E+00  3.64772E+00  3.19545E+00  2.69650E+00  2.16279E+00  1.60626E+00  1.03838E+00
   4.69738E-01 -9.02816E-02 -6.33694E-01 -1.15406E+00 -1.64648E+00 -2.10756E+00 -2.53527E+00 -2.92882E+00 -3.28837E+00 -3.61493E+00
  -3.91013E+00 -4.17600E+00 -4.41483E+00 -4.62905E+00 -4.82108E+00 -4.99329E+00 -5.14791E+00 -5.28703E+00 -5.41252E+00 -5.52608E+00
  -5.62919E+00 -5.72319E+00 -5.80922E+00 -5.88828E+00 -5.96123E+00 -6.02882E+00 -6.09169E+00 -6.15040E+00 -6.20542E+00 -6.25718E+00
  -6.30602E+00 -6.35224E+00 -6.39612E+00 -6.43789E+00 -6.47775E+00 -6.51590E+00 -6.55247E+00 -6.58764E+00 -6.62150E+00 -6.65419E+00
  -6.68579E+00 -6.71639E+00 -6.74606E+00 -6.77488E+00 -6.80292E+00 -6.83024E+00 -6.85688E+00 -6.88291E+00 -6.90835E+00 -6.93326E+00
  -6.95766E+00 -6.98160E+00 -7.00510E+00 -7.02818E+00 -7.05087E+00 -7.07320E+00 -7.09519E+00 -7.11686E+00 -7.13823E+00 -7.15931E+00
  -7.18011E+00 -7.20067E+00 -7.22098E+00 -7.24106E+00 -7.26092E+00 -7.28058E+00 -7.30003E+00 -7.31930E+00 -7.33839E+00 -7.35731E+00
  -7.37606E+00 -7.39465E+00 -7.41309E+00 -7.43138E+00 -7.44953E+00 -7.46753E+00 -7.48540E+00 -7.50313E+00
 NY background values follow
    -5.510E-01   -5.654E-01   -5.798E-01   -5.941E-01   -6.085E-01   -6.229E-01   -6.373E-01   -6.517E-01   -6.660E-01   -6.804E-01
    -6.948E-01   -7.092E-01   -7.236E-01   -7.379E-01   -7.523E-01   -7.667E-01   -7.811E-01   -7.955E-01   -8.099E-01   -8.242E-01
    -8.386E-01   -8.530E-01   -8.674E-01   -8.818E-01   -8.961E-01   -9.105E-01   -9.249E-01   -9.393E-01   -9.537E-01   -9.680E-01
    -9.824E-01   -9.968E-01   -1.011E+00   -1.026E+00   -1.040E+00   -1.054E+00   -1.069E+00   -1.083E+00   -1.097E+00   -1.112E+00
    -1.126E+00   -1.141E+00   -1.155E+00   -1.169E+00   -1.184E+00   -1.198E+00   -1.213E+00   -1.227E+00   -1.241E+00   -1.256E+00
    -1.270E+00   -1.284E+00   -1.299E+00   -1.313E+00   -1.328E+00   -1.342E+00   -1.356E+00   -1.371E+00   -1.385E+00   -1.399E+00
    -1.414E+00   -1.428E+00   -1.443E+00   -1.457E+00   -1.471E+00   -1.486E+00   -1.500E+00   -1.515E+00   -1.529E+00   -1.543E+00
    -1.558E+00   -1.572E+00   -1.586E+00   -1.601E+00   -1.615E+00   -1.630E+00   -1.644E+00   -1.658E+00   -1.673E+00   -1.687E+00
    -1.701E+00   -1.716E+00   -1.730E+00   -1.745E+00   -1.759E+00   -1.773E+00   -1.788E+00   -1.802E+00   -1.817E+00   -1.831E+00
    -1.845E+00   -1.860E+00   -1.874E+00   -1.888E+00   -1.903E+00   -1.917E+00   -1.932E+00   -1.946E+00   -1.960E+00   -1.975E+00
    -1.989E+00   -2.003E+00   -2.018E+00   -2.032E+00   -2.047E+00   -2.061E+00   -2.075E+00   -2.090E+00   -2.104E+00   -2.119E+00
    -2.133E+00   -2.147E+00   -2.162E+00   -2.176E+00   -2.190E+00   -2.205E+00   -2.219E+00   -2.234E+00   -2.248E+00   -2.262E+00
    -2.277E+00   -2.291E+00   -2.305E+00   -2.320E+00   -2.334E+00   -2.349E+00   -2.363E+00   -2.377E+00   -2.392E+00   -2.406E+00
    -2.420E+00   -2.435E+00   -2.449E+00   -2.464E+00   -2.478E+00   -2.492E+00   -2.507E+00   -2.521E+00   -2.536E+00   -2.550E+00
    -2.564E+00   -2.579E+00   -2.593E+00   -2.607E+00   -2.622E+00   -2.636E+00   -2.651E+00   -2.665E+00   -2.679E+00   -2.694E+00
    -2.708E+00   -2.722E+00   -2.737E+00   -2.751E+00   -2.766E+00   -2.780E+00   -2.794E+00   -2.809E+00   -2.823E+00   -2.838E+00
    -2.852E+00   -2.866E+00   -2.881E+00   -2.895E+00   -2.909E+00   -2.924E+00   -2.938E+00   -2.953E+00   -2.967E+00   -2.981E+00
    -2.996E+00   -3.010E+00   -3.024E+00   -3.039E+00   -3.053E+00   -3.068E+00   -3.082E+00   -3.096E+00   -3.111E+00   -3.125E+00
    -3.139E+00   -3.154E+00   -3.168E+00   -3.183E+00   -3.197E+00   -3.211E+00   -3.226E+00   -3.240E+00   -3.255E+00   -3.269E+00
    -3.283E+00   -3.298E+00   -3.312E+00   -3.326E+00   -3.341E+00   -3.355E+00   -3.370E+00   -3.384E+00   -3.398E+00   -3.413E+00
    -3.427E+00   -3.441E+00   -3.456E+00   -3.470E+00   -3.485E+00   -3.499E+00   -3.513E+00   -3.528E+00   -3.542E+00   -3.556E+00
    -3.571E+00   -3.585E+00   -3.600E+00   -3.614E+00   -3.628E+00   -3.643E+00   -3.657E+00   -3.672E+00   -3.686E+00   -3.700E+00
    -3.715E+00   -3.729E+00   -3.743E+00   -3.758E+00   -3.772E+00   -3.787E+00   -3.801E+00   -3.815E+00   -3.830E+00   -3.844E+00
    -3.858E+00   -3.873E+00   -3.887E+00   -3.902E+00   -3.916E+00   -3.930E+00   -3.945E+00   -3.959E+00   -3.973E+00   -3.988E+00
    -4.002E+00   -4.017E+00   -4.031E+00   -4.045E+00   -4.060E+00   -4.074E+00   -4.088E+00   -4.103E+00   -4.117E+00   -4.132E+00
    -4.146E+00   -4.160E+00   -4.175E+00   -4.189E+00   -4.203E+00   -4.218E+00   -4.232E+00   -4.247E+00   -4.261E+00   -4.275E+00
    -4.290E+00   -4.304E+00   -4.319E+00   -4.333E+00   -4.347E+00   -4.362E+00   -4.376E+00   -4.390E+00   -4.405E+00   -4.419E+00
    -4.434E+00   -4.448E+00   -4.462E+00   -4.477E+00   -4.491E+00   -4.505E+00   -4.520E+00   -4.534E+00   -4.549E+00   -4.563E+00
    -4.577E+00   -4.592E+00   -4.606E+00   -4.620E+00   -4.635E+00   -4.649E+00   -4.664E+00   -4.678E+00   -4.692E+00   -4.707E+00
    -4.721E+00   -4.735E+00   -4.750E+00   -4.764E+00   -4.779E+00   -4.793E+00   -4.807E+00   -4.822E+00   -4.836E+00   -4.850E+00
    -4.865E+00   -4.879E+00   -4.894E+00   -4.908E+00   -4.922E+00   -4.937E+00   -4.951E+00   -4.965E+00   -4.980E+00   -4.994E+00
    -5.009E+00   -5.023E+00   -5.037E+00   -5.052E+00   -5.066E+00   -5.081E+00   -5.095E+00   -5.109E+00   -5.124E+00   -5.138E+00
    -5.152E+00   -5.167E+00   -5.181E+00   -5.196E+00   -5.210E+00   -5.224E+00   -5.239E+00   -5.253E+00   -5.267E+00   -5.282E+00
    -5.296E+00   -5.311E+00   -5.325E+00   -5.339E+00   -5.354E+00   -5.368E+00   -5.382E+00   -5.397E+00   -5.411E+00   -5.426E+00
    -5.440E+00   -5.454E+00   -5.469E+00   -5.483E+00   -5.497E+00   -5.512E+00   -5.526E+00   -5.541E+00   -5.555E+00   -5.569E+00
    -5.584E+00   -5.598E+00   -5.612E+00   -5.627E+00   -5.641E+00   -5.656E+00   -5.670E+00   -5.684E+00   -5.699E+00   -5.713E+00
    -5.727E+00   -5.742E+00   -5.756E+00   -5.771E+00   -5.785E+00   -5.799E+00   -5.814E+00   -5.828E+00   -5.842E+00   -5.857E+00
    -5.871E+00   -5.886E+00   -5.900E+00   -5.914E+00   -5.929E+00   -5.943E+00   -5.957E+00   -5.972E+00   -5.986E+00   -6.001E+00
    -6.015E+00   -6.029E+00   -6.044E+00   -6.058E+00   -6.072E+00   -6.087E+00   -6.101E+00   -6.116E+00   -6.130E+00   -6.144E+00
    -6.159E+00   -6.173E+00   -6.187E+00   -6.202E+00   -6.216E+00   -6.231E+00   -6.245E+00   -6.259E+00   -6.274E+00   -6.288E+00
    -6.302E+00   -6.317E+00   -6.331E+00   -6.346E+00   -6.360E+00   -6.374E+00   -6.389E+00   -6.403E+00   -6.417E+00   -6.432E+00
    -6.446E+00   -6.461E+00   -6.475E+00   -6.489E+00   -6.504E+00   -6.518E+00   -6.532E+00   -6.547E+00   -6.561E+00   -6.576E+00
    -6.590E+00   -6.604E+00   -6.619E+00   -6.633E+00   -6.647E+00   -6.662E+00   -6.676E+00   -6.691E+00   -6.705E+00   -6.719E+00
    -6.734E+00   -6.748E+00   -6.762E+00   -6.777E+00   -6.791E+00   -6.806E+00   -6.820E+00   -6.834E+00   -6.849E+00   -6.863E+00
    -6.878E+00   -6.892E+00   -6.906E+00   -6.921E+00   -6.935E+00   -6.949E+00   -6.964E+00   -6.978E+00   -6.993E+00   -7.007E+00
    -7.021E+00   -7.036E+00   -7.050E+00   -7.064E+00   -7.079E+00   -7.093E+00   -7.108E+00   -7.122E+00   -7.136E+00   -7.151E+00
    -7.165E+00   -7.179E+00   -7.194E+00   -7.208E+00   -7.223E+00   -7.237E+00   -7.251E+00   -7.266E+00   -7.280E+00   -7.294E+00
    -7.309E+00   -7.323E+00   -7.338E+00   -7.352E+00   -7.366E+00   -7.381E+00   -7.395E+00   -7.409E+00   -7.424E+00   -7.438E+00
    -7.453E+00   -7.467E+00   -7.481E+00   -7.496E+00   -7.510E+00   -7.524E+00   -7.539E+00   -7.553E+00   -7.568E+00   -7.582E+00
    -7.596E+00   -7.611E+00   -7.625E+00   -7.639E+00   -7.654E+00   -7.668E+00   -7.683E+00   -7.697E+00
 Asp      Conc. = 2.83E+01
