 LCModel (Version 6.3-1L) Copyright: S.W. Provencher.          Ref.: Magn. Reson. Med. 30:672-679 (1993).                
 Slice#3 Row#6 Col#8  PD_24_press_2_raw_act
 36 lines in following concentration table = NCONC+1
    Conc.  %SD /Cr+PCr  Metabolite                                         
    0.000 999%   0.000 Ala                                                 
   69.452 111%   0.615 Asp                                                 
  112.920  54%   1.000 Cr                                                  
    0.000 999%   0.000 PCr                                                 
   37.024 124%   0.328 GABA                                                
   69.831  67%   0.618 Glc                                                 
  158.236 131%   1.401 Gln                                                 
  431.728  55%   3.823 Glu                                                 
    0.000 999%   0.000 GPC                                                 
  121.297  23%   1.074 PCh                                                 
  230.361  37%   2.040 GSH                                                 
  398.383  65%   3.528 Ins                                                 
    0.000 999%   0.000 Lac                                                 
  605.560  16%   5.363 NAA                                                 
  346.063  26%   3.065 NAAG                                                
   14.857  97%   0.132 Scyllo                                              
   77.525  97%   0.687 Tau                                                 
   62.984  96%   0.558 -CrCH2                                              
  121.297  23%   1.074 GPC+PCh                                             
  951.623  13%   8.427 NAA+NAAG                                            
  112.920  54%   1.000 Cr+PCr                                              
  589.964  51%   5.225 Glu+Gln                                             
  681.764 172%   6.038 Lip13a                                              
  718.301  98%   6.361 Lip13b                                              
  414.789  53%   3.673 Lip09                                               
  828.843  38%   7.340 MM09                                                
  211.972  65%   1.877 Lip20                                               
 1.01E+03  53%   8.976 MM20                                                
  250.233  74%   2.216 MM12                                                
   38.082 999%   0.337 MM14                                                
  438.374  65%   3.882 MM17                                                
 1.40E+03  46%  12.399 Lip13a+Lip13b                                       
 1.69E+03  34%  14.952 MM14+Lip13a+Lip13b+MM12                             
 1.24E+03  22%  11.013 MM09+Lip09                                          
 1.23E+03  43%  10.853 MM20+Lip20                                          
   6 lines in following misc. output table
  FWHM = 0.031 ppm    S/N =   3                                            
  Data shift = 0.015 ppm                                                   
  Ph:  30 deg      32.1 deg/ppm                                            
  alphaB,S = 8.5E+01,   3.2E+00                                            
   14 spline knots.   Ns = 5(1)                                            
  ( 9) 2 infls.   ( 9) 1 extrs.                                            
  498 points on ppm-axis = NY
      4.000000     3.992357     3.984714     3.977070     3.969427     3.961784     3.954141     3.946497     3.938854     3.931211
      3.923568     3.915925     3.908281     3.900638     3.892995     3.885352     3.877708     3.870065     3.862422     3.854779
      3.847136     3.839492     3.831849     3.824206     3.816563     3.808919     3.801276     3.793633     3.785990     3.778347
      3.770703     3.763060     3.755417     3.747774     3.740130     3.732487     3.724844     3.717201     3.709558     3.701914
      3.694271     3.686628     3.678985     3.671341     3.663698     3.656055     3.648412     3.640769     3.633125     3.625482
      3.617839     3.610196     3.602552     3.594909     3.587266     3.579623     3.571980     3.564336     3.556693     3.549050
      3.541407     3.533763     3.526120     3.518477     3.510834     3.503191     3.495547     3.487904     3.480261     3.472618
      3.464974     3.457331     3.449688     3.442045     3.434402     3.426758     3.419115     3.411472     3.403829     3.396185
      3.388542     3.380899     3.373256     3.365613     3.357969     3.350326     3.342683     3.335040     3.327396     3.319753
      3.312110     3.304467     3.296824     3.289180     3.281537     3.273894     3.266251     3.258607     3.250964     3.243321
      3.235678     3.228034     3.220391     3.212748     3.205105     3.197462     3.189818     3.182175     3.174532     3.166889
      3.159245     3.151602     3.143959     3.136316     3.128673     3.121029     3.113386     3.105743     3.098100     3.090456
      3.082813     3.075170     3.067527     3.059884     3.052240     3.044597     3.036954     3.029311     3.021667     3.014024
      3.006381     2.998738     2.991095     2.983451     2.975808     2.968165     2.960522     2.952878     2.945235     2.937592
      2.929949     2.922306     2.914662     2.907019     2.899376     2.891733     2.884089     2.876446     2.868803     2.861160
      2.853517     2.845873     2.838230     2.830587     2.822944     2.815300     2.807657     2.800014     2.792371     2.784728
      2.777084     2.769441     2.761798     2.754155     2.746511     2.738868     2.731225     2.723582     2.715939     2.708295
      2.700652     2.693009     2.685366     2.677722     2.670079     2.662436     2.654793     2.647150     2.639506     2.631863
      2.624220     2.616577     2.608933     2.601290     2.593647     2.586004     2.578361     2.570717     2.563074     2.555431
      2.547788     2.540144     2.532501     2.524858     2.517215     2.509572     2.501928     2.494285     2.486642     2.478999
      2.471355     2.463712     2.456069     2.448426     2.440783     2.433139     2.425496     2.417853     2.410210     2.402566
      2.394923     2.387280     2.379637     2.371994     2.364350     2.356707     2.349064     2.341421     2.333777     2.326134
      2.318491     2.310848     2.303205     2.295561     2.287918     2.280275     2.272632     2.264988     2.257345     2.249702
      2.242059     2.234416     2.226772     2.219129     2.211486     2.203843     2.196199     2.188556     2.180913     2.173270
      2.165627     2.157983     2.150340     2.142697     2.135054     2.127410     2.119767     2.112124     2.104481     2.096838
      2.089194     2.081551     2.073908     2.066265     2.058621     2.050978     2.043335     2.035692     2.028049     2.020405
      2.012762     2.005119     1.997476     1.989833     1.982190     1.974546     1.966903     1.959260     1.951617     1.943974
      1.936331     1.928688     1.921045     1.913402     1.905759     1.898115     1.890472     1.882829     1.875186     1.867543
      1.859900     1.852257     1.844614     1.836971     1.829327     1.821684     1.814041     1.806398     1.798755     1.791112
      1.783469     1.775826     1.768183     1.760540     1.752896     1.745253     1.737610     1.729967     1.722324     1.714681
      1.707038     1.699395     1.691752     1.684108     1.676465     1.668822     1.661179     1.653536     1.645893     1.638250
      1.630607     1.622964     1.615321     1.607677     1.600034     1.592391     1.584748     1.577105     1.569462     1.561819
      1.554176     1.546533     1.538890     1.531246     1.523603     1.515960     1.508317     1.500674     1.493031     1.485388
      1.477745     1.470102     1.462458     1.454815     1.447172     1.439529     1.431886     1.424243     1.416600     1.408957
      1.401314     1.393671     1.386027     1.378384     1.370741     1.363098     1.355455     1.347812     1.340169     1.332526
      1.324883     1.317240     1.309596     1.301953     1.294310     1.286667     1.279024     1.271381     1.263738     1.256095
      1.248452     1.240808     1.233165     1.225522     1.217879     1.210236     1.202593     1.194950     1.187307     1.179664
      1.172021     1.164377     1.156734     1.149091     1.141448     1.133805     1.126162     1.118519     1.110876     1.103233
      1.095590     1.087946     1.080303     1.072660     1.065017     1.057374     1.049731     1.042088     1.034445     1.026802
      1.019158     1.011515     1.003872     0.996229     0.988586     0.980943     0.973300     0.965657     0.958014     0.950371
      0.942727     0.935084     0.927441     0.919798     0.912155     0.904512     0.896869     0.889226     0.881583     0.873940
      0.866296     0.858653     0.851010     0.843367     0.835724     0.828081     0.820438     0.812795     0.805152     0.797508
      0.789865     0.782222     0.774579     0.766936     0.759293     0.751650     0.744007     0.736364     0.728721     0.721077
      0.713434     0.705791     0.698148     0.690505     0.682862     0.675219     0.667576     0.659933     0.652290     0.644646
      0.637003     0.629360     0.621717     0.614074     0.606431     0.598788     0.591145     0.583502     0.575858     0.568215
      0.560572     0.552929     0.545286     0.537643     0.530000     0.522357     0.514714     0.507071     0.499427     0.491784
      0.484141     0.476498     0.468855     0.461212     0.453569     0.445925     0.438282     0.430639     0.422996     0.415353
      0.407710     0.400067     0.392424     0.384780     0.377137     0.369494     0.361851     0.354208     0.346565     0.338922
      0.331278     0.323635     0.315992     0.308349     0.300706     0.293063     0.285420     0.277777     0.270133     0.262490
      0.254847     0.247204     0.239561     0.231918     0.224275     0.216631     0.208988     0.201345
 NY phased data points follow
  -1.07749E+00 -3.36044E+00 -1.39720E+01 -1.73504E+01 -3.37603E-01 -5.68324E+00 -1.58502E+01 -6.60128E+00 -1.09417E+01 -1.16439E+01
  -1.76412E+00  1.37119E+00 -6.97756E+00 -3.52604E+00 -1.13179E+01 -9.07520E+00 -1.09050E+01 -1.24714E+00 -3.82689E+00  6.03688E+00
  -7.27628E+00  4.39435E+00 -9.17857E+00  1.03896E+01  3.24382E+00  7.17922E+00 -6.72710E+00  2.76593E+00  9.32618E+00 -1.00469E+01
  -1.35726E+01 -4.51617E+00 -1.11442E+01 -1.03282E+01 -2.02497E+01 -4.88587E+00 -8.01262E+00 -9.26870E+00 -1.22655E+01  7.70693E-01
  -1.48476E+01 -3.74314E+00 -1.62349E+01 -1.22824E+01 -9.80515E+00 -9.25101E+00 -2.23823E+00 -1.06961E+00 -1.08720E+01 -7.24946E+00
  -1.77290E+01 -2.60542E+00 -7.53444E-01 -1.01357E+01 -4.27566E+00 -2.34186E+00 -6.42517E+00 -8.27733E+00 -4.35638E+00 -7.47931E+00
  -1.15389E+01 -1.39277E+01 -1.78368E+01 -8.47132E+00 -9.78969E+00 -6.91504E+00 -1.50349E+01 -8.13476E+00  3.36968E+00 -5.92805E+00
  -1.01968E+01  2.91743E+00 -7.71219E+00 -4.04775E+00 -5.62841E+00 -1.56640E+00  2.89509E-01  5.36142E+00 -7.58944E+00 -4.48313E+00
  -2.11331E+01 -8.90113E+00 -1.17090E+01 -9.05036E+00 -1.55038E+01 -3.63070E+00 -8.13785E+00 -1.16004E+01 -1.77935E+01 -1.78293E+01
  -7.05160E+00 -1.09564E+00 -1.98628E+01 -9.80515E+00 -1.18975E+01 -1.91434E+01 -1.48934E+01 -5.75584E+00 -1.12109E+01 -1.23190E+01
  -1.22718E+01  1.03343E+00  9.21549E+00  1.38188E+01 -3.35227E+00  1.06598E+01 -1.05091E+01 -4.07743E+00 -1.27440E+01 -1.15808E+01
  -1.42892E+01 -6.51708E+00 -9.85332E+00 -1.17900E+01 -1.93210E+01 -2.19296E+01 -2.55143E+00 -1.47458E+01 -1.66628E+01 -7.83105E+00
  -1.06525E+01 -9.51591E+00 -1.28249E+01 -1.64705E+01 -1.33479E+01 -5.94900E+00 -7.23656E+00 -6.55224E+00  2.30339E+00  4.00421E+00
  -3.62192E+00  1.13049E+00 -1.43001E+01 -1.19382E+01 -1.49661E+01 -1.34599E+01 -1.01498E+01 -1.01899E+01 -1.24230E+01 -1.54349E+01
  -2.47211E+00 -1.53860E+01 -1.10100E+01 -1.12271E+01 -1.96275E+01 -1.48168E+01 -7.96347E+00  6.47378E+00 -7.64790E+00 -5.82374E+00
  -2.31975E+01 -1.11679E+01 -1.80173E+01 -5.25807E+00 -9.93362E+00 -8.04863E+00 -1.30399E-01 -5.80595E+00 -1.41827E+01 -1.40480E+01
  -1.94693E+01 -1.60200E+01 -1.03012E+01 -1.24000E+01 -1.31543E+01 -8.05646E+00 -8.26253E+00 -1.11503E+01 -1.35896E+01 -1.33523E+01
  -1.42790E+01 -1.85713E+01 -1.59754E+01 -5.25708E+00 -1.82808E+01 -1.71467E+01 -1.04994E+01 -2.36848E+01 -1.27075E+01 -1.69273E+01
  -1.40848E+01 -1.28816E+01 -1.84644E+01 -1.72594E+01 -1.21078E+01 -1.30659E+01 -2.61811E+01 -1.10978E+01 -2.38944E+01 -1.83124E+01
  -1.63778E+01 -7.23340E+00 -2.21081E+01 -8.40036E+00  2.22980E-01 -1.57859E+01 -1.83189E+01 -1.99812E+01 -1.17289E+01 -1.17317E+01
  -8.54742E+00 -1.07366E+01 -1.77894E+01 -1.11349E+01 -1.72631E+01 -7.13947E+00 -1.09835E+01 -1.94684E+01 -1.52454E+01 -1.03060E+01
  -1.65007E+01 -1.20130E+01 -1.72217E+01 -9.19330E+00 -1.17170E+01 -8.67994E+00 -1.39509E+00 -5.10900E-01 -1.94985E+00 -6.78483E+00
  -1.04213E+01 -1.75505E+01 -1.96068E+01 -1.45361E+01 -1.21056E+01 -1.57770E+00 -5.67668E+00 -5.07115E+00 -1.08347E+01 -1.58554E+01
   4.60498E-01 -5.83353E+00 -8.61809E+00 -1.69074E+01 -8.10461E+00 -6.03708E+00 -2.27489E+00 -8.17302E-01 -1.07914E+01 -7.30991E+00
  -1.65108E+01 -1.62947E+01 -8.62524E+00 -1.18211E+01 -7.96390E+00 -1.11518E+01 -1.76521E+01 -1.59879E+01 -8.97721E+00 -1.38129E+01
  -6.98751E+00 -2.97542E+00  2.50695E+00  1.53219E+01  2.36381E+00  8.66468E+00  1.14387E+01  9.19090E+00  9.82227E+00  2.00372E+01
   2.10936E+01  2.95818E+01  1.70916E+01  4.64095E+00 -4.00290E+00 -9.45055E+00 -8.21669E+00 -1.14763E+01 -1.25067E+01 -1.44110E+01
  -1.26550E+01 -5.41661E+00 -1.50673E+01 -7.38683E+00 -1.07208E+01 -1.74500E+01 -9.72753E+00 -2.18069E+01 -2.05819E+01 -1.25373E+01
  -1.05270E+01 -5.23336E+00 -3.72330E+00  1.07571E-01 -1.35340E+01 -8.81233E+00 -1.53319E+01 -1.75735E+01 -1.57872E+01 -8.62206E+00
  -5.95167E+00 -6.05190E+00 -1.14520E+01 -1.83786E+01 -1.34350E+01 -1.96881E+01 -2.10443E+01 -1.57754E+01 -1.13549E+01 -6.23774E+00
  -1.65961E+01 -1.40438E+00 -1.65301E+01 -1.24035E+01 -1.60310E+01 -9.70426E+00  4.75533E-01 -1.10698E+01  1.95578E+00 -1.57518E+01
  -9.52276E+00 -1.13532E+01 -1.03332E+01 -2.80652E+00  1.21761E+00 -6.15232E+00 -6.93995E+00 -1.07700E+01 -1.22596E+01 -1.29168E+01
  -1.96850E+01 -1.42634E+01 -2.12098E+01 -1.72398E+01 -2.05541E+01 -9.92158E+00 -9.20232E+00 -1.16554E+01 -9.00490E-01  7.62445E-02
  -2.71680E+00 -8.19703E+00 -9.85911E+00 -1.65488E+01 -2.10400E+01 -9.45934E+00 -2.10167E+01 -1.53903E+01 -1.76294E+01 -1.51590E+01
  -2.24116E+01 -1.77776E+01 -4.62003E+00 -1.74769E+01 -9.21674E+00 -8.17214E+00 -7.86940E+00 -8.26632E+00 -6.07973E+00  4.41358E-01
  -1.26443E-01 -3.86581E+00 -4.93485E+00  5.82758E+00 -6.04473E+00  2.55243E+00  7.63124E+00  7.88603E-01 -8.40683E+00 -3.39593E+00
  -1.08778E+01 -3.90487E+00 -5.15613E+00  1.05109E-01 -9.05925E+00 -7.90843E+00 -1.72217E+01 -6.05910E+00 -3.58641E+00 -6.57672E+00
  -1.33471E+01 -1.26536E+01  8.85565E-01 -4.81084E+00 -4.10364E+00 -1.19915E+01 -1.17876E+01 -8.96471E+00 -8.18569E+00 -6.53806E+00
  -6.97476E+00 -1.52346E+00 -1.01340E+01 -7.14537E+00 -1.47581E+01 -7.15594E+00 -1.89017E+01 -7.30689E+00 -3.74173E+00 -1.66438E+01
  -1.19740E+01  1.16146E+01 -6.87629E+00 -4.22045E+00 -4.93111E+00 -6.92349E+00 -1.04003E+01  1.13288E+00 -2.15321E+01 -6.95622E-02
  -1.25177E+01 -1.84910E+00 -4.36683E+00 -1.11771E+01  4.37290E+00  2.63345E+00  7.52174E+00 -6.75540E-01 -2.07032E+00 -4.22704E+00
  -9.42540E+00  1.20848E+00 -7.05197E+00 -7.97552E-01  6.45458E-02 -6.55762E+00 -6.20316E+00 -2.55187E+00 -1.09947E+01 -1.45685E+00
   3.60126E+00  2.96018E+00 -8.58997E+00  8.48668E+00 -8.68259E+00  1.78611E+00 -5.14293E+00 -3.89066E-01 -1.50209E+01 -1.01927E+01
  -2.60075E+00 -1.87833E+00  5.74185E+00 -4.51832E+00 -1.01180E+01 -5.69485E+00 -1.10941E+01  2.20383E+00 -1.04462E+01 -4.93493E+00
  -1.12290E+01 -4.80715E+00 -8.07402E+00 -8.61273E+00 -1.77318E+01 -2.31822E+01 -8.56849E+00 -1.05457E+01 -4.56952E+00 -1.90179E+01
  -1.03978E+01 -1.07662E+01 -1.01964E+01  2.75038E+00 -3.77216E+00 -1.00384E+01 -5.96380E+00 -2.25610E+01 -1.08242E+01  1.65473E+00
  -2.04589E+01 -2.25338E+00 -1.06212E+00 -6.24735E+00 -8.37015E+00 -1.01536E+01  3.48456E+00 -9.71881E+00 -6.44454E+00 -4.75990E-01
  -3.49575E+00 -1.05153E+01 -1.67137E+01 -1.41481E+01 -1.31172E+01 -6.46624E+00 -6.88270E+00 -1.05286E+01 -1.59636E+01 -2.00179E+01
  -2.84241E+00 -1.08241E+01 -2.31403E+00 -6.08933E-01 -4.96236E+00 -9.92535E+00 -1.15318E+01 -2.66206E+00 -9.14648E+00 -1.72100E+01
  -1.08604E+01 -8.11208E+00 -7.97493E+00 -1.51882E+01 -1.43145E+01 -7.90076E+00  2.05629E-01 -6.68717E+00
 NY points of the fit to the data follow
  -7.19459E+00 -7.11448E+00 -7.04835E+00 -7.00122E+00 -6.99396E+00 -7.26698E+00 -7.87839E+00 -8.19197E+00 -7.39134E+00 -5.58737E+00
  -3.96104E+00 -3.28607E+00 -3.73821E+00 -5.11094E+00 -6.79329E+00 -7.39312E+00 -7.35327E+00 -7.05460E+00 -6.85704E+00 -6.48099E+00
  -6.17412E+00 -6.06104E+00 -5.95605E+00 -5.81855E+00 -5.61318E+00 -5.20320E+00 -3.52610E+00 -6.56648E-01  8.67982E-01  4.76953E-01
  -5.44116E-01 -3.21592E+00 -6.43794E+00 -8.16013E+00 -8.94737E+00 -9.33039E+00 -9.94294E+00 -9.95540E+00 -9.35941E+00 -8.74762E+00
  -8.28816E+00 -7.87154E+00 -7.65433E+00 -7.43498E+00 -6.62041E+00 -5.14192E+00 -4.28424E+00 -4.73998E+00 -6.19275E+00 -8.27648E+00
  -1.00592E+01 -1.06558E+01 -1.02250E+01 -9.46042E+00 -8.89261E+00 -8.64484E+00 -8.31794E+00 -7.81041E+00 -7.37751E+00 -7.16076E+00
  -7.29471E+00 -7.90012E+00 -8.66906E+00 -9.25437E+00 -9.38807E+00 -9.16010E+00 -8.77416E+00 -8.42037E+00 -8.23350E+00 -8.07160E+00
  -7.87653E+00 -7.89810E+00 -7.83505E+00 -7.71991E+00 -7.80077E+00 -8.05927E+00 -8.35169E+00 -8.72624E+00 -9.16152E+00 -9.32387E+00
  -9.20641E+00 -8.99984E+00 -8.79364E+00 -8.46537E+00 -8.35081E+00 -8.74347E+00 -9.37602E+00 -9.90332E+00 -1.03084E+01 -1.01812E+01
  -9.64146E+00 -9.06589E+00 -8.78607E+00 -8.65936E+00 -8.58699E+00 -8.49617E+00 -8.25980E+00 -7.90857E+00 -7.54722E+00 -6.83583E+00
  -4.74489E+00  9.92914E-01  6.85123E+00  8.29344E+00  6.04306E+00  1.18598E+00 -6.66148E+00 -1.14414E+01 -1.27811E+01 -1.19677E+01
  -1.16063E+01 -1.14596E+01 -1.12718E+01 -1.11009E+01 -1.09700E+01 -1.08506E+01 -1.07750E+01 -1.07703E+01 -1.07706E+01 -1.07078E+01
  -1.05961E+01 -1.03559E+01 -9.94280E+00 -9.43774E+00 -8.31660E+00 -6.14210E+00 -4.45884E+00 -4.23531E+00 -4.92067E+00 -6.46548E+00
  -8.33319E+00 -9.13448E+00 -9.75347E+00 -1.05476E+01 -1.17450E+01 -1.29969E+01 -1.33806E+01 -1.26378E+01 -1.13240E+01 -1.00327E+01
  -9.28306E+00 -9.28944E+00 -9.62107E+00 -1.02515E+01 -1.06833E+01 -1.09326E+01 -1.10217E+01 -1.11312E+01 -1.13141E+01 -1.14715E+01
  -1.16252E+01 -1.18846E+01 -1.21731E+01 -1.22862E+01 -1.21952E+01 -1.19600E+01 -1.15681E+01 -1.13961E+01 -1.17448E+01 -1.23994E+01
  -1.29636E+01 -1.32116E+01 -1.29750E+01 -1.24286E+01 -1.20877E+01 -1.21581E+01 -1.25013E+01 -1.30949E+01 -1.34189E+01 -1.33177E+01
  -1.30189E+01 -1.27727E+01 -1.27547E+01 -1.32105E+01 -1.38749E+01 -1.42071E+01 -1.40163E+01 -1.35422E+01 -1.31864E+01 -1.32269E+01
  -1.36318E+01 -1.37805E+01 -1.36420E+01 -1.32301E+01 -1.28493E+01 -1.27433E+01 -1.25335E+01 -1.17991E+01 -1.06978E+01 -9.41757E+00
  -8.74246E+00 -9.16776E+00 -1.02571E+01 -1.15589E+01 -1.28548E+01 -1.36918E+01 -1.37181E+01 -1.30591E+01 -1.21370E+01 -1.10992E+01
  -1.01572E+01 -9.62456E+00 -9.33562E+00 -9.23280E+00 -9.38844E+00 -1.00110E+01 -1.11257E+01 -1.26240E+01 -1.40677E+01 -1.46805E+01
  -1.45534E+01 -1.40706E+01 -1.27924E+01 -1.09141E+01 -8.95203E+00 -7.72547E+00 -7.60032E+00 -8.41017E+00 -1.02479E+01 -1.25095E+01
  -1.44163E+01 -1.55073E+01 -1.52436E+01 -1.40406E+01 -1.21940E+01 -1.01692E+01 -8.82140E+00 -8.62152E+00 -9.29928E+00 -1.03761E+01
  -1.11105E+01 -1.13244E+01 -1.09255E+01 -9.90354E+00 -8.64931E+00 -7.69847E+00 -7.57058E+00 -8.17302E+00 -8.98996E+00 -1.00962E+01
  -1.13224E+01 -1.21198E+01 -1.19605E+01 -1.09699E+01 -9.76795E+00 -8.44333E+00 -7.53246E+00 -7.38599E+00 -7.86489E+00 -8.34680E+00
  -8.51946E+00 -8.31137E+00 -6.55262E+00 -5.68519E-01  6.50921E+00  1.01473E+01  1.03358E+01  1.03417E+01  1.40470E+01  2.05866E+01
   2.37080E+01  2.36779E+01  1.75206E+01  4.98133E+00 -3.62406E+00 -7.31515E+00 -7.62038E+00 -8.41291E+00 -9.04193E+00 -9.44553E+00
  -9.71793E+00 -9.87559E+00 -9.82636E+00 -9.77161E+00 -9.83901E+00 -1.00305E+01 -1.03107E+01 -1.06429E+01 -1.09363E+01 -1.11300E+01
  -1.12128E+01 -1.12371E+01 -1.12637E+01 -1.12590E+01 -1.12431E+01 -1.12904E+01 -1.13706E+01 -1.14511E+01 -1.15321E+01 -1.15575E+01
  -1.14974E+01 -1.13854E+01 -1.12430E+01 -1.10998E+01 -1.10033E+01 -1.09411E+01 -1.09079E+01 -1.08711E+01 -1.08101E+01 -1.07281E+01
  -1.06219E+01 -1.04775E+01 -1.03402E+01 -1.02270E+01 -1.01445E+01 -1.00835E+01 -1.00454E+01 -1.00298E+01 -1.00348E+01 -1.00604E+01
  -1.01061E+01 -1.01720E+01 -1.02563E+01 -1.03564E+01 -1.04691E+01 -1.05919E+01 -1.07207E+01 -1.08527E+01 -1.09849E+01 -1.11151E+01
  -1.12408E+01 -1.13609E+01 -1.14738E+01 -1.15786E+01 -1.16738E+01 -1.17594E+01 -1.18350E+01 -1.19014E+01 -1.19584E+01 -1.20065E+01
  -1.20455E+01 -1.20763E+01 -1.20990E+01 -1.21146E+01 -1.21229E+01 -1.21240E+01 -1.21166E+01 -1.20997E+01 -1.20700E+01 -1.20218E+01
  -1.19451E+01 -1.18254E+01 -1.16418E+01 -1.13684E+01 -1.09739E+01 -1.04259E+01 -9.69550E+00 -8.76586E+00 -7.63900E+00 -6.34397E+00
  -4.93792E+00 -3.50578E+00 -2.15004E+00 -9.79183E-01 -8.91680E-02  4.50561E-01  6.10442E-01  4.02665E-01 -1.21225E-01 -8.83370E-01
  -1.79221E+00 -2.75908E+00 -3.70808E+00 -4.58515E+00 -5.35817E+00 -6.01657E+00 -6.56409E+00 -7.01482E+00 -7.38582E+00 -7.69539E+00
  -7.95873E+00 -8.18882E+00 -8.39407E+00 -8.58071E+00 -8.75145E+00 -8.90835E+00 -9.05140E+00 -9.18083E+00 -9.29515E+00 -9.39334E+00
  -9.47309E+00 -9.53298E+00 -9.57049E+00 -9.58387E+00 -9.57001E+00 -9.52661E+00 -9.45038E+00 -9.33923E+00 -9.19024E+00 -9.00174E+00
  -8.77138E+00 -8.49849E+00 -8.18242E+00 -7.82476E+00 -7.42728E+00 -6.99409E+00 -6.52961E+00 -6.04084E+00 -5.53526E+00 -5.02268E+00
  -4.51271E+00 -4.01644E+00 -3.54408E+00 -3.10671E+00 -2.71376E+00 -2.37451E+00 -2.09550E+00 -1.88238E+00 -1.73770E+00 -1.66303E+00
  -1.65684E+00 -1.71660E+00 -1.83683E+00 -2.01165E+00 -2.23315E+00 -2.49393E+00 -2.78524E+00 -3.09935E+00 -3.42776E+00 -3.76369E+00
  -4.10022E+00 -4.43252E+00 -4.75559E+00 -5.06638E+00 -5.36163E+00 -5.64007E+00 -5.90024E+00 -6.14236E+00 -6.36598E+00 -6.57205E+00
  -6.76068E+00 -6.93341E+00 -7.09085E+00 -7.23473E+00 -7.36560E+00 -7.48501E+00 -7.59341E+00 -7.69240E+00 -7.78245E+00 -7.86493E+00
  -7.93998E+00 -8.00873E+00 -8.07125E+00 -8.12872E+00 -8.18114E+00 -8.22946E+00 -8.27341E+00 -8.31384E+00 -8.35056E+00 -8.38448E+00
  -8.41534E+00 -8.44381E+00 -8.46947E+00 -8.49304E+00 -8.51421E+00 -8.53374E+00 -8.55120E+00 -8.56715E+00 -8.58113E+00 -8.59381E+00
  -8.60484E+00 -8.61486E+00 -8.62337E+00 -8.63088E+00 -8.63691E+00 -8.64212E+00 -8.64612E+00 -8.64948E+00 -8.65164E+00 -8.65312E+00
  -8.65346E+00 -8.65331E+00 -8.65223E+00 -8.65072E+00 -8.64821E+00 -8.64523E+00 -8.64136E+00 -8.63723E+00 -8.63233E+00 -8.62716E+00
  -8.62113E+00 -8.61483E+00 -8.60783E+00 -8.60073E+00 -8.59299E+00 -8.58508E+00 -8.57646E+00 -8.56773E+00 -8.55848E+00 -8.54925E+00
  -8.53949E+00 -8.52968E+00 -8.51932E+00 -8.50904E+00 -8.49841E+00 -8.48796E+00 -8.47711E+00 -8.46638E+00
 NY background values follow
    -8.938E+00   -8.966E+00   -8.994E+00   -9.022E+00   -9.050E+00   -9.078E+00   -9.105E+00   -9.133E+00   -9.161E+00   -9.188E+00
    -9.216E+00   -9.243E+00   -9.271E+00   -9.298E+00   -9.325E+00   -9.352E+00   -9.379E+00   -9.407E+00   -9.433E+00   -9.460E+00
    -9.487E+00   -9.514E+00   -9.541E+00   -9.567E+00   -9.594E+00   -9.620E+00   -9.647E+00   -9.673E+00   -9.699E+00   -9.725E+00
    -9.752E+00   -9.778E+00   -9.804E+00   -9.829E+00   -9.855E+00   -9.881E+00   -9.907E+00   -9.932E+00   -9.958E+00   -9.983E+00
    -1.001E+01   -1.003E+01   -1.006E+01   -1.008E+01   -1.011E+01   -1.013E+01   -1.016E+01   -1.018E+01   -1.021E+01   -1.023E+01
    -1.026E+01   -1.028E+01   -1.031E+01   -1.033E+01   -1.036E+01   -1.038E+01   -1.040E+01   -1.043E+01   -1.045E+01   -1.048E+01
    -1.050E+01   -1.052E+01   -1.055E+01   -1.057E+01   -1.059E+01   -1.062E+01   -1.064E+01   -1.066E+01   -1.069E+01   -1.071E+01
    -1.073E+01   -1.076E+01   -1.078E+01   -1.080E+01   -1.082E+01   -1.085E+01   -1.087E+01   -1.089E+01   -1.091E+01   -1.094E+01
    -1.096E+01   -1.098E+01   -1.100E+01   -1.102E+01   -1.105E+01   -1.107E+01   -1.109E+01   -1.111E+01   -1.113E+01   -1.115E+01
    -1.118E+01   -1.120E+01   -1.122E+01   -1.124E+01   -1.126E+01   -1.128E+01   -1.130E+01   -1.132E+01   -1.134E+01   -1.136E+01
    -1.138E+01   -1.140E+01   -1.142E+01   -1.144E+01   -1.146E+01   -1.148E+01   -1.150E+01   -1.152E+01   -1.154E+01   -1.156E+01
    -1.158E+01   -1.160E+01   -1.162E+01   -1.164E+01   -1.166E+01   -1.168E+01   -1.169E+01   -1.171E+01   -1.173E+01   -1.175E+01
    -1.177E+01   -1.179E+01   -1.181E+01   -1.182E+01   -1.184E+01   -1.186E+01   -1.188E+01   -1.189E+01   -1.191E+01   -1.193E+01
    -1.195E+01   -1.196E+01   -1.198E+01   -1.200E+01   -1.202E+01   -1.203E+01   -1.205E+01   -1.207E+01   -1.208E+01   -1.210E+01
    -1.212E+01   -1.213E+01   -1.215E+01   -1.216E+01   -1.218E+01   -1.220E+01   -1.221E+01   -1.223E+01   -1.224E+01   -1.226E+01
    -1.227E+01   -1.229E+01   -1.230E+01   -1.232E+01   -1.233E+01   -1.235E+01   -1.236E+01   -1.238E+01   -1.239E+01   -1.241E+01
    -1.242E+01   -1.243E+01   -1.245E+01   -1.246E+01   -1.248E+01   -1.249E+01   -1.250E+01   -1.252E+01   -1.253E+01   -1.254E+01
    -1.256E+01   -1.257E+01   -1.258E+01   -1.260E+01   -1.261E+01   -1.262E+01   -1.263E+01   -1.265E+01   -1.266E+01   -1.267E+01
    -1.268E+01   -1.269E+01   -1.271E+01   -1.272E+01   -1.273E+01   -1.274E+01   -1.275E+01   -1.276E+01   -1.278E+01   -1.279E+01
    -1.280E+01   -1.281E+01   -1.282E+01   -1.283E+01   -1.284E+01   -1.285E+01   -1.286E+01   -1.287E+01   -1.288E+01   -1.289E+01
    -1.290E+01   -1.291E+01   -1.292E+01   -1.293E+01   -1.294E+01   -1.295E+01   -1.296E+01   -1.296E+01   -1.297E+01   -1.298E+01
    -1.299E+01   -1.300E+01   -1.301E+01   -1.302E+01   -1.302E+01   -1.303E+01   -1.304E+01   -1.305E+01   -1.306E+01   -1.306E+01
    -1.307E+01   -1.308E+01   -1.308E+01   -1.309E+01   -1.310E+01   -1.311E+01   -1.311E+01   -1.312E+01   -1.313E+01   -1.313E+01
    -1.314E+01   -1.314E+01   -1.315E+01   -1.316E+01   -1.316E+01   -1.317E+01   -1.317E+01   -1.318E+01   -1.318E+01   -1.319E+01
    -1.319E+01   -1.320E+01   -1.320E+01   -1.321E+01   -1.321E+01   -1.322E+01   -1.322E+01   -1.322E+01   -1.323E+01   -1.323E+01
    -1.324E+01   -1.324E+01   -1.324E+01   -1.325E+01   -1.325E+01   -1.325E+01   -1.326E+01   -1.326E+01   -1.326E+01   -1.326E+01
    -1.327E+01   -1.327E+01   -1.327E+01   -1.327E+01   -1.327E+01   -1.328E+01   -1.328E+01   -1.328E+01   -1.328E+01   -1.328E+01
    -1.328E+01   -1.329E+01   -1.329E+01   -1.329E+01   -1.329E+01   -1.329E+01   -1.329E+01   -1.329E+01   -1.329E+01   -1.329E+01
    -1.329E+01   -1.329E+01   -1.329E+01   -1.329E+01   -1.329E+01   -1.329E+01   -1.329E+01   -1.329E+01   -1.328E+01   -1.328E+01
    -1.328E+01   -1.328E+01   -1.328E+01   -1.328E+01   -1.328E+01   -1.327E+01   -1.327E+01   -1.327E+01   -1.327E+01   -1.326E+01
    -1.326E+01   -1.326E+01   -1.326E+01   -1.325E+01   -1.325E+01   -1.325E+01   -1.324E+01   -1.324E+01   -1.324E+01   -1.323E+01
    -1.323E+01   -1.322E+01   -1.322E+01   -1.322E+01   -1.321E+01   -1.321E+01   -1.320E+01   -1.320E+01   -1.319E+01   -1.319E+01
    -1.318E+01   -1.318E+01   -1.317E+01   -1.317E+01   -1.316E+01   -1.315E+01   -1.315E+01   -1.314E+01   -1.314E+01   -1.313E+01
    -1.312E+01   -1.312E+01   -1.311E+01   -1.310E+01   -1.309E+01   -1.309E+01   -1.308E+01   -1.307E+01   -1.307E+01   -1.306E+01
    -1.305E+01   -1.304E+01   -1.303E+01   -1.303E+01   -1.302E+01   -1.301E+01   -1.300E+01   -1.299E+01   -1.298E+01   -1.297E+01
    -1.296E+01   -1.296E+01   -1.295E+01   -1.294E+01   -1.293E+01   -1.292E+01   -1.291E+01   -1.290E+01   -1.289E+01   -1.288E+01
    -1.287E+01   -1.286E+01   -1.284E+01   -1.283E+01   -1.282E+01   -1.281E+01   -1.280E+01   -1.279E+01   -1.278E+01   -1.277E+01
    -1.275E+01   -1.274E+01   -1.273E+01   -1.272E+01   -1.271E+01   -1.269E+01   -1.268E+01   -1.267E+01   -1.266E+01   -1.264E+01
    -1.263E+01   -1.262E+01   -1.260E+01   -1.259E+01   -1.258E+01   -1.256E+01   -1.255E+01   -1.253E+01   -1.252E+01   -1.251E+01
    -1.249E+01   -1.248E+01   -1.246E+01   -1.245E+01   -1.243E+01   -1.242E+01   -1.240E+01   -1.239E+01   -1.237E+01   -1.236E+01
    -1.234E+01   -1.232E+01   -1.231E+01   -1.229E+01   -1.228E+01   -1.226E+01   -1.224E+01   -1.223E+01   -1.221E+01   -1.219E+01
    -1.218E+01   -1.216E+01   -1.214E+01   -1.213E+01   -1.211E+01   -1.209E+01   -1.207E+01   -1.205E+01   -1.204E+01   -1.202E+01
    -1.200E+01   -1.198E+01   -1.196E+01   -1.194E+01   -1.193E+01   -1.191E+01   -1.189E+01   -1.187E+01   -1.185E+01   -1.183E+01
    -1.181E+01   -1.179E+01   -1.177E+01   -1.175E+01   -1.173E+01   -1.171E+01   -1.169E+01   -1.167E+01   -1.165E+01   -1.163E+01
    -1.161E+01   -1.159E+01   -1.157E+01   -1.155E+01   -1.152E+01   -1.150E+01   -1.148E+01   -1.146E+01   -1.144E+01   -1.142E+01
    -1.139E+01   -1.137E+01   -1.135E+01   -1.133E+01   -1.130E+01   -1.128E+01   -1.126E+01   -1.124E+01   -1.121E+01   -1.119E+01
    -1.117E+01   -1.114E+01   -1.112E+01   -1.110E+01   -1.107E+01   -1.105E+01   -1.102E+01   -1.100E+01   -1.098E+01   -1.095E+01
    -1.093E+01   -1.090E+01   -1.088E+01   -1.085E+01   -1.083E+01   -1.080E+01   -1.078E+01   -1.075E+01   -1.073E+01   -1.070E+01
    -1.068E+01   -1.065E+01   -1.062E+01   -1.060E+01   -1.057E+01   -1.055E+01   -1.052E+01   -1.049E+01   -1.047E+01   -1.044E+01
    -1.041E+01   -1.038E+01   -1.036E+01   -1.033E+01   -1.030E+01   -1.028E+01   -1.025E+01   -1.022E+01
 Asp      Conc. = 6.95E+01
