 LCModel (Version 6.3-1L) Copyright: S.W. Provencher.          Ref.: Magn. Reson. Med. 30:672-679 (1993).                
 Slice#1 Row#5 Col#7  PD_24_press_2_raw_act
 36 lines in following concentration table = NCONC+1
    Conc.  %SD /Cr+PCr  Metabolite                                         
  225.817 130%   0.296 Ala                                                 
  199.636  88%   0.262 Asp                                                 
  573.037  77%   0.752 Cr                                                  
  189.122 238%   0.248 PCr                                                 
  105.012 101%   0.138 GABA                                                
  129.906  82%   0.170 Glc                                                 
    0.000 999%   0.000 Gln                                                 
   47.946 999% 6.3E-02 Glu                                                 
  405.574  13%   0.532 GPC                                                 
    0.000 999%   0.000 PCh                                                 
  408.597  47%   0.536 GSH                                                 
 1.48E+03  41%   1.938 Ins                                                 
    0.000 999%   0.000 Lac                                                 
  889.033  22%   1.166 NAA                                                 
  516.300  39%   0.677 NAAG                                                
   34.880  94% 4.6E-02 Scyllo                                              
  202.948  85%   0.266 Tau                                                 
  208.119  81%   0.273 -CrCH2                                              
  405.574  13%   0.532 GPC+PCh                                             
 1.41E+03  14%   1.844 NAA+NAAG                                            
  762.159  18%   1.000 Cr+PCr                                              
   47.946 999% 6.3E-02 Glu+Gln                                             
 5.26E+03  25%   6.900 Lip13a                                              
    0.000 999%   0.000 Lip13b                                              
  888.696  70%   1.166 Lip09                                               
 1.74E+03  34%   2.289 MM09                                                
  605.220  73%   0.794 Lip20                                               
 2.84E+03  30%   3.733 MM20                                                
  489.942  65%   0.643 MM12                                                
 3.97E+03  24%   5.205 MM14                                                
    0.000 999%   0.000 MM17                                                
 5.26E+03  25%   6.900 Lip13a+Lip13b                                       
 9.72E+03   9%  12.748 MM14+Lip13a+Lip13b+MM12                             
 2.63E+03  17%   3.455 MM09+Lip09                                          
 3.45E+03  23%   4.527 MM20+Lip20                                          
   6 lines in following misc. output table
  FWHM = 0.054 ppm    S/N =   2                                            
  Data shift = 0.031 ppm                                                   
  Ph: -10 deg       8.2 deg/ppm                                            
  alphaB,S = 8.5E+01,   9.1E+01                                            
   14 spline knots.   Ns = 5(1)                                            
  (10) 4 infls.   (11) 3 extrs.                                            
  498 points on ppm-axis = NY
      4.000000     3.992357     3.984714     3.977070     3.969427     3.961784     3.954141     3.946497     3.938854     3.931211
      3.923568     3.915925     3.908281     3.900638     3.892995     3.885352     3.877708     3.870065     3.862422     3.854779
      3.847136     3.839492     3.831849     3.824206     3.816563     3.808919     3.801276     3.793633     3.785990     3.778347
      3.770703     3.763060     3.755417     3.747774     3.740130     3.732487     3.724844     3.717201     3.709558     3.701914
      3.694271     3.686628     3.678985     3.671341     3.663698     3.656055     3.648412     3.640769     3.633125     3.625482
      3.617839     3.610196     3.602552     3.594909     3.587266     3.579623     3.571980     3.564336     3.556693     3.549050
      3.541407     3.533763     3.526120     3.518477     3.510834     3.503191     3.495547     3.487904     3.480261     3.472618
      3.464974     3.457331     3.449688     3.442045     3.434402     3.426758     3.419115     3.411472     3.403829     3.396185
      3.388542     3.380899     3.373256     3.365613     3.357969     3.350326     3.342683     3.335040     3.327396     3.319753
      3.312110     3.304467     3.296824     3.289180     3.281537     3.273894     3.266251     3.258607     3.250964     3.243321
      3.235678     3.228034     3.220391     3.212748     3.205105     3.197462     3.189818     3.182175     3.174532     3.166889
      3.159245     3.151602     3.143959     3.136316     3.128673     3.121029     3.113386     3.105743     3.098100     3.090456
      3.082813     3.075170     3.067527     3.059884     3.052240     3.044597     3.036954     3.029311     3.021667     3.014024
      3.006381     2.998738     2.991095     2.983451     2.975808     2.968165     2.960522     2.952878     2.945235     2.937592
      2.929949     2.922306     2.914662     2.907019     2.899376     2.891733     2.884089     2.876446     2.868803     2.861160
      2.853517     2.845873     2.838230     2.830587     2.822944     2.815300     2.807657     2.800014     2.792371     2.784728
      2.777084     2.769441     2.761798     2.754155     2.746511     2.738868     2.731225     2.723582     2.715939     2.708295
      2.700652     2.693009     2.685366     2.677722     2.670079     2.662436     2.654793     2.647150     2.639506     2.631863
      2.624220     2.616577     2.608933     2.601290     2.593647     2.586004     2.578361     2.570717     2.563074     2.555431
      2.547788     2.540144     2.532501     2.524858     2.517215     2.509572     2.501928     2.494285     2.486642     2.478999
      2.471355     2.463712     2.456069     2.448426     2.440783     2.433139     2.425496     2.417853     2.410210     2.402566
      2.394923     2.387280     2.379637     2.371994     2.364350     2.356707     2.349064     2.341421     2.333777     2.326134
      2.318491     2.310848     2.303205     2.295561     2.287918     2.280275     2.272632     2.264988     2.257345     2.249702
      2.242059     2.234416     2.226772     2.219129     2.211486     2.203843     2.196199     2.188556     2.180913     2.173270
      2.165627     2.157983     2.150340     2.142697     2.135054     2.127410     2.119767     2.112124     2.104481     2.096838
      2.089194     2.081551     2.073908     2.066265     2.058621     2.050978     2.043335     2.035692     2.028049     2.020405
      2.012762     2.005119     1.997476     1.989833     1.982190     1.974546     1.966903     1.959260     1.951617     1.943974
      1.936331     1.928688     1.921045     1.913402     1.905759     1.898115     1.890472     1.882829     1.875186     1.867543
      1.859900     1.852257     1.844614     1.836971     1.829327     1.821684     1.814041     1.806398     1.798755     1.791112
      1.783469     1.775826     1.768183     1.760540     1.752896     1.745253     1.737610     1.729967     1.722324     1.714681
      1.707038     1.699395     1.691752     1.684108     1.676465     1.668822     1.661179     1.653536     1.645893     1.638250
      1.630607     1.622964     1.615321     1.607677     1.600034     1.592391     1.584748     1.577105     1.569462     1.561819
      1.554176     1.546533     1.538890     1.531246     1.523603     1.515960     1.508317     1.500674     1.493031     1.485388
      1.477745     1.470102     1.462458     1.454815     1.447172     1.439529     1.431886     1.424243     1.416600     1.408957
      1.401314     1.393671     1.386027     1.378384     1.370741     1.363098     1.355455     1.347812     1.340169     1.332526
      1.324883     1.317240     1.309596     1.301953     1.294310     1.286667     1.279024     1.271381     1.263738     1.256095
      1.248452     1.240808     1.233165     1.225522     1.217879     1.210236     1.202593     1.194950     1.187307     1.179664
      1.172021     1.164377     1.156734     1.149091     1.141448     1.133805     1.126162     1.118519     1.110876     1.103233
      1.095590     1.087946     1.080303     1.072660     1.065017     1.057374     1.049731     1.042088     1.034445     1.026802
      1.019158     1.011515     1.003872     0.996229     0.988586     0.980943     0.973300     0.965657     0.958014     0.950371
      0.942727     0.935084     0.927441     0.919798     0.912155     0.904512     0.896869     0.889226     0.881583     0.873940
      0.866296     0.858653     0.851010     0.843367     0.835724     0.828081     0.820438     0.812795     0.805152     0.797508
      0.789865     0.782222     0.774579     0.766936     0.759293     0.751650     0.744007     0.736364     0.728721     0.721077
      0.713434     0.705791     0.698148     0.690505     0.682862     0.675219     0.667576     0.659933     0.652290     0.644646
      0.637003     0.629360     0.621717     0.614074     0.606431     0.598788     0.591145     0.583502     0.575858     0.568215
      0.560572     0.552929     0.545286     0.537643     0.530000     0.522357     0.514714     0.507071     0.499427     0.491784
      0.484141     0.476498     0.468855     0.461212     0.453569     0.445925     0.438282     0.430639     0.422996     0.415353
      0.407710     0.400067     0.392424     0.384780     0.377137     0.369494     0.361851     0.354208     0.346565     0.338922
      0.331278     0.323635     0.315992     0.308349     0.300706     0.293063     0.285420     0.277777     0.270133     0.262490
      0.254847     0.247204     0.239561     0.231918     0.224275     0.216631     0.208988     0.201345
 NY phased data points follow
   7.75588E+00 -8.85229E+00  2.01725E+01 -4.80450E+00 -9.15195E+00  4.78653E+00  1.34112E+01 -1.12893E+01  9.47202E+00  7.58836E+00
   1.73399E+01  1.17387E+01  6.01413E+00  1.43237E+00  3.66256E+00  1.50479E+01  1.12628E+01 -1.27235E+00  1.04559E+01 -1.62507E+00
  -1.36182E+00  1.06964E+01 -5.11835E+00 -2.11234E+01  2.22701E+01  1.77411E+01  1.42813E+01  1.14326E+01  5.17812E+00 -7.10854E+00
  -1.11260E+00 -5.72188E+00  2.42689E+01  8.14446E+00  2.33923E+01  2.78005E+00  2.12033E+01  1.22162E+01  2.58869E+00  1.55271E+00
   1.54967E+00  1.10255E+01  1.64793E+01 -1.33952E+01  1.67435E+01 -4.27361E+00  1.79098E+00 -1.22314E+00  1.48766E+01  5.33580E-01
  -1.06843E+01  1.22542E+01  3.74344E+01  4.34171E+00  8.81033E+00 -3.20077E+00  1.01151E+01  4.15792E-01  6.27048E+00  9.32010E+00
   2.77717E+00 -6.68867E+00  3.16393E+00  1.31904E+01  6.79954E-01 -9.63968E+00 -5.52760E+00 -1.12562E+01  4.69699E+00 -9.11539E-01
  -4.54644E+00 -1.05484E+00 -7.43446E+00 -5.34461E+00  1.41617E+01 -2.65930E-01  6.51010E+00 -3.35294E+00 -3.74726E+00  4.52658E+00
   8.02974E+00  6.51773E+00  1.44136E+01 -1.47452E+01  7.33483E+00 -1.51754E+01  2.36296E+00 -8.57489E+00  5.68308E+00 -1.52990E+01
   9.30893E+00 -9.55437E-01 -2.51219E+00  7.71201E+00 -1.56179E+00  5.58947E+00  4.64495E+00  1.45227E+01 -4.23334E+00 -9.56369E-01
   1.39294E+01  3.19645E+01  3.55257E+01  3.76464E+01  3.13871E+01  9.42349E+00  3.60616E+01  1.92220E+01  2.89213E+01  1.58261E+01
  -5.70297E+00  2.20481E+00  1.54329E+00  1.44258E+01  3.82760E+00 -8.54944E+00 -2.90474E+00  2.36233E+00 -5.65225E+00  1.75628E+01
   1.71338E+01 -1.49273E+01 -6.07302E-01  9.76551E-01  1.45410E+01  1.67474E+01  2.51422E+01  2.81361E+01  3.65729E+01  2.55911E+01
   1.36253E+01  1.00550E+01  2.45746E+00  5.76450E-01 -5.27087E+00  9.56995E+00 -6.23733E-01 -1.52291E+01  4.59184E-01  9.12165E-01
   4.61635E+00 -1.54154E+01  4.53618E-01 -7.93333E+00  9.43351E+00  1.33130E+00 -5.58669E+00 -2.44623E+00  5.10005E+00 -7.36437E-01
  -4.11659E+00  1.04110E+01 -6.27221E+00  3.08889E+00 -1.78120E+01 -1.38471E+00  5.04950E+00  1.06784E+01  1.04604E+01 -1.44216E+01
  -1.90999E+01 -4.09067E+00 -1.94359E+01 -1.44634E-01  3.19697E-01 -1.92953E+01 -7.98749E-01 -1.97541E+01 -1.69693E+01 -1.19334E+01
  -8.66219E+00 -2.66649E+00 -8.40542E+00 -1.17201E+00  2.13207E+00 -3.27355E+01 -2.36489E+01 -1.53294E+01  3.64572E-01 -4.31175E+01
  -9.97759E+00 -1.10214E+01 -7.00449E+00 -2.75388E+00 -7.59701E+00 -7.82801E+00 -1.83995E+01 -2.81390E+00 -1.60740E+01 -1.26748E+01
  -1.42305E+01 -2.44339E+01 -2.11547E+01 -2.66517E+01 -1.33042E+01 -1.25987E+01 -1.66090E+01 -1.02040E+01 -2.97531E+01 -1.76086E+01
  -1.56741E+01 -1.94455E+01 -3.68943E+00 -3.45695E+00 -9.50365E+00 -1.99597E+00 -5.09309E+00 -5.70811E+00 -1.19228E+01  1.24624E-01
   1.77296E+01 -2.76406E-01 -2.98690E+00  2.00445E+00 -7.01004E+00 -4.83691E+00 -3.35896E+00  3.40722E+00  1.01190E+01 -7.19774E+00
   1.92711E+01 -2.09438E+00 -7.34881E+00 -1.28510E-01 -3.11723E+00  9.89292E+00 -3.97918E+00 -1.28783E+01 -1.89988E+01  1.07298E+01
  -1.76822E+00  4.34695E+00  5.76979E+00 -1.19975E+01  6.94619E+00  2.44855E+00  6.53545E+00 -4.86662E+00  1.13138E+01  1.45696E+01
  -9.41091E+00 -5.86893E+00 -4.51634E+00 -1.08995E+01  1.25448E+01  1.09934E+01  6.19494E+00 -2.64062E+00  1.51001E+01  1.24704E+01
   1.82017E+01  2.38052E+01  1.80313E+01  3.20087E+01  3.97949E+01  2.02440E+01  1.30265E+01  1.70163E+01  3.36889E+01  6.04344E+01
   6.03171E+01  6.18376E+01  2.72971E+01  1.76838E+01  1.14605E+01  2.30388E+01  2.44633E+01  1.19455E+01  8.44961E+00 -1.39602E+00
  -1.20979E+01  1.29116E-02 -1.01495E+01 -2.78209E+00 -1.14608E+01 -8.15125E+00 -1.08417E+01 -8.42073E+00  3.77781E+00  5.16970E+00
  -1.14629E+00 -1.07089E+01  3.94579E+00 -3.25854E+00 -6.45914E+00  8.01997E+00 -1.40867E+00 -5.33774E+00  2.56455E+00  5.61386E-02
   1.67955E+01  1.24007E+01  6.96057E+00  1.10035E+01  5.17646E+00 -1.01676E+01  1.24998E+01 -1.01916E+01 -5.62238E+00 -2.67771E+00
   6.43239E+00 -2.86002E+01  1.16508E+00 -1.19737E+01 -1.48148E+01 -8.48456E+00 -2.22155E+00 -1.26477E+01 -2.26866E+01 -2.15811E+01
  -4.19792E+00 -3.18786E+00 -1.16930E+01  3.77175E+00 -1.17711E+01  4.64932E+00  2.23193E+00 -6.04951E+00 -6.08575E+00  9.28024E+00
  -1.08226E+01  6.21578E+00  5.37316E+00 -5.49335E-01  1.64454E+01 -3.13579E+00  1.97854E+01  7.32758E+00  5.50941E+00 -1.91745E+00
   2.04842E+01  1.68809E+01  2.19041E+01  2.30202E+01  1.80278E+01  3.28042E+01  1.95192E+01  2.51269E+01  1.30970E+01  4.30140E+01
   4.05754E+01  2.68750E+01  5.10896E+01  3.61059E+01  3.12616E+01  2.08020E+01  2.93865E+01  4.83659E+01  2.29792E+01  4.47722E+01
   3.75073E+01  3.85850E+01  4.81585E+01  3.20685E+01  3.46046E+01  4.05983E+01  3.15997E+01  3.44782E+01  3.33518E+01  1.99330E+01
   1.23056E+01  3.88414E+01  2.04504E+01  2.44317E+01  3.04366E+01  1.99843E+01  7.34805E+00  1.87072E+01  1.85732E+01  1.24934E+01
   1.03848E+01  1.73912E+01  1.27460E+01  1.77493E+01  4.54164E+00  1.50425E+01  1.70625E+01 -2.68244E+00 -3.42724E+00  2.26050E+00
   4.48937E-01  1.82981E+01  1.13479E+01 -2.10535E+01  1.46983E+01  6.80455E+00 -1.15314E+01  2.33349E+00  1.18974E+01 -1.09547E+01
   6.92395E+00 -9.09608E+00 -9.24708E+00  2.98921E+01  9.48911E+00 -1.38776E+00  1.14433E+01  1.69900E+01  2.78359E+01  3.22271E+01
   1.13441E+01  1.88768E+01  1.62886E+01  1.22621E+01  2.16925E+01  1.43630E+01  1.67795E+01  1.48432E+01  1.23049E+01  2.49554E+01
   1.83396E+01  1.73299E+01  8.35529E+00  1.54794E+01  9.53241E+00 -5.87630E+00  1.22576E+01  1.70847E+01  1.55979E+01 -1.02946E+01
   7.62154E+00  1.73985E+01  4.34734E+00  1.95031E+01  5.20801E+00 -1.88422E+00 -2.78384E+00  4.34961E+00 -1.18050E+01 -8.78225E+00
   2.42199E+00 -8.17162E+00  6.60052E+00 -2.71099E+01  4.77108E+00  5.27354E+00  5.53002E+00  1.06609E+01 -1.33224E+01  7.92417E+00
  -5.22012E+00 -1.36561E+01 -7.99880E+00 -1.15775E+01 -2.71079E+00 -1.41788E+00  1.85261E-01  5.16133E+00 -1.56172E+00  1.14088E+00
  -6.41311E+00 -1.32260E+01 -4.64041E+00 -5.04766E+00  9.05834E+00 -2.26784E+00 -3.31385E+00 -1.25979E+01  5.19739E+00  9.02488E+00
   1.49760E+01  2.27142E+01 -4.46624E+00 -7.16949E-01 -6.62309E+00  1.98424E+00  2.15138E+01  8.91524E+00 -1.24977E+01 -4.19278E+00
  -2.82974E+00  5.17017E+00  1.41512E+01  9.92577E+00 -9.14832E+00 -8.13491E+00 -5.81665E+00 -5.05630E+00  8.53219E+00  5.79507E+00
   9.85854E+00 -3.98258E+00 -1.88330E+00 -6.01364E+00 -2.01372E+00  2.03923E+01  8.29829E+00 -4.14377E+00  9.87474E+00  9.42087E+00
  -4.15841E+00  2.77096E+00 -4.54116E+00 -1.15431E+01  5.77040E+00  2.65453E+00 -4.32009E+00  5.28872E+00
 NY points of the fit to the data follow
   1.03611E+00  4.95044E-01  2.19581E-01  3.38293E-01  7.22354E-01  1.35641E+00  2.78113E+00  5.25041E+00  8.17439E+00  1.07909E+01
   1.24832E+01  1.30091E+01  1.25006E+01  1.12294E+01  9.35286E+00  6.87359E+00  4.00003E+00  1.41977E+00  7.15565E-02 -2.27909E-01
  -3.12939E-01 -4.38618E-01 -6.06341E-01 -6.93311E-01 -4.48426E-01  6.64766E-01  2.60877E+00  4.81955E+00  6.78625E+00  8.13023E+00
   8.64804E+00  8.36808E+00  7.58433E+00  6.49827E+00  5.10164E+00  3.45959E+00  1.98411E+00  1.21171E+00  7.63922E-01  2.97425E-01
  -1.13573E-01 -3.08823E-01  7.14460E-02  1.41815E+00  3.70360E+00  6.36010E+00  8.54461E+00  9.61633E+00  9.38024E+00  8.10135E+00
   6.22606E+00  3.99802E+00  1.50331E+00 -8.13192E-01 -2.13210E+00 -2.08206E+00 -1.13699E+00  1.34310E-01  1.34427E+00  2.19097E+00
   2.49525E+00  2.25111E+00  1.64782E+00  8.96107E-01  1.20777E-01 -6.14379E-01 -1.11246E+00 -1.11910E+00 -6.65679E-01  7.60977E-02
   8.68551E-01  1.56614E+00  2.04274E+00  2.23480E+00  2.16702E+00  1.85965E+00  1.36921E+00  7.59403E-01  1.46517E-01 -2.86872E-01
  -5.53560E-01 -6.34350E-01 -5.67149E-01 -5.59359E-01 -8.58442E-01 -1.49919E+00 -2.33860E+00 -3.16539E+00 -3.79483E+00 -4.13180E+00
  -4.20202E+00 -4.01467E+00 -3.49935E+00 -2.65827E+00 -1.77197E+00 -1.12290E+00 -6.92965E-01  6.38802E-07  2.69292E+00  8.99053E+00
   1.75179E+01  2.60363E+01  3.24702E+01  3.56407E+01  3.54556E+01  3.25316E+01  2.75412E+01  2.07025E+01  1.24547E+01  4.40078E+00
  -6.34189E-01 -2.02540E+00 -2.31833E+00 -2.37654E+00 -2.36478E+00 -2.32835E+00 -2.30418E+00 -2.28302E+00 -2.23962E+00 -2.11818E+00
  -1.79346E+00 -8.13426E-01  2.14530E+00  7.31766E+00  1.34535E+01  1.90686E+01  2.29523E+01  2.45586E+01  2.41164E+01  2.21532E+01
   1.88374E+01  1.41318E+01  8.41524E+00  3.04793E+00 -1.28574E-01 -1.56020E+00 -2.38861E+00 -2.77512E+00 -2.80507E+00 -2.54297E+00
  -1.99952E+00 -1.27669E+00 -6.62492E-01 -3.23720E-01 -3.00551E-01 -5.85499E-01 -1.04547E+00 -1.52755E+00 -1.95755E+00 -2.31793E+00
  -2.70105E+00 -3.08637E+00 -3.40814E+00 -3.60389E+00 -3.67050E+00 -3.68535E+00 -3.74183E+00 -3.90381E+00 -4.14647E+00 -4.39914E+00
  -4.58623E+00 -4.72593E+00 -4.85382E+00 -4.95572E+00 -5.03224E+00 -5.09002E+00 -5.11739E+00 -5.15138E+00 -5.22554E+00 -5.31937E+00
  -5.42996E+00 -5.60931E+00 -5.85256E+00 -6.10706E+00 -6.30359E+00 -6.40991E+00 -6.50938E+00 -6.69877E+00 -6.93626E+00 -7.07713E+00
  -7.04645E+00 -6.88063E+00 -6.72805E+00 -6.68749E+00 -6.62951E+00 -6.31993E+00 -5.65135E+00 -4.67509E+00 -3.63874E+00 -2.79185E+00
  -2.22101E+00 -1.90653E+00 -1.91097E+00 -2.35516E+00 -3.15628E+00 -4.04264E+00 -4.74533E+00 -5.11347E+00 -5.07919E+00 -4.66258E+00
  -4.04516E+00 -3.38256E+00 -2.75132E+00 -2.25911E+00 -2.05617E+00 -2.20718E+00 -2.49235E+00 -2.75738E+00 -3.06099E+00 -3.43097E+00
  -3.77800E+00 -3.97146E+00 -4.00021E+00 -3.89393E+00 -3.68988E+00 -3.44221E+00 -3.18892E+00 -2.91125E+00 -2.58494E+00 -2.21571E+00
  -1.84658E+00 -1.47312E+00 -1.06743E+00 -6.57687E-01 -3.00580E-01 -5.21330E-02 -3.00795E-03 -2.08929E-01 -5.84562E-01 -9.61687E-01
  -1.12185E+00 -8.93998E-01 -2.28162E-01  8.01341E-01  1.96686E+00  3.00640E+00  3.74308E+00  4.02841E+00  3.77786E+00  3.14177E+00
   2.46107E+00  2.04115E+00  2.06057E+00  2.56742E+00  3.51264E+00  4.73395E+00  5.93179E+00  6.91428E+00  7.62849E+00  8.07917E+00
   8.64133E+00  1.03894E+01  1.35364E+01  1.74369E+01  2.13035E+01  2.53920E+01  3.07673E+01  3.67945E+01  4.21508E+01  4.53636E+01
   4.53755E+01  4.22364E+01  3.73496E+01  3.23337E+01  2.67306E+01  1.99828E+01  1.29399E+01  7.75852E+00  5.47165E+00  4.31424E+00
   3.51320E+00  2.90475E+00  2.40160E+00  1.94929E+00  1.51320E+00  1.06974E+00  6.00419E-01  1.01040E-01 -3.92552E-01 -8.47362E-01
  -1.25407E+00 -1.59448E+00 -1.86075E+00 -2.07278E+00 -2.26521E+00 -2.45688E+00 -2.65264E+00 -2.84227E+00 -3.01907E+00 -3.17572E+00
  -3.30130E+00 -3.40041E+00 -3.48579E+00 -3.55893E+00 -3.63352E+00 -3.71876E+00 -3.81574E+00 -3.92669E+00 -4.04334E+00 -4.14121E+00
  -4.21209E+00 -4.26052E+00 -4.28829E+00 -4.29530E+00 -4.28216E+00 -4.25484E+00 -4.22141E+00 -4.17665E+00 -4.11259E+00 -4.02400E+00
  -3.90442E+00 -3.74761E+00 -3.54660E+00 -3.29389E+00 -2.98069E+00 -2.59714E+00 -2.13201E+00 -1.57317E+00 -9.06450E-01 -1.14173E-01
   8.30831E-01  1.98549E+00  3.45949E+00  5.16411E+00  6.82630E+00  8.25283E+00  9.36253E+00  1.01858E+01  1.08119E+01  1.13112E+01
   1.18627E+01  1.27656E+01  1.41966E+01  1.62565E+01  1.88866E+01  2.16579E+01  2.41785E+01  2.63833E+01  2.82640E+01  2.97722E+01
   3.08240E+01  3.14217E+01  3.18423E+01  3.23442E+01  3.28652E+01  3.33528E+01  3.37861E+01  3.41532E+01  3.44450E+01  3.46519E+01
   3.47635E+01  3.47683E+01  3.46546E+01  3.44110E+01  3.40282E+01  3.34990E+01  3.28198E+01  3.19906E+01  3.10160E+01  2.99048E+01
   2.86704E+01  2.73295E+01  2.59019E+01  2.44091E+01  2.28740E+01  2.13194E+01  1.97676E+01  1.82390E+01  1.67521E+01  1.53226E+01
   1.39637E+01  1.26856E+01  1.14963E+01  1.04007E+01  9.40213E+00  8.50197E+00  7.70068E+00  6.99770E+00  6.39237E+00  5.88356E+00
   5.47063E+00  5.15311E+00  4.93144E+00  4.80632E+00  4.77918E+00  4.85141E+00  5.02471E+00  5.30027E+00  5.67888E+00  6.15986E+00
   6.74099E+00  7.41760E+00  8.18267E+00  9.02600E+00  9.93455E+00  1.08918E+01  1.18783E+01  1.28718E+01  1.38484E+01  1.47828E+01
   1.56499E+01  1.64249E+01  1.70854E+01  1.76120E+01  1.79893E+01  1.82066E+01  1.82587E+01  1.81451E+01  1.78712E+01  1.74468E+01
   1.68861E+01  1.62067E+01  1.54284E+01  1.45723E+01  1.36599E+01  1.27120E+01  1.17485E+01  1.07867E+01  9.84195E+00  8.92663E+00
   8.05071E+00  7.22130E+00  6.44338E+00  5.71946E+00  5.05040E+00  4.43534E+00  3.87257E+00  3.35932E+00  2.89250E+00  2.46840E+00
   2.08342E+00  1.73374E+00  1.41600E+00  1.12678E+00  8.63161E-01  6.22176E-01  4.01394E-01  1.98437E-01  1.14862E-02 -1.61306E-01
  -3.21365E-01 -4.70221E-01 -6.08950E-01 -7.38695E-01 -8.60185E-01 -9.74326E-01 -1.08171E+00 -1.18314E+00 -1.27901E+00 -1.36992E+00
  -1.45610E+00 -1.53808E+00 -1.61611E+00 -1.69065E+00 -1.76183E+00 -1.82997E+00 -1.89514E+00 -1.95770E+00 -2.01775E+00 -2.07558E+00
  -2.13120E+00 -2.18483E+00 -2.23646E+00 -2.28639E+00 -2.33461E+00 -2.38136E+00 -2.42654E+00 -2.47035E+00 -2.51276E+00 -2.55400E+00
  -2.59404E+00 -2.63304E+00 -2.67090E+00 -2.70777E+00 -2.74363E+00 -2.77869E+00 -2.81287E+00 -2.84629E+00 -2.87884E+00 -2.91070E+00
  -2.94181E+00 -2.97237E+00 -3.00227E+00 -3.03162E+00 -3.06031E+00 -3.08853E+00 -3.11621E+00 -3.14353E+00 -3.17035E+00 -3.19679E+00
  -3.22276E+00 -3.24844E+00 -3.27378E+00 -3.29892E+00 -3.32373E+00 -3.34833E+00 -3.37266E+00 -3.39692E+00
 NY background values follow
    -4.490E+00   -4.494E+00   -4.499E+00   -4.503E+00   -4.507E+00   -4.511E+00   -4.515E+00   -4.519E+00   -4.524E+00   -4.528E+00
    -4.532E+00   -4.536E+00   -4.540E+00   -4.544E+00   -4.548E+00   -4.553E+00   -4.557E+00   -4.561E+00   -4.565E+00   -4.569E+00
    -4.573E+00   -4.577E+00   -4.581E+00   -4.586E+00   -4.590E+00   -4.594E+00   -4.598E+00   -4.602E+00   -4.606E+00   -4.610E+00
    -4.614E+00   -4.618E+00   -4.622E+00   -4.626E+00   -4.631E+00   -4.635E+00   -4.639E+00   -4.643E+00   -4.647E+00   -4.651E+00
    -4.655E+00   -4.659E+00   -4.663E+00   -4.667E+00   -4.671E+00   -4.675E+00   -4.679E+00   -4.683E+00   -4.687E+00   -4.691E+00
    -4.695E+00   -4.699E+00   -4.703E+00   -4.707E+00   -4.711E+00   -4.715E+00   -4.719E+00   -4.723E+00   -4.727E+00   -4.731E+00
    -4.735E+00   -4.739E+00   -4.743E+00   -4.747E+00   -4.751E+00   -4.755E+00   -4.759E+00   -4.763E+00   -4.767E+00   -4.771E+00
    -4.775E+00   -4.779E+00   -4.783E+00   -4.786E+00   -4.790E+00   -4.794E+00   -4.798E+00   -4.802E+00   -4.806E+00   -4.810E+00
    -4.814E+00   -4.818E+00   -4.822E+00   -4.826E+00   -4.829E+00   -4.833E+00   -4.837E+00   -4.841E+00   -4.845E+00   -4.849E+00
    -4.853E+00   -4.856E+00   -4.860E+00   -4.864E+00   -4.868E+00   -4.872E+00   -4.876E+00   -4.880E+00   -4.883E+00   -4.887E+00
    -4.891E+00   -4.895E+00   -4.899E+00   -4.902E+00   -4.906E+00   -4.910E+00   -4.914E+00   -4.918E+00   -4.921E+00   -4.925E+00
    -4.929E+00   -4.933E+00   -4.936E+00   -4.940E+00   -4.944E+00   -4.948E+00   -4.951E+00   -4.955E+00   -4.959E+00   -4.963E+00
    -4.966E+00   -4.970E+00   -4.974E+00   -4.978E+00   -4.981E+00   -4.985E+00   -4.989E+00   -4.992E+00   -4.996E+00   -5.000E+00
    -5.003E+00   -5.007E+00   -5.011E+00   -5.014E+00   -5.018E+00   -5.022E+00   -5.025E+00   -5.029E+00   -5.033E+00   -5.036E+00
    -5.040E+00   -5.044E+00   -5.047E+00   -5.051E+00   -5.054E+00   -5.058E+00   -5.062E+00   -5.065E+00   -5.069E+00   -5.073E+00
    -5.076E+00   -5.080E+00   -5.083E+00   -5.087E+00   -5.090E+00   -5.094E+00   -5.098E+00   -5.101E+00   -5.105E+00   -5.108E+00
    -5.112E+00   -5.115E+00   -5.119E+00   -5.122E+00   -5.126E+00   -5.129E+00   -5.133E+00   -5.136E+00   -5.140E+00   -5.143E+00
    -5.147E+00   -5.150E+00   -5.154E+00   -5.157E+00   -5.161E+00   -5.164E+00   -5.168E+00   -5.171E+00   -5.175E+00   -5.178E+00
    -5.181E+00   -5.185E+00   -5.188E+00   -5.192E+00   -5.195E+00   -5.199E+00   -5.202E+00   -5.205E+00   -5.209E+00   -5.212E+00
    -5.216E+00   -5.219E+00   -5.222E+00   -5.226E+00   -5.229E+00   -5.232E+00   -5.236E+00   -5.239E+00   -5.242E+00   -5.246E+00
    -5.249E+00   -5.252E+00   -5.256E+00   -5.259E+00   -5.262E+00   -5.266E+00   -5.269E+00   -5.272E+00   -5.276E+00   -5.279E+00
    -5.282E+00   -5.285E+00   -5.289E+00   -5.292E+00   -5.295E+00   -5.298E+00   -5.302E+00   -5.305E+00   -5.308E+00   -5.311E+00
    -5.315E+00   -5.318E+00   -5.321E+00   -5.324E+00   -5.327E+00   -5.331E+00   -5.334E+00   -5.337E+00   -5.340E+00   -5.343E+00
    -5.346E+00   -5.350E+00   -5.353E+00   -5.356E+00   -5.359E+00   -5.362E+00   -5.365E+00   -5.368E+00   -5.372E+00   -5.375E+00
    -5.378E+00   -5.381E+00   -5.384E+00   -5.387E+00   -5.390E+00   -5.393E+00   -5.396E+00   -5.399E+00   -5.402E+00   -5.405E+00
    -5.408E+00   -5.412E+00   -5.415E+00   -5.418E+00   -5.421E+00   -5.424E+00   -5.427E+00   -5.430E+00   -5.433E+00   -5.436E+00
    -5.439E+00   -5.442E+00   -5.445E+00   -5.448E+00   -5.451E+00   -5.453E+00   -5.456E+00   -5.459E+00   -5.462E+00   -5.465E+00
    -5.468E+00   -5.471E+00   -5.474E+00   -5.477E+00   -5.480E+00   -5.483E+00   -5.486E+00   -5.489E+00   -5.491E+00   -5.494E+00
    -5.497E+00   -5.500E+00   -5.503E+00   -5.506E+00   -5.509E+00   -5.511E+00   -5.514E+00   -5.517E+00   -5.520E+00   -5.523E+00
    -5.525E+00   -5.528E+00   -5.531E+00   -5.534E+00   -5.537E+00   -5.539E+00   -5.542E+00   -5.545E+00   -5.548E+00   -5.550E+00
    -5.553E+00   -5.556E+00   -5.559E+00   -5.561E+00   -5.564E+00   -5.567E+00   -5.570E+00   -5.572E+00   -5.575E+00   -5.578E+00
    -5.580E+00   -5.583E+00   -5.586E+00   -5.588E+00   -5.591E+00   -5.594E+00   -5.596E+00   -5.599E+00   -5.602E+00   -5.604E+00
    -5.607E+00   -5.609E+00   -5.612E+00   -5.615E+00   -5.617E+00   -5.620E+00   -5.622E+00   -5.625E+00   -5.627E+00   -5.630E+00
    -5.633E+00   -5.635E+00   -5.638E+00   -5.640E+00   -5.643E+00   -5.645E+00   -5.648E+00   -5.650E+00   -5.653E+00   -5.655E+00
    -5.658E+00   -5.660E+00   -5.663E+00   -5.665E+00   -5.668E+00   -5.670E+00   -5.672E+00   -5.675E+00   -5.677E+00   -5.680E+00
    -5.682E+00   -5.685E+00   -5.687E+00   -5.689E+00   -5.692E+00   -5.694E+00   -5.697E+00   -5.699E+00   -5.701E+00   -5.704E+00
    -5.706E+00   -5.708E+00   -5.711E+00   -5.713E+00   -5.715E+00   -5.718E+00   -5.720E+00   -5.722E+00   -5.725E+00   -5.727E+00
    -5.729E+00   -5.731E+00   -5.734E+00   -5.736E+00   -5.738E+00   -5.741E+00   -5.743E+00   -5.745E+00   -5.747E+00   -5.749E+00
    -5.752E+00   -5.754E+00   -5.756E+00   -5.758E+00   -5.760E+00   -5.763E+00   -5.765E+00   -5.767E+00   -5.769E+00   -5.771E+00
    -5.773E+00   -5.776E+00   -5.778E+00   -5.780E+00   -5.782E+00   -5.784E+00   -5.786E+00   -5.788E+00   -5.790E+00   -5.792E+00
    -5.795E+00   -5.797E+00   -5.799E+00   -5.801E+00   -5.803E+00   -5.805E+00   -5.807E+00   -5.809E+00   -5.811E+00   -5.813E+00
    -5.815E+00   -5.817E+00   -5.819E+00   -5.821E+00   -5.823E+00   -5.825E+00   -5.827E+00   -5.829E+00   -5.831E+00   -5.833E+00
    -5.835E+00   -5.836E+00   -5.838E+00   -5.840E+00   -5.842E+00   -5.844E+00   -5.846E+00   -5.848E+00   -5.850E+00   -5.852E+00
    -5.853E+00   -5.855E+00   -5.857E+00   -5.859E+00   -5.861E+00   -5.863E+00   -5.865E+00   -5.866E+00   -5.868E+00   -5.870E+00
    -5.872E+00   -5.873E+00   -5.875E+00   -5.877E+00   -5.879E+00   -5.881E+00   -5.882E+00   -5.884E+00   -5.886E+00   -5.887E+00
    -5.889E+00   -5.891E+00   -5.893E+00   -5.894E+00   -5.896E+00   -5.898E+00   -5.899E+00   -5.901E+00   -5.903E+00   -5.904E+00
    -5.906E+00   -5.908E+00   -5.909E+00   -5.911E+00   -5.912E+00   -5.914E+00   -5.916E+00   -5.917E+00   -5.919E+00   -5.920E+00
    -5.922E+00   -5.923E+00   -5.925E+00   -5.927E+00   -5.928E+00   -5.930E+00   -5.931E+00   -5.933E+00   -5.934E+00   -5.936E+00
    -5.937E+00   -5.939E+00   -5.940E+00   -5.942E+00   -5.943E+00   -5.945E+00   -5.946E+00   -5.947E+00   -5.949E+00   -5.950E+00
    -5.952E+00   -5.953E+00   -5.954E+00   -5.956E+00   -5.957E+00   -5.959E+00   -5.960E+00   -5.961E+00
 Ala      Conc. = 2.26E+02
