 LCModel (Version 6.3-1L) Copyright: S.W. Provencher.          Ref.: Magn. Reson. Med. 30:672-679 (1993).                
 Slice#2 Row#4 Col#1  PD_24_press_2_raw_act
 36 lines in following concentration table = NCONC+1
    Conc.  %SD /Cr+PCr  Metabolite                                         
    0.000 999%   0.000 Ala                                                 
   91.292  18%   1.008 Asp                                                 
    0.000 999%   0.000 Cr                                                  
   90.539 115%   1.000 PCr                                                 
   54.940  18%   0.607 GABA                                                
   54.796  18%   0.605 Glc                                                 
    0.000 999%   0.000 Gln                                                 
    0.000 999%   0.000 Glu                                                 
    0.000 999%   0.000 GPC                                                 
   24.562 163%   0.271 PCh                                                 
    0.000 999%   0.000 GSH                                                 
 1.52E+03  30%  16.774 Ins                                                 
    0.000 999%   0.000 Lac                                                 
 1.67E+03  13%  18.401 NAA                                                 
    0.000 999%   0.000 NAAG                                                
   18.245  18%   0.202 Scyllo                                              
   91.185  18%   1.007 Tau                                                 
    8.889 123% 9.8E-02 -CrCH2                                              
   24.562 163%   0.271 GPC+PCh                                             
 1.67E+03  13%  18.401 NAA+NAAG                                            
   90.539 115%   1.000 Cr+PCr                                              
    0.000 999%   0.000 Glu+Gln                                             
  655.383 146%   7.239 Lip13a                                              
  351.459 131%   3.882 Lip13b                                              
   59.194 505%   0.654 Lip09                                               
  588.129  53%   6.496 MM09                                                
  343.758  56%   3.797 Lip20                                               
 1.54E+03  37%  16.987 MM20                                                
  173.827 101%   1.920 MM12                                                
 1.04E+03  40%  11.476 MM14                                                
    0.000 999%   0.000 MM17                                                
 1.01E+03  63%  11.120 Lip13a+Lip13b                                       
 2.22E+03  25%  24.516 MM14+Lip13a+Lip13b+MM12                             
  647.323  37%   7.150 MM09+Lip09                                          
 1.88E+03  29%  20.783 MM20+Lip20                                          
   6 lines in following misc. output table
  FWHM = 0.107 ppm    S/N =   3                                            
  Data shift = 0.268 ppm                                                   
  Ph: 156 deg     -20.6 deg/ppm                                            
  alphaB,S = 3.0E+00,   2.4E+01                                            
    8 spline knots.   Ns = 9(2)                                            
  (12) 9 infls.   (13) 9 extrs.                                            
  498 points on ppm-axis = NY
      4.000000     3.992357     3.984714     3.977070     3.969427     3.961784     3.954141     3.946497     3.938854     3.931211
      3.923568     3.915925     3.908281     3.900638     3.892995     3.885352     3.877708     3.870065     3.862422     3.854779
      3.847136     3.839492     3.831849     3.824206     3.816563     3.808919     3.801276     3.793633     3.785990     3.778347
      3.770703     3.763060     3.755417     3.747774     3.740130     3.732487     3.724844     3.717201     3.709558     3.701914
      3.694271     3.686628     3.678985     3.671341     3.663698     3.656055     3.648412     3.640769     3.633125     3.625482
      3.617839     3.610196     3.602552     3.594909     3.587266     3.579623     3.571980     3.564336     3.556693     3.549050
      3.541407     3.533763     3.526120     3.518477     3.510834     3.503191     3.495547     3.487904     3.480261     3.472618
      3.464974     3.457331     3.449688     3.442045     3.434402     3.426758     3.419115     3.411472     3.403829     3.396185
      3.388542     3.380899     3.373256     3.365613     3.357969     3.350326     3.342683     3.335040     3.327396     3.319753
      3.312110     3.304467     3.296824     3.289180     3.281537     3.273894     3.266251     3.258607     3.250964     3.243321
      3.235678     3.228034     3.220391     3.212748     3.205105     3.197462     3.189818     3.182175     3.174532     3.166889
      3.159245     3.151602     3.143959     3.136316     3.128673     3.121029     3.113386     3.105743     3.098100     3.090456
      3.082813     3.075170     3.067527     3.059884     3.052240     3.044597     3.036954     3.029311     3.021667     3.014024
      3.006381     2.998738     2.991095     2.983451     2.975808     2.968165     2.960522     2.952878     2.945235     2.937592
      2.929949     2.922306     2.914662     2.907019     2.899376     2.891733     2.884089     2.876446     2.868803     2.861160
      2.853517     2.845873     2.838230     2.830587     2.822944     2.815300     2.807657     2.800014     2.792371     2.784728
      2.777084     2.769441     2.761798     2.754155     2.746511     2.738868     2.731225     2.723582     2.715939     2.708295
      2.700652     2.693009     2.685366     2.677722     2.670079     2.662436     2.654793     2.647150     2.639506     2.631863
      2.624220     2.616577     2.608933     2.601290     2.593647     2.586004     2.578361     2.570717     2.563074     2.555431
      2.547788     2.540144     2.532501     2.524858     2.517215     2.509572     2.501928     2.494285     2.486642     2.478999
      2.471355     2.463712     2.456069     2.448426     2.440783     2.433139     2.425496     2.417853     2.410210     2.402566
      2.394923     2.387280     2.379637     2.371994     2.364350     2.356707     2.349064     2.341421     2.333777     2.326134
      2.318491     2.310848     2.303205     2.295561     2.287918     2.280275     2.272632     2.264988     2.257345     2.249702
      2.242059     2.234416     2.226772     2.219129     2.211486     2.203843     2.196199     2.188556     2.180913     2.173270
      2.165627     2.157983     2.150340     2.142697     2.135054     2.127410     2.119767     2.112124     2.104481     2.096838
      2.089194     2.081551     2.073908     2.066265     2.058621     2.050978     2.043335     2.035692     2.028049     2.020405
      2.012762     2.005119     1.997476     1.989833     1.982190     1.974546     1.966903     1.959260     1.951617     1.943974
      1.936331     1.928688     1.921045     1.913402     1.905759     1.898115     1.890472     1.882829     1.875186     1.867543
      1.859900     1.852257     1.844614     1.836971     1.829327     1.821684     1.814041     1.806398     1.798755     1.791112
      1.783469     1.775826     1.768183     1.760540     1.752896     1.745253     1.737610     1.729967     1.722324     1.714681
      1.707038     1.699395     1.691752     1.684108     1.676465     1.668822     1.661179     1.653536     1.645893     1.638250
      1.630607     1.622964     1.615321     1.607677     1.600034     1.592391     1.584748     1.577105     1.569462     1.561819
      1.554176     1.546533     1.538890     1.531246     1.523603     1.515960     1.508317     1.500674     1.493031     1.485388
      1.477745     1.470102     1.462458     1.454815     1.447172     1.439529     1.431886     1.424243     1.416600     1.408957
      1.401314     1.393671     1.386027     1.378384     1.370741     1.363098     1.355455     1.347812     1.340169     1.332526
      1.324883     1.317240     1.309596     1.301953     1.294310     1.286667     1.279024     1.271381     1.263738     1.256095
      1.248452     1.240808     1.233165     1.225522     1.217879     1.210236     1.202593     1.194950     1.187307     1.179664
      1.172021     1.164377     1.156734     1.149091     1.141448     1.133805     1.126162     1.118519     1.110876     1.103233
      1.095590     1.087946     1.080303     1.072660     1.065017     1.057374     1.049731     1.042088     1.034445     1.026802
      1.019158     1.011515     1.003872     0.996229     0.988586     0.980943     0.973300     0.965657     0.958014     0.950371
      0.942727     0.935084     0.927441     0.919798     0.912155     0.904512     0.896869     0.889226     0.881583     0.873940
      0.866296     0.858653     0.851010     0.843367     0.835724     0.828081     0.820438     0.812795     0.805152     0.797508
      0.789865     0.782222     0.774579     0.766936     0.759293     0.751650     0.744007     0.736364     0.728721     0.721077
      0.713434     0.705791     0.698148     0.690505     0.682862     0.675219     0.667576     0.659933     0.652290     0.644646
      0.637003     0.629360     0.621717     0.614074     0.606431     0.598788     0.591145     0.583502     0.575858     0.568215
      0.560572     0.552929     0.545286     0.537643     0.530000     0.522357     0.514714     0.507071     0.499427     0.491784
      0.484141     0.476498     0.468855     0.461212     0.453569     0.445925     0.438282     0.430639     0.422996     0.415353
      0.407710     0.400067     0.392424     0.384780     0.377137     0.369494     0.361851     0.354208     0.346565     0.338922
      0.331278     0.323635     0.315992     0.308349     0.300706     0.293063     0.285420     0.277777     0.270133     0.262490
      0.254847     0.247204     0.239561     0.231918     0.224275     0.216631     0.208988     0.201345
 NY phased data points follow
   1.09843E+02  1.12720E+02  1.16556E+02  1.12833E+02  1.15906E+02  1.08906E+02  1.04125E+02  1.04476E+02  1.09251E+02  9.84298E+01
   1.01799E+02  1.05885E+02  1.03098E+02  9.87675E+01  9.89635E+01  9.30566E+01  1.03294E+02  8.78808E+01  8.97528E+01  8.76359E+01
   8.93377E+01  8.49702E+01  9.14133E+01  8.83006E+01  8.21693E+01  8.33059E+01  9.10810E+01  8.54880E+01  8.06176E+01  7.73299E+01
   8.07047E+01  7.82148E+01  7.35243E+01  7.50388E+01  7.10506E+01  7.79133E+01  7.67840E+01  8.11020E+01  7.66353E+01  6.87972E+01
   6.67531E+01  7.46225E+01  7.00826E+01  6.57446E+01  6.81818E+01  6.15005E+01  7.11739E+01  6.46188E+01  6.58022E+01  6.87209E+01
   7.40251E+01  6.80014E+01  6.60702E+01  6.30857E+01  6.13698E+01  6.26447E+01  6.31157E+01  6.29294E+01  6.50847E+01  6.66147E+01
   6.51997E+01  6.05403E+01  5.26394E+01  6.36094E+01  5.98688E+01  6.51368E+01  5.86810E+01  5.67623E+01  5.82789E+01  5.40168E+01
   4.90245E+01  4.71140E+01  4.93129E+01  4.60740E+01  5.11362E+01  4.83781E+01  4.99988E+01  5.01786E+01  5.23919E+01  5.08720E+01
   5.45231E+01  4.89801E+01  4.99953E+01  4.83614E+01  4.98827E+01  4.86053E+01  4.79478E+01  4.58014E+01  4.55055E+01  4.20662E+01
   4.99369E+01  4.47542E+01  4.74330E+01  4.39263E+01  3.86022E+01  3.06934E+01  3.34365E+01  2.85220E+01  4.15386E+01  3.34869E+01
   3.58310E+01  3.96927E+01  3.59780E+01  3.72873E+01  4.19967E+01  3.05731E+01  2.78478E+01  3.69825E+01  3.77584E+01  3.79907E+01
   3.39982E+01  3.34386E+01  3.87620E+01  3.21791E+01  4.19473E+01  3.02531E+01  2.74973E+01  3.29276E+01  2.75954E+01  3.44639E+01
   2.87169E+01  2.77184E+01  3.50861E+01  3.05550E+01  3.13234E+01  1.93545E+01  2.66270E+01  2.74445E+01  3.56088E+01  1.93525E+01
   3.11524E+01  2.73242E+01  2.86393E+01  2.83004E+01  2.44299E+01  2.72133E+01  2.29094E+01  2.70706E+01  2.39341E+01  2.61526E+01
   2.01409E+01  2.13742E+01  2.62585E+01  2.15498E+01  3.00130E+01  2.43912E+01  2.40812E+01  2.07903E+01  2.74137E+01  2.61094E+01
   2.65094E+01  2.15648E+01  2.61909E+01  2.27378E+01  3.17218E+01  1.70589E+01  1.94888E+01  1.58444E+01  2.37185E+01  1.42586E+01
   1.94579E+01  2.14396E+01  1.91706E+01  1.94969E+01  1.08076E+01  1.70060E+01  1.64560E+01  1.54839E+01  2.24938E+01  1.88515E+01
   2.31692E+01  2.66472E+01  2.26767E+01  1.26666E+01  2.36562E+01  1.60889E+01  1.07342E+01  1.80712E+01  1.32383E+01  2.26555E+01
   2.06371E+01  1.54173E+01  2.09653E+01  1.54404E+01  1.45249E+01  9.00006E+00  8.17807E+00  1.06782E+01  7.83435E+00  7.06598E+00
   1.30054E+01  1.03516E+01  6.25153E+00  9.98035E+00  6.14718E+00  1.04751E+01  9.80258E+00  5.27174E+00  7.57602E+00  1.84794E+00
   7.34950E+00  1.93227E+00  6.05746E+00  7.15151E+00  5.78120E+00  1.14371E+01  3.67709E+00 -1.67048E-01  1.04265E+01  9.72682E+00
   5.72487E+00  1.01393E+01  4.96823E+00  4.19812E+00 -4.48888E-01  6.40981E+00  1.27003E+00  3.79211E+00  1.21061E+01  7.82793E+00
   5.99617E+00  3.96951E+00  6.01601E+00  1.45250E+01  5.46465E+00 -6.17134E+00  4.06343E+00  2.03288E+00 -8.20885E+00 -6.67482E-01
  -3.34405E+00 -3.96284E-01  6.23179E+00  9.32357E-01  3.98819E+00  5.36771E+00  6.22435E+00 -5.21555E-01  3.18758E+00  5.29360E+00
  -9.29441E-01  5.33643E+00  8.90342E+00  1.30843E+00 -2.04587E+00  1.88069E+00  5.12687E+00  3.77773E+00  8.56168E+00  3.44520E+00
   1.07231E+00  5.62090E+00  3.71501E+00  2.73457E+00  4.36740E+00  5.31374E+00  8.41734E+00  1.40898E+01  1.14308E+01  3.89972E+00
   1.08147E+01  1.08448E+01  1.47055E+00  7.05478E+00  4.89322E+00  6.24276E+00  6.38818E+00  1.56828E+01  1.57575E+01  2.18498E+01
   1.94607E+01  8.20860E+00  1.86966E+01  1.61606E+01  1.34035E+01  1.50786E+01  8.42795E+00  1.31955E+01  7.56969E+00  5.16743E+00
  -2.79297E-01 -4.72646E+00 -1.46482E+01 -5.56270E+00 -5.23166E+00 -5.45405E+00 -1.09830E+01 -1.74758E+01 -1.60190E+01 -1.29904E+01
  -1.54969E+01 -2.37796E+01 -2.43442E+01 -1.65591E+01 -2.06700E+01 -2.90099E+01 -2.25144E+01 -2.17011E+01 -1.87787E+01 -2.35189E+01
  -2.77029E+01 -1.94443E+01 -1.95512E+01 -2.28863E+01 -1.81902E+01 -1.38280E+01 -1.93421E+01 -1.97979E+01 -1.27724E+01 -2.21885E+01
  -2.01521E+01 -1.54097E+01 -1.58162E+01 -2.20881E+01 -1.55919E+01 -1.75280E+01 -1.58329E+01 -2.16090E+01 -8.89761E+00 -1.82273E+01
  -1.55703E+01 -2.36376E+01 -1.32358E+01 -1.84508E+01 -1.93606E+01 -1.54483E+01 -2.26598E+01 -1.18505E+01 -1.54733E+01 -1.78952E+01
  -9.36578E+00 -1.24266E+01 -1.03178E+01 -2.16656E+01 -1.21556E+01 -1.32481E+01 -1.61646E+01 -1.72295E+01 -1.28297E+01 -1.85504E+01
  -1.66046E+01 -1.21033E+01 -1.77939E+01 -1.08919E+01 -1.15774E+01 -1.76630E+01 -1.36086E+01 -8.62823E+00 -1.97864E+01 -6.90161E+00
  -1.45614E+01 -1.28389E+01 -5.23072E+00 -1.62818E+01 -1.37979E+01 -9.75108E+00 -1.31255E+01 -9.56557E+00 -1.47794E+01 -1.33218E+01
  -1.57826E+01 -1.97699E+01 -1.66675E+01 -1.95279E+01 -1.43968E+01 -1.93113E+01 -2.20537E+01 -1.35220E+01 -1.84713E+01 -2.14197E+01
  -2.41842E+01 -2.30416E+01 -2.36345E+01 -1.84604E+01 -1.87732E+01 -1.63911E+01 -2.20089E+01 -1.05972E+01 -2.13300E+01 -1.53003E+01
  -1.31625E+01 -1.63218E+01 -1.87619E+01 -1.68655E+01 -2.17125E+01 -2.05519E+01 -2.17689E+01 -1.34687E+01 -1.68020E+01 -1.52523E+01
  -2.16416E+01 -2.23842E+01 -1.59134E+01 -1.99114E+01 -1.52641E+01 -2.14809E+01 -1.63364E+01 -1.58534E+01 -2.13661E+01 -1.91169E+01
  -1.58590E+01 -1.79573E+01 -2.17566E+01 -2.53205E+01 -1.83720E+01 -1.56476E+01 -1.61658E+01 -1.99023E+01 -1.47536E+01 -1.60915E+01
  -1.24713E+01 -1.32252E+01 -1.85573E+01 -1.88514E+01 -1.82591E+01 -2.44951E+01 -2.53828E+01 -2.01522E+01 -1.90441E+01 -2.10723E+01
  -1.67401E+01 -1.79333E+01 -2.36816E+01 -1.94152E+01 -2.08833E+01 -1.64040E+01 -1.73288E+01 -1.49310E+01 -2.62366E+01 -1.59708E+01
  -1.42058E+01 -1.14285E+01 -2.48175E+01 -1.62382E+01 -1.99129E+01 -2.61372E+01 -1.82630E+01 -1.01550E+01 -1.45235E+01 -1.57184E+01
  -1.37032E+01 -2.30488E+01 -1.83235E+01 -1.86604E+01 -2.12371E+01 -1.13067E+01 -1.63665E+01 -2.15201E+01 -2.45226E+01 -2.06492E+01
  -1.73766E+01 -2.36303E+01 -2.38508E+01 -2.40318E+01 -1.63857E+01 -1.69791E+01 -1.94921E+01 -2.42449E+01 -1.81124E+01 -2.26591E+01
  -2.26351E+01 -2.30946E+01 -1.87764E+01 -2.30437E+01 -1.98484E+01 -2.58325E+01 -1.74160E+01 -1.57474E+01 -1.06809E+01 -1.39753E+01
  -2.33995E+01 -1.45023E+01 -1.81090E+01 -1.74883E+01 -2.40971E+01 -2.15625E+01 -1.75688E+01 -2.62327E+01 -2.35939E+01 -2.66320E+01
  -2.08752E+01 -1.75761E+01 -2.20583E+01 -1.65782E+01 -2.11839E+01 -2.24457E+01 -2.05970E+01 -1.88806E+01 -1.82878E+01 -1.46933E+01
  -1.70887E+01 -1.95308E+01 -1.53193E+01 -1.10231E+01 -2.38033E+01 -1.57500E+01 -9.05278E+00 -1.68922E+01
 NY points of the fit to the data follow
   1.06638E+02  1.06434E+02  1.05962E+02  1.05408E+02  1.04915E+02  1.04358E+02  1.03513E+02  1.02654E+02  1.01629E+02  1.00624E+02
   9.92285E+01  9.80019E+01  9.67143E+01  9.49066E+01  9.38126E+01  9.27855E+01  9.14689E+01  9.06587E+01  8.97443E+01  8.89703E+01
   8.81367E+01  8.74220E+01  8.65860E+01  8.59164E+01  8.51733E+01  8.44533E+01  8.35782E+01  8.27238E+01  8.18075E+01  8.08707E+01
   8.01694E+01  7.94127E+01  7.86879E+01  7.82225E+01  7.78855E+01  7.74237E+01  7.67707E+01  7.60074E+01  7.51284E+01  7.43195E+01
   7.35709E+01  7.31588E+01  7.29759E+01  7.28446E+01  7.26971E+01  7.21595E+01  7.14371E+01  7.06429E+01  6.98695E+01  6.89585E+01
   6.81274E+01  6.74224E+01  6.69868E+01  6.69233E+01  6.70494E+01  6.70798E+01  6.69545E+01  6.61476E+01  6.52921E+01  6.44883E+01
   6.43121E+01  6.35574E+01  6.31123E+01  6.23614E+01  6.18684E+01  6.08489E+01  5.99286E+01  5.81562E+01  5.69232E+01  5.58590E+01
   5.58501E+01  5.53421E+01  5.53143E+01  5.46794E+01  5.44852E+01  5.37027E+01  5.35109E+01  5.25496E+01  5.24611E+01  5.12939E+01
   5.08225E+01  4.98154E+01  4.94273E+01  4.86749E+01  4.84764E+01  4.77396E+01  4.74780E+01  4.65657E+01  4.61825E+01  4.53797E+01
   4.50117E+01  4.42665E+01  4.35867E+01  4.25561E+01  4.18896E+01  4.07054E+01  4.00055E+01  3.91450E+01  3.88184E+01  3.81164E+01
   3.79362E+01  3.71681E+01  3.69696E+01  3.62355E+01  3.58916E+01  3.52625E+01  3.48037E+01  3.47365E+01  3.46645E+01  3.47290E+01
   3.44393E+01  3.41389E+01  3.38054E+01  3.34024E+01  3.29735E+01  3.25477E+01  3.21859E+01  3.16376E+01  3.16195E+01  3.11650E+01
   3.12681E+01  3.08210E+01  3.07762E+01  3.02668E+01  2.99336E+01  2.96512E+01  2.93030E+01  2.90866E+01  2.86655E+01  2.83947E+01
   2.80409E+01  2.78888E+01  2.76117E+01  2.76611E+01  2.73326E+01  2.74084E+01  2.69184E+01  2.67891E+01  2.63094E+01  2.62467E+01
   2.57602E+01  2.56372E+01  2.51204E+01  2.49563E+01  2.43612E+01  2.39975E+01  2.32757E+01  2.25039E+01  2.20561E+01  2.16515E+01
   2.13603E+01  2.11211E+01  2.08735E+01  2.06397E+01  2.03290E+01  1.99766E+01  1.96283E+01  1.92501E+01  1.89733E+01  1.87119E+01
   1.84834E+01  1.82283E+01  1.78711E+01  1.75627E+01  1.72444E+01  1.69269E+01  1.65905E+01  1.60779E+01  1.57391E+01  1.52622E+01
   1.49730E+01  1.47746E+01  1.44192E+01  1.40809E+01  1.37560E+01  1.33108E+01  1.30143E+01  1.26469E+01  1.23838E+01  1.21358E+01
   1.17958E+01  1.16006E+01  1.11942E+01  1.07667E+01  1.04535E+01  9.96371E+00  9.97540E+00  9.53207E+00  9.44761E+00  9.08969E+00
   9.16752E+00  8.92067E+00  9.00192E+00  8.67474E+00  8.78282E+00  8.55745E+00  8.78347E+00  8.75422E+00  8.53397E+00  8.42717E+00
   8.47848E+00  8.60602E+00  8.62110E+00  8.62004E+00  8.54238E+00  8.56224E+00  8.32310E+00  8.26591E+00  7.86593E+00  7.50448E+00
   7.32171E+00  7.08718E+00  6.99547E+00  6.65608E+00  6.40893E+00  6.00866E+00  5.76017E+00  5.19865E+00  5.17880E+00  4.72792E+00
   4.73536E+00  4.22831E+00  4.16080E+00  3.68003E+00  3.34537E+00  3.00408E+00  2.84686E+00  2.60880E+00  2.52564E+00  2.36409E+00
   2.36269E+00  2.36313E+00  2.43021E+00  2.60776E+00  2.52015E+00  2.42802E+00  2.32010E+00  2.25183E+00  2.18487E+00  2.15485E+00
   2.14210E+00  2.20688E+00  2.51802E+00  2.57342E+00  1.72892E+00  1.59314E+00  3.04787E+00  4.02740E+00  4.75598E+00  5.36748E+00
   4.10686E+00  3.79575E+00  2.83717E+00  2.81716E+00  3.88496E+00  5.12181E+00  6.75629E+00  8.35730E+00  7.13073E+00  7.71508E+00
   6.56433E+00  7.05635E+00  4.91908E+00  5.26056E+00  5.34320E+00  7.35983E+00  9.83123E+00  1.36738E+01  1.48819E+01  1.84448E+01
   1.50438E+01  1.69968E+01  1.45928E+01  1.69081E+01  1.37103E+01  1.55823E+01  1.19695E+01  1.29160E+01  6.15084E+00  4.15720E+00
  -6.24126E+00 -1.02445E+01 -1.14279E+01 -1.20952E+01 -1.26015E+01 -1.30192E+01 -1.33928E+01 -1.37258E+01 -1.40342E+01 -1.43110E+01
  -1.45709E+01 -1.48276E+01 -1.50684E+01 -1.53024E+01 -1.55298E+01 -1.57487E+01 -1.59639E+01 -1.61658E+01 -1.63469E+01 -1.65167E+01
  -1.66808E+01 -1.68251E+01 -1.69671E+01 -1.70956E+01 -1.72202E+01 -1.73368E+01 -1.74519E+01 -1.75500E+01 -1.76419E+01 -1.77182E+01
  -1.77861E+01 -1.78331E+01 -1.78693E+01 -1.78867E+01 -1.78867E+01 -1.78688E+01 -1.78326E+01 -1.77770E+01 -1.77024E+01 -1.76080E+01
  -1.74945E+01 -1.73619E+01 -1.72120E+01 -1.70460E+01 -1.68667E+01 -1.66761E+01 -1.64778E+01 -1.62747E+01 -1.60713E+01 -1.58713E+01
  -1.56792E+01 -1.54986E+01 -1.53336E+01 -1.51871E+01 -1.50626E+01 -1.49619E+01 -1.48863E+01 -1.48354E+01 -1.48081E+01 -1.48004E+01
  -1.48076E+01 -1.48206E+01 -1.48286E+01 -1.48167E+01 -1.47686E+01 -1.46667E+01 -1.44958E+01 -1.42448E+01 -1.39130E+01 -1.35114E+01
  -1.30666E+01 -1.26186E+01 -1.22183E+01 -1.19190E+01 -1.17697E+01 -1.18044E+01 -1.20375E+01 -1.24594E+01 -1.30399E+01 -1.37322E+01
  -1.44831E+01 -1.52403E+01 -1.59609E+01 -1.66142E+01 -1.71842E+01 -1.76667E+01 -1.80677E+01 -1.83977E+01 -1.86704E+01 -1.88979E+01
  -1.90911E+01 -1.92574E+01 -1.94027E+01 -1.95300E+01 -1.96415E+01 -1.97373E+01 -1.98180E+01 -1.98825E+01 -1.99309E+01 -1.99620E+01
  -1.99756E+01 -1.99704E+01 -1.99463E+01 -1.99022E+01 -1.98381E+01 -1.97531E+01 -1.96478E+01 -1.95217E+01 -1.93756E+01 -1.92102E+01
  -1.90274E+01 -1.88288E+01 -1.86173E+01 -1.83957E+01 -1.81684E+01 -1.79392E+01 -1.77135E+01 -1.74960E+01 -1.72923E+01 -1.71072E+01
  -1.69460E+01 -1.68127E+01 -1.67114E+01 -1.66444E+01 -1.66139E+01 -1.66200E+01 -1.66626E+01 -1.67397E+01 -1.68491E+01 -1.69867E+01
  -1.71488E+01 -1.73302E+01 -1.75266E+01 -1.77325E+01 -1.79436E+01 -1.81549E+01 -1.83629E+01 -1.85638E+01 -1.87553E+01 -1.89348E+01
  -1.91012E+01 -1.92531E+01 -1.93906E+01 -1.95131E+01 -1.96215E+01 -1.97160E+01 -1.97977E+01 -1.98672E+01 -1.99258E+01 -1.99742E+01
  -2.00139E+01 -2.00453E+01 -2.00697E+01 -2.00874E+01 -2.00997E+01 -2.01068E+01 -2.01098E+01 -2.01086E+01 -2.01042E+01 -2.00964E+01
  -2.00861E+01 -2.00732E+01 -2.00584E+01 -2.00413E+01 -2.00227E+01 -2.00022E+01 -1.99805E+01 -1.99573E+01 -1.99331E+01 -1.99075E+01
  -1.98811E+01 -1.98534E+01 -1.98252E+01 -1.97959E+01 -1.97661E+01 -1.97352E+01 -1.97039E+01 -1.96717E+01 -1.96393E+01 -1.96059E+01
  -1.95723E+01 -1.95379E+01 -1.95032E+01 -1.94679E+01 -1.94323E+01 -1.93961E+01 -1.93597E+01 -1.93227E+01 -1.92855E+01 -1.92478E+01
  -1.92100E+01 -1.91716E+01 -1.91330E+01 -1.90940E+01 -1.90549E+01 -1.90153E+01 -1.89756E+01 -1.89354E+01 -1.88952E+01 -1.88545E+01
  -1.88139E+01 -1.87728E+01 -1.87316E+01 -1.86900E+01 -1.86484E+01 -1.86064E+01 -1.85644E+01 -1.85220E+01 -1.84796E+01 -1.84368E+01
  -1.83941E+01 -1.83509E+01 -1.83079E+01 -1.82644E+01 -1.82209E+01 -1.81771E+01 -1.81334E+01 -1.80892E+01
 NY background values follow
     1.020E+02    1.012E+02    1.004E+02    9.964E+01    9.885E+01    9.805E+01    9.726E+01    9.647E+01    9.569E+01    9.490E+01
     9.412E+01    9.334E+01    9.256E+01    9.179E+01    9.102E+01    9.025E+01    8.948E+01    8.871E+01    8.795E+01    8.719E+01
     8.644E+01    8.568E+01    8.493E+01    8.418E+01    8.343E+01    8.269E+01    8.195E+01    8.121E+01    8.048E+01    7.975E+01
     7.902E+01    7.829E+01    7.757E+01    7.685E+01    7.613E+01    7.542E+01    7.471E+01    7.400E+01    7.329E+01    7.259E+01
     7.190E+01    7.120E+01    7.051E+01    6.982E+01    6.914E+01    6.846E+01    6.778E+01    6.711E+01    6.644E+01    6.577E+01
     6.511E+01    6.445E+01    6.379E+01    6.314E+01    6.249E+01    6.185E+01    6.121E+01    6.057E+01    5.994E+01    5.931E+01
     5.868E+01    5.806E+01    5.744E+01    5.683E+01    5.622E+01    5.562E+01    5.502E+01    5.442E+01    5.383E+01    5.324E+01
     5.265E+01    5.207E+01    5.150E+01    5.093E+01    5.036E+01    4.980E+01    4.924E+01    4.869E+01    4.814E+01    4.759E+01
     4.706E+01    4.652E+01    4.599E+01    4.546E+01    4.494E+01    4.443E+01    4.392E+01    4.341E+01    4.291E+01    4.241E+01
     4.192E+01    4.143E+01    4.095E+01    4.047E+01    4.000E+01    3.953E+01    3.907E+01    3.861E+01    3.816E+01    3.772E+01
     3.727E+01    3.684E+01    3.641E+01    3.598E+01    3.556E+01    3.515E+01    3.473E+01    3.433E+01    3.393E+01    3.353E+01
     3.314E+01    3.275E+01    3.237E+01    3.199E+01    3.161E+01    3.124E+01    3.088E+01    3.052E+01    3.016E+01    2.980E+01
     2.945E+01    2.911E+01    2.876E+01    2.843E+01    2.809E+01    2.776E+01    2.743E+01    2.711E+01    2.678E+01    2.647E+01
     2.615E+01    2.584E+01    2.553E+01    2.522E+01    2.492E+01    2.462E+01    2.432E+01    2.403E+01    2.374E+01    2.345E+01
     2.316E+01    2.288E+01    2.260E+01    2.232E+01    2.204E+01    2.176E+01    2.149E+01    2.122E+01    2.095E+01    2.068E+01
     2.042E+01    2.015E+01    1.989E+01    1.963E+01    1.937E+01    1.911E+01    1.886E+01    1.860E+01    1.835E+01    1.810E+01
     1.785E+01    1.760E+01    1.735E+01    1.710E+01    1.685E+01    1.660E+01    1.636E+01    1.611E+01    1.587E+01    1.562E+01
     1.538E+01    1.514E+01    1.489E+01    1.465E+01    1.441E+01    1.417E+01    1.392E+01    1.368E+01    1.344E+01    1.320E+01
     1.295E+01    1.271E+01    1.246E+01    1.222E+01    1.198E+01    1.173E+01    1.148E+01    1.124E+01    1.099E+01    1.074E+01
     1.049E+01    1.024E+01    9.988E+00    9.735E+00    9.481E+00    9.226E+00    8.969E+00    8.710E+00    8.451E+00    8.189E+00
     7.926E+00    7.662E+00    7.396E+00    7.128E+00    6.860E+00    6.589E+00    6.318E+00    6.045E+00    5.771E+00    5.496E+00
     5.219E+00    4.942E+00    4.664E+00    4.384E+00    4.104E+00    3.823E+00    3.541E+00    3.259E+00    2.976E+00    2.692E+00
     2.407E+00    2.122E+00    1.837E+00    1.551E+00    1.265E+00    9.780E-01    6.911E-01    4.040E-01    1.167E-01   -1.707E-01
    -4.581E-01   -7.456E-01   -1.033E+00   -1.320E+00   -1.608E+00   -1.895E+00   -2.181E+00   -2.468E+00   -2.754E+00   -3.040E+00
    -3.325E+00   -3.610E+00   -3.894E+00   -4.178E+00   -4.461E+00   -4.743E+00   -5.024E+00   -5.305E+00   -5.585E+00   -5.864E+00
    -6.142E+00   -6.418E+00   -6.694E+00   -6.969E+00   -7.242E+00   -7.515E+00   -7.786E+00   -8.055E+00   -8.324E+00   -8.590E+00
    -8.856E+00   -9.120E+00   -9.382E+00   -9.642E+00   -9.901E+00   -1.016E+01   -1.041E+01   -1.067E+01   -1.092E+01   -1.117E+01
    -1.142E+01   -1.166E+01   -1.191E+01   -1.215E+01   -1.239E+01   -1.262E+01   -1.286E+01   -1.309E+01   -1.332E+01   -1.355E+01
    -1.377E+01   -1.399E+01   -1.421E+01   -1.443E+01   -1.464E+01   -1.485E+01   -1.506E+01   -1.527E+01   -1.547E+01   -1.567E+01
    -1.587E+01   -1.606E+01   -1.625E+01   -1.644E+01   -1.662E+01   -1.680E+01   -1.698E+01   -1.715E+01   -1.733E+01   -1.749E+01
    -1.766E+01   -1.782E+01   -1.797E+01   -1.813E+01   -1.828E+01   -1.842E+01   -1.856E+01   -1.870E+01   -1.884E+01   -1.897E+01
    -1.910E+01   -1.923E+01   -1.936E+01   -1.948E+01   -1.959E+01   -1.971E+01   -1.982E+01   -1.993E+01   -2.004E+01   -2.014E+01
    -2.024E+01   -2.034E+01   -2.043E+01   -2.052E+01   -2.061E+01   -2.070E+01   -2.078E+01   -2.086E+01   -2.094E+01   -2.102E+01
    -2.109E+01   -2.116E+01   -2.123E+01   -2.130E+01   -2.136E+01   -2.142E+01   -2.148E+01   -2.154E+01   -2.159E+01   -2.165E+01
    -2.169E+01   -2.174E+01   -2.179E+01   -2.183E+01   -2.187E+01   -2.191E+01   -2.195E+01   -2.198E+01   -2.202E+01   -2.205E+01
    -2.208E+01   -2.211E+01   -2.213E+01   -2.216E+01   -2.218E+01   -2.220E+01   -2.222E+01   -2.223E+01   -2.225E+01   -2.226E+01
    -2.228E+01   -2.229E+01   -2.230E+01   -2.230E+01   -2.231E+01   -2.231E+01   -2.232E+01   -2.232E+01   -2.232E+01   -2.232E+01
    -2.232E+01   -2.232E+01   -2.231E+01   -2.231E+01   -2.230E+01   -2.229E+01   -2.228E+01   -2.227E+01   -2.226E+01   -2.225E+01
    -2.224E+01   -2.222E+01   -2.221E+01   -2.220E+01   -2.218E+01   -2.216E+01   -2.214E+01   -2.213E+01   -2.211E+01   -2.209E+01
    -2.207E+01   -2.205E+01   -2.203E+01   -2.200E+01   -2.198E+01   -2.196E+01   -2.193E+01   -2.191E+01   -2.189E+01   -2.186E+01
    -2.184E+01   -2.181E+01   -2.179E+01   -2.176E+01   -2.173E+01   -2.171E+01   -2.168E+01   -2.165E+01   -2.163E+01   -2.160E+01
    -2.157E+01   -2.154E+01   -2.151E+01   -2.148E+01   -2.146E+01   -2.143E+01   -2.140E+01   -2.137E+01   -2.134E+01   -2.130E+01
    -2.127E+01   -2.124E+01   -2.121E+01   -2.118E+01   -2.115E+01   -2.111E+01   -2.108E+01   -2.105E+01   -2.101E+01   -2.098E+01
    -2.095E+01   -2.091E+01   -2.088E+01   -2.084E+01   -2.081E+01   -2.077E+01   -2.074E+01   -2.070E+01   -2.067E+01   -2.063E+01
    -2.059E+01   -2.056E+01   -2.052E+01   -2.048E+01   -2.045E+01   -2.041E+01   -2.037E+01   -2.033E+01   -2.029E+01   -2.026E+01
    -2.022E+01   -2.018E+01   -2.014E+01   -2.010E+01   -2.006E+01   -2.002E+01   -1.998E+01   -1.994E+01   -1.990E+01   -1.986E+01
    -1.982E+01   -1.978E+01   -1.974E+01   -1.970E+01   -1.966E+01   -1.961E+01   -1.957E+01   -1.953E+01   -1.949E+01   -1.945E+01
    -1.940E+01   -1.936E+01   -1.932E+01   -1.928E+01   -1.923E+01   -1.919E+01   -1.915E+01   -1.910E+01   -1.906E+01   -1.902E+01
    -1.897E+01   -1.893E+01   -1.888E+01   -1.884E+01   -1.880E+01   -1.875E+01   -1.871E+01   -1.866E+01   -1.862E+01   -1.857E+01
    -1.853E+01   -1.848E+01   -1.844E+01   -1.839E+01   -1.835E+01   -1.830E+01   -1.826E+01   -1.821E+01
 Asp      Conc. = 9.13E+01
