 LCModel (Version 6.3-1L) Copyright: S.W. Provencher.          Ref.: Magn. Reson. Med. 30:672-679 (1993).                
 Slice#2 Row#1 Col#7  PD_24_press_2_raw_act
 36 lines in following concentration table = NCONC+1
    Conc.  %SD /Cr+PCr  Metabolite                                         
  560.514  70%  43.709 Ala                                                 
    8.181 150%   0.638 Asp                                                 
    0.000 999%   0.000 Cr                                                  
   12.824 999%   1.000 PCr                                                 
    4.872 151%   0.380 GABA                                                
    4.883 151%   0.381 Glc                                                 
    0.000 999%   0.000 Gln                                                 
    0.000 999%   0.000 Glu                                                 
   31.752 999%   2.476 GPC                                                 
   18.485 999%   1.441 PCh                                                 
    0.000 999%   0.000 GSH                                                 
 1.60E+03  41% 125.154 Ins                                                 
    0.000 999%   0.000 Lac                                                 
    0.000 999%   0.000 NAA                                                 
    0.000 999%   0.000 NAAG                                                
    1.650 149%   0.129 Scyllo                                              
    8.153 150%   0.636 Tau                                                 
    1.368 999%   0.107 -CrCH2                                              
   50.237 101%   3.917 GPC+PCh                                             
    0.000 999%   0.000 NAA+NAAG                                            
   12.824 999%   1.000 Cr+PCr                                              
    0.000 999%   0.000 Glu+Gln                                             
    0.000 999%   0.000 Lip13a                                              
    0.000 999%   0.000 Lip13b                                              
    0.000 999%   0.000 Lip09                                               
    0.606 999% 4.7E-02 MM09                                                
    0.000 999%   0.000 Lip20                                               
    0.000 999%   0.000 MM20                                                
    0.000 999%   0.000 MM12                                                
    0.000 999%   0.000 MM14                                                
   10.241 657%   0.799 MM17                                                
    0.000 999%   0.000 Lip13a+Lip13b                                       
    0.000 999%   0.000 MM14+Lip13a+Lip13b+MM12                             
    0.606 999% 4.7E-02 MM09+Lip09                                          
    0.000 999%   0.000 MM20+Lip20                                          
   6 lines in following misc. output table
  FWHM = 0.076 ppm    S/N =   0                                            
  Data shift = 0.138 ppm                                                   
  Ph: -95 deg      -1.0 deg/ppm                                            
  alphaB,S = 8.5E+01,   5.1E+01                                            
   14 spline knots.   Ns = 9(1)                                            
   2 inflections.     1 extrema                                            
  498 points on ppm-axis = NY
      4.000000     3.992357     3.984714     3.977070     3.969427     3.961784     3.954141     3.946497     3.938854     3.931211
      3.923568     3.915925     3.908281     3.900638     3.892995     3.885352     3.877708     3.870065     3.862422     3.854779
      3.847136     3.839492     3.831849     3.824206     3.816563     3.808919     3.801276     3.793633     3.785990     3.778347
      3.770703     3.763060     3.755417     3.747774     3.740130     3.732487     3.724844     3.717201     3.709558     3.701914
      3.694271     3.686628     3.678985     3.671341     3.663698     3.656055     3.648412     3.640769     3.633125     3.625482
      3.617839     3.610196     3.602552     3.594909     3.587266     3.579623     3.571980     3.564336     3.556693     3.549050
      3.541407     3.533763     3.526120     3.518477     3.510834     3.503191     3.495547     3.487904     3.480261     3.472618
      3.464974     3.457331     3.449688     3.442045     3.434402     3.426758     3.419115     3.411472     3.403829     3.396185
      3.388542     3.380899     3.373256     3.365613     3.357969     3.350326     3.342683     3.335040     3.327396     3.319753
      3.312110     3.304467     3.296824     3.289180     3.281537     3.273894     3.266251     3.258607     3.250964     3.243321
      3.235678     3.228034     3.220391     3.212748     3.205105     3.197462     3.189818     3.182175     3.174532     3.166889
      3.159245     3.151602     3.143959     3.136316     3.128673     3.121029     3.113386     3.105743     3.098100     3.090456
      3.082813     3.075170     3.067527     3.059884     3.052240     3.044597     3.036954     3.029311     3.021667     3.014024
      3.006381     2.998738     2.991095     2.983451     2.975808     2.968165     2.960522     2.952878     2.945235     2.937592
      2.929949     2.922306     2.914662     2.907019     2.899376     2.891733     2.884089     2.876446     2.868803     2.861160
      2.853517     2.845873     2.838230     2.830587     2.822944     2.815300     2.807657     2.800014     2.792371     2.784728
      2.777084     2.769441     2.761798     2.754155     2.746511     2.738868     2.731225     2.723582     2.715939     2.708295
      2.700652     2.693009     2.685366     2.677722     2.670079     2.662436     2.654793     2.647150     2.639506     2.631863
      2.624220     2.616577     2.608933     2.601290     2.593647     2.586004     2.578361     2.570717     2.563074     2.555431
      2.547788     2.540144     2.532501     2.524858     2.517215     2.509572     2.501928     2.494285     2.486642     2.478999
      2.471355     2.463712     2.456069     2.448426     2.440783     2.433139     2.425496     2.417853     2.410210     2.402566
      2.394923     2.387280     2.379637     2.371994     2.364350     2.356707     2.349064     2.341421     2.333777     2.326134
      2.318491     2.310848     2.303205     2.295561     2.287918     2.280275     2.272632     2.264988     2.257345     2.249702
      2.242059     2.234416     2.226772     2.219129     2.211486     2.203843     2.196199     2.188556     2.180913     2.173270
      2.165627     2.157983     2.150340     2.142697     2.135054     2.127410     2.119767     2.112124     2.104481     2.096838
      2.089194     2.081551     2.073908     2.066265     2.058621     2.050978     2.043335     2.035692     2.028049     2.020405
      2.012762     2.005119     1.997476     1.989833     1.982190     1.974546     1.966903     1.959260     1.951617     1.943974
      1.936331     1.928688     1.921045     1.913402     1.905759     1.898115     1.890472     1.882829     1.875186     1.867543
      1.859900     1.852257     1.844614     1.836971     1.829327     1.821684     1.814041     1.806398     1.798755     1.791112
      1.783469     1.775826     1.768183     1.760540     1.752896     1.745253     1.737610     1.729967     1.722324     1.714681
      1.707038     1.699395     1.691752     1.684108     1.676465     1.668822     1.661179     1.653536     1.645893     1.638250
      1.630607     1.622964     1.615321     1.607677     1.600034     1.592391     1.584748     1.577105     1.569462     1.561819
      1.554176     1.546533     1.538890     1.531246     1.523603     1.515960     1.508317     1.500674     1.493031     1.485388
      1.477745     1.470102     1.462458     1.454815     1.447172     1.439529     1.431886     1.424243     1.416600     1.408957
      1.401314     1.393671     1.386027     1.378384     1.370741     1.363098     1.355455     1.347812     1.340169     1.332526
      1.324883     1.317240     1.309596     1.301953     1.294310     1.286667     1.279024     1.271381     1.263738     1.256095
      1.248452     1.240808     1.233165     1.225522     1.217879     1.210236     1.202593     1.194950     1.187307     1.179664
      1.172021     1.164377     1.156734     1.149091     1.141448     1.133805     1.126162     1.118519     1.110876     1.103233
      1.095590     1.087946     1.080303     1.072660     1.065017     1.057374     1.049731     1.042088     1.034445     1.026802
      1.019158     1.011515     1.003872     0.996229     0.988586     0.980943     0.973300     0.965657     0.958014     0.950371
      0.942727     0.935084     0.927441     0.919798     0.912155     0.904512     0.896869     0.889226     0.881583     0.873940
      0.866296     0.858653     0.851010     0.843367     0.835724     0.828081     0.820438     0.812795     0.805152     0.797508
      0.789865     0.782222     0.774579     0.766936     0.759293     0.751650     0.744007     0.736364     0.728721     0.721077
      0.713434     0.705791     0.698148     0.690505     0.682862     0.675219     0.667576     0.659933     0.652290     0.644646
      0.637003     0.629360     0.621717     0.614074     0.606431     0.598788     0.591145     0.583502     0.575858     0.568215
      0.560572     0.552929     0.545286     0.537643     0.530000     0.522357     0.514714     0.507071     0.499427     0.491784
      0.484141     0.476498     0.468855     0.461212     0.453569     0.445925     0.438282     0.430639     0.422996     0.415353
      0.407710     0.400067     0.392424     0.384780     0.377137     0.369494     0.361851     0.354208     0.346565     0.338922
      0.331278     0.323635     0.315992     0.308349     0.300706     0.293063     0.285420     0.277777     0.270133     0.262490
      0.254847     0.247204     0.239561     0.231918     0.224275     0.216631     0.208988     0.201345
 NY phased data points follow
   8.56343E+00  1.00559E+00 -8.73270E+00 -2.20904E+01  7.20200E+00 -8.73044E+00  1.15115E+01  1.39711E+00 -1.09173E+01 -2.63322E+00
  -3.45904E+00 -9.07184E-01 -5.96125E-01 -7.04825E+00 -4.54573E+00 -6.91515E+00 -4.10222E+00 -1.60903E+01 -5.63803E-01  1.04274E+00
  -9.28903E+00 -5.64787E+00 -5.48274E+00  1.59795E-01 -2.07217E+01 -1.87377E+01 -9.88691E+00 -2.06404E+00  1.03087E+01 -1.21470E+01
   1.03739E+00  2.79137E+00 -2.54700E+00 -6.80921E+00 -7.05035E+00  2.60508E+00  5.06839E+00  2.05086E-01 -5.27038E+00 -1.21932E+01
   1.29379E+01 -8.09741E+00  5.95527E+00  1.35003E+00  2.22029E+01  1.25265E+01  3.02326E+01 -4.56084E+00 -2.61119E+00  3.76794E+00
   1.07297E+01 -1.81578E-01  1.18994E+01 -1.29981E+01 -3.29425E+00  8.87444E+00 -1.36803E+01 -8.39394E+00 -1.22635E+01 -1.54551E+01
   8.16636E+00 -4.25335E+00 -1.02235E+01  6.17767E+00 -3.15660E+00  5.97745E+00 -1.35913E+01  8.99495E+00 -2.90730E+00 -1.12941E+01
   1.40990E+01  3.99650E+00  1.42002E+01  1.54879E+00 -3.62246E-01 -8.44514E+00  7.31148E+00 -1.62212E+01 -5.18207E+00  7.05279E+00
   3.99088E+00  1.87428E+01  4.34343E+00 -1.75089E+01 -9.64923E+00 -6.86112E+00 -4.65323E+00 -4.59635E+00  3.38564E+00  4.78568E+00
   2.69417E+00  3.30002E+00  1.44120E+01 -6.71265E+00 -1.96283E+01 -5.25545E+00 -2.16775E+00  7.98404E+00 -2.51022E+00  6.79402E+00
  -2.29590E+00 -6.22184E+00 -9.90297E+00  4.09272E+00  4.15774E+00 -1.93182E+00  6.91377E+00 -7.18958E+00  3.36649E+00 -1.57508E+01
  -1.86519E+01 -9.36051E+00  3.32827E+00 -5.52141E+00 -2.97974E-01 -7.26313E+00 -1.24482E+00 -1.71513E+00  5.26104E+00  6.85162E+00
   1.33847E+00  8.40475E+00  6.32398E+00 -8.63796E+00 -1.07602E+01  1.43064E-01  8.46313E+00 -1.83527E+01  3.68493E+00 -1.36314E+01
   7.74821E+00 -2.09924E+01  1.57363E+01 -3.96168E+00 -2.57502E+00 -2.35160E+00 -6.22786E-01  3.73823E+00 -1.73307E+00  4.53110E+00
  -8.40296E+00 -7.71801E+00  6.08150E+00 -9.06524E+00  1.13095E+01 -2.39745E+01 -8.23835E+00 -1.76986E+01 -1.05049E+01 -1.07415E+01
  -8.12682E+00 -2.58061E-01 -3.55961E+00  8.44947E+00 -7.49150E+00 -6.68211E+00 -1.39902E+00 -7.98635E+00  3.28864E+00 -1.83392E+00
   5.43855E-01 -5.30107E+00  1.13478E+01  1.54215E+01  7.36161E+00 -6.02439E+00 -9.44207E+00 -9.84405E+00 -6.11117E-03  8.32743E+00
   1.45257E+01 -5.24836E+00 -7.86069E+00  7.81310E+00 -6.72226E+00 -1.51303E+00  8.49955E+00 -3.11967E+00 -8.81577E-01 -5.71302E+00
   1.66626E+01  1.69646E+01 -4.11656E+00  4.52023E+00  1.87684E+00 -4.72026E+00 -3.48847E+00  2.86010E+00  9.56541E-01 -1.51148E+01
  -8.40555E-01 -7.25123E+00  6.64779E+00 -1.34778E+01  1.03769E+01 -3.54160E+00 -3.60005E+00 -4.10551E+00 -6.79215E+00 -1.53312E+01
   2.72390E+00  1.31502E+01 -2.02447E+00  1.08486E-01 -1.18758E+01  6.65470E+00  1.44800E+01 -2.19640E+00  7.52349E-01 -3.90632E+00
  -1.26979E+01 -6.80441E+00 -6.50898E+00  5.23713E+00  6.73079E+00 -5.09427E+00  1.56881E+00 -6.68340E+00 -7.68551E+00  4.88380E-01
  -1.06405E+01 -1.27887E+01 -7.78280E+00  1.02795E+01  1.26476E+01 -4.19904E+00  6.69916E+00 -1.82506E+01  7.34881E+00 -2.80087E+00
  -3.47181E+00  1.04796E+01 -2.92379E+00 -7.17582E-01  9.59912E+00 -2.19729E+01 -3.54879E+00 -1.13577E+01  1.65854E+01 -5.75576E+00
  -1.02730E+01 -3.27242E+00 -6.32692E+00 -5.45102E-01 -8.49303E+00 -2.35333E+00  2.18652E+00 -1.56763E+00 -9.33479E+00 -2.39477E+00
  -3.31721E+00 -4.92320E+00 -8.22291E+00 -2.71715E+01  1.22398E+00 -5.83893E+00  1.00783E+01 -8.88757E+00 -1.73652E+01 -1.80307E+01
  -7.96432E+00 -3.88990E+00 -1.30639E+01  2.32566E+00 -3.71497E+00 -3.12318E+00  2.23271E-01  8.19904E+00  1.38660E+00 -2.18982E+00
  -3.24593E+00 -6.93909E+00 -8.28211E+00  1.49899E+01  9.03525E+00 -5.98405E+00  2.42015E+00 -1.26270E+01  8.66965E+00  3.75363E+00
  -5.86100E+00 -2.48098E+00  1.68303E+00 -1.91831E+01 -6.92012E+00 -5.19838E+00  4.55698E+00  3.93211E+00 -1.06244E+01 -2.09917E+01
   4.97021E+00 -1.46439E+01 -1.79272E+01 -1.21803E+01 -1.33662E+01  3.10465E+00  1.68068E+00 -1.75190E+00 -2.77669E+00 -1.69739E+01
   4.44972E+00 -4.56290E+00  1.21984E+01  6.34305E+00  1.32148E+01  6.24095E+00  2.53269E+00  1.69034E+01  1.03024E+00  6.78667E+00
  -5.33822E+00 -8.94234E+00  2.48404E+01  3.84430E+00  4.30506E+00 -1.40971E+00  4.99853E+00  8.44507E+00 -7.95623E-01 -1.89209E+00
   2.86589E+00 -5.08999E+00 -3.37869E+00  4.86536E+00  1.37083E+01 -2.91231E+00 -2.11253E+01 -6.15963E+00 -9.55237E+00  7.32091E+00
  -5.08390E+00 -1.63763E+01 -1.60959E+01 -1.06483E+01 -4.95516E+00 -1.01370E+01 -7.21940E+00  4.68070E+00  5.06245E+00 -1.57579E+01
   1.77244E+01 -6.52053E-01  1.77300E-02 -1.35577E-01 -1.15922E+00 -2.48769E+01 -2.16272E+00 -1.66002E+01  1.40583E+00  1.99181E+00
  -4.66658E+00 -2.28335E+01 -4.74620E+00  9.13406E+00 -1.08141E+01  3.15239E+00 -1.42254E+01 -1.97191E-01 -5.06859E+00 -1.23346E+01
  -2.44023E+01 -1.64403E+01 -5.44380E+00 -4.70618E+00 -5.51781E+00 -1.11472E+01 -1.66603E+00 -9.25647E+00 -2.02122E+01 -7.14004E-01
  -4.66535E+00 -3.50568E+00  6.56339E+00 -6.27090E+00  4.23552E+00  4.19691E+00 -3.18517E+01  2.05657E+01  2.27678E+01 -1.23371E+01
   8.15761E+00  7.62359E-01 -8.72522E+00 -5.33989E+00 -1.64945E+00  2.23850E+00 -8.33009E-01 -4.96388E+00 -1.01595E+01 -6.65421E+00
  -1.96036E+01 -7.64206E+00  2.84335E-01 -2.29389E+00 -3.92836E+00 -1.28348E+01 -4.09904E+00  1.38991E+01 -9.32955E+00 -1.01620E+01
   5.65234E+00  1.03846E+01  8.34029E+00 -7.43425E+00  9.71199E+00 -9.26575E+00  7.50379E+00 -5.41294E-01 -7.74755E+00  6.03801E+00
   9.08176E+00 -2.30366E+00  3.82070E+00 -1.50883E+01 -7.45643E+00  6.83466E+00 -8.47972E+00 -1.06048E+01 -2.02175E-01  4.63832E+00
  -3.84830E-01 -1.25354E+01  1.19645E+01  2.96044E+00  1.18619E+01  3.16323E+00  3.18478E+00 -1.48276E+01 -1.59119E+01 -9.68703E-01
   9.79192E-01 -1.16566E+01  9.45599E+00 -7.87406E+00 -7.60907E+00 -1.52210E+01  1.30729E+01  6.50483E+00 -5.66730E+00  1.09772E+01
   1.25178E+00 -4.17742E+00  4.82679E+00  7.23339E+00  7.76838E+00 -1.66334E+01  2.11029E+00 -3.57466E-01 -7.63578E+00  4.50364E+00
   1.22760E+01  3.66368E+00  1.41112E+01  2.07831E+01  1.45430E+01  8.49014E+00 -6.82166E+00 -6.43155E+00  2.90297E-01  4.97923E+00
  -3.10735E+00  1.52924E-01  6.25023E+00 -1.30757E+01 -2.74482E-01  5.24556E+00 -4.96893E+00 -4.15834E+00  1.63142E+00  1.29067E+01
   6.42573E+00 -1.20118E+01 -1.35411E+01 -4.43933E+00 -2.66179E+00  4.39367E+00 -2.91577E+00  2.30897E+01  5.21486E+00 -9.23975E+00
   8.69163E-01  4.89215E+00  7.83110E+00 -2.56380E+00  9.03270E+00 -4.70206E+00  7.54352E+00 -2.33499E+00  2.55944E+00 -6.48188E+00
  -1.81460E+01  1.47518E+01 -4.59160E+00 -4.82323E+00  1.51808E+00  1.12614E+01 -3.53696E+00 -3.25858E+00
 NY points of the fit to the data follow
  -6.92036E-01 -1.40625E+00 -1.84747E+00 -2.06100E+00 -2.18916E+00 -2.21471E+00 -2.15810E+00 -2.12515E+00 -2.13135E+00 -2.17129E+00
  -2.24534E+00 -2.34245E+00 -2.44455E+00 -2.53009E+00 -2.57168E+00 -2.53374E+00 -2.38279E+00 -2.14308E+00 -1.89275E+00 -1.70227E+00
  -1.60899E+00 -1.62612E+00 -1.76466E+00 -2.02039E+00 -2.32475E+00 -2.56675E+00 -2.68777E+00 -2.68378E+00 -2.53222E+00 -2.16857E+00
  -1.61232E+00 -9.95866E-01 -4.69316E-01 -1.13930E-01  4.36792E-02 -2.92843E-02 -3.44320E-01 -7.59530E-01 -9.83409E-01 -7.25628E-01
   9.27864E-02  1.30910E+00  2.70577E+00  4.08917E+00  5.19183E+00  5.74092E+00  5.66841E+00  5.14708E+00  4.41347E+00  3.53263E+00
   2.48320E+00  1.31381E+00  1.76430E-01 -6.93083E-01 -1.08770E+00 -9.20616E-01 -2.57931E-01  6.46436E-01  1.36903E+00  1.61853E+00
   1.48974E+00  1.22586E+00  9.53364E-01  7.15628E-01  5.25412E-01  3.89457E-01  3.30622E-01  3.83495E-01  5.87254E-01  9.34306E-01
   1.29777E+00  1.54235E+00  1.62401E+00  1.53398E+00  1.31249E+00  9.94011E-01  6.25397E-01  2.53661E-01 -1.37694E-01 -5.96925E-01
  -1.16450E+00 -1.83041E+00 -2.55978E+00 -3.33141E+00 -4.04194E+00 -4.55951E+00 -4.80783E+00 -4.78979E+00 -4.56467E+00 -4.21593E+00
  -3.80966E+00 -3.38546E+00 -2.97858E+00 -2.61763E+00 -2.26532E+00 -1.88763E+00 -1.51695E+00 -1.19291E+00 -9.18586E-01 -7.20264E-01
  -6.36230E-01 -6.87858E-01 -8.14880E-01 -9.16056E-01 -9.58670E-01 -1.01554E+00 -1.18158E+00 -1.51091E+00 -1.96209E+00 -2.41242E+00
  -2.76247E+00 -2.95654E+00 -2.98220E+00 -2.90355E+00 -2.85895E+00 -2.86912E+00 -2.88809E+00 -2.90839E+00 -2.91155E+00 -2.88946E+00
  -2.84268E+00 -2.77748E+00 -2.70165E+00 -2.62688E+00 -2.56653E+00 -2.52975E+00 -2.51497E+00 -2.51400E+00 -2.52372E+00 -2.54614E+00
  -2.58350E+00 -2.63210E+00 -2.68344E+00 -2.72790E+00 -2.75781E+00 -2.76890E+00 -2.76127E+00 -2.74364E+00 -2.72979E+00 -2.71903E+00
  -2.70821E+00 -2.69749E+00 -2.68777E+00 -2.67963E+00 -2.67298E+00 -2.66693E+00 -2.66068E+00 -2.65425E+00 -2.64782E+00 -2.64168E+00
  -2.63632E+00 -2.63189E+00 -2.62805E+00 -2.62392E+00 -2.61910E+00 -2.61381E+00 -2.60840E+00 -2.60314E+00 -2.59746E+00 -2.59072E+00
  -2.58284E+00 -2.57380E+00 -2.56347E+00 -2.55201E+00 -2.54003E+00 -2.52834E+00 -2.51730E+00 -2.50689E+00 -2.49705E+00 -2.48795E+00
  -2.47980E+00 -2.47262E+00 -2.46667E+00 -2.46192E+00 -2.45789E+00 -2.45369E+00 -2.44835E+00 -2.44169E+00 -2.43429E+00 -2.42648E+00
  -2.41838E+00 -2.41027E+00 -2.40255E+00 -2.39561E+00 -2.38975E+00 -2.38485E+00 -2.38072E+00 -2.37717E+00 -2.37399E+00 -2.37080E+00
  -2.36704E+00 -2.36228E+00 -2.35650E+00 -2.34985E+00 -2.34237E+00 -2.33428E+00 -2.32590E+00 -2.31730E+00 -2.30880E+00 -2.30079E+00
  -2.29351E+00 -2.28702E+00 -2.28119E+00 -2.27557E+00 -2.26963E+00 -2.26349E+00 -2.25734E+00 -2.25132E+00 -2.24564E+00 -2.24047E+00
  -2.23580E+00 -2.23152E+00 -2.22738E+00 -2.22299E+00 -2.21767E+00 -2.21068E+00 -2.20166E+00 -2.19094E+00 -2.17926E+00 -2.16747E+00
  -2.15651E+00 -2.14756E+00 -2.14154E+00 -2.13827E+00 -2.13658E+00 -2.13534E+00 -2.13391E+00 -2.13181E+00 -2.12847E+00 -2.12356E+00
  -2.11722E+00 -2.10961E+00 -2.10056E+00 -2.08988E+00 -2.07811E+00 -2.06644E+00 -2.05600E+00 -2.04730E+00 -2.04046E+00 -2.03522E+00
  -2.03091E+00 -2.02647E+00 -2.02119E+00 -2.01528E+00 -2.00923E+00 -2.00312E+00 -1.99696E+00 -1.99076E+00 -1.98453E+00 -1.97829E+00
  -1.97207E+00 -1.96594E+00 -1.95990E+00 -1.95388E+00 -1.94772E+00 -1.94120E+00 -1.93415E+00 -1.92655E+00 -1.91850E+00 -1.91022E+00
  -1.90207E+00 -1.89453E+00 -1.88785E+00 -1.88191E+00 -1.87647E+00 -1.87123E+00 -1.86593E+00 -1.86020E+00 -1.85366E+00 -1.84617E+00
  -1.83789E+00 -1.82894E+00 -1.81944E+00 -1.80967E+00 -1.80000E+00 -1.79085E+00 -1.78231E+00 -1.77424E+00 -1.76655E+00 -1.75918E+00
  -1.75177E+00 -1.74374E+00 -1.73482E+00 -1.72491E+00 -1.71395E+00 -1.70200E+00 -1.68913E+00 -1.67565E+00 -1.66187E+00 -1.64785E+00
  -1.63360E+00 -1.61915E+00 -1.60435E+00 -1.58902E+00 -1.57299E+00 -1.55607E+00 -1.53821E+00 -1.51943E+00 -1.49964E+00 -1.47874E+00
  -1.45667E+00 -1.43335E+00 -1.40859E+00 -1.38214E+00 -1.35367E+00 -1.32269E+00 -1.28860E+00 -1.25061E+00 -1.20772E+00 -1.15859E+00
  -1.10140E+00 -1.03370E+00 -9.51996E-01 -8.51201E-01 -7.23486E-01 -5.55860E-01 -3.24099E-01  2.65675E-02  6.00864E-01  1.36283E+00
   2.08035E+00  2.51997E+00  2.52990E+00  2.01001E+00  9.02827E-01 -7.35856E-01 -2.57598E+00 -4.11822E+00 -5.10844E+00 -5.58439E+00
  -5.63021E+00 -5.23458E+00 -4.39999E+00 -3.25331E+00 -1.97185E+00 -6.40719E-01  7.09853E-01  1.89542E+00  2.58593E+00  2.72191E+00
   2.41815E+00  1.76436E+00  9.28201E-01  1.09028E-01 -4.86257E-01 -7.23535E-01 -7.56239E-01 -8.05685E-01 -8.64387E-01 -9.17848E-01
  -9.63838E-01 -1.00281E+00 -1.03572E+00 -1.06353E+00 -1.08707E+00 -1.10698E+00 -1.12383E+00 -1.13809E+00 -1.15014E+00 -1.16031E+00
  -1.16885E+00 -1.17596E+00 -1.18184E+00 -1.18663E+00 -1.19048E+00 -1.19349E+00 -1.19577E+00 -1.19737E+00 -1.19839E+00 -1.19887E+00
  -1.19888E+00 -1.19847E+00 -1.19767E+00 -1.19651E+00 -1.19504E+00 -1.19327E+00 -1.19123E+00 -1.18896E+00 -1.18646E+00 -1.18375E+00
  -1.18084E+00 -1.17775E+00 -1.17450E+00 -1.17109E+00 -1.16754E+00 -1.16384E+00 -1.16002E+00 -1.15607E+00 -1.15200E+00 -1.14783E+00
  -1.14356E+00 -1.13918E+00 -1.13472E+00 -1.13018E+00 -1.12557E+00 -1.12089E+00 -1.11616E+00 -1.11137E+00 -1.10656E+00 -1.10171E+00
  -1.09685E+00 -1.09197E+00 -1.08709E+00 -1.08220E+00 -1.07733E+00 -1.07246E+00 -1.06761E+00 -1.06276E+00 -1.05792E+00 -1.05309E+00
  -1.04826E+00 -1.04343E+00 -1.03860E+00 -1.03376E+00 -1.02889E+00 -1.02401E+00 -1.01911E+00 -1.01418E+00 -1.00923E+00 -1.00424E+00
  -9.99215E-01 -9.94163E-01 -9.89082E-01 -9.83969E-01 -9.78825E-01 -9.73653E-01 -9.68455E-01 -9.63234E-01 -9.57991E-01 -9.52725E-01
  -9.47439E-01 -9.42135E-01 -9.36816E-01 -9.31483E-01 -9.26136E-01 -9.20774E-01 -9.15399E-01 -9.10014E-01 -9.04619E-01 -8.99215E-01
  -8.93802E-01 -8.88378E-01 -8.82945E-01 -8.77506E-01 -8.72060E-01 -8.66608E-01 -8.61148E-01 -8.55680E-01 -8.50207E-01 -8.44729E-01
  -8.39246E-01 -8.33758E-01 -8.28263E-01 -8.22762E-01 -8.17257E-01 -8.11749E-01 -8.06237E-01 -8.00719E-01 -7.95195E-01 -7.89667E-01
  -7.84137E-01 -7.78604E-01 -7.73066E-01 -7.67524E-01 -7.61977E-01 -7.56426E-01 -7.50874E-01 -7.45319E-01 -7.39759E-01 -7.34195E-01
  -7.28626E-01 -7.23055E-01 -7.17482E-01 -7.11906E-01 -7.06324E-01 -7.00738E-01 -6.95148E-01 -6.89556E-01 -6.83961E-01 -6.78362E-01
  -6.72757E-01 -6.67146E-01 -6.61532E-01 -6.55915E-01 -6.50293E-01 -6.44664E-01 -6.39028E-01 -6.33385E-01 -6.27736E-01 -6.22081E-01
  -6.16417E-01 -6.10741E-01 -6.05053E-01 -5.99353E-01 -5.93641E-01 -5.87914E-01 -5.82168E-01 -5.76397E-01
 NY background values follow
    -3.406E+00   -3.400E+00   -3.395E+00   -3.389E+00   -3.383E+00   -3.378E+00   -3.372E+00   -3.366E+00   -3.361E+00   -3.355E+00
    -3.349E+00   -3.344E+00   -3.338E+00   -3.332E+00   -3.326E+00   -3.321E+00   -3.315E+00   -3.309E+00   -3.304E+00   -3.298E+00
    -3.292E+00   -3.287E+00   -3.281E+00   -3.275E+00   -3.270E+00   -3.264E+00   -3.258E+00   -3.253E+00   -3.247E+00   -3.241E+00
    -3.236E+00   -3.230E+00   -3.224E+00   -3.219E+00   -3.213E+00   -3.207E+00   -3.202E+00   -3.196E+00   -3.190E+00   -3.185E+00
    -3.179E+00   -3.173E+00   -3.168E+00   -3.162E+00   -3.156E+00   -3.151E+00   -3.145E+00   -3.139E+00   -3.134E+00   -3.128E+00
    -3.122E+00   -3.117E+00   -3.111E+00   -3.105E+00   -3.100E+00   -3.094E+00   -3.088E+00   -3.082E+00   -3.077E+00   -3.071E+00
    -3.065E+00   -3.060E+00   -3.054E+00   -3.048E+00   -3.043E+00   -3.037E+00   -3.031E+00   -3.026E+00   -3.020E+00   -3.014E+00
    -3.009E+00   -3.003E+00   -2.997E+00   -2.992E+00   -2.986E+00   -2.980E+00   -2.975E+00   -2.969E+00   -2.963E+00   -2.958E+00
    -2.952E+00   -2.946E+00   -2.941E+00   -2.935E+00   -2.929E+00   -2.924E+00   -2.918E+00   -2.912E+00   -2.907E+00   -2.901E+00
    -2.895E+00   -2.890E+00   -2.884E+00   -2.878E+00   -2.873E+00   -2.867E+00   -2.861E+00   -2.856E+00   -2.850E+00   -2.844E+00
    -2.838E+00   -2.833E+00   -2.827E+00   -2.821E+00   -2.816E+00   -2.810E+00   -2.804E+00   -2.799E+00   -2.793E+00   -2.787E+00
    -2.782E+00   -2.776E+00   -2.770E+00   -2.765E+00   -2.759E+00   -2.753E+00   -2.748E+00   -2.742E+00   -2.736E+00   -2.731E+00
    -2.725E+00   -2.719E+00   -2.714E+00   -2.708E+00   -2.702E+00   -2.697E+00   -2.691E+00   -2.685E+00   -2.680E+00   -2.674E+00
    -2.668E+00   -2.663E+00   -2.657E+00   -2.651E+00   -2.646E+00   -2.640E+00   -2.634E+00   -2.629E+00   -2.623E+00   -2.617E+00
    -2.612E+00   -2.606E+00   -2.600E+00   -2.594E+00   -2.589E+00   -2.583E+00   -2.577E+00   -2.572E+00   -2.566E+00   -2.560E+00
    -2.555E+00   -2.549E+00   -2.543E+00   -2.538E+00   -2.532E+00   -2.526E+00   -2.521E+00   -2.515E+00   -2.509E+00   -2.504E+00
    -2.498E+00   -2.492E+00   -2.487E+00   -2.481E+00   -2.475E+00   -2.470E+00   -2.464E+00   -2.458E+00   -2.453E+00   -2.447E+00
    -2.441E+00   -2.436E+00   -2.430E+00   -2.424E+00   -2.419E+00   -2.413E+00   -2.407E+00   -2.402E+00   -2.396E+00   -2.390E+00
    -2.385E+00   -2.379E+00   -2.373E+00   -2.368E+00   -2.362E+00   -2.356E+00   -2.350E+00   -2.345E+00   -2.339E+00   -2.333E+00
    -2.328E+00   -2.322E+00   -2.316E+00   -2.311E+00   -2.305E+00   -2.299E+00   -2.294E+00   -2.288E+00   -2.282E+00   -2.277E+00
    -2.271E+00   -2.265E+00   -2.260E+00   -2.254E+00   -2.248E+00   -2.243E+00   -2.237E+00   -2.231E+00   -2.226E+00   -2.220E+00
    -2.214E+00   -2.209E+00   -2.203E+00   -2.197E+00   -2.192E+00   -2.186E+00   -2.180E+00   -2.175E+00   -2.169E+00   -2.163E+00
    -2.158E+00   -2.152E+00   -2.146E+00   -2.141E+00   -2.135E+00   -2.129E+00   -2.124E+00   -2.118E+00   -2.112E+00   -2.106E+00
    -2.101E+00   -2.095E+00   -2.089E+00   -2.084E+00   -2.078E+00   -2.072E+00   -2.067E+00   -2.061E+00   -2.055E+00   -2.050E+00
    -2.044E+00   -2.038E+00   -2.033E+00   -2.027E+00   -2.021E+00   -2.016E+00   -2.010E+00   -2.004E+00   -1.999E+00   -1.993E+00
    -1.987E+00   -1.982E+00   -1.976E+00   -1.970E+00   -1.965E+00   -1.959E+00   -1.953E+00   -1.948E+00   -1.942E+00   -1.936E+00
    -1.931E+00   -1.925E+00   -1.919E+00   -1.914E+00   -1.908E+00   -1.902E+00   -1.897E+00   -1.891E+00   -1.885E+00   -1.880E+00
    -1.874E+00   -1.868E+00   -1.862E+00   -1.857E+00   -1.851E+00   -1.845E+00   -1.840E+00   -1.834E+00   -1.828E+00   -1.823E+00
    -1.817E+00   -1.811E+00   -1.806E+00   -1.800E+00   -1.794E+00   -1.789E+00   -1.783E+00   -1.777E+00   -1.772E+00   -1.766E+00
    -1.760E+00   -1.755E+00   -1.749E+00   -1.743E+00   -1.738E+00   -1.732E+00   -1.726E+00   -1.721E+00   -1.715E+00   -1.709E+00
    -1.704E+00   -1.698E+00   -1.692E+00   -1.687E+00   -1.681E+00   -1.675E+00   -1.670E+00   -1.664E+00   -1.658E+00   -1.653E+00
    -1.647E+00   -1.641E+00   -1.636E+00   -1.630E+00   -1.624E+00   -1.618E+00   -1.613E+00   -1.607E+00   -1.601E+00   -1.596E+00
    -1.590E+00   -1.584E+00   -1.579E+00   -1.573E+00   -1.567E+00   -1.562E+00   -1.556E+00   -1.550E+00   -1.545E+00   -1.539E+00
    -1.533E+00   -1.528E+00   -1.522E+00   -1.516E+00   -1.511E+00   -1.505E+00   -1.499E+00   -1.494E+00   -1.488E+00   -1.482E+00
    -1.477E+00   -1.471E+00   -1.465E+00   -1.460E+00   -1.454E+00   -1.448E+00   -1.443E+00   -1.437E+00   -1.431E+00   -1.426E+00
    -1.420E+00   -1.414E+00   -1.409E+00   -1.403E+00   -1.397E+00   -1.391E+00   -1.386E+00   -1.380E+00   -1.374E+00   -1.369E+00
    -1.363E+00   -1.357E+00   -1.352E+00   -1.346E+00   -1.340E+00   -1.335E+00   -1.329E+00   -1.323E+00   -1.318E+00   -1.312E+00
    -1.306E+00   -1.301E+00   -1.295E+00   -1.289E+00   -1.284E+00   -1.278E+00   -1.272E+00   -1.267E+00   -1.261E+00   -1.255E+00
    -1.250E+00   -1.244E+00   -1.238E+00   -1.233E+00   -1.227E+00   -1.221E+00   -1.216E+00   -1.210E+00   -1.204E+00   -1.199E+00
    -1.193E+00   -1.187E+00   -1.182E+00   -1.176E+00   -1.170E+00   -1.164E+00   -1.159E+00   -1.153E+00   -1.147E+00   -1.142E+00
    -1.136E+00   -1.130E+00   -1.125E+00   -1.119E+00   -1.113E+00   -1.108E+00   -1.102E+00   -1.096E+00   -1.091E+00   -1.085E+00
    -1.079E+00   -1.074E+00   -1.068E+00   -1.062E+00   -1.057E+00   -1.051E+00   -1.045E+00   -1.040E+00   -1.034E+00   -1.028E+00
    -1.023E+00   -1.017E+00   -1.011E+00   -1.006E+00   -9.999E-01   -9.942E-01   -9.885E-01   -9.829E-01   -9.772E-01   -9.715E-01
    -9.658E-01   -9.602E-01   -9.545E-01   -9.488E-01   -9.431E-01   -9.375E-01   -9.318E-01   -9.261E-01   -9.204E-01   -9.148E-01
    -9.091E-01   -9.034E-01   -8.977E-01   -8.920E-01   -8.864E-01   -8.807E-01   -8.750E-01   -8.693E-01   -8.637E-01   -8.580E-01
    -8.523E-01   -8.466E-01   -8.410E-01   -8.353E-01   -8.296E-01   -8.239E-01   -8.183E-01   -8.126E-01   -8.069E-01   -8.012E-01
    -7.956E-01   -7.899E-01   -7.842E-01   -7.785E-01   -7.729E-01   -7.672E-01   -7.615E-01   -7.558E-01   -7.502E-01   -7.445E-01
    -7.388E-01   -7.331E-01   -7.275E-01   -7.218E-01   -7.161E-01   -7.104E-01   -7.048E-01   -6.991E-01   -6.934E-01   -6.877E-01
    -6.820E-01   -6.764E-01   -6.707E-01   -6.650E-01   -6.593E-01   -6.537E-01   -6.480E-01   -6.423E-01   -6.366E-01   -6.310E-01
    -6.253E-01   -6.196E-01   -6.139E-01   -6.083E-01   -6.026E-01   -5.969E-01   -5.912E-01   -5.856E-01
 Ala      Conc. = 5.61E+02
