 LCModel (Version 6.3-1L) Copyright: S.W. Provencher.          Ref.: Magn. Reson. Med. 30:672-679 (1993).                
 Slice#2 Row#2 Col#7  PD_24_press_2_raw_act
 36 lines in following concentration table = NCONC+1
    Conc.  %SD /Cr+PCr  Metabolite                                         
  372.908  59%   0.753 Ala                                                 
  117.397  84%   0.237 Asp                                                 
    0.000 999%   0.000 Cr                                                  
  494.977  23%   1.000 PCr                                                 
   70.364  84%   0.142 GABA                                                
   65.609  90%   0.133 Glc                                                 
  553.269  79%   1.118 Gln                                                 
  524.752  91%   1.060 Glu                                                 
    0.000 999%   0.000 GPC                                                 
  162.855  27%   0.329 PCh                                                 
    0.000 999%   0.000 GSH                                                 
  248.286 190%   0.502 Ins                                                 
  118.931 197%   0.240 Lac                                                 
 1.08E+03  18%   2.177 NAA                                                 
  330.510  61%   0.668 NAAG                                                
   31.192  61% 6.3E-02 Scyllo                                              
  125.178  77%   0.253 Tau                                                 
   85.996 120%   0.174 -CrCH2                                              
  162.855  27%   0.329 GPC+PCh                                             
 1.41E+03  11%   2.845 NAA+NAAG                                            
  494.977  23%   1.000 Cr+PCr                                              
 1.08E+03  59%   2.178 Glu+Gln                                             
  781.155  81%   1.578 Lip13a                                              
    0.000 999%   0.000 Lip13b                                              
  207.526  81%   0.419 Lip09                                               
  306.910 106%   0.620 MM09                                                
  117.379  81%   0.237 Lip20                                               
  460.400 106%   0.930 MM20                                                
   92.073 106%   0.186 MM12                                                
  230.231 106%   0.465 MM14                                                
  115.070 106%   0.232 MM17                                                
  781.155  81%   1.578 Lip13a+Lip13b                                       
 1.10E+03  50%   2.229 MM14+Lip13a+Lip13b+MM12                             
  514.436  55%   1.039 MM09+Lip09                                          
  577.779  78%   1.167 MM20+Lip20                                          
   6 lines in following misc. output table
  FWHM = 0.046 ppm    S/N =   2                                            
  Data shift = 0.023 ppm                                                   
  Ph: -48 deg     -16.9 deg/ppm                                            
  alphaB,S = 8.5E+01,   2.6E+01                                            
   14 spline knots.   Ns = 5(1)                                            
   2 inflections.     1 extrema                                            
  498 points on ppm-axis = NY
      4.000000     3.992357     3.984714     3.977070     3.969427     3.961784     3.954141     3.946497     3.938854     3.931211
      3.923568     3.915925     3.908281     3.900638     3.892995     3.885352     3.877708     3.870065     3.862422     3.854779
      3.847136     3.839492     3.831849     3.824206     3.816563     3.808919     3.801276     3.793633     3.785990     3.778347
      3.770703     3.763060     3.755417     3.747774     3.740130     3.732487     3.724844     3.717201     3.709558     3.701914
      3.694271     3.686628     3.678985     3.671341     3.663698     3.656055     3.648412     3.640769     3.633125     3.625482
      3.617839     3.610196     3.602552     3.594909     3.587266     3.579623     3.571980     3.564336     3.556693     3.549050
      3.541407     3.533763     3.526120     3.518477     3.510834     3.503191     3.495547     3.487904     3.480261     3.472618
      3.464974     3.457331     3.449688     3.442045     3.434402     3.426758     3.419115     3.411472     3.403829     3.396185
      3.388542     3.380899     3.373256     3.365613     3.357969     3.350326     3.342683     3.335040     3.327396     3.319753
      3.312110     3.304467     3.296824     3.289180     3.281537     3.273894     3.266251     3.258607     3.250964     3.243321
      3.235678     3.228034     3.220391     3.212748     3.205105     3.197462     3.189818     3.182175     3.174532     3.166889
      3.159245     3.151602     3.143959     3.136316     3.128673     3.121029     3.113386     3.105743     3.098100     3.090456
      3.082813     3.075170     3.067527     3.059884     3.052240     3.044597     3.036954     3.029311     3.021667     3.014024
      3.006381     2.998738     2.991095     2.983451     2.975808     2.968165     2.960522     2.952878     2.945235     2.937592
      2.929949     2.922306     2.914662     2.907019     2.899376     2.891733     2.884089     2.876446     2.868803     2.861160
      2.853517     2.845873     2.838230     2.830587     2.822944     2.815300     2.807657     2.800014     2.792371     2.784728
      2.777084     2.769441     2.761798     2.754155     2.746511     2.738868     2.731225     2.723582     2.715939     2.708295
      2.700652     2.693009     2.685366     2.677722     2.670079     2.662436     2.654793     2.647150     2.639506     2.631863
      2.624220     2.616577     2.608933     2.601290     2.593647     2.586004     2.578361     2.570717     2.563074     2.555431
      2.547788     2.540144     2.532501     2.524858     2.517215     2.509572     2.501928     2.494285     2.486642     2.478999
      2.471355     2.463712     2.456069     2.448426     2.440783     2.433139     2.425496     2.417853     2.410210     2.402566
      2.394923     2.387280     2.379637     2.371994     2.364350     2.356707     2.349064     2.341421     2.333777     2.326134
      2.318491     2.310848     2.303205     2.295561     2.287918     2.280275     2.272632     2.264988     2.257345     2.249702
      2.242059     2.234416     2.226772     2.219129     2.211486     2.203843     2.196199     2.188556     2.180913     2.173270
      2.165627     2.157983     2.150340     2.142697     2.135054     2.127410     2.119767     2.112124     2.104481     2.096838
      2.089194     2.081551     2.073908     2.066265     2.058621     2.050978     2.043335     2.035692     2.028049     2.020405
      2.012762     2.005119     1.997476     1.989833     1.982190     1.974546     1.966903     1.959260     1.951617     1.943974
      1.936331     1.928688     1.921045     1.913402     1.905759     1.898115     1.890472     1.882829     1.875186     1.867543
      1.859900     1.852257     1.844614     1.836971     1.829327     1.821684     1.814041     1.806398     1.798755     1.791112
      1.783469     1.775826     1.768183     1.760540     1.752896     1.745253     1.737610     1.729967     1.722324     1.714681
      1.707038     1.699395     1.691752     1.684108     1.676465     1.668822     1.661179     1.653536     1.645893     1.638250
      1.630607     1.622964     1.615321     1.607677     1.600034     1.592391     1.584748     1.577105     1.569462     1.561819
      1.554176     1.546533     1.538890     1.531246     1.523603     1.515960     1.508317     1.500674     1.493031     1.485388
      1.477745     1.470102     1.462458     1.454815     1.447172     1.439529     1.431886     1.424243     1.416600     1.408957
      1.401314     1.393671     1.386027     1.378384     1.370741     1.363098     1.355455     1.347812     1.340169     1.332526
      1.324883     1.317240     1.309596     1.301953     1.294310     1.286667     1.279024     1.271381     1.263738     1.256095
      1.248452     1.240808     1.233165     1.225522     1.217879     1.210236     1.202593     1.194950     1.187307     1.179664
      1.172021     1.164377     1.156734     1.149091     1.141448     1.133805     1.126162     1.118519     1.110876     1.103233
      1.095590     1.087946     1.080303     1.072660     1.065017     1.057374     1.049731     1.042088     1.034445     1.026802
      1.019158     1.011515     1.003872     0.996229     0.988586     0.980943     0.973300     0.965657     0.958014     0.950371
      0.942727     0.935084     0.927441     0.919798     0.912155     0.904512     0.896869     0.889226     0.881583     0.873940
      0.866296     0.858653     0.851010     0.843367     0.835724     0.828081     0.820438     0.812795     0.805152     0.797508
      0.789865     0.782222     0.774579     0.766936     0.759293     0.751650     0.744007     0.736364     0.728721     0.721077
      0.713434     0.705791     0.698148     0.690505     0.682862     0.675219     0.667576     0.659933     0.652290     0.644646
      0.637003     0.629360     0.621717     0.614074     0.606431     0.598788     0.591145     0.583502     0.575858     0.568215
      0.560572     0.552929     0.545286     0.537643     0.530000     0.522357     0.514714     0.507071     0.499427     0.491784
      0.484141     0.476498     0.468855     0.461212     0.453569     0.445925     0.438282     0.430639     0.422996     0.415353
      0.407710     0.400067     0.392424     0.384780     0.377137     0.369494     0.361851     0.354208     0.346565     0.338922
      0.331278     0.323635     0.315992     0.308349     0.300706     0.293063     0.285420     0.277777     0.270133     0.262490
      0.254847     0.247204     0.239561     0.231918     0.224275     0.216631     0.208988     0.201345
 NY phased data points follow
  -1.60596E+01 -6.94696E+00 -2.33464E+01 -1.58541E+01 -1.76311E+01  6.39414E+00  1.09382E+00 -8.61069E+00 -1.26410E+01  1.63936E+01
   7.71676E+00 -7.15938E+00 -2.31380E+01 -1.01317E+01 -1.62438E+01  4.89206E+00 -2.68514E+01 -9.14312E+00 -1.95343E+01  2.81229E+00
  -6.77323E+00 -1.47709E+01 -2.71864E+01 -2.05540E+01 -2.43487E+01 -1.48991E+01 -1.03174E+01 -2.26979E+01 -2.17195E+01 -3.34260E+00
  -3.14041E+01 -2.30573E+01 -2.48020E+01  1.51543E+00 -1.00093E+01 -1.80795E+01  8.96969E+00 -1.01134E+01 -2.00281E+01 -1.18634E+01
  -1.79444E+01 -1.35803E+00 -6.44920E+00 -9.09532E+00 -1.32831E+01 -2.56218E-01 -1.47448E+01 -6.39813E+00 -3.66140E+00  3.76193E+00
  -7.31127E+00 -8.98876E+00 -2.33094E+01 -4.33291E+00 -1.75397E+01 -5.45752E-01 -2.51527E+01  9.39240E+00 -1.64591E+00 -3.35806E+00
  -1.89112E+01  1.48094E+01 -2.17222E+01  3.27475E+00 -1.10156E+01  1.06664E+01 -8.38193E+00 -4.43607E+00 -2.42467E+00 -1.54699E+01
  -1.50390E+01 -1.07113E+01 -1.74887E+01 -1.09100E+01 -8.55848E+00  1.70846E+00 -5.27134E+00 -3.93337E+00 -4.76813E+00 -9.27004E+00
  -1.08340E+01 -8.14012E+00  2.52356E+00 -1.90917E+01  2.31541E+00 -2.70349E+01 -3.45813E+00  1.09921E+01 -2.79919E+00  4.61289E+00
  -4.15656E+00  2.58598E+00 -2.85078E+01 -7.77814E+00 -1.72367E+01  9.32096E+00 -8.86327E+00 -5.94425E+00 -1.97000E+01  3.54092E+00
  -1.38662E+01  7.48809E+00 -2.64129E+00  6.46683E+00  1.85371E+01  1.28866E+01  1.13155E+01 -7.68062E-01 -7.06959E+00 -1.00161E+01
  -8.67341E+00 -1.51774E+01 -1.12233E+01  4.99809E+00 -2.22000E+01 -1.44509E+01 -4.38156E+00 -7.28264E+00 -4.80478E-01 -1.74574E+01
  -8.12283E+00  8.64524E+00 -1.69722E+01 -8.94502E+00 -2.40681E+01 -5.19048E-01  1.90167E+01  8.25247E+00  1.90618E+01  8.45355E+00
   1.37381E+01  1.26551E+01 -1.28344E+01 -1.29022E+01 -1.07293E+01  8.30881E-01 -1.30140E+01 -1.91103E+01 -7.74240E+00 -3.66859E+00
  -9.84164E-04 -7.09474E+00 -1.83821E+01  1.71821E+01 -1.96387E+01 -1.40223E+01 -1.89841E+01 -1.97192E+01 -1.15394E+01  6.07095E+00
  -1.18998E+01  5.42111E+00 -1.85578E+01 -9.54744E+00 -7.16577E+00 -1.42183E+01  7.56196E+00 -7.87248E+00 -1.47042E-01 -1.22271E+01
   3.29174E+00 -1.64979E+01 -2.04260E+01 -8.46188E+00 -1.21014E+01 -1.37367E+01 -2.46673E+01 -5.18224E+00 -1.42831E+01 -1.44747E+01
  -9.54758E+00 -1.06533E+01 -2.90961E+01 -6.93154E+00 -3.74122E+01 -1.23747E+01 -2.81654E+00 -5.90991E+00 -8.21654E+00 -5.24248E+00
  -8.09599E+00 -1.48144E+01 -1.73298E+01 -1.03181E+01 -5.94164E+00 -5.10477E+00 -1.79941E+01 -9.27847E+00 -8.33548E+00 -3.14823E-01
  -1.23081E+01 -1.58556E+01 -1.89868E+01 -5.98101E+00 -1.29966E+01 -1.38408E+01  1.12041E+00 -2.61774E+01 -9.39839E+00 -3.01232E+01
  -1.91065E+01 -1.10188E+01 -4.85895E+00 -7.50032E+00  1.06985E+00  6.39516E+00 -1.72780E+01 -1.71366E+00 -2.02210E+01  6.12440E+00
  -1.44649E+01 -1.22958E+01 -6.41448E+00  3.33451E+00 -1.63794E+00  3.57888E+00 -1.95062E+00 -1.02939E+01  1.70717E+01  4.12051E+00
   1.87085E+01 -9.49570E+00  1.32897E+01 -1.16672E+01 -2.12579E+01  4.79293E-01  1.93652E+00  1.33722E+01  8.63677E+00 -1.05827E+00
   8.05473E-01  6.55750E-01  2.84269E+00 -2.72638E+00 -1.88513E+01  1.41627E+01  7.17335E+00 -3.09977E+00 -1.99402E+01 -6.45811E+00
  -1.09850E+01  3.29404E+00 -3.56319E-01  3.05367E+00 -2.06254E+01 -1.66474E+01  1.14292E+00  1.83244E+01  5.19534E+00 -9.56506E+00
   4.42632E+00  8.17797E+00  1.67816E+01  4.46210E+00  1.73003E+01  1.08098E+01  4.22798E+00  1.17047E+01  3.20855E+01  3.41156E+01
   4.77168E+01  4.87488E+01  3.07903E+01  3.39133E+01  1.81774E+01  2.97217E+01  1.18476E+01 -6.89846E+00  6.22620E+00  2.01137E+00
   1.13018E+01  6.28498E+00 -3.16173E+00  8.39549E+00  5.25730E+00 -1.58620E+00  5.94460E+00  8.72878E+00  2.74027E+00 -7.81819E+00
   3.61443E+00  1.07287E+01  2.36895E+01  8.81861E+00 -3.87055E+00 -1.26910E+00 -1.59272E+01 -7.86279E+00  9.15184E+00 -6.61236E+00
  -1.41571E+01 -9.42911E+00 -2.42964E+00  1.23616E+01 -1.73503E+01  7.54936E+00  1.81887E+00 -1.79176E+01 -1.49506E+01 -7.12369E+00
  -5.21861E+00 -5.98826E-01 -4.74935E+00  4.28031E+00 -2.41418E+01 -2.25188E+01  3.86362E+00 -2.05581E+01 -1.26512E+01 -8.37962E+00
  -1.45268E+01 -5.89490E+00  5.68391E+00 -1.07128E+01  3.16295E+00  2.29545E+00  6.30741E+00  4.19497E+00  4.24986E+00 -4.34660E+00
  -8.19738E+00  5.57866E+00  7.40319E+00  1.10819E+01  4.32217E+00 -2.11628E+00  1.38702E+01  5.72165E+00  5.13005E+00  1.20189E+00
  -1.14067E+01  6.90612E+00 -4.02689E+00 -5.33709E+00  3.01693E+00  1.34042E+01 -8.71820E+00  1.60029E+01  9.57925E+00  4.61568E+00
   1.17034E+01 -7.74436E+00  1.11742E+01 -5.25284E+00 -1.28758E+00  1.87875E+00  6.71067E+00  9.14705E+00  2.87459E+00  5.97037E+00
  -5.24355E+00  4.35059E+00  1.05566E+01 -2.95376E+00 -1.46493E+00 -4.84717E+00 -1.49002E+00  1.50184E+01 -1.93604E+00 -1.43076E+00
   4.71020E+00 -4.26522E+00 -2.43814E+00  4.27879E+00  2.70614E+00 -5.92136E+00  1.43388E+01  1.24539E+01  2.16596E+00 -1.45110E+00
   1.83667E+01  1.45248E+00  1.37747E+01 -7.95483E+00 -6.71653E+00  1.49941E+00  1.07053E+00  4.41287E+00 -6.19037E+00 -1.23308E+00
  -6.08337E+00  3.73493E+00 -7.59732E+00  5.76974E+00 -4.80817E+00 -8.14102E+00 -1.30059E+01 -1.25139E+01 -6.41189E+00 -1.14003E+01
  -1.51699E+01 -2.39090E+01  1.19085E+01 -5.67667E-01 -8.43604E+00  1.97648E+00 -1.43519E+01  2.33495E+00 -3.32569E+00 -7.71973E+00
  -5.53853E-01  6.96665E+00  2.76451E+00 -9.71198E+00 -1.38782E+00 -9.14141E+00  1.82309E+01  8.61707E+00 -2.04426E+00  1.78827E+01
  -3.58026E+00 -8.88790E+00  8.75396E+00 -1.97625E+01  1.06858E+01 -2.10267E+00 -6.93841E+00 -7.13105E+00  3.66503E+00  1.00251E+01
  -1.80040E+00  6.69791E+00  2.88044E-01 -1.58994E+01  1.02250E+00 -9.04665E+00  1.09967E+01 -1.27373E+00 -6.53933E+00 -1.69340E+00
   3.84875E+00 -1.79202E+01  1.16684E+01 -4.71629E+00  1.11944E+01 -4.87391E+00 -7.79594E+00 -1.11179E+01  4.44387E+00  1.50451E+01
   8.39510E-01 -4.73042E+00 -1.61823E+00 -9.75410E+00 -3.28237E-01  4.60801E+00  1.01704E+01  2.46073E+00  5.37113E+00 -1.69898E+01
  -1.58601E+01  1.26965E+01 -9.33118E+00  2.49444E+00  5.56901E+00 -1.42956E+01 -6.00482E+00  4.07107E-01  9.67755E+00 -5.91257E+00
   1.47124E+00 -6.46049E+00 -9.06004E+00  1.75223E+01 -6.80124E-01 -1.02151E+01  2.35720E-01 -7.54841E+00  1.92694E+01  3.53254E+00
  -7.53090E+00 -4.17398E+00  3.15786E+00 -8.53866E+00  6.63706E+00 -2.86528E+00  4.35672E+00 -1.09966E+00  3.55195E+00  5.20767E+00
  -1.98613E-01 -1.96006E+00 -2.53318E+00  4.37050E+00  2.06518E-01  3.65604E+00 -5.25752E+00  2.93904E+00  8.08215E+00 -8.00787E-01
  -6.21832E+00 -9.07640E+00  3.61110E+00 -1.09478E+01 -2.82196E+00  9.79288E+00 -1.00792E+01  1.05779E+00
 NY points of the fit to the data follow
  -1.04321E+01 -1.05366E+01 -1.05614E+01 -1.04732E+01 -1.02406E+01 -9.50219E+00 -7.81809E+00 -5.21999E+00 -2.36880E+00 -2.33004E-01
   4.48821E-01 -3.86898E-01 -2.24544E+00 -4.59312E+00 -7.07856E+00 -9.09649E+00 -1.00658E+01 -1.04391E+01 -1.05954E+01 -1.05182E+01
  -1.01896E+01 -9.59618E+00 -8.80473E+00 -8.04285E+00 -7.68874E+00 -8.04488E+00 -9.10226E+00 -1.05617E+01 -1.18900E+01 -1.25329E+01
  -1.21483E+01 -1.07057E+01 -8.63908E+00 -6.80809E+00 -5.88693E+00 -6.06183E+00 -7.05882E+00 -8.42884E+00 -9.69069E+00 -1.04105E+01
  -1.05040E+01 -1.02136E+01 -9.80706E+00 -9.42801E+00 -9.05446E+00 -8.61270E+00 -8.06427E+00 -7.53648E+00 -7.25136E+00 -7.33186E+00
  -7.73122E+00 -8.27665E+00 -8.83157E+00 -9.27677E+00 -9.49230E+00 -9.46966E+00 -9.30833E+00 -9.09471E+00 -8.85991E+00 -8.60463E+00
  -8.37524E+00 -8.25312E+00 -8.26589E+00 -8.37415E+00 -8.52977E+00 -8.67936E+00 -8.75833E+00 -8.75412E+00 -8.69150E+00 -8.58965E+00
  -8.47647E+00 -8.35155E+00 -8.18373E+00 -7.95173E+00 -7.69172E+00 -7.48922E+00 -7.42096E+00 -7.55743E+00 -7.84637E+00 -8.14522E+00
  -8.37571E+00 -8.49352E+00 -8.38116E+00 -7.97277E+00 -7.37143E+00 -6.76967E+00 -6.39277E+00 -6.39238E+00 -6.72040E+00 -7.18400E+00
  -7.64436E+00 -8.07269E+00 -8.41099E+00 -8.54424E+00 -8.52770E+00 -8.44771E+00 -8.28578E+00 -8.03319E+00 -7.67172E+00 -6.75979E+00
  -4.43628E+00 -3.51425E-01  4.73828E+00  9.18892E+00  1.13935E+01  1.07838E+01  7.99292E+00  4.00143E+00 -4.52697E-01 -4.46661E+00
  -6.75450E+00 -7.40743E+00 -7.61223E+00 -7.71096E+00 -7.76406E+00 -7.77544E+00 -7.77092E+00 -7.76501E+00 -7.75457E+00 -7.72789E+00
  -7.66734E+00 -7.54458E+00 -7.12692E+00 -5.54728E+00 -2.05031E+00  3.08640E+00  8.40701E+00  1.20427E+01  1.27944E+01  1.07979E+01
   7.05131E+00  2.48372E+00 -2.16021E+00 -5.57906E+00 -6.92538E+00 -7.33044E+00 -7.51050E+00 -7.57694E+00 -7.56861E+00 -7.53221E+00
  -7.50739E+00 -7.51094E+00 -7.51750E+00 -7.48438E+00 -7.41676E+00 -7.34243E+00 -7.28240E+00 -7.25308E+00 -7.25789E+00 -7.29504E+00
  -7.35418E+00 -7.43088E+00 -7.51960E+00 -7.59610E+00 -7.63777E+00 -7.61490E+00 -7.52089E+00 -7.43869E+00 -7.49298E+00 -7.73981E+00
  -8.11718E+00 -8.45715E+00 -8.58102E+00 -8.44361E+00 -8.16311E+00 -7.88989E+00 -7.74226E+00 -7.80934E+00 -8.08152E+00 -8.41218E+00
  -8.66053E+00 -8.76532E+00 -8.77473E+00 -8.87785E+00 -9.12166E+00 -9.36767E+00 -9.46424E+00 -9.37027E+00 -9.16272E+00 -8.98620E+00
  -8.89806E+00 -8.80681E+00 -8.63595E+00 -8.44017E+00 -8.24956E+00 -7.99943E+00 -7.65585E+00 -7.19570E+00 -6.66422E+00 -6.12723E+00
  -5.66604E+00 -5.34817E+00 -5.22982E+00 -5.35004E+00 -5.67113E+00 -6.01985E+00 -6.26625E+00 -6.38600E+00 -6.29733E+00 -5.89937E+00
  -5.18559E+00 -4.23019E+00 -3.16614E+00 -2.23165E+00 -1.69441E+00 -1.85351E+00 -2.95027E+00 -4.95404E+00 -7.42641E+00 -9.69773E+00
  -1.11527E+01 -1.13993E+01 -1.03669E+01 -8.32111E+00 -5.75007E+00 -3.24709E+00 -1.53642E+00 -1.12530E+00 -1.77699E+00 -3.12831E+00
  -4.95414E+00 -6.74782E+00 -7.86584E+00 -7.89070E+00 -7.00327E+00 -5.66696E+00 -4.26475E+00 -3.08589E+00 -2.36020E+00 -2.24105E+00
  -2.59047E+00 -3.03084E+00 -3.37550E+00 -3.68132E+00 -3.95901E+00 -4.12515E+00 -4.01745E+00 -3.52842E+00 -2.74413E+00 -1.93790E+00
  -1.40286E+00 -1.30314E+00 -1.68146E+00 -2.44403E+00 -3.23874E+00 -3.80826E+00 -4.07613E+00 -4.00992E+00 -3.59789E+00 -2.99526E+00
  -2.34020E+00 -1.40234E+00  3.04717E-01  3.16089E+00  6.98828E+00  1.09760E+01  1.48519E+01  1.98352E+01  2.70130E+01  3.55765E+01
   4.26035E+01  4.48707E+01  4.15374E+01  3.44040E+01  2.51277E+01  1.48747E+01  5.43221E+00 -3.10625E-01 -2.16261E+00 -2.84971E+00
  -3.21787E+00 -3.36563E+00 -3.35212E+00 -3.24529E+00 -3.09537E+00 -2.97872E+00 -2.94947E+00 -3.01740E+00 -3.15103E+00 -3.31392E+00
  -3.46099E+00 -3.54916E+00 -3.56356E+00 -3.52195E+00 -3.45784E+00 -3.39205E+00 -3.33356E+00 -3.29392E+00 -3.27890E+00 -3.26849E+00
  -3.23640E+00 -3.17637E+00 -3.09612E+00 -3.00394E+00 -2.91559E+00 -2.84340E+00 -2.79260E+00 -2.76623E+00 -2.75530E+00 -2.73667E+00
  -2.69958E+00 -2.64583E+00 -2.58001E+00 -2.50714E+00 -2.43184E+00 -2.36158E+00 -2.30275E+00 -2.25124E+00 -2.20282E+00 -2.15532E+00
  -2.10615E+00 -2.05354E+00 -1.99594E+00 -1.93139E+00 -1.85763E+00 -1.77185E+00 -1.67038E+00 -1.54845E+00 -1.39951E+00 -1.21390E+00
  -9.76453E-01 -6.60268E-01 -1.94440E-01  5.87578E-01  1.66564E+00  2.63388E+00  2.89337E+00  2.03885E+00  1.30999E-01 -2.33539E+00
  -4.81496E+00 -6.83216E+00 -7.81456E+00 -7.13291E+00 -4.74519E+00 -1.65796E+00  1.15644E+00  3.19551E+00  4.32257E+00  4.63915E+00
   4.22947E+00  3.36017E+00  2.70764E+00  2.56318E+00  2.73425E+00  3.01723E+00  3.17723E+00  3.02412E+00  2.51187E+00  1.75683E+00
   9.42309E-01  2.59078E-01 -9.81121E-02  5.55273E-02  7.54398E-01  1.69383E+00  2.49968E+00  3.01655E+00  3.22128E+00  3.15449E+00
   2.84706E+00  2.39533E+00  2.00800E+00  1.73732E+00  1.51588E+00  1.31628E+00  1.12937E+00  9.51940E-01  7.83264E-01  6.23644E-01
   4.73857E-01  3.34792E-01  2.07369E-01  9.24084E-02 -9.35950E-03 -9.73985E-02 -1.71286E-01 -2.30735E-01 -2.75483E-01 -3.05334E-01
  -3.20093E-01 -3.19625E-01 -3.03769E-01 -2.72372E-01 -2.25226E-01 -1.62174E-01 -8.31017E-02  1.19430E-02  1.22781E-01  2.48989E-01
   3.89899E-01  5.44435E-01  7.11105E-01  8.87896E-01  1.07235E+00  1.26148E+00  1.45190E+00  1.63978E+00  1.82102E+00  1.99130E+00
   2.14639E+00  2.28224E+00  2.39517E+00  2.48205E+00  2.54044E+00  2.56874E+00  2.56631E+00  2.53346E+00  2.47144E+00  2.38234E+00
   2.26902E+00  2.13491E+00  1.98396E+00  1.82030E+00  1.64812E+00  1.47146E+00  1.29412E+00  1.11949E+00  9.50540E-01  7.89657E-01
   6.38700E-01  4.98955E-01  3.71254E-01  2.55977E-01  1.53163E-01  6.24964E-02 -1.65587E-02 -8.47418E-02 -1.42851E-01 -1.91758E-01
  -2.32322E-01 -2.65434E-01 -2.91925E-01 -3.12591E-01 -3.28118E-01 -3.39143E-01 -3.46215E-01 -3.49867E-01 -3.50539E-01 -3.48632E-01
  -3.44445E-01 -3.38266E-01 -3.30327E-01 -3.20872E-01 -3.10078E-01 -2.98113E-01 -2.85079E-01 -2.71103E-01 -2.56282E-01 -2.40737E-01
  -2.24533E-01 -2.07738E-01 -1.90381E-01 -1.72526E-01 -1.54217E-01 -1.35520E-01 -1.16454E-01 -9.70505E-02 -7.73147E-02 -5.72955E-02
  -3.70150E-02 -1.65150E-02  4.21402E-03  2.51563E-02  4.63182E-02  6.76580E-02  8.91640E-02  1.10807E-01  1.32606E-01  1.54548E-01
   1.76637E-01  1.98834E-01  2.21143E-01  2.43547E-01  2.66075E-01  2.88711E-01  3.11457E-01  3.34278E-01  3.57181E-01  3.80160E-01
   4.03241E-01  4.26406E-01  4.49656E-01  4.72963E-01  4.96344E-01  5.19798E-01  5.43351E-01  5.66980E-01  5.90688E-01  6.14452E-01
   6.38299E-01  6.62230E-01  6.86268E-01  7.10391E-01  7.34606E-01  7.58901E-01  7.83312E-01  8.07846E-01
 NY background values follow
    -1.121E+01   -1.118E+01   -1.116E+01   -1.113E+01   -1.111E+01   -1.109E+01   -1.106E+01   -1.104E+01   -1.101E+01   -1.099E+01
    -1.096E+01   -1.094E+01   -1.092E+01   -1.089E+01   -1.087E+01   -1.084E+01   -1.082E+01   -1.080E+01   -1.077E+01   -1.075E+01
    -1.072E+01   -1.070E+01   -1.067E+01   -1.065E+01   -1.063E+01   -1.060E+01   -1.058E+01   -1.055E+01   -1.053E+01   -1.050E+01
    -1.048E+01   -1.046E+01   -1.043E+01   -1.041E+01   -1.038E+01   -1.036E+01   -1.033E+01   -1.031E+01   -1.029E+01   -1.026E+01
    -1.024E+01   -1.021E+01   -1.019E+01   -1.016E+01   -1.014E+01   -1.012E+01   -1.009E+01   -1.007E+01   -1.004E+01   -1.002E+01
    -9.994E+00   -9.970E+00   -9.946E+00   -9.921E+00   -9.897E+00   -9.873E+00   -9.848E+00   -9.824E+00   -9.800E+00   -9.776E+00
    -9.751E+00   -9.727E+00   -9.703E+00   -9.678E+00   -9.654E+00   -9.630E+00   -9.605E+00   -9.581E+00   -9.557E+00   -9.533E+00
    -9.508E+00   -9.484E+00   -9.460E+00   -9.435E+00   -9.411E+00   -9.387E+00   -9.362E+00   -9.338E+00   -9.314E+00   -9.290E+00
    -9.265E+00   -9.241E+00   -9.217E+00   -9.192E+00   -9.168E+00   -9.144E+00   -9.119E+00   -9.095E+00   -9.071E+00   -9.046E+00
    -9.022E+00   -8.998E+00   -8.973E+00   -8.949E+00   -8.925E+00   -8.900E+00   -8.876E+00   -8.852E+00   -8.828E+00   -8.803E+00
    -8.779E+00   -8.755E+00   -8.730E+00   -8.706E+00   -8.682E+00   -8.657E+00   -8.633E+00   -8.609E+00   -8.584E+00   -8.560E+00
    -8.536E+00   -8.511E+00   -8.487E+00   -8.463E+00   -8.438E+00   -8.414E+00   -8.390E+00   -8.365E+00   -8.341E+00   -8.317E+00
    -8.292E+00   -8.268E+00   -8.244E+00   -8.219E+00   -8.195E+00   -8.171E+00   -8.146E+00   -8.122E+00   -8.098E+00   -8.073E+00
    -8.049E+00   -8.025E+00   -8.000E+00   -7.976E+00   -7.952E+00   -7.927E+00   -7.903E+00   -7.879E+00   -7.854E+00   -7.830E+00
    -7.806E+00   -7.781E+00   -7.757E+00   -7.733E+00   -7.708E+00   -7.684E+00   -7.659E+00   -7.635E+00   -7.611E+00   -7.586E+00
    -7.562E+00   -7.538E+00   -7.513E+00   -7.489E+00   -7.465E+00   -7.440E+00   -7.416E+00   -7.392E+00   -7.367E+00   -7.343E+00
    -7.319E+00   -7.294E+00   -7.270E+00   -7.246E+00   -7.221E+00   -7.197E+00   -7.173E+00   -7.148E+00   -7.124E+00   -7.100E+00
    -7.075E+00   -7.051E+00   -7.026E+00   -7.002E+00   -6.978E+00   -6.953E+00   -6.929E+00   -6.905E+00   -6.880E+00   -6.856E+00
    -6.832E+00   -6.807E+00   -6.783E+00   -6.759E+00   -6.734E+00   -6.710E+00   -6.686E+00   -6.661E+00   -6.637E+00   -6.612E+00
    -6.588E+00   -6.564E+00   -6.539E+00   -6.515E+00   -6.491E+00   -6.466E+00   -6.442E+00   -6.418E+00   -6.393E+00   -6.369E+00
    -6.345E+00   -6.320E+00   -6.296E+00   -6.272E+00   -6.247E+00   -6.223E+00   -6.198E+00   -6.174E+00   -6.150E+00   -6.125E+00
    -6.101E+00   -6.077E+00   -6.052E+00   -6.028E+00   -6.004E+00   -5.979E+00   -5.955E+00   -5.931E+00   -5.906E+00   -5.882E+00
    -5.857E+00   -5.833E+00   -5.809E+00   -5.784E+00   -5.760E+00   -5.736E+00   -5.711E+00   -5.687E+00   -5.663E+00   -5.638E+00
    -5.614E+00   -5.590E+00   -5.565E+00   -5.541E+00   -5.517E+00   -5.492E+00   -5.468E+00   -5.443E+00   -5.419E+00   -5.395E+00
    -5.370E+00   -5.346E+00   -5.322E+00   -5.297E+00   -5.273E+00   -5.249E+00   -5.224E+00   -5.200E+00   -5.176E+00   -5.151E+00
    -5.127E+00   -5.103E+00   -5.078E+00   -5.054E+00   -5.030E+00   -5.005E+00   -4.981E+00   -4.956E+00   -4.932E+00   -4.908E+00
    -4.883E+00   -4.859E+00   -4.835E+00   -4.810E+00   -4.786E+00   -4.762E+00   -4.737E+00   -4.713E+00   -4.689E+00   -4.664E+00
    -4.640E+00   -4.616E+00   -4.591E+00   -4.567E+00   -4.543E+00   -4.518E+00   -4.494E+00   -4.470E+00   -4.445E+00   -4.421E+00
    -4.397E+00   -4.372E+00   -4.348E+00   -4.324E+00   -4.299E+00   -4.275E+00   -4.251E+00   -4.226E+00   -4.202E+00   -4.178E+00
    -4.153E+00   -4.129E+00   -4.105E+00   -4.080E+00   -4.056E+00   -4.032E+00   -4.007E+00   -3.983E+00   -3.959E+00   -3.934E+00
    -3.910E+00   -3.886E+00   -3.861E+00   -3.837E+00   -3.813E+00   -3.788E+00   -3.764E+00   -3.740E+00   -3.715E+00   -3.691E+00
    -3.667E+00   -3.642E+00   -3.618E+00   -3.594E+00   -3.569E+00   -3.545E+00   -3.521E+00   -3.496E+00   -3.472E+00   -3.448E+00
    -3.423E+00   -3.399E+00   -3.375E+00   -3.350E+00   -3.326E+00   -3.302E+00   -3.277E+00   -3.253E+00   -3.229E+00   -3.205E+00
    -3.180E+00   -3.156E+00   -3.132E+00   -3.107E+00   -3.083E+00   -3.059E+00   -3.034E+00   -3.010E+00   -2.986E+00   -2.961E+00
    -2.937E+00   -2.913E+00   -2.889E+00   -2.864E+00   -2.840E+00   -2.816E+00   -2.791E+00   -2.767E+00   -2.743E+00   -2.718E+00
    -2.694E+00   -2.670E+00   -2.646E+00   -2.621E+00   -2.597E+00   -2.573E+00   -2.548E+00   -2.524E+00   -2.500E+00   -2.475E+00
    -2.451E+00   -2.427E+00   -2.403E+00   -2.378E+00   -2.354E+00   -2.330E+00   -2.305E+00   -2.281E+00   -2.257E+00   -2.233E+00
    -2.208E+00   -2.184E+00   -2.160E+00   -2.135E+00   -2.111E+00   -2.087E+00   -2.063E+00   -2.038E+00   -2.014E+00   -1.990E+00
    -1.966E+00   -1.941E+00   -1.917E+00   -1.893E+00   -1.868E+00   -1.844E+00   -1.820E+00   -1.796E+00   -1.771E+00   -1.747E+00
    -1.723E+00   -1.699E+00   -1.674E+00   -1.650E+00   -1.626E+00   -1.602E+00   -1.577E+00   -1.553E+00   -1.529E+00   -1.505E+00
    -1.480E+00   -1.456E+00   -1.432E+00   -1.408E+00   -1.383E+00   -1.359E+00   -1.335E+00   -1.311E+00   -1.286E+00   -1.262E+00
    -1.238E+00   -1.214E+00   -1.189E+00   -1.165E+00   -1.141E+00   -1.117E+00   -1.092E+00   -1.068E+00   -1.044E+00   -1.020E+00
    -9.954E-01   -9.712E-01   -9.470E-01   -9.227E-01   -8.985E-01   -8.743E-01   -8.501E-01   -8.258E-01   -8.016E-01   -7.774E-01
    -7.532E-01   -7.290E-01   -7.047E-01   -6.805E-01   -6.563E-01   -6.321E-01   -6.079E-01   -5.837E-01   -5.595E-01   -5.352E-01
    -5.110E-01   -4.868E-01   -4.626E-01   -4.384E-01   -4.142E-01   -3.900E-01   -3.658E-01   -3.416E-01   -3.174E-01   -2.932E-01
    -2.690E-01   -2.448E-01   -2.206E-01   -1.964E-01   -1.723E-01   -1.481E-01   -1.239E-01   -9.970E-02   -7.551E-02   -5.133E-02
    -2.714E-02   -2.963E-03    2.122E-02    4.539E-02    6.957E-02    9.375E-02    1.179E-01    1.421E-01    1.663E-01    1.904E-01
     2.146E-01    2.388E-01    2.629E-01    2.871E-01    3.113E-01    3.354E-01    3.596E-01    3.837E-01    4.079E-01    4.321E-01
     4.562E-01    4.804E-01    5.045E-01    5.287E-01    5.528E-01    5.770E-01    6.011E-01    6.252E-01    6.494E-01    6.735E-01
     6.977E-01    7.218E-01    7.459E-01    7.701E-01    7.942E-01    8.183E-01    8.425E-01    8.666E-01
 Ala      Conc. = 3.73E+02
