 LCModel (Version 6.3-1L) Copyright: S.W. Provencher.          Ref.: Magn. Reson. Med. 30:672-679 (1993).                
 Slice#3 Row#3 Col#10  PD_24_press_2_raw_act
 36 lines in following concentration table = NCONC+1
    Conc.  %SD /Cr+PCr  Metabolite                                         
   24.279 556% 3.4E-02 Ala                                                 
  100.896 132%   0.141 Asp                                                 
  605.795  44%   0.845 Cr                                                  
  110.726 245%   0.155 PCr                                                 
   61.703 131% 8.6E-02 GABA                                                
   89.081  92%   0.124 Glc                                                 
  195.626 138%   0.273 Gln                                                 
  448.639  67%   0.626 Glu                                                 
  240.569  94%   0.336 GPC                                                 
   64.925 348% 9.1E-02 PCh                                                 
   17.220 525% 2.4E-02 GSH                                                 
  777.729  39%   1.085 Ins                                                 
    0.000 999%   0.000 Lac                                                 
  305.474  38%   0.426 NAA                                                 
  654.234  16%   0.913 NAAG                                                
   27.467  82% 3.8E-02 Scyllo                                              
   90.755 144%   0.127 Tau                                                 
  326.181  37%   0.455 -CrCH2                                              
  305.494   9%   0.426 GPC+PCh                                             
  959.708  10%   1.339 NAA+NAAG                                            
  716.522  10%   1.000 Cr+PCr                                              
  644.266  64%   0.899 Glu+Gln                                             
  351.619 286%   0.491 Lip13a                                              
  446.666 126%   0.623 Lip13b                                              
  175.317 113%   0.245 Lip09                                               
 1.03E+03  24%   1.437 MM09                                                
   89.466 135%   0.125 Lip20                                               
 1.29E+03  31%   1.804 MM20                                                
  335.532  43%   0.468 MM12                                                
 1.55E+03  25%   2.167 MM14                                                
  448.587  47%   0.626 MM17                                                
  798.285  74%   1.114 Lip13a+Lip13b                                       
 2.69E+03  14%   3.750 MM14+Lip13a+Lip13b+MM12                             
 1.20E+03  15%   1.681 MM09+Lip09                                          
 1.38E+03  27%   1.929 MM20+Lip20                                          
   6 lines in following misc. output table
  FWHM = 0.054 ppm    S/N =   3                                            
  Data shift = 0.015 ppm                                                   
  Ph:  -2 deg      25.7 deg/ppm                                            
  alphaB,S = 8.5E+01,   5.1E+01                                            
   14 spline knots.   Ns = 6(1)                                            
   2 inflections.     1 extrema                                            
  498 points on ppm-axis = NY
      4.000000     3.992357     3.984714     3.977070     3.969427     3.961784     3.954141     3.946497     3.938854     3.931211
      3.923568     3.915925     3.908281     3.900638     3.892995     3.885352     3.877708     3.870065     3.862422     3.854779
      3.847136     3.839492     3.831849     3.824206     3.816563     3.808919     3.801276     3.793633     3.785990     3.778347
      3.770703     3.763060     3.755417     3.747774     3.740130     3.732487     3.724844     3.717201     3.709558     3.701914
      3.694271     3.686628     3.678985     3.671341     3.663698     3.656055     3.648412     3.640769     3.633125     3.625482
      3.617839     3.610196     3.602552     3.594909     3.587266     3.579623     3.571980     3.564336     3.556693     3.549050
      3.541407     3.533763     3.526120     3.518477     3.510834     3.503191     3.495547     3.487904     3.480261     3.472618
      3.464974     3.457331     3.449688     3.442045     3.434402     3.426758     3.419115     3.411472     3.403829     3.396185
      3.388542     3.380899     3.373256     3.365613     3.357969     3.350326     3.342683     3.335040     3.327396     3.319753
      3.312110     3.304467     3.296824     3.289180     3.281537     3.273894     3.266251     3.258607     3.250964     3.243321
      3.235678     3.228034     3.220391     3.212748     3.205105     3.197462     3.189818     3.182175     3.174532     3.166889
      3.159245     3.151602     3.143959     3.136316     3.128673     3.121029     3.113386     3.105743     3.098100     3.090456
      3.082813     3.075170     3.067527     3.059884     3.052240     3.044597     3.036954     3.029311     3.021667     3.014024
      3.006381     2.998738     2.991095     2.983451     2.975808     2.968165     2.960522     2.952878     2.945235     2.937592
      2.929949     2.922306     2.914662     2.907019     2.899376     2.891733     2.884089     2.876446     2.868803     2.861160
      2.853517     2.845873     2.838230     2.830587     2.822944     2.815300     2.807657     2.800014     2.792371     2.784728
      2.777084     2.769441     2.761798     2.754155     2.746511     2.738868     2.731225     2.723582     2.715939     2.708295
      2.700652     2.693009     2.685366     2.677722     2.670079     2.662436     2.654793     2.647150     2.639506     2.631863
      2.624220     2.616577     2.608933     2.601290     2.593647     2.586004     2.578361     2.570717     2.563074     2.555431
      2.547788     2.540144     2.532501     2.524858     2.517215     2.509572     2.501928     2.494285     2.486642     2.478999
      2.471355     2.463712     2.456069     2.448426     2.440783     2.433139     2.425496     2.417853     2.410210     2.402566
      2.394923     2.387280     2.379637     2.371994     2.364350     2.356707     2.349064     2.341421     2.333777     2.326134
      2.318491     2.310848     2.303205     2.295561     2.287918     2.280275     2.272632     2.264988     2.257345     2.249702
      2.242059     2.234416     2.226772     2.219129     2.211486     2.203843     2.196199     2.188556     2.180913     2.173270
      2.165627     2.157983     2.150340     2.142697     2.135054     2.127410     2.119767     2.112124     2.104481     2.096838
      2.089194     2.081551     2.073908     2.066265     2.058621     2.050978     2.043335     2.035692     2.028049     2.020405
      2.012762     2.005119     1.997476     1.989833     1.982190     1.974546     1.966903     1.959260     1.951617     1.943974
      1.936331     1.928688     1.921045     1.913402     1.905759     1.898115     1.890472     1.882829     1.875186     1.867543
      1.859900     1.852257     1.844614     1.836971     1.829327     1.821684     1.814041     1.806398     1.798755     1.791112
      1.783469     1.775826     1.768183     1.760540     1.752896     1.745253     1.737610     1.729967     1.722324     1.714681
      1.707038     1.699395     1.691752     1.684108     1.676465     1.668822     1.661179     1.653536     1.645893     1.638250
      1.630607     1.622964     1.615321     1.607677     1.600034     1.592391     1.584748     1.577105     1.569462     1.561819
      1.554176     1.546533     1.538890     1.531246     1.523603     1.515960     1.508317     1.500674     1.493031     1.485388
      1.477745     1.470102     1.462458     1.454815     1.447172     1.439529     1.431886     1.424243     1.416600     1.408957
      1.401314     1.393671     1.386027     1.378384     1.370741     1.363098     1.355455     1.347812     1.340169     1.332526
      1.324883     1.317240     1.309596     1.301953     1.294310     1.286667     1.279024     1.271381     1.263738     1.256095
      1.248452     1.240808     1.233165     1.225522     1.217879     1.210236     1.202593     1.194950     1.187307     1.179664
      1.172021     1.164377     1.156734     1.149091     1.141448     1.133805     1.126162     1.118519     1.110876     1.103233
      1.095590     1.087946     1.080303     1.072660     1.065017     1.057374     1.049731     1.042088     1.034445     1.026802
      1.019158     1.011515     1.003872     0.996229     0.988586     0.980943     0.973300     0.965657     0.958014     0.950371
      0.942727     0.935084     0.927441     0.919798     0.912155     0.904512     0.896869     0.889226     0.881583     0.873940
      0.866296     0.858653     0.851010     0.843367     0.835724     0.828081     0.820438     0.812795     0.805152     0.797508
      0.789865     0.782222     0.774579     0.766936     0.759293     0.751650     0.744007     0.736364     0.728721     0.721077
      0.713434     0.705791     0.698148     0.690505     0.682862     0.675219     0.667576     0.659933     0.652290     0.644646
      0.637003     0.629360     0.621717     0.614074     0.606431     0.598788     0.591145     0.583502     0.575858     0.568215
      0.560572     0.552929     0.545286     0.537643     0.530000     0.522357     0.514714     0.507071     0.499427     0.491784
      0.484141     0.476498     0.468855     0.461212     0.453569     0.445925     0.438282     0.430639     0.422996     0.415353
      0.407710     0.400067     0.392424     0.384780     0.377137     0.369494     0.361851     0.354208     0.346565     0.338922
      0.331278     0.323635     0.315992     0.308349     0.300706     0.293063     0.285420     0.277777     0.270133     0.262490
      0.254847     0.247204     0.239561     0.231918     0.224275     0.216631     0.208988     0.201345
 NY phased data points follow
  -5.64591E+00 -6.06367E+00 -7.14989E+00 -1.65121E+01 -1.95637E+00  2.18206E+00 -9.86841E+00 -1.17887E+01 -1.49550E+00  4.02371E+00
   8.34401E+00 -8.17338E-01  1.15891E+01  7.52134E+00  4.73177E-01 -3.45396E+00 -5.76744E+00 -6.69610E+00 -6.33898E+00 -3.80578E+00
  -5.07530E+00 -7.76172E+00  2.59548E+00 -1.96799E+00  4.84232E+00  1.19724E+00 -1.64911E+00  1.56254E+00 -2.49214E+00 -8.97989E+00
  -5.43693E-01 -3.85072E+00 -5.90389E+00 -7.17332E+00 -4.54392E+00 -9.41537E+00 -5.57885E+00  1.34809E+00  1.19276E+00 -7.97874E+00
   2.34848E+00  2.82166E-01 -2.38426E+00 -4.92919E+00  1.72038E+00 -7.12975E+00 -3.75644E+00  4.46700E+00  6.39248E+00  6.80855E+00
   5.34262E+00  4.39102E+00  2.48245E+00  4.11542E+00  3.05800E-01 -4.61092E+00 -5.92542E+00  5.92585E+00 -3.62244E+00  1.22629E+00
  -1.07842E+01 -2.61865E+00 -1.26781E+01 -4.95592E+00 -8.71880E-01 -6.12296E+00 -5.46174E+00  1.20587E+00 -7.33505E+00 -4.41566E+00
  -8.70336E+00 -3.37573E+00 -4.06980E+00 -7.24659E+00 -2.54000E+00 -2.88031E+00  2.49092E+00 -2.96747E+00 -7.27115E+00 -9.14105E-01
  -1.05384E+01 -7.41291E+00 -6.58276E+00 -5.24543E+00 -2.77840E+00 -2.22409E+00 -3.01798E+00 -4.58529E+00 -7.01648E+00 -4.50091E+00
  -4.31247E+00  2.60734E+00 -7.59020E+00  2.00694E+00  5.85965E+00  1.41154E+00  7.30997E+00 -1.59057E+00  3.40882E+00  4.23187E+00
   7.00303E+00  1.57035E+01  2.62400E+01  2.14095E+01  2.80858E+01  2.55088E+01  2.12994E+01  2.39056E+00  5.17410E+00 -2.47632E+00
  -8.02044E+00 -3.18414E+00 -2.14189E+00 -6.63062E+00 -5.93764E+00 -6.46398E+00 -8.95928E+00 -2.83931E-01 -4.43322E+00 -1.86630E+00
  -2.11975E+00  2.31066E+00  9.98602E-01  1.17824E+01  9.48617E+00  1.18312E+01  1.95162E+01  2.15386E+01  1.57911E+01  2.71321E+01
   1.42593E+01  2.93579E+00  6.91248E+00 -4.17621E-01 -1.71013E+00 -3.59091E+00 -3.06752E+00 -4.18101E+00 -4.62074E+00 -7.00769E+00
  -5.44262E+00 -1.88034E+00  2.37425E+00 -4.09348E+00  1.44792E-01 -1.78228E+00 -5.78075E+00 -3.04095E+00 -4.90670E+00 -2.25040E+00
  -9.35246E+00 -6.68131E+00  4.56131E+00 -8.99172E+00 -9.36215E+00 -4.35003E+00 -5.31774E+00  3.35370E-01 -3.73673E+00 -4.49619E+00
  -4.03471E+00 -9.89633E+00 -6.01617E+00 -8.58310E+00 -4.88821E+00 -7.73796E+00 -1.08672E+01 -4.65218E+00 -9.52534E+00 -1.22601E+01
  -8.91463E-01 -1.15943E+01 -1.19541E+01 -1.04468E+01 -1.32855E+01 -6.85310E+00 -1.65508E+01 -2.35106E+00 -7.83915E+00 -3.35608E-01
  -1.02958E+01 -2.55834E+00 -1.04778E+01 -1.32798E+01 -7.08918E+00 -1.39515E+01 -9.64539E+00 -9.59126E+00 -9.67298E+00 -1.12364E+01
  -2.22456E+00 -1.33008E+01 -1.28598E+01 -4.08774E+00  1.53830E+00 -6.50862E+00 -1.16160E+01 -6.68721E+00 -5.34571E+00 -8.44031E+00
  -6.86788E+00  4.25106E-01 -5.56620E-01 -6.44529E+00  4.99944E-01 -7.19410E+00 -3.95027E+00 -9.76984E+00 -7.58449E+00 -1.33231E+01
  -2.59334E+00 -8.51902E+00  6.89522E+00 -6.52056E+00  2.43275E+00 -5.52439E+00  1.19513E-01 -1.81829E+00 -1.04704E+00 -2.16798E+00
  -4.73550E+00 -2.05257E+00 -5.58252E+00 -5.58962E+00 -5.94327E+00 -1.50102E+00 -4.56880E+00 -3.32044E+00 -1.19947E+00  2.92965E+00
   7.40293E+00 -2.20618E+00 -8.82033E+00  1.14195E+00 -5.09205E+00 -9.02768E+00 -3.90448E+00 -1.18386E+00  8.88503E-01 -6.01707E+00
  -1.11433E+00 -7.94502E+00 -5.58350E+00  1.01555E+01 -4.57128E+00  5.25457E+00 -2.04070E+00  5.65981E-01  1.03758E+01 -6.10729E-01
   3.70257E+00  3.25891E+00  1.52253E+01  8.78236E+00  2.51238E+01  2.87189E+01  2.02606E+01  2.26424E+01  3.12037E+01  3.08903E+01
   2.45835E+01  1.69667E+01  1.67416E+01  1.59510E+01  8.21166E+00 -1.10169E+01  8.38227E-01  7.41552E+00  3.90319E+00 -3.68166E+00
  -7.84290E-01 -3.92597E+00 -5.71039E-01  7.89218E+00  3.24480E+00  1.98902E+00 -3.96063E-01  4.43988E+00  3.81165E+00 -7.34172E+00
   5.63273E+00 -1.19415E+00 -5.30635E+00 -9.81688E+00 -2.84822E-01 -1.99651E+00  2.71328E+00  1.03858E+01  2.80423E+00  2.52170E-01
  -3.87310E+00 -3.53470E+00 -4.20841E+00 -7.26019E-01 -6.04989E+00  3.57659E+00  1.81544E+00 -3.42909E+00 -1.39813E+00 -3.64542E+00
   4.44517E+00 -6.91380E+00  1.23529E+01  4.43103E-01  8.00799E+00  2.41942E+00  4.98353E+00 -1.78859E+00  3.79945E+00  7.41113E+00
   3.81164E-02 -5.18870E+00 -1.45290E+00 -2.06689E+00 -2.43950E-01 -4.42606E+00 -5.59094E+00 -8.59312E+00 -1.11018E+00 -1.10667E+01
  -1.40643E+00 -5.96718E-01  3.25461E+00 -9.72937E+00 -6.78802E-01  5.30139E+00  2.80843E+00  2.07903E+00  3.56720E+00 -4.58946E-03
   5.51163E+00  6.14994E+00  1.32035E+00  7.48471E+00  1.59652E+01  7.35049E+00  1.07104E+01  1.53957E+01  1.27371E+01  1.17924E+01
   1.42261E+01  4.61074E+00  5.58301E+00  1.43583E+01  9.39781E+00  3.52777E+00  4.19495E+00  2.52728E+00  1.72159E+00  7.06653E+00
   3.51788E+00  1.45293E+01  6.78496E+00  8.73320E+00  1.15845E+01  1.17650E+01  9.39877E+00  6.80637E+00  1.37923E+01  1.86595E+00
   5.29451E+00  8.58790E+00  8.25544E+00  5.99661E+00  1.90417E+01 -1.53325E+00  5.93979E+00 -1.33013E+00  4.53687E+00  6.88133E+00
   1.82414E+00 -1.21155E+00  7.07138E+00  2.80020E+00 -3.47703E+00  1.12308E+00  1.39101E+00  1.32514E+01  4.07515E+00  2.89585E+00
  -1.37234E+00 -3.08493E+00 -1.44234E+00 -3.32761E+00 -4.35639E+00  3.82594E+00 -5.19354E+00 -1.25511E-01  1.12563E+01 -4.52459E+00
   1.34500E+01  6.40956E+00  1.00623E+00  3.39482E+00  7.81551E+00  5.37683E+00  9.51135E+00  8.42208E+00  9.81212E+00  9.13039E+00
   1.15614E+01  5.01003E+00  9.06740E+00  8.12676E+00  9.03359E+00  1.31404E+01  1.00683E+01  6.38871E+00  5.98616E+00  8.74711E+00
   4.12698E+00  2.20864E+00  9.46248E+00  2.32382E+00 -3.58842E-01  2.81912E+00  3.39239E+00 -3.36439E+00  5.02756E+00  5.73601E+00
  -1.86695E+00 -9.89608E-01 -1.89341E+00 -4.70034E+00 -3.54891E+00  4.85168E+00  3.27887E+00 -1.23985E+00 -5.19517E-01 -3.59341E-01
   5.84391E+00 -6.17802E-01  3.81870E+00 -1.69325E+00  3.57822E+00  3.96328E+00  1.60845E-01  1.59861E+00 -4.66821E+00  7.21180E+00
   4.44495E-01  1.21433E+01 -6.20467E+00 -3.81723E+00 -3.66968E+00  2.33811E+00 -4.87154E+00  1.91861E-01  3.73941E-01  3.59279E+00
   3.75084E+00  9.89282E+00  9.54832E+00 -5.21347E+00 -2.45682E+00  6.92512E+00 -2.23721E-01  2.04569E+00 -2.74855E-01 -1.19279E+00
   2.25991E+00 -4.39206E+00 -7.69576E+00 -4.57247E-01 -9.60846E+00  4.93743E-01  5.46714E+00 -2.86722E+00 -2.89892E+00 -1.24788E-01
   7.78299E+00 -1.82281E+00 -3.58995E+00  8.04703E+00  6.76863E-01  3.70315E+00 -1.44467E+00 -1.12792E+01 -1.09250E+00  1.39083E-01
   4.42192E+00 -1.72647E+00 -1.89317E+00 -6.61303E+00 -4.66794E+00 -8.98794E-01 -1.25737E+00 -3.13276E+00 -6.70228E-01  2.62540E+00
   2.01567E+00 -2.81653E+00 -1.83218E+00  2.97883E+00 -1.07451E+00 -3.49770E+00  9.25672E+00 -5.77848E+00
 NY points of the fit to the data follow
  -3.95359E+00 -4.31026E+00 -4.59943E+00 -4.92605E+00 -5.02997E+00 -4.55351E+00 -3.75625E+00 -2.60534E+00 -6.87176E-01  1.78000E+00
   4.03814E+00  5.71739E+00  6.75205E+00  6.58540E+00  4.70721E+00  1.74296E+00 -1.01192E+00 -2.81784E+00 -3.70169E+00 -4.04063E+00
  -4.17675E+00 -4.23848E+00 -4.26164E+00 -4.26778E+00 -4.31342E+00 -4.45094E+00 -4.60611E+00 -4.67629E+00 -4.59738E+00 -4.33854E+00
  -3.88656E+00 -3.28960E+00 -2.69448E+00 -2.27582E+00 -2.14454E+00 -2.33492E+00 -2.74334E+00 -3.20471E+00 -3.61419E+00 -3.89852E+00
  -3.96890E+00 -3.79313E+00 -3.36835E+00 -2.69998E+00 -1.74421E+00 -5.76144E-01  5.55337E-01  1.35668E+00  1.65420E+00  1.37073E+00
   4.60995E-01 -9.77701E-01 -2.59127E+00 -3.86680E+00 -4.48735E+00 -4.52139E+00 -4.17542E+00 -3.64676E+00 -3.08657E+00 -2.63017E+00
  -2.36138E+00 -2.30447E+00 -2.48383E+00 -2.89394E+00 -3.43923E+00 -3.95623E+00 -4.24467E+00 -4.23584E+00 -3.99424E+00 -3.59976E+00
  -3.14588E+00 -2.75799E+00 -2.49877E+00 -2.34974E+00 -2.30764E+00 -2.41093E+00 -2.64245E+00 -2.92957E+00 -3.22099E+00 -3.47309E+00
  -3.59186E+00 -3.59176E+00 -3.54457E+00 -3.47459E+00 -3.43936E+00 -3.55921E+00 -3.87724E+00 -4.31322E+00 -4.77855E+00 -5.22589E+00
  -5.54268E+00 -5.56836E+00 -5.29380E+00 -4.84208E+00 -4.38220E+00 -3.96011E+00 -3.23049E+00 -1.14554E+00  2.10706E+00  6.19372E+00
   1.14848E+01  1.74459E+01  2.24228E+01  2.51933E+01  2.55661E+01  2.31162E+01  1.74555E+01  1.00006E+01  3.39893E+00 -8.59645E-01
  -2.94212E+00 -3.70984E+00 -3.95765E+00 -4.05501E+00 -4.09947E+00 -4.11926E+00 -4.12281E+00 -4.11392E+00 -4.06911E+00 -3.91065E+00
  -3.25630E+00 -1.28701E+00  1.57604E+00  5.21332E+00  9.86419E+00  1.48613E+01  1.87641E+01  2.07551E+01  2.07572E+01  1.83489E+01
   1.33714E+01  7.26593E+00  2.14987E+00 -1.04815E+00 -2.61509E+00 -3.25738E+00 -3.55059E+00 -3.71321E+00 -3.79522E+00 -3.83163E+00
  -3.84168E+00 -3.83928E+00 -3.84024E+00 -3.85303E+00 -3.87831E+00 -3.91183E+00 -3.94978E+00 -3.99860E+00 -4.08765E+00 -4.22747E+00
  -4.38681E+00 -4.54937E+00 -4.69884E+00 -4.80262E+00 -4.86675E+00 -4.90034E+00 -4.89690E+00 -4.86725E+00 -4.85560E+00 -4.89889E+00
  -5.01766E+00 -5.20288E+00 -5.41588E+00 -5.58901E+00 -5.69217E+00 -5.73038E+00 -5.74292E+00 -5.78532E+00 -5.84432E+00 -5.87393E+00
  -5.86625E+00 -5.82550E+00 -5.76333E+00 -5.70822E+00 -5.69877E+00 -5.76269E+00 -5.88823E+00 -6.03009E+00 -6.08334E+00 -6.01907E+00
  -5.89687E+00 -5.75915E+00 -5.57742E+00 -5.32666E+00 -5.00189E+00 -4.58972E+00 -4.12184E+00 -3.72482E+00 -3.48563E+00 -3.35578E+00
  -3.29345E+00 -3.31763E+00 -3.46025E+00 -3.68932E+00 -3.94361E+00 -4.18164E+00 -4.31228E+00 -4.24246E+00 -3.96565E+00 -3.55280E+00
  -3.08740E+00 -2.65717E+00 -2.35163E+00 -2.28747E+00 -2.54861E+00 -3.07647E+00 -3.79267E+00 -4.63196E+00 -5.42515E+00 -5.94734E+00
  -6.00325E+00 -5.60141E+00 -4.76813E+00 -3.59113E+00 -2.38908E+00 -1.55569E+00 -1.29988E+00 -1.59127E+00 -2.31728E+00 -3.34773E+00
  -4.41727E+00 -5.12646E+00 -5.26935E+00 -4.89115E+00 -4.13556E+00 -3.16902E+00 -2.18134E+00 -1.42892E+00 -1.08094E+00 -1.07147E+00
  -1.22407E+00 -1.35835E+00 -1.38627E+00 -1.27342E+00 -1.02738E+00 -6.95039E-01 -3.92495E-01 -2.25465E-01 -1.71724E-01 -2.11918E-01
  -3.13762E-01 -4.00458E-01 -3.88854E-01 -2.89017E-01 -1.21784E-01  1.54783E-01  5.45990E-01  9.44405E-01  1.27550E+00  1.84516E+00
   3.50468E+00  6.05900E+00  9.32698E+00  1.36272E+01  1.88082E+01  2.36734E+01  2.71017E+01  2.91137E+01  2.93937E+01  2.71954E+01
   2.30726E+01  1.88057E+01  1.52908E+01  1.21108E+01  8.85932E+00  5.85865E+00  3.59947E+00  2.15855E+00  1.33326E+00  8.65854E-01
   5.79547E-01  3.99965E-01  3.00063E-01  2.42593E-01  1.66624E-01  2.17992E-02 -1.96326E-01 -4.62133E-01 -7.43397E-01 -9.96571E-01
  -1.16048E+00 -1.21850E+00 -1.20587E+00 -1.16328E+00 -1.11419E+00 -1.07621E+00 -1.05477E+00 -1.04938E+00 -1.04411E+00 -1.01274E+00
  -9.35956E-01 -8.12763E-01 -6.56870E-01 -4.84996E-01 -3.11623E-01 -1.63260E-01 -6.08285E-02  2.79058E-03  4.91547E-02  9.35691E-02
   1.40035E-01  1.90245E-01  2.45585E-01  2.98132E-01  3.33115E-01  3.41151E-01  3.21410E-01  2.78804E-01  2.20710E-01  1.54180E-01
   8.55221E-02  2.06370E-02 -3.48061E-02 -7.49449E-02 -9.38134E-02 -8.56551E-02 -4.48617E-02  3.41443E-02  1.56663E-01  3.27797E-01
   5.53921E-01  8.43412E-01  1.18638E+00  1.57158E+00  1.99707E+00  2.44620E+00  2.89332E+00  3.32545E+00  3.74297E+00  4.15443E+00
   4.57065E+00  5.00595E+00  5.48696E+00  6.01546E+00  6.55579E+00  7.05985E+00  7.49674E+00  7.84839E+00  8.08904E+00  8.20075E+00
   8.19910E+00  8.11974E+00  7.99334E+00  7.84151E+00  7.68154E+00  7.53313E+00  7.42104E+00  7.37156E+00  7.40797E+00  7.54569E+00
   7.78734E+00  8.11898E+00  8.50859E+00  8.90803E+00  9.25849E+00  9.49931E+00  9.57800E+00  9.45978E+00  9.13374E+00  8.61463E+00
   7.93949E+00  7.16046E+00  6.33530E+00  5.51833E+00  4.75331E+00  4.06962E+00  3.48171E+00  2.99130E+00  2.59096E+00  2.26819E+00
   2.00888E+00  1.79986E+00  1.63027E+00  1.49219E+00  1.38051E+00  1.29258E+00  1.22761E+00  1.18620E+00  1.16987E+00  1.18083E+00
   1.22164E+00  1.29513E+00  1.40409E+00  1.55123E+00  1.73889E+00  1.96895E+00  2.24256E+00  2.55992E+00  2.92003E+00  3.32051E+00
   3.75737E+00  4.22501E+00  4.71608E+00  5.22163E+00  5.73117E+00  6.23311E+00  6.71503E+00  7.16433E+00  7.56861E+00  7.91640E+00
   8.19759E+00  8.40407E+00  8.53005E+00  8.57245E+00  8.53090E+00  8.40781E+00  8.20812E+00  7.93905E+00  7.60956E+00  7.22998E+00
   6.81131E+00  6.36482E+00  5.90139E+00  5.43131E+00  4.96371E+00  4.50653E+00  4.06621E+00  3.64778E+00  3.25481E+00  2.88963E+00
   2.55336E+00  2.24621E+00  1.96754E+00  1.71616E+00  1.49044E+00  1.28852E+00  1.10836E+00  9.47932E-01  8.05179E-01  6.78206E-01
   5.65200E-01  4.64566E-01  3.74806E-01  2.94633E-01  2.22852E-01  1.58475E-01  1.00591E-01  4.84680E-02  1.40690E-03 -4.11470E-02
  -7.97304E-02 -1.14744E-01 -1.46590E-01 -1.75560E-01 -2.01976E-01 -2.26061E-01 -2.48072E-01 -2.68165E-01 -2.86534E-01 -3.03298E-01
  -3.18629E-01 -3.32619E-01 -3.45407E-01 -3.57048E-01 -3.67657E-01 -3.77278E-01 -3.86023E-01 -3.93925E-01 -4.01072E-01 -4.07477E-01
  -4.13220E-01 -4.18315E-01 -4.22843E-01 -4.26806E-01 -4.30266E-01 -4.33216E-01 -4.35720E-01 -4.37777E-01 -4.39452E-01 -4.40730E-01
  -4.41662E-01 -4.42230E-01 -4.42492E-01 -4.42433E-01 -4.42109E-01 -4.41494E-01 -4.40636E-01 -4.39512E-01 -4.38176E-01 -4.36611E-01
  -4.34863E-01 -4.32903E-01 -4.30774E-01 -4.28453E-01 -4.25992E-01 -4.23366E-01 -4.20620E-01 -4.17722E-01 -4.14717E-01 -4.11582E-01
  -4.08368E-01 -4.05047E-01 -4.01665E-01 -3.98190E-01 -3.94672E-01 -3.91086E-01 -3.87487E-01 -3.83850E-01
 NY background values follow
    -6.530E+00   -6.519E+00   -6.508E+00   -6.497E+00   -6.487E+00   -6.476E+00   -6.465E+00   -6.454E+00   -6.443E+00   -6.433E+00
    -6.422E+00   -6.411E+00   -6.400E+00   -6.389E+00   -6.379E+00   -6.368E+00   -6.357E+00   -6.346E+00   -6.335E+00   -6.325E+00
    -6.314E+00   -6.303E+00   -6.292E+00   -6.281E+00   -6.270E+00   -6.260E+00   -6.249E+00   -6.238E+00   -6.227E+00   -6.216E+00
    -6.205E+00   -6.195E+00   -6.184E+00   -6.173E+00   -6.162E+00   -6.151E+00   -6.140E+00   -6.130E+00   -6.119E+00   -6.108E+00
    -6.097E+00   -6.086E+00   -6.075E+00   -6.064E+00   -6.054E+00   -6.043E+00   -6.032E+00   -6.021E+00   -6.010E+00   -5.999E+00
    -5.988E+00   -5.978E+00   -5.967E+00   -5.956E+00   -5.945E+00   -5.934E+00   -5.923E+00   -5.912E+00   -5.901E+00   -5.891E+00
    -5.880E+00   -5.869E+00   -5.858E+00   -5.847E+00   -5.836E+00   -5.825E+00   -5.814E+00   -5.803E+00   -5.793E+00   -5.782E+00
    -5.771E+00   -5.760E+00   -5.749E+00   -5.738E+00   -5.727E+00   -5.716E+00   -5.705E+00   -5.694E+00   -5.684E+00   -5.673E+00
    -5.662E+00   -5.651E+00   -5.640E+00   -5.629E+00   -5.618E+00   -5.607E+00   -5.596E+00   -5.585E+00   -5.574E+00   -5.564E+00
    -5.553E+00   -5.542E+00   -5.531E+00   -5.520E+00   -5.509E+00   -5.498E+00   -5.487E+00   -5.476E+00   -5.465E+00   -5.454E+00
    -5.443E+00   -5.432E+00   -5.421E+00   -5.411E+00   -5.400E+00   -5.389E+00   -5.378E+00   -5.367E+00   -5.356E+00   -5.345E+00
    -5.334E+00   -5.323E+00   -5.312E+00   -5.301E+00   -5.290E+00   -5.279E+00   -5.268E+00   -5.257E+00   -5.246E+00   -5.235E+00
    -5.224E+00   -5.213E+00   -5.202E+00   -5.192E+00   -5.181E+00   -5.170E+00   -5.159E+00   -5.148E+00   -5.137E+00   -5.126E+00
    -5.115E+00   -5.104E+00   -5.093E+00   -5.082E+00   -5.071E+00   -5.060E+00   -5.049E+00   -5.038E+00   -5.027E+00   -5.016E+00
    -5.005E+00   -4.994E+00   -4.983E+00   -4.972E+00   -4.961E+00   -4.950E+00   -4.939E+00   -4.928E+00   -4.917E+00   -4.906E+00
    -4.895E+00   -4.884E+00   -4.873E+00   -4.862E+00   -4.851E+00   -4.840E+00   -4.829E+00   -4.818E+00   -4.807E+00   -4.796E+00
    -4.785E+00   -4.774E+00   -4.764E+00   -4.753E+00   -4.742E+00   -4.731E+00   -4.720E+00   -4.709E+00   -4.698E+00   -4.687E+00
    -4.676E+00   -4.665E+00   -4.654E+00   -4.643E+00   -4.632E+00   -4.621E+00   -4.610E+00   -4.599E+00   -4.588E+00   -4.577E+00
    -4.566E+00   -4.555E+00   -4.544E+00   -4.533E+00   -4.522E+00   -4.511E+00   -4.500E+00   -4.489E+00   -4.478E+00   -4.467E+00
    -4.456E+00   -4.445E+00   -4.433E+00   -4.422E+00   -4.411E+00   -4.400E+00   -4.389E+00   -4.378E+00   -4.367E+00   -4.356E+00
    -4.345E+00   -4.334E+00   -4.323E+00   -4.312E+00   -4.301E+00   -4.290E+00   -4.279E+00   -4.268E+00   -4.257E+00   -4.246E+00
    -4.235E+00   -4.224E+00   -4.213E+00   -4.202E+00   -4.191E+00   -4.180E+00   -4.169E+00   -4.158E+00   -4.147E+00   -4.136E+00
    -4.125E+00   -4.114E+00   -4.103E+00   -4.092E+00   -4.081E+00   -4.070E+00   -4.059E+00   -4.048E+00   -4.037E+00   -4.026E+00
    -4.015E+00   -4.004E+00   -3.993E+00   -3.982E+00   -3.971E+00   -3.960E+00   -3.949E+00   -3.938E+00   -3.927E+00   -3.916E+00
    -3.905E+00   -3.894E+00   -3.883E+00   -3.872E+00   -3.861E+00   -3.850E+00   -3.839E+00   -3.828E+00   -3.816E+00   -3.805E+00
    -3.794E+00   -3.783E+00   -3.772E+00   -3.761E+00   -3.750E+00   -3.739E+00   -3.728E+00   -3.717E+00   -3.706E+00   -3.695E+00
    -3.684E+00   -3.673E+00   -3.662E+00   -3.651E+00   -3.640E+00   -3.629E+00   -3.618E+00   -3.607E+00   -3.596E+00   -3.585E+00
    -3.574E+00   -3.563E+00   -3.552E+00   -3.541E+00   -3.530E+00   -3.519E+00   -3.508E+00   -3.497E+00   -3.486E+00   -3.475E+00
    -3.464E+00   -3.453E+00   -3.442E+00   -3.431E+00   -3.420E+00   -3.409E+00   -3.398E+00   -3.387E+00   -3.376E+00   -3.365E+00
    -3.354E+00   -3.343E+00   -3.332E+00   -3.320E+00   -3.309E+00   -3.298E+00   -3.287E+00   -3.276E+00   -3.265E+00   -3.254E+00
    -3.243E+00   -3.232E+00   -3.221E+00   -3.210E+00   -3.199E+00   -3.188E+00   -3.177E+00   -3.166E+00   -3.155E+00   -3.144E+00
    -3.133E+00   -3.122E+00   -3.111E+00   -3.100E+00   -3.089E+00   -3.078E+00   -3.067E+00   -3.056E+00   -3.045E+00   -3.034E+00
    -3.023E+00   -3.012E+00   -3.001E+00   -2.990E+00   -2.979E+00   -2.968E+00   -2.957E+00   -2.946E+00   -2.935E+00   -2.924E+00
    -2.913E+00   -2.902E+00   -2.891E+00   -2.880E+00   -2.869E+00   -2.858E+00   -2.847E+00   -2.836E+00   -2.825E+00   -2.814E+00
    -2.803E+00   -2.792E+00   -2.781E+00   -2.770E+00   -2.759E+00   -2.748E+00   -2.737E+00   -2.726E+00   -2.715E+00   -2.704E+00
    -2.693E+00   -2.682E+00   -2.671E+00   -2.660E+00   -2.649E+00   -2.638E+00   -2.627E+00   -2.616E+00   -2.605E+00   -2.594E+00
    -2.583E+00   -2.572E+00   -2.561E+00   -2.550E+00   -2.539E+00   -2.528E+00   -2.517E+00   -2.506E+00   -2.495E+00   -2.484E+00
    -2.473E+00   -2.462E+00   -2.451E+00   -2.440E+00   -2.430E+00   -2.419E+00   -2.408E+00   -2.397E+00   -2.386E+00   -2.375E+00
    -2.364E+00   -2.353E+00   -2.342E+00   -2.331E+00   -2.320E+00   -2.309E+00   -2.298E+00   -2.287E+00   -2.276E+00   -2.265E+00
    -2.254E+00   -2.243E+00   -2.232E+00   -2.221E+00   -2.210E+00   -2.199E+00   -2.188E+00   -2.177E+00   -2.166E+00   -2.155E+00
    -2.145E+00   -2.134E+00   -2.123E+00   -2.112E+00   -2.101E+00   -2.090E+00   -2.079E+00   -2.068E+00   -2.057E+00   -2.046E+00
    -2.035E+00   -2.024E+00   -2.013E+00   -2.002E+00   -1.991E+00   -1.980E+00   -1.970E+00   -1.959E+00   -1.948E+00   -1.937E+00
    -1.926E+00   -1.915E+00   -1.904E+00   -1.893E+00   -1.882E+00   -1.871E+00   -1.860E+00   -1.849E+00   -1.838E+00   -1.828E+00
    -1.817E+00   -1.806E+00   -1.795E+00   -1.784E+00   -1.773E+00   -1.762E+00   -1.751E+00   -1.740E+00   -1.729E+00   -1.718E+00
    -1.708E+00   -1.697E+00   -1.686E+00   -1.675E+00   -1.664E+00   -1.653E+00   -1.642E+00   -1.631E+00   -1.620E+00   -1.610E+00
    -1.599E+00   -1.588E+00   -1.577E+00   -1.566E+00   -1.555E+00   -1.544E+00   -1.533E+00   -1.522E+00   -1.512E+00   -1.501E+00
    -1.490E+00   -1.479E+00   -1.468E+00   -1.457E+00   -1.446E+00   -1.436E+00   -1.425E+00   -1.414E+00   -1.403E+00   -1.392E+00
    -1.381E+00   -1.370E+00   -1.360E+00   -1.349E+00   -1.338E+00   -1.327E+00   -1.316E+00   -1.305E+00   -1.294E+00   -1.284E+00
    -1.273E+00   -1.262E+00   -1.251E+00   -1.240E+00   -1.229E+00   -1.219E+00   -1.208E+00   -1.197E+00   -1.186E+00   -1.175E+00
    -1.164E+00   -1.154E+00   -1.143E+00   -1.132E+00   -1.121E+00   -1.110E+00   -1.100E+00   -1.089E+00
 Ala      Conc. = 2.43E+01
