 LCModel (Version 6.3-1L) Copyright: S.W. Provencher.          Ref.: Magn. Reson. Med. 30:672-679 (1993).                
 Slice#2 Row#7 Col#6  PD_24_press_2_raw_act
 36 lines in following concentration table = NCONC+1
    Conc.  %SD /Cr+PCr  Metabolite                                         
    0.000 999%   0.000 Ala                                                 
  441.124  94%   0.164 Asp                                                 
    0.000 999%   0.000 Cr                                                  
 2.70E+03   5%   1.000 PCr                                                 
  205.898 124% 7.6E-02 GABA                                                
  347.172  76%   0.129 Glc                                                 
  186.205 239% 6.9E-02 Gln                                                 
 2.06E+03  25%   0.764 Glu                                                 
    0.000 999%   0.000 GPC                                                 
  933.232   6%   0.346 PCh                                                 
  387.191  42%   0.144 GSH                                                 
 2.45E+03  23%   0.910 Ins                                                 
   96.053 255% 3.6E-02 Lac                                                 
 3.48E+03   5%   1.292 NAA                                                 
    0.000 999%   0.000 NAAG                                                
  261.286  22% 9.7E-02 Scyllo                                              
 1.03E+03  37%   0.380 Tau                                                 
  985.263  24%   0.365 -CrCH2                                              
  933.232   6%   0.346 GPC+PCh                                             
 3.48E+03   5%   1.292 NAA+NAAG                                            
 2.70E+03   5%   1.000 Cr+PCr                                              
 2.25E+03  29%   0.833 Glu+Gln                                             
 7.01E+03  18%   2.598 Lip13a                                              
    0.000 999%   0.000 Lip13b                                              
 2.38E+03  34%   0.882 Lip09                                               
 1.39E+03  57%   0.515 MM09                                                
 1.51E+03  42%   0.558 Lip20                                               
 2.57E+03  38%   0.953 MM20                                                
  192.493 311% 7.1E-02 MM12                                                
    0.000 999%   0.000 MM14                                                
 3.12E+03  12%   1.155 MM17                                                
 7.01E+03  18%   2.598 Lip13a+Lip13b                                       
 7.20E+03  15%   2.669 MM14+Lip13a+Lip13b+MM12                             
 3.77E+03  14%   1.397 MM09+Lip09                                          
 4.08E+03  23%   1.512 MM20+Lip20                                          
   6 lines in following misc. output table
  FWHM = 0.046 ppm    S/N =   8                                            
  Data shift = 0.015 ppm                                                   
  Ph: -55 deg     -16.4 deg/ppm                                            
  alphaB,S = 2.4E+00,   2.4E+01                                            
   14 spline knots.   Ns = 5(1)                                            
  ( 7) 2 infls.   ( 3) 1 extrs.                                            
  498 points on ppm-axis = NY
      4.000000     3.992357     3.984714     3.977070     3.969427     3.961784     3.954141     3.946497     3.938854     3.931211
      3.923568     3.915925     3.908281     3.900638     3.892995     3.885352     3.877708     3.870065     3.862422     3.854779
      3.847136     3.839492     3.831849     3.824206     3.816563     3.808919     3.801276     3.793633     3.785990     3.778347
      3.770703     3.763060     3.755417     3.747774     3.740130     3.732487     3.724844     3.717201     3.709558     3.701914
      3.694271     3.686628     3.678985     3.671341     3.663698     3.656055     3.648412     3.640769     3.633125     3.625482
      3.617839     3.610196     3.602552     3.594909     3.587266     3.579623     3.571980     3.564336     3.556693     3.549050
      3.541407     3.533763     3.526120     3.518477     3.510834     3.503191     3.495547     3.487904     3.480261     3.472618
      3.464974     3.457331     3.449688     3.442045     3.434402     3.426758     3.419115     3.411472     3.403829     3.396185
      3.388542     3.380899     3.373256     3.365613     3.357969     3.350326     3.342683     3.335040     3.327396     3.319753
      3.312110     3.304467     3.296824     3.289180     3.281537     3.273894     3.266251     3.258607     3.250964     3.243321
      3.235678     3.228034     3.220391     3.212748     3.205105     3.197462     3.189818     3.182175     3.174532     3.166889
      3.159245     3.151602     3.143959     3.136316     3.128673     3.121029     3.113386     3.105743     3.098100     3.090456
      3.082813     3.075170     3.067527     3.059884     3.052240     3.044597     3.036954     3.029311     3.021667     3.014024
      3.006381     2.998738     2.991095     2.983451     2.975808     2.968165     2.960522     2.952878     2.945235     2.937592
      2.929949     2.922306     2.914662     2.907019     2.899376     2.891733     2.884089     2.876446     2.868803     2.861160
      2.853517     2.845873     2.838230     2.830587     2.822944     2.815300     2.807657     2.800014     2.792371     2.784728
      2.777084     2.769441     2.761798     2.754155     2.746511     2.738868     2.731225     2.723582     2.715939     2.708295
      2.700652     2.693009     2.685366     2.677722     2.670079     2.662436     2.654793     2.647150     2.639506     2.631863
      2.624220     2.616577     2.608933     2.601290     2.593647     2.586004     2.578361     2.570717     2.563074     2.555431
      2.547788     2.540144     2.532501     2.524858     2.517215     2.509572     2.501928     2.494285     2.486642     2.478999
      2.471355     2.463712     2.456069     2.448426     2.440783     2.433139     2.425496     2.417853     2.410210     2.402566
      2.394923     2.387280     2.379637     2.371994     2.364350     2.356707     2.349064     2.341421     2.333777     2.326134
      2.318491     2.310848     2.303205     2.295561     2.287918     2.280275     2.272632     2.264988     2.257345     2.249702
      2.242059     2.234416     2.226772     2.219129     2.211486     2.203843     2.196199     2.188556     2.180913     2.173270
      2.165627     2.157983     2.150340     2.142697     2.135054     2.127410     2.119767     2.112124     2.104481     2.096838
      2.089194     2.081551     2.073908     2.066265     2.058621     2.050978     2.043335     2.035692     2.028049     2.020405
      2.012762     2.005119     1.997476     1.989833     1.982190     1.974546     1.966903     1.959260     1.951617     1.943974
      1.936331     1.928688     1.921045     1.913402     1.905759     1.898115     1.890472     1.882829     1.875186     1.867543
      1.859900     1.852257     1.844614     1.836971     1.829327     1.821684     1.814041     1.806398     1.798755     1.791112
      1.783469     1.775826     1.768183     1.760540     1.752896     1.745253     1.737610     1.729967     1.722324     1.714681
      1.707038     1.699395     1.691752     1.684108     1.676465     1.668822     1.661179     1.653536     1.645893     1.638250
      1.630607     1.622964     1.615321     1.607677     1.600034     1.592391     1.584748     1.577105     1.569462     1.561819
      1.554176     1.546533     1.538890     1.531246     1.523603     1.515960     1.508317     1.500674     1.493031     1.485388
      1.477745     1.470102     1.462458     1.454815     1.447172     1.439529     1.431886     1.424243     1.416600     1.408957
      1.401314     1.393671     1.386027     1.378384     1.370741     1.363098     1.355455     1.347812     1.340169     1.332526
      1.324883     1.317240     1.309596     1.301953     1.294310     1.286667     1.279024     1.271381     1.263738     1.256095
      1.248452     1.240808     1.233165     1.225522     1.217879     1.210236     1.202593     1.194950     1.187307     1.179664
      1.172021     1.164377     1.156734     1.149091     1.141448     1.133805     1.126162     1.118519     1.110876     1.103233
      1.095590     1.087946     1.080303     1.072660     1.065017     1.057374     1.049731     1.042088     1.034445     1.026802
      1.019158     1.011515     1.003872     0.996229     0.988586     0.980943     0.973300     0.965657     0.958014     0.950371
      0.942727     0.935084     0.927441     0.919798     0.912155     0.904512     0.896869     0.889226     0.881583     0.873940
      0.866296     0.858653     0.851010     0.843367     0.835724     0.828081     0.820438     0.812795     0.805152     0.797508
      0.789865     0.782222     0.774579     0.766936     0.759293     0.751650     0.744007     0.736364     0.728721     0.721077
      0.713434     0.705791     0.698148     0.690505     0.682862     0.675219     0.667576     0.659933     0.652290     0.644646
      0.637003     0.629360     0.621717     0.614074     0.606431     0.598788     0.591145     0.583502     0.575858     0.568215
      0.560572     0.552929     0.545286     0.537643     0.530000     0.522357     0.514714     0.507071     0.499427     0.491784
      0.484141     0.476498     0.468855     0.461212     0.453569     0.445925     0.438282     0.430639     0.422996     0.415353
      0.407710     0.400067     0.392424     0.384780     0.377137     0.369494     0.361851     0.354208     0.346565     0.338922
      0.331278     0.323635     0.315992     0.308349     0.300706     0.293063     0.285420     0.277777     0.270133     0.262490
      0.254847     0.247204     0.239561     0.231918     0.224275     0.216631     0.208988     0.201345
 NY phased data points follow
  -8.75591E+01 -1.03071E+02 -8.97698E+01 -8.80021E+01 -7.74480E+01 -5.92024E+01 -4.29212E+01 -3.41815E+01 -2.02827E+01 -2.50058E+01
  -1.64275E+01 -3.82899E+01 -2.37752E+01 -4.67305E+01 -4.98771E+01 -6.78332E+01 -6.33514E+01 -8.90599E+01 -7.81453E+01 -8.45726E+01
  -6.55568E+01 -8.30262E+01 -4.23828E+01 -4.93859E+01 -5.27286E+01 -4.97614E+01 -3.79936E+01 -5.75720E+01 -3.62871E+01 -3.85593E+01
  -3.35839E+01 -5.35588E+01 -5.10557E+01 -5.16940E+01 -4.67403E+01 -5.88924E+01 -5.64335E+01 -6.61102E+01 -4.96284E+01 -4.09665E+01
  -5.37854E+01 -2.91216E+01 -4.77182E+01 -3.55269E+01 -3.24381E+01 -2.78496E+01 -1.73527E+01 -3.11720E+01 -2.04013E+01 -2.00517E+01
  -2.84436E+01 -4.26965E+01 -3.99451E+01 -5.52877E+01 -3.78832E+01 -4.58957E+01 -1.70927E+01 -3.14484E+01 -2.34564E+01 -2.49973E+01
  -3.34598E+01 -4.08335E+01 -3.37559E+01 -5.54391E+01 -3.04124E+01 -5.17022E+01 -4.06009E+01 -3.93552E+01 -2.85445E+01 -2.79173E+01
  -3.01624E+01 -3.96161E+01 -2.19614E+01 -3.21316E+01 -1.54210E+01 -2.37328E+01 -1.47589E+01 -2.80361E+01 -2.36631E+01 -2.65913E+01
  -1.41447E+01 -3.75428E+01 -1.27072E+01 -2.44732E+01 -1.61201E+01 -2.22162E+01 -7.02018E+00 -2.73750E+01  1.77966E+00 -6.64359E+00
  -1.91405E+01 -6.17011E+00 -1.37871E+01 -1.29214E+01  1.54299E+00 -1.83119E+01 -1.18027E+01 -2.55207E+01  8.08058E+00  1.53866E+01
   3.09897E+01  6.90635E+01  7.97927E+01  7.47268E+01  7.88123E+01  4.94809E+01  3.01074E+01  1.30301E+01  5.87761E+00 -4.83401E+00
  -1.34598E+01 -1.64085E+01 -1.31835E+01 -2.27892E+00 -4.60626E+00 -1.04640E+01  1.14862E+00 -1.37404E+01 -1.57526E+01 -1.81980E+01
  -2.14003E+01 -2.29603E+01  3.22797E+00  1.20800E+01  4.66544E+01  6.67852E+01  9.53189E+01  9.12279E+01  1.01091E+02  5.36321E+01
   4.86744E+01  2.82085E+01  7.49975E+00 -3.27245E+00  7.67319E+00 -1.58783E+01 -2.86498E+00 -1.61379E+01 -1.43736E+01 -5.91669E+00
  -1.18676E+01 -1.82688E+01  4.17296E-01 -2.33893E+01  4.24054E+00 -7.52776E+00 -9.38415E+00 -5.39449E+00 -2.82335E-01 -1.41290E+01
  -1.06376E+01 -2.78676E+00 -8.75656E+00 -9.07074E+00 -6.14169E+00  2.75754E+00 -2.51710E+00 -5.65110E+00 -4.65738E+00  6.91632E+00
  -2.36541E+00 -1.34987E+01 -9.81950E-01 -1.42223E+01  1.54174E+01  4.30980E+00  1.16811E+01  5.19012E+00  4.59824E+00  6.29868E+00
  -2.07265E+00  1.79217E+00  8.45642E+00 -1.21654E+01 -2.11759E+00  3.74784E-01 -1.42123E+01  4.10157E-01 -5.89720E+00 -1.28793E+01
   3.47076E+00 -7.32554E+00  3.29755E+00 -2.01009E+01 -4.68547E+00 -1.74587E+01  7.65393E+00  3.93040E-01  5.46082E+00  1.01516E+01
   1.90244E+01 -7.93438E-01  1.06935E+01  6.95330E+00  1.55364E+01  1.74922E+00  1.75231E+01  5.33915E+00  7.13547E-01 -1.92300E-01
   3.71684E+00  1.57516E+01  2.26177E+01  3.08279E+00  1.63651E+01  7.06710E+00  1.38173E+01 -1.92889E-01 -1.89393E+00 -6.83069E+00
   8.03172E+00  6.54627E+00  1.24143E+01  9.48272E+00  3.39266E+01  2.46660E+01  3.02639E+01  3.19868E+01  4.61079E+01  9.94934E+00
  -8.25838E+00 -1.03849E+00  1.75973E+00  9.07293E+00  9.82432E+00  1.41195E+01  1.90837E+01  1.84650E+01  2.20492E+01  1.11536E+01
   1.56170E+01  4.72415E+00  1.77013E+01  1.52761E+01  1.88963E+01  2.42299E+01  2.16507E+01  2.74220E+01  1.43028E+01  8.13961E+00
   2.54271E+00  1.32121E+01  2.10602E+01  1.58580E+01  3.95932E+01  1.88176E+01  3.57552E+01  2.28936E+01  2.61466E+01  2.76111E+01
   3.48622E+01  3.95791E+01  3.73666E+01  3.22191E+01  4.30652E+01  2.65528E+01  5.03631E+01  8.82159E+01  1.18280E+02  1.69070E+02
   1.78698E+02  1.53184E+02  1.45410E+02  9.95204E+01  8.49267E+01  6.96966E+01  4.64076E+01  1.55052E+01  3.93219E+01  2.28200E+01
   2.20392E+01  3.76892E+01  3.41750E+01  3.21721E+01  3.11876E+01  3.49991E+01  1.89340E+01  2.66488E+01  2.20579E+01  2.63826E+01
   3.15439E+01  3.04147E+01  3.01160E+01  4.79269E+00  2.39575E+01  2.03279E+01  1.07832E+01  3.16155E+01  1.66567E+01  1.59232E+01
   2.77615E+01  1.64006E+01  4.00971E+01  2.10399E+01  2.53713E+01  4.18318E+01  2.49932E+01  2.38267E+01  3.74456E+01  4.14045E+01
   2.44354E+01  3.27421E+01  4.24108E+01  3.47304E+01  4.39521E+01  5.08470E+01  5.79435E+01  4.44931E+01  6.34873E+01  5.59785E+01
   5.82965E+01  5.17487E+01  6.30374E+01  4.56317E+01  5.90831E+01  4.28243E+01  4.98481E+01  4.76834E+01  3.24931E+01  1.80242E+01
   2.93010E+01  2.41988E+01  2.87185E+01  2.43649E+01  1.87517E+01  2.50950E+01  1.66046E+01  2.14887E+01  2.19110E+01  2.70887E+01
   2.93141E+01  2.37276E+01  2.84566E+01  4.32235E+01  4.32601E+01  2.51916E+01  4.48716E+01  4.17522E+01  4.19851E+01  3.71346E+01
   3.50449E+01  4.33208E+01  5.17962E+01  5.04540E+01  4.18904E+01  5.79061E+01  5.84788E+01  6.07505E+01  6.78351E+01  5.31733E+01
   5.77712E+01  5.63462E+01  4.84880E+01  6.20865E+01  6.24192E+01  3.55477E+01  6.27972E+01  3.94220E+01  6.29291E+01  5.65922E+01
   6.39477E+01  5.37114E+01  5.39721E+01  5.72532E+01  5.70938E+01  5.10002E+01  4.74058E+01  4.54219E+01  3.30550E+01  4.33633E+01
   4.77351E+01  3.91474E+01  4.23560E+01  3.81880E+01  2.98398E+01  5.05958E+01  5.44215E+01  3.19358E+01  3.98689E+01  3.78645E+01
   5.38829E+01  3.68594E+01  3.65673E+01  3.94214E+01  4.72970E+01  2.67381E+01  3.88131E+01  3.20245E+01  3.51756E+01  4.14052E+01
   2.27326E+01  3.57430E+01  5.25523E+01  4.33694E+01  4.82592E+01  3.03334E+01  5.39926E+01  5.73179E+01  4.70777E+01  4.60014E+01
   5.09823E+01  6.50702E+01  3.59628E+01  5.26124E+01  5.45956E+01  5.27573E+01  5.26525E+01  5.69232E+01  5.67600E+01  5.39174E+01
   4.17398E+01  5.08683E+01  4.97078E+01  5.70487E+01  5.54303E+01  5.26312E+01  4.60635E+01  6.11686E+01  4.95009E+01  4.69316E+01
   6.10544E+01  4.54201E+01  5.52600E+01  4.45185E+01  4.89696E+01  4.59597E+01  3.29424E+01  4.34808E+01  2.40933E+01  3.62266E+01
   4.63532E+01  3.95146E+01  3.53474E+01  3.58950E+01  4.01790E+01  3.78278E+01  5.66518E+01  2.15875E+01  4.04786E+01  2.71866E+01
   3.91731E+01  9.10338E+00  4.11838E+01  3.97705E+01  3.52349E+01  2.10732E+01  3.11138E+01  2.80000E+01  3.47216E+01  3.68041E+01
   2.68804E+01  2.67254E+01  2.95321E+01  3.31280E+01  2.76046E+01  1.77273E+01  4.24473E+01  3.56568E+01  3.31649E+01  2.55606E+01
   3.30073E+01  2.09028E+01  3.40245E+01  4.04090E+01  3.03646E+01  3.01625E+01  1.54844E+01  3.86743E+01  3.50201E+01  3.32957E+01
   3.80384E+01  2.64421E+01  3.95970E+01  2.91712E+01  1.87529E+01  2.60525E+01  4.05062E+01  4.45385E+01  3.81233E+01  3.36814E+01
   2.97185E+01  3.73630E+01  2.81220E+01  2.18041E+01  3.67787E+01  3.70311E+01  3.16472E+01  3.70518E+01  3.58217E+01  2.71654E+01
   1.90491E+01  2.16190E+01  3.54361E+01  3.02998E+01  3.12464E+01  2.07087E+01  1.65206E+01  1.95874E+01
 NY points of the fit to the data follow
  -6.67856E+01 -6.72032E+01 -6.71175E+01 -6.66221E+01 -6.45825E+01 -5.84598E+01 -4.77229E+01 -3.41912E+01 -2.25827E+01 -1.81226E+01
  -2.05550E+01 -2.80294E+01 -3.73977E+01 -4.50306E+01 -5.16819E+01 -5.71018E+01 -5.97112E+01 -6.03837E+01 -6.02633E+01 -5.95686E+01
  -5.85053E+01 -5.73055E+01 -5.60279E+01 -5.48437E+01 -5.38408E+01 -5.26267E+01 -5.09624E+01 -4.86053E+01 -4.56464E+01 -4.29022E+01
  -4.05657E+01 -3.90347E+01 -3.86547E+01 -3.90784E+01 -4.08143E+01 -4.37036E+01 -4.66077E+01 -4.89548E+01 -5.03481E+01 -5.08404E+01
  -5.06778E+01 -4.96824E+01 -4.73676E+01 -4.29019E+01 -3.63437E+01 -2.97308E+01 -2.58397E+01 -2.58973E+01 -2.93134E+01 -3.44329E+01
  -3.91407E+01 -4.24402E+01 -4.44056E+01 -4.49386E+01 -4.39610E+01 -4.18259E+01 -3.89532E+01 -3.57813E+01 -3.30549E+01 -3.13741E+01
  -3.11389E+01 -3.22270E+01 -3.36738E+01 -3.47693E+01 -3.51306E+01 -3.46361E+01 -3.36764E+01 -3.24085E+01 -3.10713E+01 -2.98802E+01
  -2.86786E+01 -2.74163E+01 -2.58719E+01 -2.40689E+01 -2.26571E+01 -2.24113E+01 -2.35284E+01 -2.56154E+01 -2.77689E+01 -2.89408E+01
  -2.89769E+01 -2.80708E+01 -2.57461E+01 -2.20138E+01 -1.78818E+01 -1.44850E+01 -1.33249E+01 -1.44714E+01 -1.67054E+01 -1.92247E+01
  -2.11127E+01 -2.26663E+01 -2.44354E+01 -2.56917E+01 -2.58885E+01 -2.51429E+01 -2.33343E+01 -1.93849E+01 -9.48395E+00  9.98528E+00
   3.71508E+01  6.49836E+01  8.23080E+01  8.34674E+01  7.14262E+01  5.13557E+01  3.13550E+01  1.45894E+01  7.82264E-02 -9.57071E+00
  -1.37613E+01 -1.53123E+01 -1.60413E+01 -1.64900E+01 -1.67599E+01 -1.68967E+01 -1.69855E+01 -1.70269E+01 -1.69637E+01 -1.66712E+01
  -1.59166E+01 -1.35961E+01 -5.12676E+00  1.40419E+01  4.24196E+01  7.31535E+01  9.37194E+01  9.67453E+01  8.55185E+01  6.51272E+01
   4.39330E+01  2.62946E+01  1.04770E+01 -1.11921E+00 -6.70627E+00 -9.03083E+00 -9.97354E+00 -9.79886E+00 -8.97098E+00 -7.87483E+00
  -6.81815E+00 -6.08122E+00 -5.57958E+00 -5.24826E+00 -5.07751E+00 -5.05996E+00 -5.19301E+00 -5.35276E+00 -5.47747E+00 -5.55308E+00
  -5.56992E+00 -5.53019E+00 -5.38225E+00 -5.11229E+00 -4.76937E+00 -4.45293E+00 -4.38514E+00 -4.80284E+00 -5.69883E+00 -6.75515E+00
  -7.33065E+00 -6.95920E+00 -5.80769E+00 -4.32890E+00 -3.21909E+00 -2.82987E+00 -2.91131E+00 -3.33323E+00 -3.88896E+00 -4.39485E+00
  -4.89528E+00 -5.40839E+00 -6.08166E+00 -6.92061E+00 -7.59109E+00 -7.67378E+00 -7.02958E+00 -6.21406E+00 -5.68950E+00 -5.50904E+00
  -5.48058E+00 -5.11756E+00 -4.60307E+00 -4.38441E+00 -4.31262E+00 -3.90462E+00 -2.53835E+00 -1.64296E-01  2.46476E+00  4.72843E+00
   6.21192E+00  6.80936E+00  6.98886E+00  6.94850E+00  6.70240E+00  6.47276E+00  6.26501E+00  6.13561E+00  6.24524E+00  6.76584E+00
   7.94451E+00  9.72006E+00  1.17140E+01  1.32551E+01  1.38268E+01  1.31780E+01  1.13847E+01  9.03167E+00  6.45388E+00  4.21122E+00
   3.13306E+00  3.99251E+00  7.39490E+00  1.24846E+01  1.75320E+01  2.07005E+01  2.07324E+01  1.77381E+01  1.24381E+01  6.28296E+00
   9.89068E-01 -1.87863E+00 -1.03129E+00  3.08300E+00  8.58830E+00  1.38229E+01  1.76502E+01  1.97412E+01  2.03598E+01  1.97792E+01
   1.89015E+01  1.87222E+01  1.94170E+01  2.07840E+01  2.23886E+01  2.37276E+01  2.44017E+01  2.41498E+01  2.30237E+01  2.14591E+01
   2.02259E+01  1.98663E+01  2.06666E+01  2.25426E+01  2.49152E+01  2.71650E+01  2.86791E+01  2.91650E+01  2.88875E+01  2.83143E+01
   2.79178E+01  2.81896E+01  2.92385E+01  3.07405E+01  3.28969E+01  3.92525E+01  5.68575E+01  8.78043E+01  1.26115E+02  1.58897E+02
   1.71470E+02  1.62861E+02  1.39470E+02  1.09614E+02  8.36019E+01  6.14452E+01  4.33067E+01  3.33498E+01  2.94052E+01  2.73696E+01
   2.61440E+01  2.55900E+01  2.54957E+01  2.56270E+01  2.58102E+01  2.58721E+01  2.56902E+01  2.52862E+01  2.47199E+01  2.40673E+01
   2.34703E+01  2.30199E+01  2.27410E+01  2.26475E+01  2.27045E+01  2.28681E+01  2.31155E+01  2.34252E+01  2.37999E+01  2.42626E+01
   2.48321E+01  2.55274E+01  2.63732E+01  2.73968E+01  2.86099E+01  3.00105E+01  3.15972E+01  3.33517E+01  3.52414E+01  3.72306E+01
   3.92730E+01  4.13130E+01  4.32890E+01  4.51356E+01  4.67884E+01  4.81884E+01  4.92860E+01  5.00429E+01  5.04333E+01  5.04468E+01
   5.00901E+01  4.93857E+01  4.83707E+01  4.70945E+01  4.56144E+01  4.39931E+01  4.22945E+01  4.05810E+01  3.89097E+01  3.73298E+01
   3.58813E+01  3.45944E+01  3.34899E+01  3.25801E+01  3.18692E+01  3.13549E+01  3.10299E+01  3.08841E+01  3.09063E+01  3.10851E+01
   3.14096E+01  3.18697E+01  3.24569E+01  3.31646E+01  3.39879E+01  3.49232E+01  3.59675E+01  3.71179E+01  3.83716E+01  3.97265E+01
   4.11827E+01  4.27475E+01  4.44490E+01  4.62833E+01  4.81329E+01  4.98220E+01  5.11835E+01  5.21733E+01  5.29306E+01  5.35768E+01
   5.42502E+01  5.50907E+01  5.60913E+01  5.72398E+01  5.83805E+01  5.92126E+01  5.95956E+01  5.95097E+01  5.90400E+01  5.83092E+01
   5.73442E+01  5.62065E+01  5.49928E+01  5.37305E+01  5.24200E+01  5.10760E+01  4.97189E+01  4.83703E+01  4.70503E+01  4.57772E+01
   4.45660E+01  4.34290E+01  4.23759E+01  4.14139E+01  4.05478E+01  3.97805E+01  3.91129E+01  3.85450E+01  3.80760E+01  3.77048E+01
   3.74303E+01  3.72512E+01  3.71665E+01  3.71755E+01  3.72784E+01  3.74757E+01  3.77682E+01  3.81565E+01  3.86412E+01  3.92225E+01
   3.98997E+01  4.06711E+01  4.15329E+01  4.24792E+01  4.35017E+01  4.45895E+01  4.57289E+01  4.69032E+01  4.80927E+01  4.92754E+01
   5.04275E+01  5.15241E+01  5.25401E+01  5.34508E+01  5.42330E+01  5.48664E+01  5.53339E+01  5.56232E+01  5.57266E+01  5.56415E+01
   5.53705E+01  5.49212E+01  5.43063E+01  5.35424E+01  5.26490E+01  5.16481E+01  5.05628E+01  4.94168E+01  4.82333E+01  4.70342E+01
   4.58394E+01  4.46663E+01  4.35295E+01  4.24413E+01  4.14109E+01  4.04447E+01  3.95467E+01  3.87185E+01  3.79601E+01  3.72701E+01
   3.66458E+01  3.60836E+01  3.55792E+01  3.51281E+01  3.47259E+01  3.43679E+01  3.40500E+01  3.37679E+01  3.35176E+01  3.32955E+01
   3.30985E+01  3.29240E+01  3.27692E+01  3.26319E+01  3.25099E+01  3.24015E+01  3.23053E+01  3.22201E+01  3.21446E+01  3.20775E+01
   3.20181E+01  3.19656E+01  3.19194E+01  3.18789E+01  3.18434E+01  3.18125E+01  3.17857E+01  3.17627E+01  3.17433E+01  3.17272E+01
   3.17139E+01  3.17031E+01  3.16948E+01  3.16888E+01  3.16850E+01  3.16832E+01  3.16831E+01  3.16845E+01  3.16875E+01  3.16921E+01
   3.16980E+01  3.17052E+01  3.17135E+01  3.17228E+01  3.17333E+01  3.17448E+01  3.17573E+01  3.17705E+01  3.17845E+01  3.17993E+01
   3.18149E+01  3.18313E+01  3.18484E+01  3.18659E+01  3.18841E+01  3.19028E+01  3.19223E+01  3.19424E+01  3.19629E+01  3.19838E+01
   3.20052E+01  3.20273E+01  3.20499E+01  3.20729E+01  3.20964E+01  3.21203E+01  3.21447E+01  3.21697E+01
 NY background values follow
    -7.046E+01   -7.000E+01   -6.954E+01   -6.908E+01   -6.862E+01   -6.816E+01   -6.770E+01   -6.724E+01   -6.678E+01   -6.632E+01
    -6.586E+01   -6.541E+01   -6.495E+01   -6.449E+01   -6.403E+01   -6.357E+01   -6.311E+01   -6.265E+01   -6.219E+01   -6.173E+01
    -6.128E+01   -6.082E+01   -6.036E+01   -5.990E+01   -5.944E+01   -5.899E+01   -5.853E+01   -5.807E+01   -5.762E+01   -5.716E+01
    -5.671E+01   -5.625E+01   -5.580E+01   -5.534E+01   -5.489E+01   -5.444E+01   -5.399E+01   -5.353E+01   -5.308E+01   -5.263E+01
    -5.218E+01   -5.173E+01   -5.128E+01   -5.083E+01   -5.038E+01   -4.993E+01   -4.949E+01   -4.904E+01   -4.860E+01   -4.815E+01
    -4.771E+01   -4.726E+01   -4.682E+01   -4.638E+01   -4.594E+01   -4.550E+01   -4.506E+01   -4.462E+01   -4.418E+01   -4.374E+01
    -4.330E+01   -4.287E+01   -4.243E+01   -4.200E+01   -4.157E+01   -4.114E+01   -4.071E+01   -4.028E+01   -3.985E+01   -3.942E+01
    -3.899E+01   -3.857E+01   -3.814E+01   -3.772E+01   -3.730E+01   -3.688E+01   -3.646E+01   -3.604E+01   -3.562E+01   -3.521E+01
    -3.479E+01   -3.438E+01   -3.396E+01   -3.355E+01   -3.314E+01   -3.274E+01   -3.233E+01   -3.192E+01   -3.152E+01   -3.112E+01
    -3.072E+01   -3.032E+01   -2.992E+01   -2.952E+01   -2.912E+01   -2.873E+01   -2.834E+01   -2.795E+01   -2.756E+01   -2.717E+01
    -2.678E+01   -2.640E+01   -2.601E+01   -2.563E+01   -2.525E+01   -2.487E+01   -2.449E+01   -2.412E+01   -2.374E+01   -2.337E+01
    -2.300E+01   -2.263E+01   -2.226E+01   -2.190E+01   -2.153E+01   -2.117E+01   -2.080E+01   -2.044E+01   -2.008E+01   -1.973E+01
    -1.937E+01   -1.902E+01   -1.867E+01   -1.831E+01   -1.796E+01   -1.762E+01   -1.727E+01   -1.693E+01   -1.658E+01   -1.624E+01
    -1.590E+01   -1.556E+01   -1.523E+01   -1.489E+01   -1.456E+01   -1.423E+01   -1.390E+01   -1.357E+01   -1.324E+01   -1.292E+01
    -1.260E+01   -1.227E+01   -1.195E+01   -1.164E+01   -1.132E+01   -1.100E+01   -1.069E+01   -1.038E+01   -1.007E+01   -9.760E+00
    -9.454E+00   -9.149E+00   -8.845E+00   -8.544E+00   -8.244E+00   -7.945E+00   -7.649E+00   -7.354E+00   -7.060E+00   -6.769E+00
    -6.478E+00   -6.190E+00   -5.903E+00   -5.618E+00   -5.335E+00   -5.053E+00   -4.773E+00   -4.495E+00   -4.218E+00   -3.943E+00
    -3.670E+00   -3.399E+00   -3.129E+00   -2.860E+00   -2.594E+00   -2.329E+00   -2.066E+00   -1.804E+00   -1.544E+00   -1.286E+00
    -1.029E+00   -7.747E-01   -5.215E-01   -2.700E-01   -2.024E-02    2.279E-01    4.744E-01    7.193E-01    9.625E-01    1.204E+00
     1.444E+00    1.682E+00    1.919E+00    2.154E+00    2.388E+00    2.620E+00    2.850E+00    3.079E+00    3.306E+00    3.532E+00
     3.756E+00    3.979E+00    4.200E+00    4.420E+00    4.638E+00    4.855E+00    5.070E+00    5.283E+00    5.496E+00    5.706E+00
     5.915E+00    6.123E+00    6.330E+00    6.534E+00    6.738E+00    6.940E+00    7.140E+00    7.340E+00    7.537E+00    7.734E+00
     7.929E+00    8.123E+00    8.315E+00    8.506E+00    8.695E+00    8.884E+00    9.070E+00    9.256E+00    9.440E+00    9.623E+00
     9.805E+00    9.985E+00    1.016E+01    1.034E+01    1.052E+01    1.069E+01    1.087E+01    1.104E+01    1.121E+01    1.138E+01
     1.155E+01    1.172E+01    1.188E+01    1.205E+01    1.221E+01    1.238E+01    1.254E+01    1.270E+01    1.286E+01    1.302E+01
     1.317E+01    1.333E+01    1.348E+01    1.364E+01    1.379E+01    1.394E+01    1.409E+01    1.424E+01    1.439E+01    1.454E+01
     1.468E+01    1.483E+01    1.497E+01    1.511E+01    1.526E+01    1.540E+01    1.554E+01    1.567E+01    1.581E+01    1.595E+01
     1.608E+01    1.622E+01    1.635E+01    1.648E+01    1.662E+01    1.675E+01    1.688E+01    1.700E+01    1.713E+01    1.726E+01
     1.738E+01    1.751E+01    1.763E+01    1.776E+01    1.788E+01    1.800E+01    1.812E+01    1.824E+01    1.836E+01    1.848E+01
     1.859E+01    1.871E+01    1.883E+01    1.894E+01    1.905E+01    1.917E+01    1.928E+01    1.939E+01    1.950E+01    1.961E+01
     1.972E+01    1.983E+01    1.994E+01    2.004E+01    2.015E+01    2.025E+01    2.036E+01    2.046E+01    2.057E+01    2.067E+01
     2.077E+01    2.087E+01    2.097E+01    2.107E+01    2.117E+01    2.127E+01    2.137E+01    2.146E+01    2.156E+01    2.166E+01
     2.175E+01    2.184E+01    2.194E+01    2.203E+01    2.212E+01    2.222E+01    2.231E+01    2.240E+01    2.249E+01    2.258E+01
     2.267E+01    2.276E+01    2.285E+01    2.293E+01    2.302E+01    2.311E+01    2.319E+01    2.328E+01    2.336E+01    2.344E+01
     2.353E+01    2.361E+01    2.369E+01    2.378E+01    2.386E+01    2.394E+01    2.402E+01    2.410E+01    2.418E+01    2.425E+01
     2.433E+01    2.441E+01    2.449E+01    2.456E+01    2.464E+01    2.472E+01    2.479E+01    2.487E+01    2.494E+01    2.501E+01
     2.509E+01    2.516E+01    2.523E+01    2.530E+01    2.537E+01    2.544E+01    2.551E+01    2.558E+01    2.565E+01    2.572E+01
     2.579E+01    2.586E+01    2.593E+01    2.599E+01    2.606E+01    2.613E+01    2.619E+01    2.626E+01    2.632E+01    2.639E+01
     2.645E+01    2.651E+01    2.658E+01    2.664E+01    2.670E+01    2.676E+01    2.682E+01    2.689E+01    2.695E+01    2.701E+01
     2.707E+01    2.712E+01    2.718E+01    2.724E+01    2.730E+01    2.736E+01    2.741E+01    2.747E+01    2.753E+01    2.758E+01
     2.764E+01    2.769E+01    2.775E+01    2.780E+01    2.786E+01    2.791E+01    2.796E+01    2.802E+01    2.807E+01    2.812E+01
     2.817E+01    2.822E+01    2.827E+01    2.833E+01    2.838E+01    2.843E+01    2.847E+01    2.852E+01    2.857E+01    2.862E+01
     2.867E+01    2.872E+01    2.876E+01    2.881E+01    2.886E+01    2.891E+01    2.895E+01    2.900E+01    2.904E+01    2.909E+01
     2.913E+01    2.918E+01    2.922E+01    2.927E+01    2.931E+01    2.935E+01    2.940E+01    2.944E+01    2.948E+01    2.953E+01
     2.957E+01    2.961E+01    2.965E+01    2.969E+01    2.974E+01    2.978E+01    2.982E+01    2.986E+01    2.990E+01    2.994E+01
     2.998E+01    3.002E+01    3.006E+01    3.010E+01    3.014E+01    3.018E+01    3.021E+01    3.025E+01    3.029E+01    3.033E+01
     3.037E+01    3.041E+01    3.044E+01    3.048E+01    3.052E+01    3.056E+01    3.059E+01    3.063E+01    3.067E+01    3.070E+01
     3.074E+01    3.078E+01    3.081E+01    3.085E+01    3.089E+01    3.092E+01    3.096E+01    3.099E+01    3.103E+01    3.107E+01
     3.110E+01    3.114E+01    3.117E+01    3.121E+01    3.124E+01    3.128E+01    3.131E+01    3.135E+01    3.139E+01    3.142E+01
     3.146E+01    3.149E+01    3.153E+01    3.156E+01    3.160E+01    3.163E+01    3.167E+01    3.170E+01
 Asp      Conc. = 4.41E+02
