 LCModel (Version 6.3-1L) Copyright: S.W. Provencher.          Ref.: Magn. Reson. Med. 30:672-679 (1993).                
 Slice#3 Row#8 Col#4  PD_24_press_2_raw_act
 36 lines in following concentration table = NCONC+1
    Conc.  %SD /Cr+PCr  Metabolite                                         
  149.076 106% 4.3E-02 Ala                                                 
    0.000 999%   0.000 Asp                                                 
 1.72E+03  19%   0.490 Cr                                                  
 1.79E+03  19%   0.510 PCr                                                 
    0.000 999%   0.000 GABA                                                
    0.000 999%   0.000 Glc                                                 
  845.992  38%   0.241 Gln                                                 
 2.84E+03  13%   0.811 Glu                                                 
 1.21E+03   3%   0.346 GPC                                                 
    0.000 999%   0.000 PCh                                                 
  848.751  13%   0.242 GSH                                                 
 2.15E+03  17%   0.614 Ins                                                 
  382.551  47%   0.109 Lac                                                 
 4.28E+03   4%   1.220 NAA                                                 
  649.808  26%   0.185 NAAG                                                
  182.049  23% 5.2E-02 Scyllo                                              
    0.000 999%   0.000 Tau                                                 
    0.000 999%   0.000 -CrCH2                                              
 1.21E+03   3%   0.346 GPC+PCh                                             
 4.93E+03   3%   1.406 NAA+NAAG                                            
 3.50E+03   2%   1.000 Cr+PCr                                              
 3.69E+03  14%   1.053 Glu+Gln                                             
    0.000 999%   0.000 Lip13a                                              
  452.600  59%   0.129 Lip13b                                              
    0.000 999%   0.000 Lip09                                               
 1.64E+03  18%   0.469 MM09                                                
  131.585 127% 3.8E-02 Lip20                                               
 4.18E+03  13%   1.191 MM20                                                
  490.982  37%   0.140 MM12                                                
  188.166 218% 5.4E-02 MM14                                                
 2.39E+03  15%   0.681 MM17                                                
  452.600  59%   0.129 Lip13a+Lip13b                                       
 1.13E+03  46%   0.323 MM14+Lip13a+Lip13b+MM12                             
 1.64E+03  18%   0.469 MM09+Lip09                                          
 4.31E+03  13%   1.229 MM20+Lip20                                          
   6 lines in following misc. output table
  FWHM = 0.046 ppm    S/N =  15                                            
  Data shift = 0.023 ppm                                                   
  Ph:  -3 deg      -3.4 deg/ppm                                            
  alphaB,S = 1.1E+00,   1.6E+02                                            
   14 spline knots.   Ns = 6(1)                                            
  ( 9) 4 infls.   ( 1) 1 extrs.                                            
  498 points on ppm-axis = NY
      4.000000     3.992357     3.984714     3.977070     3.969427     3.961784     3.954141     3.946497     3.938854     3.931211
      3.923568     3.915925     3.908281     3.900638     3.892995     3.885352     3.877708     3.870065     3.862422     3.854779
      3.847136     3.839492     3.831849     3.824206     3.816563     3.808919     3.801276     3.793633     3.785990     3.778347
      3.770703     3.763060     3.755417     3.747774     3.740130     3.732487     3.724844     3.717201     3.709558     3.701914
      3.694271     3.686628     3.678985     3.671341     3.663698     3.656055     3.648412     3.640769     3.633125     3.625482
      3.617839     3.610196     3.602552     3.594909     3.587266     3.579623     3.571980     3.564336     3.556693     3.549050
      3.541407     3.533763     3.526120     3.518477     3.510834     3.503191     3.495547     3.487904     3.480261     3.472618
      3.464974     3.457331     3.449688     3.442045     3.434402     3.426758     3.419115     3.411472     3.403829     3.396185
      3.388542     3.380899     3.373256     3.365613     3.357969     3.350326     3.342683     3.335040     3.327396     3.319753
      3.312110     3.304467     3.296824     3.289180     3.281537     3.273894     3.266251     3.258607     3.250964     3.243321
      3.235678     3.228034     3.220391     3.212748     3.205105     3.197462     3.189818     3.182175     3.174532     3.166889
      3.159245     3.151602     3.143959     3.136316     3.128673     3.121029     3.113386     3.105743     3.098100     3.090456
      3.082813     3.075170     3.067527     3.059884     3.052240     3.044597     3.036954     3.029311     3.021667     3.014024
      3.006381     2.998738     2.991095     2.983451     2.975808     2.968165     2.960522     2.952878     2.945235     2.937592
      2.929949     2.922306     2.914662     2.907019     2.899376     2.891733     2.884089     2.876446     2.868803     2.861160
      2.853517     2.845873     2.838230     2.830587     2.822944     2.815300     2.807657     2.800014     2.792371     2.784728
      2.777084     2.769441     2.761798     2.754155     2.746511     2.738868     2.731225     2.723582     2.715939     2.708295
      2.700652     2.693009     2.685366     2.677722     2.670079     2.662436     2.654793     2.647150     2.639506     2.631863
      2.624220     2.616577     2.608933     2.601290     2.593647     2.586004     2.578361     2.570717     2.563074     2.555431
      2.547788     2.540144     2.532501     2.524858     2.517215     2.509572     2.501928     2.494285     2.486642     2.478999
      2.471355     2.463712     2.456069     2.448426     2.440783     2.433139     2.425496     2.417853     2.410210     2.402566
      2.394923     2.387280     2.379637     2.371994     2.364350     2.356707     2.349064     2.341421     2.333777     2.326134
      2.318491     2.310848     2.303205     2.295561     2.287918     2.280275     2.272632     2.264988     2.257345     2.249702
      2.242059     2.234416     2.226772     2.219129     2.211486     2.203843     2.196199     2.188556     2.180913     2.173270
      2.165627     2.157983     2.150340     2.142697     2.135054     2.127410     2.119767     2.112124     2.104481     2.096838
      2.089194     2.081551     2.073908     2.066265     2.058621     2.050978     2.043335     2.035692     2.028049     2.020405
      2.012762     2.005119     1.997476     1.989833     1.982190     1.974546     1.966903     1.959260     1.951617     1.943974
      1.936331     1.928688     1.921045     1.913402     1.905759     1.898115     1.890472     1.882829     1.875186     1.867543
      1.859900     1.852257     1.844614     1.836971     1.829327     1.821684     1.814041     1.806398     1.798755     1.791112
      1.783469     1.775826     1.768183     1.760540     1.752896     1.745253     1.737610     1.729967     1.722324     1.714681
      1.707038     1.699395     1.691752     1.684108     1.676465     1.668822     1.661179     1.653536     1.645893     1.638250
      1.630607     1.622964     1.615321     1.607677     1.600034     1.592391     1.584748     1.577105     1.569462     1.561819
      1.554176     1.546533     1.538890     1.531246     1.523603     1.515960     1.508317     1.500674     1.493031     1.485388
      1.477745     1.470102     1.462458     1.454815     1.447172     1.439529     1.431886     1.424243     1.416600     1.408957
      1.401314     1.393671     1.386027     1.378384     1.370741     1.363098     1.355455     1.347812     1.340169     1.332526
      1.324883     1.317240     1.309596     1.301953     1.294310     1.286667     1.279024     1.271381     1.263738     1.256095
      1.248452     1.240808     1.233165     1.225522     1.217879     1.210236     1.202593     1.194950     1.187307     1.179664
      1.172021     1.164377     1.156734     1.149091     1.141448     1.133805     1.126162     1.118519     1.110876     1.103233
      1.095590     1.087946     1.080303     1.072660     1.065017     1.057374     1.049731     1.042088     1.034445     1.026802
      1.019158     1.011515     1.003872     0.996229     0.988586     0.980943     0.973300     0.965657     0.958014     0.950371
      0.942727     0.935084     0.927441     0.919798     0.912155     0.904512     0.896869     0.889226     0.881583     0.873940
      0.866296     0.858653     0.851010     0.843367     0.835724     0.828081     0.820438     0.812795     0.805152     0.797508
      0.789865     0.782222     0.774579     0.766936     0.759293     0.751650     0.744007     0.736364     0.728721     0.721077
      0.713434     0.705791     0.698148     0.690505     0.682862     0.675219     0.667576     0.659933     0.652290     0.644646
      0.637003     0.629360     0.621717     0.614074     0.606431     0.598788     0.591145     0.583502     0.575858     0.568215
      0.560572     0.552929     0.545286     0.537643     0.530000     0.522357     0.514714     0.507071     0.499427     0.491784
      0.484141     0.476498     0.468855     0.461212     0.453569     0.445925     0.438282     0.430639     0.422996     0.415353
      0.407710     0.400067     0.392424     0.384780     0.377137     0.369494     0.361851     0.354208     0.346565     0.338922
      0.331278     0.323635     0.315992     0.308349     0.300706     0.293063     0.285420     0.277777     0.270133     0.262490
      0.254847     0.247204     0.239561     0.231918     0.224275     0.216631     0.208988     0.201345
 NY phased data points follow
   3.08292E+01  3.20602E+01  3.28074E+01  4.21574E+01  5.14080E+01  5.64868E+01  7.94916E+01  8.89349E+01  1.06323E+02  1.19187E+02
   1.22449E+02  1.25394E+02  1.14787E+02  1.00656E+02  9.05763E+01  8.50348E+01  6.20291E+01  5.09868E+01  4.90561E+01  4.71433E+01
   3.80690E+01  3.85933E+01  3.87625E+01  3.55660E+01  3.49582E+01  3.76194E+01  5.04073E+01  4.32411E+01  5.06742E+01  4.84913E+01
   5.80415E+01  5.57332E+01  5.29424E+01  5.42512E+01  3.90742E+01  4.18665E+01  3.89322E+01  4.56358E+01  4.10502E+01  4.48494E+01
   3.71828E+01  3.65886E+01  3.39205E+01  4.58697E+01  3.65102E+01  4.36012E+01  4.82083E+01  6.13674E+01  5.32571E+01  4.76373E+01
   4.11832E+01  3.71297E+01  2.86363E+01  2.77648E+01  3.65796E+01  3.18923E+01  3.38562E+01  3.09021E+01  3.87312E+01  3.48885E+01
   2.81162E+01  3.08496E+01  2.41204E+01  1.09061E+01  1.85514E+01  1.00516E+01  7.57357E+00  1.12690E+01  1.10839E+01  1.40720E+01
   1.54990E+01  1.35983E+01  1.58521E+01  1.63839E+01  1.94140E+01  1.28399E+01  2.01041E+01  1.20562E+01  1.26559E+01  1.43669E+01
   9.14933E+00  1.66468E+01  1.79090E+01  1.89969E+01  2.46264E+01  2.00194E+01  2.03210E+01  1.99863E+01  1.44043E+01  1.94007E+01
   1.76159E+01  1.53724E+01  2.05643E+01  1.50343E+01  1.05975E+01  1.33380E+01  2.05094E+01  1.83300E+01  3.68322E+01  5.31828E+01
   7.39335E+01  1.01604E+02  1.22960E+02  1.32836E+02  1.27051E+02  9.39092E+01  7.23948E+01  6.13510E+01  4.69729E+01  4.14522E+01
   2.69444E+01  2.37943E+01  2.06486E+01  2.13442E+01  1.05109E+01  1.44510E+01  6.21471E+00  1.08393E+01  1.12380E+01  1.26872E+01
   6.75508E+00  1.84995E+01  2.88137E+01  3.80033E+01  6.60728E+01  9.69516E+01  1.29225E+02  1.30115E+02  1.22958E+02  9.79434E+01
   7.17742E+01  6.20296E+01  5.64437E+01  3.60155E+01  2.61799E+01  2.04863E+01  9.91181E+00  8.85297E+00  1.49459E+01  8.13936E+00
   5.10346E+00  8.65363E+00  5.44355E+00  6.80326E+00  4.64694E+00  1.08188E+00  4.18262E+00 -1.49655E+00 -1.49078E+00 -6.95867E-01
   2.29154E+00  3.02306E+00  3.51842E+00 -1.09863E+00 -5.34539E+00  8.35425E+00  1.58138E+00  5.14932E-01  1.34432E+00  1.68751E+00
  -4.13766E+00 -4.97199E+00 -6.71445E+00 -5.13563E+00  7.50643E+00  3.25839E+00  1.74381E+00 -2.44191E+00  2.05988E-01 -3.47394E+00
   9.40957E-01 -3.43565E+00 -7.70009E+00 -1.40277E+01 -1.74975E+01 -2.34322E+01 -2.29259E+01 -1.16384E+01 -1.84407E+01 -1.46974E+01
  -2.01114E+01 -1.91523E+01 -2.33911E+01 -2.11258E+01 -1.99053E+01 -1.90925E+01 -1.80493E+01 -5.59913E+00 -5.62761E+00  1.10063E+00
   5.35160E+00  6.80243E+00  1.55721E+01  1.44562E+01  1.26375E+01  1.16005E+01  1.09224E+01  3.82677E+00  2.40486E+00 -2.00363E+00
   2.68072E-03  8.46814E+00  3.46317E+00  1.15625E+01 -1.95971E+00  2.19153E-01  6.05217E+00 -6.63642E+00 -1.54090E+00 -1.10656E+01
  -1.10393E+01 -5.47924E+00 -5.91227E-01  6.87233E+00  1.59212E+01  1.46017E+01  1.65275E+01  2.50690E+01  1.67576E+01  5.41341E+00
  -6.86096E+00 -7.67058E+00 -5.09908E+00 -1.67283E+00  1.45541E-01 -3.36627E+00  8.76462E+00  6.74823E+00  8.68307E+00  1.17220E+01
   1.01089E+01  1.60482E+01  1.19296E+01  1.80503E+01  1.18250E+01  1.22272E+01  1.53992E+01  1.77909E+01  1.67942E+01  9.24643E+00
   1.26973E+01  8.92027E+00  1.03523E+00  8.33483E+00  1.14473E+01  1.75446E+01  1.45927E+01  1.81069E+01  2.31148E+01  2.11349E+01
   2.37107E+01  2.90897E+01  3.32288E+01  4.05541E+01  4.90289E+01  6.22633E+01  8.26200E+01  1.12545E+02  1.40672E+02  1.73943E+02
   1.78264E+02  1.63085E+02  1.31442E+02  9.59783E+01  8.07025E+01  6.28935E+01  4.53738E+01  2.26163E+01  1.82525E+01  2.23269E+01
   1.56225E+01  2.05976E+01  1.30237E+01  1.37844E+01  1.51374E+01  1.18479E+01  7.91752E+00  1.22503E+01  1.21632E+01  1.54059E+01
   6.55681E+00  8.50418E+00  3.47284E+00  2.62476E+00  5.74270E+00  5.81858E+00  4.37264E+00  1.19575E+01  8.80369E+00  1.63815E+01
   6.43920E+00  1.33533E+01  1.02127E+01  1.41620E+01  1.12823E+01  7.20702E+00  1.39590E+01  1.18805E+01  1.63945E+01  1.87833E+01
   9.86884E+00  1.88387E+01  2.04590E+01  1.89166E+01  1.61544E+01  2.00972E+01  1.94972E+01  2.23910E+01  2.52422E+01  2.20413E+01
   1.82717E+01  1.66586E+01  7.93384E+00  1.48942E+01  1.44827E+01  1.51120E+01  3.57564E+00  1.01034E+01  1.14065E+01  1.05791E+01
   4.06884E+00  1.05922E+01  7.03410E+00  8.40905E+00  6.88858E-01  3.93824E-02  8.51129E-02 -4.03491E+00 -1.71189E+00 -6.37530E+00
   3.80550E-01 -3.44941E-01 -3.24419E+00 -2.62327E+00  5.67000E+00  8.96126E-01 -3.65644E+00 -1.86658E+00 -1.41591E+00  1.71768E-01
   6.47871E+00  1.24644E+01 -3.74882E+00  3.06127E+00  4.17306E+00  1.97401E+00  5.53504E+00  1.78334E+00 -4.52762E+00 -2.29708E+00
  -1.89371E+00 -5.49267E+00 -9.42613E-01  1.18964E+01  7.78891E+00  5.59667E+00  3.45480E+00  6.74457E+00  9.47185E+00  7.11723E+00
   9.24972E+00  5.83362E+00  3.51272E+00  7.12762E+00  2.92847E+00  2.32462E+00  4.30311E+00  1.37114E+00  1.44155E+00  1.43979E+00
   3.89071E+00  6.31282E+00  1.50510E+00 -2.33181E+00  8.64896E-01  2.96707E+00 -4.97863E+00 -3.17877E+00 -5.40085E+00 -5.57498E+00
   2.56467E-01  1.10007E+00 -7.95823E-01  1.63512E+00 -5.17399E+00 -2.27272E-01  3.29655E-01 -2.91651E+00 -7.69460E+00 -1.01283E-02
  -1.72487E+00  3.89668E+00  1.06569E+01  1.22877E+00 -1.51592E+00  1.24397E+01  3.87655E+00  5.47501E+00 -1.27569E+00  7.69184E+00
   1.30947E+00  1.44045E+00  9.29176E+00  7.29153E+00  1.08685E+01  8.48533E+00  6.83869E+00  6.53916E+00  1.50001E+01  3.19476E+00
   4.38793E+00  5.84566E+00 -1.80642E+00  1.20801E+00  5.10617E+00 -1.02273E-01 -5.29404E+00  2.55221E+00 -8.37083E-01  7.48978E-01
   3.53312E+00 -1.69293E+00 -9.91179E-01 -4.31094E+00 -5.06697E+00 -5.62103E+00 -2.07443E+00 -3.75444E+00 -6.72990E+00  3.44042E+00
  -7.29455E+00 -2.48170E+00 -1.71239E+00 -6.30044E+00  1.81484E+00 -6.03128E-01 -3.36486E+00 -1.45924E+00 -8.84577E+00 -1.25071E+01
  -5.65418E+00 -1.37460E+01 -9.77073E+00 -4.43897E+00 -7.22807E+00 -1.56840E+00 -1.93357E+00 -2.60860E+00 -3.71292E+00 -5.56931E+00
  -5.81054E+00 -5.28484E+00  3.71014E+00 -4.86463E+00 -4.31399E+00 -6.14761E+00 -6.78459E+00 -7.29782E+00 -7.26936E+00 -4.62743E+00
  -4.88998E+00 -9.15630E+00 -2.69606E+00  1.93285E+00 -2.21556E+00 -3.86347E+00 -4.40339E+00 -7.85887E+00  2.77214E+00  1.96091E+00
  -6.60682E-01  2.33986E+00  2.47453E+00 -3.15117E+00 -2.59271E+00 -4.64789E+00 -1.42419E+00  9.86392E-01 -6.25738E+00  3.72941E+00
   6.76453E-01 -1.45805E+00 -4.99407E+00 -4.04335E+00 -5.28320E+00 -2.60717E+00 -6.56811E+00  2.92835E+00 -3.09513E+00 -4.46366E+00
  -8.44016E+00 -4.89633E+00 -5.14185E+00 -4.22427E+00  7.64911E-01 -5.34641E+00 -2.51829E+00 -6.12359E+00
 NY points of the fit to the data follow
   4.10027E+01  4.04489E+01  4.06227E+01  4.22467E+01  4.69779E+01  5.55882E+01  6.86937E+01  8.50012E+01  1.01669E+02  1.14664E+02
   1.20280E+02  1.17197E+02  1.07435E+02  9.49297E+01  8.29313E+01  7.25359E+01  6.32459E+01  5.50551E+01  4.87956E+01  4.45479E+01
   4.23844E+01  4.09445E+01  3.94913E+01  3.78688E+01  3.68714E+01  3.72252E+01  3.90812E+01  4.25242E+01  4.71909E+01  5.19418E+01
   5.52001E+01  5.60092E+01  5.45561E+01  5.17177E+01  4.82260E+01  4.44000E+01  4.02558E+01  3.63528E+01  3.39012E+01  3.28616E+01
   3.26495E+01  3.34535E+01  3.54367E+01  3.83536E+01  4.17300E+01  4.50996E+01  4.76404E+01  4.81895E+01  4.62500E+01  4.25032E+01
   3.82842E+01  3.47046E+01  3.18724E+01  2.94225E+01  2.75233E+01  2.66749E+01  2.69405E+01  2.77713E+01  2.86344E+01  2.90872E+01
   2.87098E+01  2.73969E+01  2.54651E+01  2.35086E+01  2.20099E+01  2.10977E+01  2.07176E+01  2.07778E+01  2.11569E+01  2.16672E+01
   2.21617E+01  2.24108E+01  2.22626E+01  2.17067E+01  2.08875E+01  2.00469E+01  1.93198E+01  1.86925E+01  1.81054E+01  1.75985E+01
   1.75214E+01  1.81314E+01  1.92387E+01  2.05997E+01  2.18422E+01  2.23451E+01  2.15643E+01  1.95628E+01  1.71033E+01  1.51353E+01
   1.41327E+01  1.38219E+01  1.36166E+01  1.32772E+01  1.30832E+01  1.33091E+01  1.43945E+01  1.97294E+01  3.25286E+01  5.25028E+01
   7.81723E+01  1.04959E+02  1.24937E+02  1.30779E+02  1.21027E+02  1.01341E+02  8.03327E+01  6.31408E+01  4.91030E+01  3.56356E+01
   2.29102E+01  1.48133E+01  1.20004E+01  1.08804E+01  1.02389E+01  9.79271E+00  9.45893E+00  9.21996E+00  9.12700E+00  9.36060E+00
   1.05762E+01  1.58617E+01  2.87819E+01  4.88577E+01  7.47252E+01  1.02368E+02  1.24140E+02  1.32270E+02  1.24436E+02  1.05655E+02
   8.47336E+01  6.74315E+01  5.31215E+01  3.86333E+01  2.36987E+01  1.27317E+01  8.29040E+00  6.89870E+00  6.98781E+00  7.76853E+00
   8.60645E+00  9.16626E+00  9.36978E+00  9.16071E+00  8.63008E+00  7.96848E+00  7.23033E+00  6.42389E+00  5.58919E+00  4.72854E+00
   3.96083E+00  3.28470E+00  2.73893E+00  2.40251E+00  2.27479E+00  2.15268E+00  1.82437E+00  1.16334E+00  1.55696E-01 -8.86968E-01
  -1.56586E+00 -1.62582E+00 -1.13596E+00 -5.95606E-01 -6.24600E-01 -1.43910E+00 -2.70215E+00 -3.84559E+00 -4.58169E+00 -5.15301E+00
  -5.90498E+00 -6.97841E+00 -8.17125E+00 -9.18374E+00 -9.86446E+00 -1.01165E+01 -9.86509E+00 -9.33640E+00 -8.98179E+00 -9.05685E+00
  -9.36984E+00 -9.53509E+00 -9.33756E+00 -8.92464E+00 -8.56328E+00 -7.94514E+00 -6.27921E+00 -3.37169E+00  1.73437E-01  3.29899E+00
   5.22606E+00  5.87194E+00  5.40803E+00  4.23319E+00  2.78223E+00  1.32706E+00  2.32940E-01 -6.55145E-02  7.35479E-01  2.60261E+00
   5.12453E+00  7.64801E+00  9.49189E+00  1.02171E+01  9.46692E+00  7.22190E+00  3.68883E+00 -4.07034E-01 -4.03560E+00 -6.35271E+00
  -6.84582E+00 -5.07849E+00 -1.21555E+00  4.09637E+00  9.78495E+00  1.42591E+01  1.57332E+01  1.33288E+01  7.77722E+00  1.09690E+00
  -4.96185E+00 -9.46776E+00 -1.14844E+01 -1.03719E+01 -6.41797E+00 -9.35131E-01  3.89344E+00  7.13918E+00  9.03121E+00  9.99306E+00
   1.02169E+01  9.97000E+00  9.97387E+00  1.08103E+01  1.23344E+01  1.39521E+01  1.50779E+01  1.52180E+01  1.41017E+01  1.19281E+01
   9.43328E+00  7.62994E+00  7.20351E+00  8.24158E+00  1.03541E+01  1.29075E+01  1.51879E+01  1.67452E+01  1.77385E+01  1.88599E+01
   2.11024E+01  2.47716E+01  2.99385E+01  3.67771E+01  4.77396E+01  6.54648E+01  8.85439E+01  1.16240E+02  1.45468E+02  1.68167E+02
   1.74691E+02  1.61441E+02  1.34438E+02  1.05305E+02  8.20906E+01  6.38602E+01  4.65662E+01  2.95680E+01  1.78043E+01  1.34686E+01
   1.16051E+01  1.04780E+01  9.81003E+00  9.45420E+00  9.14391E+00  8.73363E+00  8.22404E+00  7.67470E+00  7.16153E+00  6.71794E+00
   6.32994E+00  5.99603E+00  5.76541E+00  5.65352E+00  5.60511E+00  5.58859E+00  5.63645E+00  5.78946E+00  6.06840E+00  6.47554E+00
   7.02021E+00  7.70974E+00  8.51411E+00  9.39239E+00  1.03263E+01  1.13067E+01  1.23213E+01  1.33489E+01  1.43647E+01  1.53481E+01
   1.62743E+01  1.71008E+01  1.77843E+01  1.82912E+01  1.85990E+01  1.86930E+01  1.85646E+01  1.82135E+01  1.76567E+01  1.69157E+01
   1.60159E+01  1.49883E+01  1.38685E+01  1.26927E+01  1.14961E+01  1.03111E+01  9.16728E+00  8.09117E+00  7.10691E+00  6.23877E+00
   5.52071E+00  4.99690E+00  4.61857E+00  4.29479E+00  3.93228E+00  3.40813E+00  2.62811E+00  1.61502E+00  5.23825E-01 -3.81123E-01
  -9.05226E-01 -1.04215E+00 -8.42221E-01 -3.45559E-01  3.73999E-01  1.15136E+00  1.72510E+00  2.00780E+00  2.13889E+00  2.28959E+00
   2.57535E+00  3.07948E+00  3.67301E+00  4.23150E+00  4.59725E+00  4.43530E+00  3.49657E+00  1.84932E+00 -3.70514E-02 -1.37133E+00
  -1.67881E+00 -9.57070E-01  5.86796E-01  2.69147E+00  5.01354E+00  7.09021E+00  8.32305E+00  8.59431E+00  8.28565E+00  7.71047E+00
   6.92700E+00  5.87659E+00  4.65241E+00  3.59136E+00  2.75719E+00  2.08096E+00  1.53381E+00  1.09696E+00  7.52225E-01  4.81426E-01
   2.67603E-01  9.64434E-02 -4.27351E-02 -1.56839E-01 -2.49649E-01 -3.22793E-01 -3.76448E-01 -4.09594E-01 -4.20100E-01 -4.05037E-01
  -3.61225E-01 -2.85690E-01 -1.75707E-01 -2.85650E-02  1.58539E-01  3.88192E-01  6.62246E-01  9.81466E-01  1.34556E+00  1.75332E+00
   2.20244E+00  2.68911E+00  3.20756E+00  3.74997E+00  4.30684E+00  4.86736E+00  5.41955E+00  5.95029E+00  6.44560E+00  6.89129E+00
   7.27394E+00  7.58165E+00  7.80437E+00  7.93414E+00  7.96550E+00  7.89597E+00  7.72652E+00  7.46144E+00  7.10779E+00  6.67485E+00
   6.17370E+00  5.61695E+00  5.01831E+00  4.39176E+00  3.75070E+00  3.10735E+00  2.47258E+00  1.85591E+00  1.26535E+00  7.07118E-01
   1.85398E-01 -2.97431E-01 -7.40354E-01 -1.14331E+00 -1.50707E+00 -1.83332E+00 -2.12452E+00 -2.38357E+00 -2.61334E+00 -2.81648E+00
  -2.99556E+00 -3.15322E+00 -3.29214E+00 -3.41474E+00 -3.52296E+00 -3.61835E+00 -3.70235E+00 -3.77644E+00 -3.84205E+00 -3.90027E+00
  -3.95184E+00 -3.99730E+00 -4.03727E+00 -4.07251E+00 -4.10370E+00 -4.13126E+00 -4.15533E+00 -4.17608E+00 -4.19386E+00 -4.20915E+00
  -4.22229E+00 -4.23333E+00 -4.24222E+00 -4.24905E+00 -4.25412E+00 -4.25775E+00 -4.26006E+00 -4.26097E+00 -4.26040E+00 -4.25848E+00
  -4.25551E+00 -4.25167E+00 -4.24695E+00 -4.24118E+00 -4.23434E+00 -4.22662E+00 -4.21827E+00 -4.20938E+00 -4.19982E+00 -4.18944E+00
  -4.17830E+00 -4.16662E+00 -4.15459E+00 -4.14216E+00 -4.12916E+00 -4.11552E+00 -4.10137E+00 -4.08694E+00 -4.07231E+00 -4.05738E+00
  -4.04198E+00 -4.02609E+00 -4.00993E+00 -3.99367E+00 -3.97730E+00 -3.96064E+00 -3.94357E+00 -3.92620E+00 -3.90872E+00 -3.89125E+00
  -3.87366E+00 -3.85579E+00 -3.83760E+00 -3.81923E+00 -3.80086E+00 -3.78249E+00 -3.76394E+00 -3.74505E+00
 NY background values follow
     3.602E+01    3.572E+01    3.542E+01    3.513E+01    3.483E+01    3.453E+01    3.424E+01    3.394E+01    3.364E+01    3.334E+01
     3.305E+01    3.275E+01    3.245E+01    3.215E+01    3.186E+01    3.156E+01    3.126E+01    3.096E+01    3.067E+01    3.037E+01
     3.007E+01    2.977E+01    2.948E+01    2.918E+01    2.888E+01    2.859E+01    2.829E+01    2.800E+01    2.770E+01    2.740E+01
     2.711E+01    2.681E+01    2.652E+01    2.623E+01    2.593E+01    2.564E+01    2.535E+01    2.505E+01    2.476E+01    2.447E+01
     2.418E+01    2.389E+01    2.360E+01    2.331E+01    2.302E+01    2.273E+01    2.245E+01    2.216E+01    2.187E+01    2.159E+01
     2.130E+01    2.102E+01    2.073E+01    2.045E+01    2.017E+01    1.989E+01    1.961E+01    1.933E+01    1.905E+01    1.878E+01
     1.850E+01    1.822E+01    1.795E+01    1.768E+01    1.741E+01    1.714E+01    1.687E+01    1.660E+01    1.633E+01    1.607E+01
     1.580E+01    1.554E+01    1.528E+01    1.502E+01    1.476E+01    1.450E+01    1.424E+01    1.399E+01    1.374E+01    1.349E+01
     1.324E+01    1.299E+01    1.274E+01    1.250E+01    1.225E+01    1.201E+01    1.177E+01    1.154E+01    1.130E+01    1.107E+01
     1.083E+01    1.060E+01    1.038E+01    1.015E+01    9.925E+00    9.702E+00    9.482E+00    9.263E+00    9.047E+00    8.832E+00
     8.620E+00    8.409E+00    8.201E+00    7.994E+00    7.790E+00    7.587E+00    7.387E+00    7.189E+00    6.992E+00    6.798E+00
     6.606E+00    6.416E+00    6.228E+00    6.043E+00    5.859E+00    5.678E+00    5.498E+00    5.321E+00    5.146E+00    4.974E+00
     4.803E+00    4.635E+00    4.469E+00    4.305E+00    4.143E+00    3.983E+00    3.826E+00    3.671E+00    3.518E+00    3.368E+00
     3.220E+00    3.074E+00    2.930E+00    2.789E+00    2.650E+00    2.514E+00    2.379E+00    2.247E+00    2.118E+00    1.990E+00
     1.865E+00    1.743E+00    1.623E+00    1.505E+00    1.389E+00    1.275E+00    1.164E+00    1.056E+00    9.492E-01    8.450E-01
     7.432E-01    6.436E-01    5.463E-01    4.512E-01    3.584E-01    2.679E-01    1.797E-01    9.374E-02    1.002E-02   -7.145E-02
    -1.507E-01   -2.276E-01   -3.024E-01   -3.749E-01   -4.451E-01   -5.132E-01   -5.790E-01   -6.426E-01   -7.040E-01   -7.632E-01
    -8.201E-01   -8.749E-01   -9.274E-01   -9.778E-01   -1.026E+00   -1.072E+00   -1.116E+00   -1.157E+00   -1.197E+00   -1.234E+00
    -1.269E+00   -1.302E+00   -1.333E+00   -1.362E+00   -1.388E+00   -1.413E+00   -1.436E+00   -1.456E+00   -1.475E+00   -1.492E+00
    -1.508E+00   -1.521E+00   -1.533E+00   -1.544E+00   -1.552E+00   -1.560E+00   -1.565E+00   -1.570E+00   -1.572E+00   -1.574E+00
    -1.574E+00   -1.573E+00   -1.571E+00   -1.568E+00   -1.563E+00   -1.558E+00   -1.551E+00   -1.544E+00   -1.535E+00   -1.526E+00
    -1.516E+00   -1.505E+00   -1.493E+00   -1.481E+00   -1.468E+00   -1.454E+00   -1.440E+00   -1.426E+00   -1.411E+00   -1.395E+00
    -1.379E+00   -1.363E+00   -1.347E+00   -1.330E+00   -1.314E+00   -1.297E+00   -1.280E+00   -1.263E+00   -1.246E+00   -1.229E+00
    -1.212E+00   -1.195E+00   -1.179E+00   -1.162E+00   -1.145E+00   -1.129E+00   -1.113E+00   -1.097E+00   -1.081E+00   -1.065E+00
    -1.050E+00   -1.035E+00   -1.020E+00   -1.006E+00   -9.914E-01   -9.776E-01   -9.641E-01   -9.511E-01   -9.384E-01   -9.262E-01
    -9.144E-01   -9.031E-01   -8.922E-01   -8.819E-01   -8.722E-01   -8.630E-01   -8.543E-01   -8.463E-01   -8.388E-01   -8.320E-01
    -8.259E-01   -8.204E-01   -8.157E-01   -8.116E-01   -8.083E-01   -8.058E-01   -8.040E-01   -8.031E-01   -8.030E-01   -8.037E-01
    -8.052E-01   -8.077E-01   -8.111E-01   -8.153E-01   -8.205E-01   -8.265E-01   -8.334E-01   -8.412E-01   -8.498E-01   -8.593E-01
    -8.697E-01   -8.809E-01   -8.929E-01   -9.057E-01   -9.194E-01   -9.338E-01   -9.491E-01   -9.652E-01   -9.820E-01   -9.996E-01
    -1.018E+00   -1.037E+00   -1.057E+00   -1.078E+00   -1.099E+00   -1.121E+00   -1.144E+00   -1.168E+00   -1.192E+00   -1.217E+00
    -1.242E+00   -1.269E+00   -1.296E+00   -1.323E+00   -1.352E+00   -1.381E+00   -1.410E+00   -1.441E+00   -1.472E+00   -1.503E+00
    -1.535E+00   -1.568E+00   -1.601E+00   -1.635E+00   -1.670E+00   -1.705E+00   -1.741E+00   -1.777E+00   -1.814E+00   -1.851E+00
    -1.889E+00   -1.927E+00   -1.966E+00   -2.005E+00   -2.045E+00   -2.085E+00   -2.125E+00   -2.166E+00   -2.207E+00   -2.248E+00
    -2.290E+00   -2.332E+00   -2.375E+00   -2.417E+00   -2.460E+00   -2.503E+00   -2.546E+00   -2.590E+00   -2.633E+00   -2.677E+00
    -2.721E+00   -2.764E+00   -2.808E+00   -2.852E+00   -2.896E+00   -2.940E+00   -2.984E+00   -3.028E+00   -3.072E+00   -3.116E+00
    -3.160E+00   -3.203E+00   -3.247E+00   -3.290E+00   -3.334E+00   -3.377E+00   -3.420E+00   -3.462E+00   -3.505E+00   -3.547E+00
    -3.588E+00   -3.630E+00   -3.671E+00   -3.712E+00   -3.752E+00   -3.793E+00   -3.832E+00   -3.872E+00   -3.911E+00   -3.949E+00
    -3.987E+00   -4.025E+00   -4.062E+00   -4.099E+00   -4.135E+00   -4.171E+00   -4.206E+00   -4.241E+00   -4.275E+00   -4.309E+00
    -4.342E+00   -4.375E+00   -4.407E+00   -4.438E+00   -4.469E+00   -4.499E+00   -4.529E+00   -4.558E+00   -4.586E+00   -4.614E+00
    -4.641E+00   -4.667E+00   -4.693E+00   -4.718E+00   -4.742E+00   -4.765E+00   -4.788E+00   -4.810E+00   -4.831E+00   -4.851E+00
    -4.871E+00   -4.889E+00   -4.907E+00   -4.924E+00   -4.940E+00   -4.956E+00   -4.970E+00   -4.984E+00   -4.996E+00   -5.008E+00
    -5.019E+00   -5.029E+00   -5.038E+00   -5.047E+00   -5.054E+00   -5.061E+00   -5.067E+00   -5.072E+00   -5.077E+00   -5.080E+00
    -5.083E+00   -5.085E+00   -5.087E+00   -5.087E+00   -5.087E+00   -5.086E+00   -5.085E+00   -5.083E+00   -5.080E+00   -5.076E+00
    -5.072E+00   -5.067E+00   -5.062E+00   -5.056E+00   -5.049E+00   -5.042E+00   -5.034E+00   -5.026E+00   -5.017E+00   -5.007E+00
    -4.997E+00   -4.987E+00   -4.976E+00   -4.964E+00   -4.952E+00   -4.939E+00   -4.926E+00   -4.913E+00   -4.899E+00   -4.884E+00
    -4.869E+00   -4.854E+00   -4.838E+00   -4.822E+00   -4.806E+00   -4.789E+00   -4.772E+00   -4.754E+00   -4.736E+00   -4.718E+00
    -4.700E+00   -4.681E+00   -4.662E+00   -4.642E+00   -4.623E+00   -4.603E+00   -4.583E+00   -4.562E+00   -4.542E+00   -4.521E+00
    -4.500E+00   -4.479E+00   -4.457E+00   -4.436E+00   -4.414E+00   -4.392E+00   -4.371E+00   -4.349E+00   -4.327E+00   -4.304E+00
    -4.282E+00   -4.260E+00   -4.238E+00   -4.215E+00   -4.193E+00   -4.171E+00   -4.148E+00   -4.126E+00   -4.104E+00   -4.082E+00
    -4.059E+00   -4.037E+00   -4.015E+00   -3.993E+00   -3.971E+00   -3.950E+00   -3.928E+00   -3.907E+00
 Ala      Conc. = 1.49E+02
