 LCModel (Version 6.3-1L) Copyright: S.W. Provencher.          Ref.: Magn. Reson. Med. 30:672-679 (1993).                
 Slice#2 Row#3 Col#6  PD_24_press_2_raw_act
 36 lines in following concentration table = NCONC+1
    Conc.  %SD /Cr+PCr  Metabolite                                         
    0.000 999%   0.000 Ala                                                 
  121.156 280% 8.3E-02 Asp                                                 
  316.258 219%   0.217 Cr                                                  
 1.14E+03  62%   0.783 PCr                                                 
   26.827 789% 1.8E-02 GABA                                                
  111.065 188% 7.6E-02 Glc                                                 
    0.000 999%   0.000 Gln                                                 
 1.54E+03  48%   1.055 Glu                                                 
    0.000 999%   0.000 GPC                                                 
  728.461   8%   0.500 PCh                                                 
    0.000 999%   0.000 GSH                                                 
 1.26E+03  54%   0.866 Ins                                                 
    0.000 999%   0.000 Lac                                                 
 2.39E+03   8%   1.637 NAA                                                 
    0.000 999%   0.000 NAAG                                                
  152.273  36%   0.104 Scyllo                                              
  514.728  64%   0.353 Tau                                                 
 1.06E+03  25%   0.725 -CrCH2                                              
  728.461   8%   0.500 GPC+PCh                                             
 2.39E+03   8%   1.637 NAA+NAAG                                            
 1.46E+03  11%   1.000 Cr+PCr                                              
 1.54E+03  48%   1.055 Glu+Gln                                             
 3.90E+03  37%   2.678 Lip13a                                              
    0.000 999%   0.000 Lip13b                                              
 1.05E+03  59%   0.717 Lip09                                               
 3.19E+03  24%   2.190 MM09                                                
  678.882  60%   0.466 Lip20                                               
 5.37E+03  18%   3.683 MM20                                                
 1.36E+03  49%   0.930 MM12                                                
 1.24E+03  67%   0.854 MM14                                                
 1.39E+03  38%   0.951 MM17                                                
 3.90E+03  37%   2.678 Lip13a+Lip13b                                       
 6.51E+03  15%   4.462 MM14+Lip13a+Lip13b+MM12                             
 4.24E+03  12%   2.907 MM09+Lip09                                          
 6.05E+03  16%   4.149 MM20+Lip20                                          
   6 lines in following misc. output table
  FWHM = 0.061 ppm    S/N =   5                                            
  Data shift = 0.015 ppm                                                   
  Ph: -33 deg      -6.1 deg/ppm                                            
  alphaB,S = 3.6E+00,   7.6E+01                                            
   14 spline knots.   Ns = 7(1)                                            
  (13) 2 infls.   (13) 1 extrs.                                            
  498 points on ppm-axis = NY
      4.000000     3.992357     3.984714     3.977070     3.969427     3.961784     3.954141     3.946497     3.938854     3.931211
      3.923568     3.915925     3.908281     3.900638     3.892995     3.885352     3.877708     3.870065     3.862422     3.854779
      3.847136     3.839492     3.831849     3.824206     3.816563     3.808919     3.801276     3.793633     3.785990     3.778347
      3.770703     3.763060     3.755417     3.747774     3.740130     3.732487     3.724844     3.717201     3.709558     3.701914
      3.694271     3.686628     3.678985     3.671341     3.663698     3.656055     3.648412     3.640769     3.633125     3.625482
      3.617839     3.610196     3.602552     3.594909     3.587266     3.579623     3.571980     3.564336     3.556693     3.549050
      3.541407     3.533763     3.526120     3.518477     3.510834     3.503191     3.495547     3.487904     3.480261     3.472618
      3.464974     3.457331     3.449688     3.442045     3.434402     3.426758     3.419115     3.411472     3.403829     3.396185
      3.388542     3.380899     3.373256     3.365613     3.357969     3.350326     3.342683     3.335040     3.327396     3.319753
      3.312110     3.304467     3.296824     3.289180     3.281537     3.273894     3.266251     3.258607     3.250964     3.243321
      3.235678     3.228034     3.220391     3.212748     3.205105     3.197462     3.189818     3.182175     3.174532     3.166889
      3.159245     3.151602     3.143959     3.136316     3.128673     3.121029     3.113386     3.105743     3.098100     3.090456
      3.082813     3.075170     3.067527     3.059884     3.052240     3.044597     3.036954     3.029311     3.021667     3.014024
      3.006381     2.998738     2.991095     2.983451     2.975808     2.968165     2.960522     2.952878     2.945235     2.937592
      2.929949     2.922306     2.914662     2.907019     2.899376     2.891733     2.884089     2.876446     2.868803     2.861160
      2.853517     2.845873     2.838230     2.830587     2.822944     2.815300     2.807657     2.800014     2.792371     2.784728
      2.777084     2.769441     2.761798     2.754155     2.746511     2.738868     2.731225     2.723582     2.715939     2.708295
      2.700652     2.693009     2.685366     2.677722     2.670079     2.662436     2.654793     2.647150     2.639506     2.631863
      2.624220     2.616577     2.608933     2.601290     2.593647     2.586004     2.578361     2.570717     2.563074     2.555431
      2.547788     2.540144     2.532501     2.524858     2.517215     2.509572     2.501928     2.494285     2.486642     2.478999
      2.471355     2.463712     2.456069     2.448426     2.440783     2.433139     2.425496     2.417853     2.410210     2.402566
      2.394923     2.387280     2.379637     2.371994     2.364350     2.356707     2.349064     2.341421     2.333777     2.326134
      2.318491     2.310848     2.303205     2.295561     2.287918     2.280275     2.272632     2.264988     2.257345     2.249702
      2.242059     2.234416     2.226772     2.219129     2.211486     2.203843     2.196199     2.188556     2.180913     2.173270
      2.165627     2.157983     2.150340     2.142697     2.135054     2.127410     2.119767     2.112124     2.104481     2.096838
      2.089194     2.081551     2.073908     2.066265     2.058621     2.050978     2.043335     2.035692     2.028049     2.020405
      2.012762     2.005119     1.997476     1.989833     1.982190     1.974546     1.966903     1.959260     1.951617     1.943974
      1.936331     1.928688     1.921045     1.913402     1.905759     1.898115     1.890472     1.882829     1.875186     1.867543
      1.859900     1.852257     1.844614     1.836971     1.829327     1.821684     1.814041     1.806398     1.798755     1.791112
      1.783469     1.775826     1.768183     1.760540     1.752896     1.745253     1.737610     1.729967     1.722324     1.714681
      1.707038     1.699395     1.691752     1.684108     1.676465     1.668822     1.661179     1.653536     1.645893     1.638250
      1.630607     1.622964     1.615321     1.607677     1.600034     1.592391     1.584748     1.577105     1.569462     1.561819
      1.554176     1.546533     1.538890     1.531246     1.523603     1.515960     1.508317     1.500674     1.493031     1.485388
      1.477745     1.470102     1.462458     1.454815     1.447172     1.439529     1.431886     1.424243     1.416600     1.408957
      1.401314     1.393671     1.386027     1.378384     1.370741     1.363098     1.355455     1.347812     1.340169     1.332526
      1.324883     1.317240     1.309596     1.301953     1.294310     1.286667     1.279024     1.271381     1.263738     1.256095
      1.248452     1.240808     1.233165     1.225522     1.217879     1.210236     1.202593     1.194950     1.187307     1.179664
      1.172021     1.164377     1.156734     1.149091     1.141448     1.133805     1.126162     1.118519     1.110876     1.103233
      1.095590     1.087946     1.080303     1.072660     1.065017     1.057374     1.049731     1.042088     1.034445     1.026802
      1.019158     1.011515     1.003872     0.996229     0.988586     0.980943     0.973300     0.965657     0.958014     0.950371
      0.942727     0.935084     0.927441     0.919798     0.912155     0.904512     0.896869     0.889226     0.881583     0.873940
      0.866296     0.858653     0.851010     0.843367     0.835724     0.828081     0.820438     0.812795     0.805152     0.797508
      0.789865     0.782222     0.774579     0.766936     0.759293     0.751650     0.744007     0.736364     0.728721     0.721077
      0.713434     0.705791     0.698148     0.690505     0.682862     0.675219     0.667576     0.659933     0.652290     0.644646
      0.637003     0.629360     0.621717     0.614074     0.606431     0.598788     0.591145     0.583502     0.575858     0.568215
      0.560572     0.552929     0.545286     0.537643     0.530000     0.522357     0.514714     0.507071     0.499427     0.491784
      0.484141     0.476498     0.468855     0.461212     0.453569     0.445925     0.438282     0.430639     0.422996     0.415353
      0.407710     0.400067     0.392424     0.384780     0.377137     0.369494     0.361851     0.354208     0.346565     0.338922
      0.331278     0.323635     0.315992     0.308349     0.300706     0.293063     0.285420     0.277777     0.270133     0.262490
      0.254847     0.247204     0.239561     0.231918     0.224275     0.216631     0.208988     0.201345
 NY phased data points follow
  -5.85956E+01 -7.50169E+01 -4.56860E+01 -6.69531E+01 -3.97896E+01 -5.77212E+01 -4.52472E+01 -4.60734E+01 -2.72778E+01 -3.39487E+01
  -2.27568E+01 -2.87177E+01 -1.24159E+01 -3.03982E+01 -2.53275E+01 -4.90047E+01 -5.04156E+01 -3.05086E+01 -3.01473E+01 -6.27738E+01
  -4.43090E+01 -4.46193E+01 -3.70787E+01 -5.29338E+01 -4.59176E+01 -6.80329E+01 -3.40213E+01 -2.62818E+01 -2.50454E+01 -4.88661E+01
  -2.54595E+01 -5.16733E+01 -4.20764E+01 -3.83968E+01 -3.12957E+01 -2.17601E+01 -1.86679E+01 -1.73078E+01 -3.52249E+01 -4.46090E+01
  -3.05960E+01 -2.57250E+01 -2.64725E+01 -3.29960E+01 -2.33618E+01 -1.91503E+01 -2.66157E+01 -3.88304E+01  3.49376E+00 -1.93328E+01
  -1.80408E+01 -2.93821E+01 -2.98759E+01 -4.75117E+01 -2.29457E+01 -3.99556E+01 -1.72516E+01 -3.75907E+01 -1.09875E+01 -1.67852E+01
  -2.13348E+01 -2.63447E+01 -3.63652E+01 -4.58444E+01 -2.04395E+01 -3.77947E+01 -2.33987E+01 -2.51057E+01 -2.91849E+01 -2.99013E+01
  -2.95576E+01 -4.32957E+01 -2.24217E+01 -2.57723E+01 -2.79468E+01 -3.43212E+01 -2.21302E+01 -1.92586E+01 -1.09328E+01 -2.98680E+01
  -1.91184E+01 -2.43581E+01 -1.34026E+01 -1.57627E+01 -8.26577E+00 -2.03220E+01 -2.47363E+01 -1.98785E+01 -2.52765E+01 -1.69386E+01
  -2.44283E+01 -7.72203E+00 -6.74905E+00 -2.14202E+01 -1.92830E+01 -1.54736E+01 -5.91657E+00 -2.54394E+01 -1.26679E+01 -2.45284E+00
   3.05224E+01  1.67917E+01  4.32806E+01  4.41867E+01  3.89724E+01  2.63378E+01  3.05818E+01 -3.16554E+00  1.18082E+01 -8.35006E+00
  -6.59778E+00 -2.24050E+01 -8.88942E+00 -2.28946E+01 -3.91605E+00 -1.81550E+01 -1.87995E+00 -3.05662E+01 -1.53221E+01 -1.43411E+01
  -4.55218E+00 -6.99240E+00 -3.62301E+00 -6.71699E+00  5.96219E+00  1.49413E+01  1.59997E+01  2.52435E+01  3.65596E+01  1.15220E+01
   1.76651E+01  1.52671E+01 -5.83811E+00 -6.22596E+00  2.72304E+00 -1.40819E+01 -1.34400E+01 -1.44139E+01 -9.09245E-01 -1.40748E+01
  -5.84415E+00 -3.23092E+01 -6.79731E+00 -1.95727E+01 -2.47919E+01 -2.97884E+01 -1.79810E+00 -2.81915E+01 -1.28739E+01 -2.60265E+01
  -2.18765E+01 -1.25513E+01 -7.27981E+00 -1.72636E+01 -8.30910E+00 -2.64613E+01 -1.23274E+01 -2.54716E+01 -1.68338E+01 -8.15747E+00
  -2.69122E+01 -1.10862E+01 -2.68784E+01 -1.70486E+01 -1.89251E+01 -8.89471E+00 -1.66821E+01 -2.65523E+01 -1.61313E+01 -2.08609E+01
  -2.54672E+01 -4.21964E+00 -2.79422E+01 -2.61931E+01 -2.89039E+01 -2.27014E+01 -1.76630E+01 -2.51587E+01 -2.01502E+01 -2.21366E+01
  -2.76169E+01 -2.18037E+01 -2.55063E+01 -1.19447E+01 -2.81552E+01 -3.27406E+00 -2.07573E+01 -1.99256E+01 -4.90706E+00 -1.49594E+01
  -3.19071E+00 -1.66195E+01 -5.48351E+00 -6.40740E+00  9.63575E-01 -1.18778E+01 -2.21730E+01 -2.60378E+01 -2.30047E+01 -3.53107E+01
  -1.61658E+01 -2.27308E+01 -1.68305E+01 -2.58133E+01 -1.08641E+01 -1.38217E+01 -4.98982E+00 -1.37570E+01 -1.53317E+01 -1.48429E+01
  -1.78087E+01 -9.86592E+00 -5.68169E+00 -1.00666E+00 -3.41512E+00 -7.36791E+00 -5.54592E-01  2.94343E+00  4.97608E+00 -3.43026E+00
  -2.22981E+01 -2.07335E+01 -1.96975E+01 -1.40358E+01 -2.19751E+01 -1.86920E+01  1.60591E-01 -1.54964E+01  1.28328E+01 -1.44328E+01
  -3.44547E+00 -1.00168E+01  2.01859E+00 -7.22204E+00 -6.86590E+00  6.56544E-01  9.31730E+00 -1.24136E+01 -3.54963E+00 -4.99076E-02
   1.52586E+01 -3.17154E+00  1.11578E+01 -6.48074E+00  7.39657E-01  1.98137E+01  1.38190E+01  9.67873E-01  2.26659E+01  6.33830E+00
   3.92759E+00 -2.26183E+00  6.74374E+00  1.95075E+01  2.44479E+01  2.86154E+01  2.96007E+01  6.38727E+01  7.38632E+01  8.39075E+01
   8.19359E+01  8.01018E+01  6.89679E+01  5.51476E+01  3.72419E+01  3.13630E+01  2.59819E+01  1.19721E+01  9.95990E+00  8.54789E+00
   2.48228E+01  4.45971E+00  1.09166E-01 -1.74093E+01 -6.59257E+00 -8.99970E+00 -2.17683E+00 -7.58690E+00 -1.91709E+01 -2.05220E+01
   9.72442E-01 -2.94603E+01  6.70393E+00  1.90149E+00 -1.09443E+00 -1.39055E+01  3.75316E+00 -1.48471E+01  2.52634E+00 -1.99870E+01
  -1.00057E+01 -1.29188E+01 -3.12524E-01 -9.05116E+00  5.70240E-01  1.71596E+00 -8.10305E+00 -9.78499E+00  5.59892E+00 -4.79543E+00
  -1.54427E+00 -1.27015E+00  1.31000E+01 -8.38048E+00  1.90133E+01  1.12143E+01  6.44704E+00 -5.99341E+00  8.78145E-01  6.81360E+00
  -9.11132E-01 -8.61866E-01 -1.05230E+01 -9.67115E-01  9.63133E-01  3.41531E+00 -4.59749E+00 -1.31143E+01 -3.31873E+00  6.32737E+00
  -5.82644E+00  1.91531E+00 -9.96986E+00  1.61720E+00  7.96134E+00 -4.92642E+00  2.13043E+00  7.93775E+00  2.33589E+01  5.27611E+00
  -2.41302E+00  1.53548E+01  1.52019E+01 -5.74003E+00 -1.74713E+00  1.19161E+01  3.19331E+00  2.46360E+00 -2.70787E-02  1.28670E+01
   6.73020E-01  9.72087E-01 -2.50584E+00  1.41039E+00  9.03672E+00  2.43647E+01  4.55362E+00  1.26533E+01  1.72213E+01  7.25205E+00
   6.22378E+00 -7.92118E+00  2.67163E+01  2.03933E+01  1.52550E+01  1.43829E+01  1.19625E+01 -4.81433E+00  1.49882E+01  1.84214E+01
   1.51651E+01  3.32436E+00  1.36788E+01  1.66509E+01  2.43721E+01  3.90503E+00  2.53068E+01  1.72220E+01  1.00126E+01  1.11481E+01
   1.81065E+01  3.61200E+00  1.19423E+01  1.26299E+01  2.07639E+01  2.90527E+01  1.16469E+01  9.00035E+00  1.14028E+01  1.14464E+00
  -4.30309E+00  6.62980E+00  3.01975E+00  1.28918E+01  8.80931E+00  1.79447E+01  1.22965E+01  1.75171E+01 -3.94746E+00  3.12050E+01
   1.76681E+01  3.47840E+01  1.15883E+01  1.60963E+01  2.68595E+01 -1.02914E+01  2.44864E+01  1.93731E+01  8.06143E-01  7.31820E+00
   3.21739E+01  6.06009E+00  1.03899E+01  2.11937E+01  3.09407E+01  2.22575E+01  2.26341E+01  2.05845E+01  2.72244E+01  3.10320E+01
   3.19166E+01  3.78131E+00  2.67457E+01  1.00788E+01  1.92039E+01  5.19609E+00  6.75110E+00  1.21561E+01  5.57776E+00  1.35644E+01
   1.15721E+01  4.61384E+00  4.08154E+00  1.64500E+01  1.09058E+01  1.01563E+01  1.42245E+01  6.67938E+00 -2.33277E+00 -7.16263E+00
   1.65875E+00  1.15588E+01 -2.35402E+00  4.04437E+00  7.48485E+00 -1.23893E+01 -3.02915E-01  3.50267E+00  4.06226E+00  7.91837E-01
  -1.37651E+01 -1.39027E+01 -1.71660E+01 -1.61029E+01  8.88322E+00 -2.39166E+00  3.31054E+00  2.05885E+00 -1.01556E+01 -1.02782E+01
   3.49816E+00  1.05949E+01  2.13854E+00 -2.05468E+01 -9.78451E+00 -6.76805E+00  2.30748E+00 -1.10162E+01  2.90686E+00 -1.37484E+01
   5.85474E-01 -1.54381E+01 -1.45864E+01 -5.79381E+00  1.02115E+00  3.61206E+00 -3.81658E+00 -6.09952E+00 -3.63486E+00 -7.34599E+00
  -3.87878E+00 -1.33408E+01 -5.38333E+00 -5.99076E-01  1.01174E+00 -2.40191E+00 -7.73584E+00 -1.09743E+00  8.62456E-01 -8.82110E+00
  -2.12301E+01 -2.06021E+01 -4.20840E+00  4.07884E+00  2.06335E+00 -1.16775E+01 -1.11285E+01  9.27619E+00 -7.14672E+00 -8.99306E+00
  -1.26489E+01 -6.26395E+00 -1.06134E+01 -9.91216E+00  9.03104E+00 -2.40624E+00 -9.49340E+00  1.28260E+01
 NY points of the fit to the data follow
  -3.73445E+01 -3.85061E+01 -3.98883E+01 -4.09950E+01 -4.19880E+01 -4.23287E+01 -4.12522E+01 -3.86616E+01 -3.50842E+01 -3.11891E+01
  -2.78129E+01 -2.57811E+01 -2.55088E+01 -2.68379E+01 -2.88977E+01 -3.07531E+01 -3.21291E+01 -3.35847E+01 -3.49825E+01 -3.55608E+01
  -3.55373E+01 -3.52005E+01 -3.48241E+01 -3.45198E+01 -3.44409E+01 -3.46129E+01 -3.49127E+01 -3.51540E+01 -3.51407E+01 -3.47171E+01
  -3.38215E+01 -3.25818E+01 -3.13864E+01 -3.05540E+01 -3.02553E+01 -3.05193E+01 -3.11827E+01 -3.19914E+01 -3.27429E+01 -3.32432E+01
  -3.32918E+01 -3.27996E+01 -3.17772E+01 -3.02464E+01 -2.83890E+01 -2.65907E+01 -2.52313E+01 -2.46354E+01 -2.50019E+01 -2.61499E+01
  -2.76766E+01 -2.91645E+01 -3.02357E+01 -3.07365E+01 -3.08114E+01 -3.05648E+01 -2.99632E+01 -2.90646E+01 -2.81322E+01 -2.74254E+01
  -2.70797E+01 -2.70893E+01 -2.73234E+01 -2.76566E+01 -2.79429E+01 -2.80231E+01 -2.79102E+01 -2.76928E+01 -2.73388E+01 -2.68248E+01
  -2.62437E+01 -2.56172E+01 -2.50032E+01 -2.45447E+01 -2.43704E+01 -2.44950E+01 -2.48771E+01 -2.54286E+01 -2.59173E+01 -2.60177E+01
  -2.55965E+01 -2.46459E+01 -2.32422E+01 -2.17207E+01 -2.04895E+01 -1.97898E+01 -1.97749E+01 -2.04380E+01 -2.15887E+01 -2.29268E+01
  -2.41602E+01 -2.50511E+01 -2.55647E+01 -2.58765E+01 -2.59458E+01 -2.51939E+01 -2.22682E+01 -1.65967E+01 -8.40181E+00  2.79465E+00
   1.60106E+01  2.85516E+01  3.77865E+01  4.19701E+01  4.02402E+01  3.31479E+01  2.26622E+01  1.14843E+01  1.88881E+00 -5.57635E+00
  -1.16834E+01 -1.67990E+01 -1.98594E+01 -2.08777E+01 -2.12571E+01 -2.14197E+01 -2.14696E+01 -2.13964E+01 -2.11786E+01 -2.06218E+01
  -1.88089E+01 -1.50536E+01 -9.50342E+00 -1.82341E+00  7.41863E+00  1.63319E+01  2.30174E+01  2.62248E+01  2.53040E+01  2.05711E+01
   1.33807E+01  5.58977E+00 -1.20058E+00 -6.47913E+00 -1.07380E+01 -1.43240E+01 -1.65768E+01 -1.73660E+01 -1.77073E+01 -1.79306E+01
  -1.80982E+01 -1.82281E+01 -1.83273E+01 -1.84036E+01 -1.84698E+01 -1.85338E+01 -1.86057E+01 -1.86884E+01 -1.87748E+01 -1.88500E+01
  -1.89040E+01 -1.89354E+01 -1.89492E+01 -1.89637E+01 -1.90424E+01 -1.91981E+01 -1.94450E+01 -1.97916E+01 -2.01485E+01 -2.04353E+01
  -2.05734E+01 -2.05057E+01 -2.02805E+01 -2.00131E+01 -1.98213E+01 -1.98055E+01 -2.00102E+01 -2.03725E+01 -2.07828E+01 -2.12027E+01
  -2.16610E+01 -2.21139E+01 -2.25539E+01 -2.29074E+01 -2.30715E+01 -2.30472E+01 -2.28821E+01 -2.26389E+01 -2.23666E+01 -2.21106E+01
  -2.19366E+01 -2.18110E+01 -2.16455E+01 -2.13889E+01 -2.09975E+01 -2.04856E+01 -1.98663E+01 -1.90779E+01 -1.81444E+01 -1.71609E+01
  -1.62569E+01 -1.55197E+01 -1.49254E+01 -1.44201E+01 -1.40157E+01 -1.37970E+01 -1.38083E+01 -1.39249E+01 -1.40323E+01 -1.40060E+01
  -1.37461E+01 -1.32827E+01 -1.27104E+01 -1.22449E+01 -1.20702E+01 -1.22592E+01 -1.28344E+01 -1.36966E+01 -1.45941E+01 -1.51707E+01
  -1.51454E+01 -1.44247E+01 -1.29478E+01 -1.09285E+01 -8.94528E+00 -7.63055E+00 -7.46489E+00 -8.57712E+00 -1.06920E+01 -1.33204E+01
  -1.56675E+01 -1.70170E+01 -1.71368E+01 -1.60666E+01 -1.40216E+01 -1.13380E+01 -8.53977E+00 -6.21155E+00 -4.54396E+00 -3.41033E+00
  -2.60029E+00 -2.04152E+00 -1.68534E+00 -1.34647E+00 -8.90616E-01 -3.50529E-01  1.64815E-01  6.23513E-01  1.06062E+00  1.53667E+00
   2.11017E+00  2.88573E+00  3.92681E+00  5.16368E+00  6.46894E+00  7.69927E+00  8.72031E+00  9.44963E+00  9.92083E+00  1.02662E+01
   1.06414E+01  1.12046E+01  1.22896E+01  1.54615E+01  2.16942E+01  3.06037E+01  4.26667E+01  5.68898E+01  7.01796E+01  7.94990E+01
   8.29328E+01  7.95511E+01  7.00240E+01  5.67000E+01  4.26692E+01  3.05107E+01  2.09541E+01  1.31166E+01  6.46909E+00  2.21212E+00
   4.65174E-01 -4.79507E-01 -1.13605E+00 -1.61152E+00 -1.99009E+00 -2.36498E+00 -2.76004E+00 -3.18440E+00 -3.62611E+00 -4.05250E+00
  -4.43688E+00 -4.76997E+00 -5.03870E+00 -5.22481E+00 -5.32867E+00 -5.36293E+00 -5.33772E+00 -5.25621E+00 -5.11912E+00 -4.92797E+00
  -4.68871E+00 -4.40020E+00 -4.06367E+00 -3.68351E+00 -3.26655E+00 -2.81975E+00 -2.35285E+00 -1.87642E+00 -1.40297E+00 -9.43024E-01
  -5.08434E-01 -1.10289E-01  2.40872E-01  5.36993E-01  7.71161E-01  9.39832E-01  1.04133E+00  1.07796E+00  1.05405E+00  9.77275E-01
   8.56115E-01  7.01392E-01  5.24350E-01  3.37916E-01  1.53780E-01 -1.59925E-02 -1.61301E-01 -2.72577E-01 -3.42778E-01 -3.65703E-01
  -3.37927E-01 -2.57040E-01 -1.23359E-01  6.21120E-02  2.96211E-01  5.75674E-01  8.95572E-01  1.25129E+00  1.63708E+00  2.04813E+00
   2.47909E+00  2.92601E+00  3.38463E+00  3.85222E+00  4.32596E+00  4.80471E+00  5.28730E+00  5.77409E+00  6.26503E+00  6.76124E+00
   7.26313E+00  7.77196E+00  8.28788E+00  8.81133E+00  9.34113E+00  9.87605E+00  1.04130E+01  1.09488E+01  1.14784E+01  1.19964E+01
   1.24958E+01  1.29695E+01  1.34095E+01  1.38082E+01  1.41574E+01  1.44500E+01  1.46787E+01  1.48383E+01  1.49239E+01  1.49327E+01
   1.48630E+01  1.47155E+01  1.44916E+01  1.41955E+01  1.38324E+01  1.34095E+01  1.29348E+01  1.24181E+01  1.18692E+01  1.12997E+01
   1.07207E+01  1.01440E+01  9.58089E+00  9.04290E+00  8.54048E+00  8.08434E+00  7.68374E+00  7.34797E+00  7.08476E+00  6.90185E+00
   6.80549E+00  6.80193E+00  6.89584E+00  7.09171E+00  7.39229E+00  7.79997E+00  8.31511E+00  8.93723E+00  9.66320E+00  1.04884E+01
   1.14051E+01  1.24034E+01  1.34699E+01  1.45889E+01  1.57409E+01  1.69043E+01  1.80545E+01  1.91659E+01  2.02109E+01  2.11628E+01
   2.19949E+01  2.26833E+01  2.32063E+01  2.35470E+01  2.36927E+01  2.36366E+01  2.33773E+01  2.29194E+01  2.22728E+01  2.14531E+01
   2.04794E+01  1.93749E+01  1.81642E+01  1.68740E+01  1.55304E+01  1.41594E+01  1.27844E+01  1.14272E+01  1.01059E+01  8.83616E+00
   7.62974E+00  6.49582E+00  5.43984E+00  4.46517E+00  3.57221E+00  2.76010E+00  2.02574E+00  1.36557E+00  7.74512E-01  2.47690E-01
  -2.20630E-01 -6.35502E-01 -1.00251E+00 -1.32636E+00 -1.61207E+00 -1.86363E+00 -2.08524E+00 -2.28003E+00 -2.45144E+00 -2.60194E+00
  -2.73429E+00 -2.85030E+00 -2.95212E+00 -3.04103E+00 -3.11880E+00 -3.18637E+00 -3.24515E+00 -3.29575E+00 -3.33930E+00 -3.37619E+00
  -3.40741E+00 -3.43321E+00 -3.45442E+00 -3.47112E+00 -3.48401E+00 -3.49313E+00 -3.49912E+00 -3.50196E+00 -3.50221E+00 -3.49975E+00
  -3.49509E+00 -3.48810E+00 -3.47928E+00 -3.46849E+00 -3.45614E+00 -3.44202E+00 -3.42656E+00 -3.40957E+00 -3.39146E+00 -3.37201E+00
  -3.35158E+00 -3.32991E+00 -3.30738E+00 -3.28378E+00 -3.25946E+00 -3.23417E+00 -3.20822E+00 -3.18136E+00 -3.15393E+00 -3.12571E+00
  -3.09702E+00 -3.06756E+00 -3.03764E+00 -3.00699E+00 -2.97596E+00 -2.94429E+00 -2.91227E+00 -2.87959E+00 -2.84655E+00 -2.81290E+00
  -2.77895E+00 -2.74442E+00 -2.70957E+00 -2.67409E+00 -2.63828E+00 -2.60187E+00 -2.56514E+00 -2.52777E+00
 NY background values follow
    -3.947E+01   -3.935E+01   -3.922E+01   -3.910E+01   -3.898E+01   -3.885E+01   -3.873E+01   -3.861E+01   -3.848E+01   -3.836E+01
    -3.824E+01   -3.811E+01   -3.799E+01   -3.787E+01   -3.774E+01   -3.762E+01   -3.749E+01   -3.737E+01   -3.725E+01   -3.712E+01
    -3.700E+01   -3.688E+01   -3.675E+01   -3.663E+01   -3.651E+01   -3.638E+01   -3.626E+01   -3.614E+01   -3.601E+01   -3.589E+01
    -3.577E+01   -3.564E+01   -3.552E+01   -3.540E+01   -3.528E+01   -3.515E+01   -3.503E+01   -3.491E+01   -3.479E+01   -3.466E+01
    -3.454E+01   -3.442E+01   -3.430E+01   -3.417E+01   -3.405E+01   -3.393E+01   -3.381E+01   -3.369E+01   -3.357E+01   -3.344E+01
    -3.332E+01   -3.320E+01   -3.308E+01   -3.296E+01   -3.284E+01   -3.272E+01   -3.260E+01   -3.248E+01   -3.236E+01   -3.224E+01
    -3.212E+01   -3.200E+01   -3.188E+01   -3.176E+01   -3.164E+01   -3.152E+01   -3.140E+01   -3.128E+01   -3.116E+01   -3.104E+01
    -3.093E+01   -3.081E+01   -3.069E+01   -3.057E+01   -3.045E+01   -3.034E+01   -3.022E+01   -3.010E+01   -2.999E+01   -2.987E+01
    -2.975E+01   -2.964E+01   -2.952E+01   -2.941E+01   -2.929E+01   -2.918E+01   -2.906E+01   -2.895E+01   -2.883E+01   -2.872E+01
    -2.860E+01   -2.849E+01   -2.838E+01   -2.826E+01   -2.815E+01   -2.804E+01   -2.793E+01   -2.782E+01   -2.770E+01   -2.759E+01
    -2.748E+01   -2.737E+01   -2.726E+01   -2.715E+01   -2.704E+01   -2.693E+01   -2.682E+01   -2.671E+01   -2.660E+01   -2.649E+01
    -2.639E+01   -2.628E+01   -2.617E+01   -2.606E+01   -2.596E+01   -2.585E+01   -2.574E+01   -2.564E+01   -2.553E+01   -2.543E+01
    -2.532E+01   -2.522E+01   -2.511E+01   -2.501E+01   -2.490E+01   -2.480E+01   -2.470E+01   -2.459E+01   -2.449E+01   -2.439E+01
    -2.429E+01   -2.418E+01   -2.408E+01   -2.398E+01   -2.388E+01   -2.378E+01   -2.368E+01   -2.358E+01   -2.348E+01   -2.338E+01
    -2.328E+01   -2.319E+01   -2.309E+01   -2.299E+01   -2.289E+01   -2.280E+01   -2.270E+01   -2.260E+01   -2.251E+01   -2.241E+01
    -2.232E+01   -2.222E+01   -2.213E+01   -2.203E+01   -2.194E+01   -2.184E+01   -2.175E+01   -2.166E+01   -2.156E+01   -2.147E+01
    -2.138E+01   -2.129E+01   -2.120E+01   -2.110E+01   -2.101E+01   -2.092E+01   -2.083E+01   -2.074E+01   -2.065E+01   -2.056E+01
    -2.047E+01   -2.039E+01   -2.030E+01   -2.021E+01   -2.012E+01   -2.003E+01   -1.995E+01   -1.986E+01   -1.977E+01   -1.969E+01
    -1.960E+01   -1.952E+01   -1.943E+01   -1.934E+01   -1.926E+01   -1.918E+01   -1.909E+01   -1.901E+01   -1.892E+01   -1.884E+01
    -1.876E+01   -1.868E+01   -1.859E+01   -1.851E+01   -1.843E+01   -1.835E+01   -1.827E+01   -1.819E+01   -1.811E+01   -1.803E+01
    -1.795E+01   -1.787E+01   -1.779E+01   -1.771E+01   -1.763E+01   -1.755E+01   -1.747E+01   -1.739E+01   -1.732E+01   -1.724E+01
    -1.716E+01   -1.708E+01   -1.701E+01   -1.693E+01   -1.686E+01   -1.678E+01   -1.670E+01   -1.663E+01   -1.655E+01   -1.648E+01
    -1.640E+01   -1.633E+01   -1.626E+01   -1.618E+01   -1.611E+01   -1.604E+01   -1.596E+01   -1.589E+01   -1.582E+01   -1.574E+01
    -1.567E+01   -1.560E+01   -1.553E+01   -1.546E+01   -1.539E+01   -1.532E+01   -1.525E+01   -1.517E+01   -1.510E+01   -1.503E+01
    -1.496E+01   -1.490E+01   -1.483E+01   -1.476E+01   -1.469E+01   -1.462E+01   -1.455E+01   -1.448E+01   -1.442E+01   -1.435E+01
    -1.428E+01   -1.421E+01   -1.415E+01   -1.408E+01   -1.401E+01   -1.395E+01   -1.388E+01   -1.381E+01   -1.375E+01   -1.368E+01
    -1.362E+01   -1.355E+01   -1.349E+01   -1.342E+01   -1.336E+01   -1.329E+01   -1.323E+01   -1.316E+01   -1.310E+01   -1.304E+01
    -1.297E+01   -1.291E+01   -1.285E+01   -1.278E+01   -1.272E+01   -1.266E+01   -1.260E+01   -1.253E+01   -1.247E+01   -1.241E+01
    -1.235E+01   -1.229E+01   -1.222E+01   -1.216E+01   -1.210E+01   -1.204E+01   -1.198E+01   -1.192E+01   -1.186E+01   -1.180E+01
    -1.174E+01   -1.168E+01   -1.162E+01   -1.156E+01   -1.150E+01   -1.144E+01   -1.138E+01   -1.133E+01   -1.127E+01   -1.121E+01
    -1.115E+01   -1.109E+01   -1.103E+01   -1.098E+01   -1.092E+01   -1.086E+01   -1.080E+01   -1.075E+01   -1.069E+01   -1.063E+01
    -1.058E+01   -1.052E+01   -1.046E+01   -1.041E+01   -1.035E+01   -1.030E+01   -1.024E+01   -1.018E+01   -1.013E+01   -1.007E+01
    -1.002E+01   -9.963E+00   -9.909E+00   -9.854E+00   -9.799E+00   -9.745E+00   -9.691E+00   -9.637E+00   -9.583E+00   -9.529E+00
    -9.476E+00   -9.422E+00   -9.369E+00   -9.316E+00   -9.263E+00   -9.210E+00   -9.157E+00   -9.105E+00   -9.052E+00   -9.000E+00
    -8.948E+00   -8.896E+00   -8.844E+00   -8.792E+00   -8.741E+00   -8.689E+00   -8.638E+00   -8.587E+00   -8.536E+00   -8.485E+00
    -8.434E+00   -8.384E+00   -8.333E+00   -8.283E+00   -8.233E+00   -8.183E+00   -8.133E+00   -8.083E+00   -8.034E+00   -7.984E+00
    -7.935E+00   -7.886E+00   -7.837E+00   -7.788E+00   -7.739E+00   -7.690E+00   -7.642E+00   -7.593E+00   -7.545E+00   -7.497E+00
    -7.449E+00   -7.401E+00   -7.353E+00   -7.306E+00   -7.258E+00   -7.211E+00   -7.164E+00   -7.117E+00   -7.070E+00   -7.023E+00
    -6.976E+00   -6.929E+00   -6.883E+00   -6.836E+00   -6.790E+00   -6.744E+00   -6.698E+00   -6.652E+00   -6.606E+00   -6.561E+00
    -6.515E+00   -6.470E+00   -6.424E+00   -6.379E+00   -6.334E+00   -6.289E+00   -6.244E+00   -6.199E+00   -6.154E+00   -6.110E+00
    -6.065E+00   -6.021E+00   -5.977E+00   -5.932E+00   -5.888E+00   -5.844E+00   -5.801E+00   -5.757E+00   -5.713E+00   -5.670E+00
    -5.626E+00   -5.583E+00   -5.539E+00   -5.496E+00   -5.453E+00   -5.410E+00   -5.367E+00   -5.324E+00   -5.282E+00   -5.239E+00
    -5.196E+00   -5.154E+00   -5.111E+00   -5.069E+00   -5.027E+00   -4.985E+00   -4.943E+00   -4.900E+00   -4.858E+00   -4.817E+00
    -4.775E+00   -4.733E+00   -4.691E+00   -4.650E+00   -4.608E+00   -4.566E+00   -4.525E+00   -4.483E+00   -4.442E+00   -4.401E+00
    -4.360E+00   -4.318E+00   -4.277E+00   -4.236E+00   -4.195E+00   -4.154E+00   -4.113E+00   -4.072E+00   -4.031E+00   -3.990E+00
    -3.949E+00   -3.909E+00   -3.868E+00   -3.827E+00   -3.786E+00   -3.746E+00   -3.705E+00   -3.665E+00   -3.624E+00   -3.583E+00
    -3.543E+00   -3.502E+00   -3.462E+00   -3.422E+00   -3.381E+00   -3.341E+00   -3.300E+00   -3.260E+00   -3.220E+00   -3.179E+00
    -3.139E+00   -3.099E+00   -3.059E+00   -3.018E+00   -2.978E+00   -2.938E+00   -2.898E+00   -2.858E+00   -2.818E+00   -2.777E+00
    -2.737E+00   -2.697E+00   -2.657E+00   -2.617E+00   -2.577E+00   -2.537E+00   -2.497E+00   -2.456E+00   -2.416E+00   -2.376E+00
    -2.336E+00   -2.296E+00   -2.256E+00   -2.216E+00   -2.176E+00   -2.136E+00   -2.096E+00   -2.056E+00
 Asp      Conc. = 1.21E+02
