 LCModel (Version 6.3-1L) Copyright: S.W. Provencher.          Ref.: Magn. Reson. Med. 30:672-679 (1993).                
 Slice#2 Row#4 Col#12  PD_24_press_2_raw_act
 36 lines in following concentration table = NCONC+1
    Conc.  %SD /Cr+PCr  Metabolite                                         
   90.969  55%   1.167 Ala                                                 
   20.032 148%   0.257 Asp                                                 
   48.707 110%   0.625 Cr                                                  
   29.263 179%   0.375 PCr                                                 
    9.330 188%   0.120 GABA                                                
   13.562 132%   0.174 Glc                                                 
   12.410 598%   0.159 Gln                                                 
  191.873  56%   2.461 Glu                                                 
   30.615  42%   0.393 GPC                                                 
    0.000 999%   0.000 PCh                                                 
   31.313 105%   0.402 GSH                                                 
    0.000 999%   0.000 Ins                                                 
   50.371  87%   0.646 Lac                                                 
  153.822  35%   1.973 NAA                                                 
   67.122  62%   0.861 NAAG                                                
    0.000 999%   0.000 Scyllo                                              
   13.634 212%   0.175 Tau                                                 
   58.132  59%   0.746 -CrCH2                                              
   30.615  42%   0.393 GPC+PCh                                             
  220.943  33%   2.834 NAA+NAAG                                            
   77.970  44%   1.000 Cr+PCr                                              
  204.283  60%   2.620 Glu+Gln                                             
  351.016 131%   4.502 Lip13a                                              
    0.000 999%   0.000 Lip13b                                              
  132.742 150%   1.702 Lip09                                               
 1.62E+03  17%  20.748 MM09                                                
   90.326 142%   1.158 Lip20                                               
  848.181  43%  10.878 MM20                                                
  703.445  35%   9.022 MM12                                                
 1.30E+03  29%  16.736 MM14                                                
 1.24E+03  25%  15.868 MM17                                                
  351.016 131%   4.502 Lip13a+Lip13b                                       
 2.36E+03  16%  30.260 MM14+Lip13a+Lip13b+MM12                             
 1.75E+03  11%  22.450 MM09+Lip09                                          
  938.507  38%  12.037 MM20+Lip20                                          
   6 lines in following misc. output table
  FWHM = 0.038 ppm    S/N =   2                                            
  Data shift = 0.023 ppm                                                   
  Ph:-147 deg     -38.9 deg/ppm                                            
  alphaB,S = 8.5E+01,   6.3E+00                                            
   14 spline knots.   Ns = 7(1)                                            
   2 inflections.     3 extrema                                            
  498 points on ppm-axis = NY
      4.000000     3.992357     3.984714     3.977070     3.969427     3.961784     3.954141     3.946497     3.938854     3.931211
      3.923568     3.915925     3.908281     3.900638     3.892995     3.885352     3.877708     3.870065     3.862422     3.854779
      3.847136     3.839492     3.831849     3.824206     3.816563     3.808919     3.801276     3.793633     3.785990     3.778347
      3.770703     3.763060     3.755417     3.747774     3.740130     3.732487     3.724844     3.717201     3.709558     3.701914
      3.694271     3.686628     3.678985     3.671341     3.663698     3.656055     3.648412     3.640769     3.633125     3.625482
      3.617839     3.610196     3.602552     3.594909     3.587266     3.579623     3.571980     3.564336     3.556693     3.549050
      3.541407     3.533763     3.526120     3.518477     3.510834     3.503191     3.495547     3.487904     3.480261     3.472618
      3.464974     3.457331     3.449688     3.442045     3.434402     3.426758     3.419115     3.411472     3.403829     3.396185
      3.388542     3.380899     3.373256     3.365613     3.357969     3.350326     3.342683     3.335040     3.327396     3.319753
      3.312110     3.304467     3.296824     3.289180     3.281537     3.273894     3.266251     3.258607     3.250964     3.243321
      3.235678     3.228034     3.220391     3.212748     3.205105     3.197462     3.189818     3.182175     3.174532     3.166889
      3.159245     3.151602     3.143959     3.136316     3.128673     3.121029     3.113386     3.105743     3.098100     3.090456
      3.082813     3.075170     3.067527     3.059884     3.052240     3.044597     3.036954     3.029311     3.021667     3.014024
      3.006381     2.998738     2.991095     2.983451     2.975808     2.968165     2.960522     2.952878     2.945235     2.937592
      2.929949     2.922306     2.914662     2.907019     2.899376     2.891733     2.884089     2.876446     2.868803     2.861160
      2.853517     2.845873     2.838230     2.830587     2.822944     2.815300     2.807657     2.800014     2.792371     2.784728
      2.777084     2.769441     2.761798     2.754155     2.746511     2.738868     2.731225     2.723582     2.715939     2.708295
      2.700652     2.693009     2.685366     2.677722     2.670079     2.662436     2.654793     2.647150     2.639506     2.631863
      2.624220     2.616577     2.608933     2.601290     2.593647     2.586004     2.578361     2.570717     2.563074     2.555431
      2.547788     2.540144     2.532501     2.524858     2.517215     2.509572     2.501928     2.494285     2.486642     2.478999
      2.471355     2.463712     2.456069     2.448426     2.440783     2.433139     2.425496     2.417853     2.410210     2.402566
      2.394923     2.387280     2.379637     2.371994     2.364350     2.356707     2.349064     2.341421     2.333777     2.326134
      2.318491     2.310848     2.303205     2.295561     2.287918     2.280275     2.272632     2.264988     2.257345     2.249702
      2.242059     2.234416     2.226772     2.219129     2.211486     2.203843     2.196199     2.188556     2.180913     2.173270
      2.165627     2.157983     2.150340     2.142697     2.135054     2.127410     2.119767     2.112124     2.104481     2.096838
      2.089194     2.081551     2.073908     2.066265     2.058621     2.050978     2.043335     2.035692     2.028049     2.020405
      2.012762     2.005119     1.997476     1.989833     1.982190     1.974546     1.966903     1.959260     1.951617     1.943974
      1.936331     1.928688     1.921045     1.913402     1.905759     1.898115     1.890472     1.882829     1.875186     1.867543
      1.859900     1.852257     1.844614     1.836971     1.829327     1.821684     1.814041     1.806398     1.798755     1.791112
      1.783469     1.775826     1.768183     1.760540     1.752896     1.745253     1.737610     1.729967     1.722324     1.714681
      1.707038     1.699395     1.691752     1.684108     1.676465     1.668822     1.661179     1.653536     1.645893     1.638250
      1.630607     1.622964     1.615321     1.607677     1.600034     1.592391     1.584748     1.577105     1.569462     1.561819
      1.554176     1.546533     1.538890     1.531246     1.523603     1.515960     1.508317     1.500674     1.493031     1.485388
      1.477745     1.470102     1.462458     1.454815     1.447172     1.439529     1.431886     1.424243     1.416600     1.408957
      1.401314     1.393671     1.386027     1.378384     1.370741     1.363098     1.355455     1.347812     1.340169     1.332526
      1.324883     1.317240     1.309596     1.301953     1.294310     1.286667     1.279024     1.271381     1.263738     1.256095
      1.248452     1.240808     1.233165     1.225522     1.217879     1.210236     1.202593     1.194950     1.187307     1.179664
      1.172021     1.164377     1.156734     1.149091     1.141448     1.133805     1.126162     1.118519     1.110876     1.103233
      1.095590     1.087946     1.080303     1.072660     1.065017     1.057374     1.049731     1.042088     1.034445     1.026802
      1.019158     1.011515     1.003872     0.996229     0.988586     0.980943     0.973300     0.965657     0.958014     0.950371
      0.942727     0.935084     0.927441     0.919798     0.912155     0.904512     0.896869     0.889226     0.881583     0.873940
      0.866296     0.858653     0.851010     0.843367     0.835724     0.828081     0.820438     0.812795     0.805152     0.797508
      0.789865     0.782222     0.774579     0.766936     0.759293     0.751650     0.744007     0.736364     0.728721     0.721077
      0.713434     0.705791     0.698148     0.690505     0.682862     0.675219     0.667576     0.659933     0.652290     0.644646
      0.637003     0.629360     0.621717     0.614074     0.606431     0.598788     0.591145     0.583502     0.575858     0.568215
      0.560572     0.552929     0.545286     0.537643     0.530000     0.522357     0.514714     0.507071     0.499427     0.491784
      0.484141     0.476498     0.468855     0.461212     0.453569     0.445925     0.438282     0.430639     0.422996     0.415353
      0.407710     0.400067     0.392424     0.384780     0.377137     0.369494     0.361851     0.354208     0.346565     0.338922
      0.331278     0.323635     0.315992     0.308349     0.300706     0.293063     0.285420     0.277777     0.270133     0.262490
      0.254847     0.247204     0.239561     0.231918     0.224275     0.216631     0.208988     0.201345
 NY phased data points follow
  -1.14950E+01 -2.77049E+00 -6.60547E+00 -6.63911E+00 -1.35254E+00  4.53795E-01 -1.23990E+01 -8.38154E+00 -5.75066E-01 -8.14369E+00
  -1.03556E+01 -2.96661E+00 -1.07835E+01  4.68529E-01 -4.41854E+00 -4.80234E+00 -1.03159E+01 -7.79358E+00 -7.82377E+00 -8.21116E+00
  -4.14066E+00 -1.31692E+01 -5.09664E+00 -5.45725E+00 -2.32055E+00  2.10816E+00 -7.55418E+00 -4.81604E+00 -8.36536E+00  1.10122E+00
  -9.21152E+00 -1.96959E+00 -2.21242E+00 -1.95275E+00 -2.47929E+00 -3.21709E+00 -5.34696E+00 -5.38175E+00 -8.08719E+00 -3.41364E+00
  -4.27654E+00 -6.64212E-01 -4.66333E+00 -1.65021E+00 -1.00319E+01 -9.58224E-01 -1.54603E+00 -1.41275E+00 -4.20479E+00 -5.06437E+00
  -8.86004E-02 -7.09301E-01  1.95251E+00 -8.86042E+00 -1.69894E+00 -3.29071E-01 -5.92729E-01 -6.68056E+00 -2.11363E+00 -2.92465E+00
  -7.41176E+00 -3.42237E+00 -1.04827E+01 -4.72377E+00 -4.65836E+00 -4.47209E+00 -4.12348E+00 -2.48388E+00 -6.55990E+00 -4.10564E+00
  -2.09871E+00  5.16296E+00 -6.98129E+00 -5.99061E+00 -4.49360E+00  2.65150E+00 -3.11212E+00  3.56558E+00 -5.94824E+00 -7.51933E-01
  -5.04391E+00  1.49340E+00 -6.61549E+00 -2.80024E+00 -2.60848E+00 -6.00008E+00 -9.32859E+00 -7.13102E+00 -4.97673E+00 -7.99611E-01
  -1.83685E+00  1.94740E+00 -1.99313E-01  4.85427E+00 -4.44519E+00 -3.19517E+00  5.42931E-01 -2.44457E+00  1.27535E+00  5.33881E+00
   1.07712E+00  7.58100E+00  4.82940E+00  1.82694E+00  1.11740E+00 -5.02653E+00 -2.08148E+00 -5.17749E+00 -3.41812E+00 -4.13397E+00
  -5.32678E+00 -1.85046E+00 -5.00386E+00 -2.83632E+00 -4.22044E+00 -4.42389E+00 -4.12148E+00  2.45506E+00 -5.48082E-01  3.35023E+00
  -4.01587E+00 -3.66803E+00 -1.29136E+00  3.82338E+00  3.71822E+00  6.37609E+00  2.51800E+00  8.53319E+00  8.26223E+00  7.47834E+00
  -1.98419E+00  4.00958E+00 -1.31020E+00  3.29051E+00  2.63119E-02  6.56646E+00  3.87333E+00 -6.00780E+00 -5.93976E-01 -1.70752E+00
   1.01095E-01  5.28391E+00  3.79361E+00  8.82005E+00 -3.04878E+00  2.06555E+00  5.93314E+00 -6.02487E-01  3.37472E+00  2.83428E+00
  -2.51654E+00  4.02050E+00 -2.71454E+00  2.96773E+00  3.37710E+00  9.41070E+00 -7.82942E+00  1.72699E+00 -1.27287E+00  6.30427E-01
   2.79864E+00 -4.39198E+00  2.66921E+00  8.42696E+00  4.96598E+00  4.51058E+00  5.15280E-01  1.25041E+00 -5.43792E-02 -1.12509E+00
   2.50954E+00  1.53120E-01  4.62394E+00  4.89111E+00  4.22247E-01 -4.60381E+00  8.75700E-01 -1.12855E-01  5.70858E+00  5.14697E+00
  -4.95041E+00  1.02878E+00  9.30295E-01  3.81948E-01  5.79467E+00  4.82862E+00  6.47122E+00  2.54691E+00 -1.27735E+00  5.95889E+00
   5.11439E+00  3.82729E+00  5.02735E+00  6.04836E+00  2.17518E+00  4.09457E-01  6.62707E-02 -1.05131E+00 -1.63145E+00  2.31185E-01
   3.91004E-02  8.22298E+00  3.21461E+00  7.45868E+00  7.92748E+00  4.11911E+00  8.16862E-02  1.73732E+00  1.56462E+00  1.08158E+00
   3.63023E+00  8.95771E+00  5.81115E+00  6.81649E+00  4.82941E+00  6.18563E+00 -2.16712E-01  6.74311E+00  3.03379E+00 -1.50596E+00
  -5.25013E+00 -1.14742E-01 -2.32242E+00 -3.91418E+00  3.47431E+00  9.59632E-01  5.54249E+00 -1.04820E+00  3.56949E+00  3.01498E+00
   2.79064E+00  2.90472E+00  1.60604E+00  3.37896E+00  4.51400E+00 -8.20191E-01  8.53087E+00  1.85917E+00  5.24868E+00  2.84778E-02
   5.79965E+00  6.67881E+00  3.98438E+00  8.96497E+00  1.87149E+00  1.61764E+00  1.42892E+01 -6.36508E-02  7.83761E+00  3.88011E+00
   1.30725E+01  3.84409E+00  1.59901E+00  1.17246E+01  1.07511E+01  8.18975E+00  1.68779E+01  1.90680E+01  1.21682E+01  1.98769E+01
   1.22525E+01  1.74103E+01  4.40761E+00  5.60614E+00  1.95333E+00  4.18445E+00 -3.80483E+00  6.38856E+00  6.35482E+00  2.30541E+00
   9.12733E-01  5.97225E+00 -1.51184E-01 -1.22397E+00  1.89563E+00  1.22171E+00  4.29723E+00  3.00061E+00  1.96948E+00  1.10517E+00
  -7.21411E-01  5.09347E+00  5.26241E+00  7.18610E+00  5.38965E-01  4.35185E+00  7.84370E+00  3.70864E+00  8.46486E+00  1.69101E+00
   2.64849E+00  2.69519E+00  1.05232E+00  8.07344E-01  8.59506E+00  1.16744E+01  4.31088E+00  8.00921E+00  9.67970E+00  7.94215E+00
   1.50945E+01  1.05281E+01  6.03379E+00  1.22532E+01  8.22521E+00  2.15831E+01  1.29961E+01  9.20014E+00  1.46297E+01  1.42221E+01
   2.14765E+01  1.41790E+01  1.16016E+01  1.17475E+01  1.78499E+01  8.16339E+00  1.22853E+01  1.14504E+01  1.84403E+01  1.25904E+01
   1.09030E+01  1.76420E+01  1.62735E+01  1.74244E+01  1.58658E+01  1.58451E+01  1.62987E+01  1.46184E+01  1.69355E+01  7.44329E+00
   4.72106E+00  5.01270E+00  1.02044E+01  1.45858E+01  1.69550E+01  1.07445E+01  9.02212E+00  1.15395E+01  1.08795E+01  1.43642E+01
   1.70445E+01  1.02781E+01  1.06552E+01  1.70066E+01  1.13147E+01  1.53989E+01  1.02478E+01  1.88199E+01  8.78564E+00  7.33629E+00
   6.24109E+00  9.22314E+00  1.24692E+01  5.27623E+00  1.09358E+01  1.42153E+01  8.21124E+00  8.91897E+00  9.75763E+00  6.58730E+00
   1.45753E+01  8.31475E+00  7.26194E+00  1.09159E+01  7.69603E+00  1.81951E+01  8.49434E+00  1.12426E+01  1.71246E+01  1.53910E+01
   1.23970E+01  1.26649E+01  1.52885E+01  9.36787E+00  9.39739E+00  1.00050E+01  1.91108E+01  1.51479E+01  1.69435E+01  1.15503E+01
   1.07521E+01  1.60296E+01  1.72845E+01  1.15813E+01  1.50211E+01  1.40841E+01  2.10462E+01  1.24842E+01  8.60812E+00  9.82732E+00
   1.88770E+01  1.39665E+01  2.48441E+01  1.03720E+01  1.84351E+01  1.37960E+01  2.14988E+01  1.76183E+01  1.45873E+01  8.04181E+00
   1.36108E+01  2.00497E+01  1.28602E+01  1.56513E+01  1.29224E+01  1.42343E+01  1.90819E+01  1.13487E+01  1.99377E+01  1.54541E+01
   1.70611E+01  1.78200E+01  1.48740E+01  9.78902E+00  1.01431E+01  6.94340E+00  6.86088E+00  1.32790E+01  1.46968E+01  1.85839E+01
   1.26486E+01  1.62403E+01  1.57323E+01  1.03369E+01  9.49704E+00  1.01669E+01  9.92270E+00  1.03865E+01  1.27978E+01  1.00305E+01
   1.12600E+01  1.19472E+01  1.14591E+01  1.04980E+01  9.89141E+00  4.00490E+00  3.72089E+00  2.89925E+00  4.77793E+00  7.31145E+00
   5.03714E+00  1.40199E+01  9.75056E-01  9.92022E+00  1.20812E+01  6.74313E+00  9.21741E+00  7.55807E+00  8.99055E+00  1.23535E+01
   1.25064E+01  8.80663E+00  4.57905E+00  8.40598E+00  1.04360E+01  1.08607E+01  7.34731E+00  9.10335E+00  5.90104E+00  2.77256E+00
   7.41182E+00  5.69558E+00  6.37025E+00  8.05134E+00  7.85665E+00  7.50754E-01  1.01714E+01  7.90921E+00  4.51343E+00 -1.78699E-02
   3.94440E+00  1.10654E+01  8.30480E+00  8.45781E+00  3.56365E+00  5.02550E+00  5.19551E+00  4.95996E+00  6.44569E+00  3.93967E+00
   1.14056E+01  9.97519E+00  2.43588E+00  8.26197E+00  9.48671E+00  5.66450E+00  4.84327E+00  1.04599E+01  8.61431E+00  8.12751E+00
   1.07484E+01  2.75724E+00  6.41856E+00  3.51202E+00  1.50001E+00  1.05683E+01  6.87096E+00  6.57532E+00
 NY points of the fit to the data follow
  -4.91447E+00 -4.75054E+00 -4.49959E+00 -4.27671E+00 -4.42580E+00 -4.97442E+00 -5.31029E+00 -5.05157E+00 -4.53122E+00 -4.09333E+00
  -3.53668E+00 -2.74706E+00 -2.25524E+00 -2.56309E+00 -3.43327E+00 -4.28447E+00 -4.86667E+00 -5.04437E+00 -4.81722E+00 -4.41243E+00
  -3.97196E+00 -3.46112E+00 -3.09264E+00 -3.17552E+00 -3.63179E+00 -4.05060E+00 -4.28775E+00 -4.48966E+00 -4.44974E+00 -3.77065E+00
  -2.66189E+00 -1.81486E+00 -1.59575E+00 -1.89022E+00 -2.52748E+00 -3.41933E+00 -4.24646E+00 -4.66249E+00 -4.64597E+00 -4.33162E+00
  -3.81942E+00 -3.30536E+00 -3.02536E+00 -3.02963E+00 -3.18467E+00 -3.32797E+00 -3.37385E+00 -3.36712E+00 -3.34659E+00 -3.26397E+00
  -3.16032E+00 -3.11852E+00 -3.13343E+00 -3.17308E+00 -3.22783E+00 -3.26436E+00 -3.26270E+00 -3.24355E+00 -3.22408E+00 -3.19773E+00
  -3.16029E+00 -3.10867E+00 -3.05385E+00 -3.00486E+00 -2.96419E+00 -2.93186E+00 -2.91284E+00 -2.90698E+00 -2.91517E+00 -2.92869E+00
  -2.90776E+00 -2.82482E+00 -2.70022E+00 -2.58163E+00 -2.49659E+00 -2.45546E+00 -2.46928E+00 -2.53954E+00 -2.62059E+00 -2.66168E+00
  -2.65204E+00 -2.59672E+00 -2.50710E+00 -2.42379E+00 -2.38284E+00 -2.37384E+00 -2.36475E+00 -2.33382E+00 -2.28490E+00 -2.24064E+00
  -2.21708E+00 -2.21530E+00 -2.23111E+00 -2.24218E+00 -2.25746E+00 -2.48511E+00 -2.82922E+00 -2.34014E+00 -5.63713E-01  1.66368E+00
   3.27116E+00  4.25835E+00  4.70836E+00  4.02552E+00  1.86806E+00 -8.60605E-01 -2.83506E+00 -3.68531E+00 -3.57674E+00 -2.75001E+00
  -1.88674E+00 -1.50916E+00 -1.37541E+00 -1.28949E+00 -1.21135E+00 -1.14403E+00 -1.09146E+00 -1.04579E+00 -1.01756E+00 -1.08129E+00
  -1.39326E+00 -1.54758E+00 -7.65274E-01  9.81826E-01  2.79333E+00  4.06317E+00  4.86805E+00  5.03458E+00  4.07515E+00  2.06612E+00
  -2.51096E-02 -1.37066E+00 -1.89094E+00 -1.73528E+00 -1.19851E+00 -8.61871E-01 -8.20363E-01 -7.57777E-01 -5.60360E-01 -2.83739E-01
   1.46622E-03  2.06327E-01  2.54910E-01  1.70103E-01  2.81657E-02 -9.54604E-02 -1.67581E-01 -1.96649E-01 -2.02696E-01 -2.11532E-01
  -2.51970E-01 -3.05130E-01 -3.33553E-01 -3.07918E-01 -2.24345E-01 -1.30387E-01 -9.13226E-02 -1.28000E-01 -2.11508E-01 -2.92145E-01
  -3.48522E-01 -3.60195E-01 -2.90266E-01 -1.29493E-01  2.41623E-02  6.09565E-02 -3.25752E-02 -1.76968E-01 -2.53780E-01 -2.16333E-01
  -1.38282E-01 -1.05262E-01 -1.27051E-01 -1.60114E-01 -1.53783E-01 -1.39722E-01 -1.34563E-01 -1.01668E-01 -3.42248E-03  1.08820E-01
   1.74996E-01  1.69096E-01  1.19266E-01  1.29265E-01  2.72832E-01  4.79125E-01  6.74309E-01  9.02445E-01  1.18552E+00  1.44733E+00
   1.59044E+00  1.61896E+00  1.49904E+00  1.19745E+00  8.42233E-01  6.57815E-01  6.71879E-01  7.66051E-01  9.35030E-01  1.23506E+00
   1.63787E+00  1.99800E+00  2.22477E+00  2.33102E+00  2.26280E+00  1.95197E+00  1.47911E+00  9.68049E-01  5.02203E-01  1.71164E-01
   3.09177E-01  1.14025E+00  2.42361E+00  3.59691E+00  4.39275E+00  4.82820E+00  4.62278E+00  3.40947E+00  1.46992E+00 -2.45257E-01
  -1.05282E+00 -9.49297E-01 -1.32605E-01  1.29467E+00  2.99782E+00  4.46163E+00  5.21443E+00  5.17555E+00  4.63062E+00  3.92687E+00
   3.39109E+00  3.22689E+00  3.42793E+00  3.90934E+00  4.50445E+00  4.95597E+00  5.14597E+00  5.02649E+00  4.62550E+00  4.13733E+00
   3.86785E+00  3.95087E+00  4.35879E+00  5.01912E+00  5.82768E+00  6.52668E+00  6.81655E+00  6.68254E+00  6.28734E+00  5.66939E+00
   5.37001E+00  6.15890E+00  7.80171E+00  8.85986E+00  9.34599E+00  1.10292E+01  1.40586E+01  1.62650E+01  1.65139E+01  1.61161E+01
   1.55458E+01  1.35170E+01  9.65939E+00  5.63566E+00  2.88767E+00  1.65288E+00  1.88625E+00  3.18957E+00  4.30522E+00  4.66746E+00
   4.78347E+00  4.89411E+00  4.98658E+00  5.05502E+00  5.10008E+00  5.07317E+00  4.95705E+00  4.79889E+00  4.67317E+00  4.61631E+00
   4.62620E+00  4.68552E+00  4.77656E+00  4.87737E+00  4.96798E+00  5.04413E+00  5.11646E+00  5.20262E+00  5.32086E+00  5.48316E+00
   5.69089E+00  5.94199E+00  6.23464E+00  6.55891E+00  6.89875E+00  7.25644E+00  7.64687E+00  8.07695E+00  8.54820E+00  9.06182E+00
   9.61075E+00  1.01826E+01  1.07607E+01  1.13289E+01  1.18741E+01  1.23836E+01  1.28481E+01  1.32623E+01  1.36186E+01  1.39092E+01
   1.41295E+01  1.42774E+01  1.43545E+01  1.43651E+01  1.43168E+01  1.42192E+01  1.40838E+01  1.39221E+01  1.37431E+01  1.35448E+01
   1.33233E+01  1.33302E+01  1.38150E+01  1.44573E+01  1.46512E+01  1.42628E+01  1.35825E+01  1.26287E+01  1.11395E+01  9.31007E+00
   8.19057E+00  8.51908E+00  9.92519E+00  1.16349E+01  1.32812E+01  1.46187E+01  1.53773E+01  1.53006E+01  1.44482E+01  1.33419E+01
   1.23593E+01  1.18180E+01  1.19906E+01  1.25152E+01  1.27197E+01  1.25033E+01  1.20785E+01  1.14583E+01  1.04736E+01  9.35781E+00
   8.77644E+00  9.06034E+00  9.86569E+00  1.08073E+01  1.17406E+01  1.24605E+01  1.27548E+01  1.25645E+01  1.20747E+01  1.15731E+01
   1.11999E+01  1.10349E+01  1.10970E+01  1.12150E+01  1.12723E+01  1.12854E+01  1.12760E+01  1.12524E+01  1.12188E+01  1.11785E+01
   1.11348E+01  1.10908E+01  1.10502E+01  1.10168E+01  1.09946E+01  1.09875E+01  1.09993E+01  1.10338E+01  1.10944E+01  1.11843E+01
   1.13060E+01  1.14618E+01  1.16531E+01  1.18805E+01  1.21441E+01  1.24428E+01  1.27746E+01  1.31364E+01  1.35242E+01  1.39325E+01
   1.43551E+01  1.47845E+01  1.52125E+01  1.56302E+01  1.60281E+01  1.63966E+01  1.67265E+01  1.70088E+01  1.72356E+01  1.74001E+01
   1.74969E+01  1.75225E+01  1.74754E+01  1.73558E+01  1.71660E+01  1.69103E+01  1.65942E+01  1.62250E+01  1.58109E+01  1.53607E+01
   1.48837E+01  1.43890E+01  1.38856E+01  1.33817E+01  1.28847E+01  1.24010E+01  1.19360E+01  1.14940E+01  1.10780E+01  1.06903E+01
   1.03320E+01  1.00035E+01  9.70443E+00  9.43400E+00  9.19090E+00  8.97359E+00  8.78026E+00  8.60903E+00  8.45799E+00  8.32530E+00
   8.20911E+00  8.10777E+00  8.01964E+00  7.94332E+00  7.87746E+00  7.82090E+00  7.77258E+00  7.73158E+00  7.69704E+00  7.66825E+00
   7.64456E+00  7.62544E+00  7.61037E+00  7.59892E+00  7.59070E+00  7.58540E+00  7.58270E+00  7.58237E+00  7.58417E+00  7.58789E+00
   7.59334E+00  7.60040E+00  7.60889E+00  7.61872E+00  7.62975E+00  7.64189E+00  7.65503E+00  7.66911E+00  7.68405E+00  7.69979E+00
   7.71624E+00  7.73337E+00  7.75112E+00  7.76946E+00  7.78833E+00  7.80772E+00  7.82755E+00  7.84782E+00  7.86849E+00  7.88955E+00
   7.91095E+00  7.93269E+00  7.95473E+00  7.97707E+00  7.99967E+00  8.02255E+00  8.04565E+00  8.06899E+00  8.09252E+00  8.11627E+00
   8.14020E+00  8.16433E+00  8.18860E+00  8.21305E+00  8.23764E+00  8.26240E+00  8.28728E+00  8.31230E+00  8.33743E+00  8.36270E+00
   8.38807E+00  8.41357E+00  8.43917E+00  8.46488E+00  8.49067E+00  8.51659E+00  8.54259E+00  8.56871E+00
 NY background values follow
    -4.909E+00   -4.882E+00   -4.854E+00   -4.826E+00   -4.799E+00   -4.771E+00   -4.743E+00   -4.716E+00   -4.688E+00   -4.660E+00
    -4.633E+00   -4.605E+00   -4.577E+00   -4.550E+00   -4.522E+00   -4.494E+00   -4.467E+00   -4.439E+00   -4.411E+00   -4.384E+00
    -4.356E+00   -4.328E+00   -4.301E+00   -4.273E+00   -4.245E+00   -4.218E+00   -4.190E+00   -4.162E+00   -4.135E+00   -4.107E+00
    -4.079E+00   -4.051E+00   -4.024E+00   -3.996E+00   -3.968E+00   -3.941E+00   -3.913E+00   -3.885E+00   -3.858E+00   -3.830E+00
    -3.802E+00   -3.775E+00   -3.747E+00   -3.719E+00   -3.692E+00   -3.664E+00   -3.636E+00   -3.609E+00   -3.581E+00   -3.553E+00
    -3.525E+00   -3.498E+00   -3.470E+00   -3.442E+00   -3.415E+00   -3.387E+00   -3.359E+00   -3.332E+00   -3.304E+00   -3.276E+00
    -3.249E+00   -3.221E+00   -3.193E+00   -3.166E+00   -3.138E+00   -3.110E+00   -3.082E+00   -3.055E+00   -3.027E+00   -2.999E+00
    -2.972E+00   -2.944E+00   -2.916E+00   -2.889E+00   -2.861E+00   -2.833E+00   -2.805E+00   -2.778E+00   -2.750E+00   -2.722E+00
    -2.695E+00   -2.667E+00   -2.639E+00   -2.612E+00   -2.584E+00   -2.556E+00   -2.529E+00   -2.501E+00   -2.473E+00   -2.445E+00
    -2.418E+00   -2.390E+00   -2.362E+00   -2.335E+00   -2.307E+00   -2.279E+00   -2.252E+00   -2.224E+00   -2.196E+00   -2.168E+00
    -2.141E+00   -2.113E+00   -2.085E+00   -2.058E+00   -2.030E+00   -2.002E+00   -1.975E+00   -1.947E+00   -1.919E+00   -1.892E+00
    -1.864E+00   -1.836E+00   -1.808E+00   -1.781E+00   -1.753E+00   -1.725E+00   -1.698E+00   -1.670E+00   -1.642E+00   -1.615E+00
    -1.587E+00   -1.559E+00   -1.531E+00   -1.504E+00   -1.476E+00   -1.448E+00   -1.421E+00   -1.393E+00   -1.365E+00   -1.338E+00
    -1.310E+00   -1.282E+00   -1.255E+00   -1.227E+00   -1.199E+00   -1.172E+00   -1.144E+00   -1.116E+00   -1.088E+00   -1.061E+00
    -1.033E+00   -1.005E+00   -9.777E-01   -9.500E-01   -9.223E-01   -8.946E-01   -8.670E-01   -8.393E-01   -8.116E-01   -7.839E-01
    -7.562E-01   -7.286E-01   -7.009E-01   -6.732E-01   -6.455E-01   -6.178E-01   -5.902E-01   -5.625E-01   -5.348E-01   -5.071E-01
    -4.795E-01   -4.518E-01   -4.241E-01   -3.965E-01   -3.688E-01   -3.411E-01   -3.134E-01   -2.858E-01   -2.581E-01   -2.304E-01
    -2.028E-01   -1.751E-01   -1.474E-01   -1.198E-01   -9.211E-02   -6.445E-02   -3.678E-02   -9.123E-03    1.854E-02    4.620E-02
     7.386E-02    1.015E-01    1.292E-01    1.568E-01    1.845E-01    2.121E-01    2.398E-01    2.674E-01    2.951E-01    3.227E-01
     3.504E-01    3.780E-01    4.057E-01    4.333E-01    4.610E-01    4.886E-01    5.163E-01    5.439E-01    5.716E-01    5.992E-01
     6.268E-01    6.545E-01    6.821E-01    7.097E-01    7.374E-01    7.650E-01    7.927E-01    8.203E-01    8.479E-01    8.755E-01
     9.032E-01    9.308E-01    9.584E-01    9.860E-01    1.014E+00    1.041E+00    1.069E+00    1.097E+00    1.124E+00    1.152E+00
     1.179E+00    1.207E+00    1.235E+00    1.262E+00    1.290E+00    1.317E+00    1.345E+00    1.373E+00    1.400E+00    1.428E+00
     1.455E+00    1.483E+00    1.511E+00    1.538E+00    1.566E+00    1.593E+00    1.621E+00    1.649E+00    1.676E+00    1.704E+00
     1.731E+00    1.759E+00    1.787E+00    1.814E+00    1.842E+00    1.869E+00    1.897E+00    1.925E+00    1.952E+00    1.980E+00
     2.007E+00    2.035E+00    2.062E+00    2.090E+00    2.118E+00    2.145E+00    2.173E+00    2.200E+00    2.228E+00    2.255E+00
     2.283E+00    2.310E+00    2.338E+00    2.366E+00    2.393E+00    2.421E+00    2.448E+00    2.476E+00    2.503E+00    2.531E+00
     2.558E+00    2.586E+00    2.613E+00    2.641E+00    2.669E+00    2.696E+00    2.724E+00    2.751E+00    2.779E+00    2.806E+00
     2.834E+00    2.861E+00    2.889E+00    2.916E+00    2.944E+00    2.971E+00    2.999E+00    3.026E+00    3.054E+00    3.081E+00
     3.109E+00    3.136E+00    3.164E+00    3.191E+00    3.219E+00    3.246E+00    3.274E+00    3.301E+00    3.329E+00    3.356E+00
     3.384E+00    3.411E+00    3.439E+00    3.466E+00    3.494E+00    3.521E+00    3.549E+00    3.576E+00    3.604E+00    3.631E+00
     3.658E+00    3.686E+00    3.713E+00    3.741E+00    3.768E+00    3.796E+00    3.823E+00    3.851E+00    3.878E+00    3.906E+00
     3.933E+00    3.960E+00    3.988E+00    4.015E+00    4.043E+00    4.070E+00    4.098E+00    4.125E+00    4.152E+00    4.180E+00
     4.207E+00    4.235E+00    4.262E+00    4.290E+00    4.317E+00    4.344E+00    4.372E+00    4.399E+00    4.427E+00    4.454E+00
     4.481E+00    4.509E+00    4.536E+00    4.564E+00    4.591E+00    4.618E+00    4.646E+00    4.673E+00    4.700E+00    4.728E+00
     4.755E+00    4.783E+00    4.810E+00    4.837E+00    4.865E+00    4.892E+00    4.919E+00    4.947E+00    4.974E+00    5.001E+00
     5.029E+00    5.056E+00    5.083E+00    5.111E+00    5.138E+00    5.165E+00    5.193E+00    5.220E+00    5.247E+00    5.275E+00
     5.302E+00    5.329E+00    5.357E+00    5.384E+00    5.411E+00    5.439E+00    5.466E+00    5.493E+00    5.520E+00    5.548E+00
     5.575E+00    5.602E+00    5.630E+00    5.657E+00    5.684E+00    5.711E+00    5.739E+00    5.766E+00    5.793E+00    5.821E+00
     5.848E+00    5.875E+00    5.902E+00    5.930E+00    5.957E+00    5.984E+00    6.011E+00    6.039E+00    6.066E+00    6.093E+00
     6.120E+00    6.147E+00    6.175E+00    6.202E+00    6.229E+00    6.256E+00    6.284E+00    6.311E+00    6.338E+00    6.365E+00
     6.392E+00    6.420E+00    6.447E+00    6.474E+00    6.501E+00    6.528E+00    6.556E+00    6.583E+00    6.610E+00    6.637E+00
     6.664E+00    6.691E+00    6.719E+00    6.746E+00    6.773E+00    6.800E+00    6.827E+00    6.854E+00    6.882E+00    6.909E+00
     6.936E+00    6.963E+00    6.990E+00    7.017E+00    7.044E+00    7.071E+00    7.099E+00    7.126E+00    7.153E+00    7.180E+00
     7.207E+00    7.234E+00    7.261E+00    7.288E+00    7.315E+00    7.342E+00    7.370E+00    7.397E+00    7.424E+00    7.451E+00
     7.478E+00    7.505E+00    7.532E+00    7.559E+00    7.586E+00    7.613E+00    7.640E+00    7.667E+00    7.694E+00    7.721E+00
     7.748E+00    7.775E+00    7.802E+00    7.829E+00    7.856E+00    7.883E+00    7.910E+00    7.937E+00    7.964E+00    7.991E+00
     8.018E+00    8.045E+00    8.072E+00    8.099E+00    8.126E+00    8.153E+00    8.180E+00    8.207E+00    8.234E+00    8.261E+00
     8.288E+00    8.315E+00    8.342E+00    8.369E+00    8.396E+00    8.423E+00    8.450E+00    8.477E+00    8.504E+00    8.531E+00
     8.558E+00    8.585E+00    8.612E+00    8.638E+00    8.665E+00    8.692E+00    8.719E+00    8.746E+00
 Ala      Conc. = 9.10E+01
