 LCModel (Version 6.3-1L) Copyright: S.W. Provencher.          Ref.: Magn. Reson. Med. 30:672-679 (1993).                
 Slice#2 Row#2 Col#5  PD_24_press_2_raw_act
 36 lines in following concentration table = NCONC+1
    Conc.  %SD /Cr+PCr  Metabolite                                         
    0.000 999%   0.000 Ala                                                 
   85.658 152%   0.179 Asp                                                 
  401.286  62%   0.838 Cr                                                  
   77.597 319%   0.162 PCr                                                 
   77.808 101%   0.162 GABA                                                
   87.918  90%   0.184 Glc                                                 
  538.862  70%   1.125 Gln                                                 
  861.986  50%   1.800 Glu                                                 
  178.257  20%   0.372 GPC                                                 
    0.000 999%   0.000 PCh                                                 
  179.316  72%   0.374 GSH                                                 
  296.457 139%   0.619 Ins                                                 
    0.000 999%   0.000 Lac                                                 
 1.27E+03   9%   2.643 NAA                                                 
    0.000 999%   0.000 NAAG                                                
    8.647 277% 1.8E-02 Scyllo                                              
   12.228 999% 2.6E-02 Tau                                                 
    0.000 999%   0.000 -CrCH2                                              
  178.257  20%   0.372 GPC+PCh                                             
 1.27E+03   9%   2.643 NAA+NAAG                                            
  478.884  19%   1.000 Cr+PCr                                              
 1.40E+03  41%   2.925 Glu+Gln                                             
    0.000 999%   0.000 Lip13a                                              
    0.000 999%   0.000 Lip13b                                              
 1.39E-03 999% 2.9E-06 Lip09                                               
  138.803 110%   0.290 MM09                                                
 1.12E-03 999% 2.3E-06 Lip20                                               
  262.810  96%   0.549 MM20                                                
   33.438 168% 7.0E-02 MM12                                                
    0.000 999%   0.000 MM14                                                
   26.597 417% 5.6E-02 MM17                                                
    0.000 999%   0.000 Lip13a+Lip13b                                       
   33.438 168% 7.0E-02 MM14+Lip13a+Lip13b+MM12                             
  138.804 110%   0.290 MM09+Lip09                                          
  262.811  96%   0.549 MM20+Lip20                                          
   6 lines in following misc. output table
  FWHM = 0.054 ppm    S/N =   3                                            
  Data shift = 0.008 ppm                                                   
  Ph: -30 deg       3.0 deg/ppm                                            
  alphaB,S = 1.1E+00,   2.6E+01                                            
   14 spline knots.   Ns = 6(1)                                            
  ( 7) 4 infls.   ( 8) 1 extrs.                                            
  498 points on ppm-axis = NY
      4.000000     3.992357     3.984714     3.977070     3.969427     3.961784     3.954141     3.946497     3.938854     3.931211
      3.923568     3.915925     3.908281     3.900638     3.892995     3.885352     3.877708     3.870065     3.862422     3.854779
      3.847136     3.839492     3.831849     3.824206     3.816563     3.808919     3.801276     3.793633     3.785990     3.778347
      3.770703     3.763060     3.755417     3.747774     3.740130     3.732487     3.724844     3.717201     3.709558     3.701914
      3.694271     3.686628     3.678985     3.671341     3.663698     3.656055     3.648412     3.640769     3.633125     3.625482
      3.617839     3.610196     3.602552     3.594909     3.587266     3.579623     3.571980     3.564336     3.556693     3.549050
      3.541407     3.533763     3.526120     3.518477     3.510834     3.503191     3.495547     3.487904     3.480261     3.472618
      3.464974     3.457331     3.449688     3.442045     3.434402     3.426758     3.419115     3.411472     3.403829     3.396185
      3.388542     3.380899     3.373256     3.365613     3.357969     3.350326     3.342683     3.335040     3.327396     3.319753
      3.312110     3.304467     3.296824     3.289180     3.281537     3.273894     3.266251     3.258607     3.250964     3.243321
      3.235678     3.228034     3.220391     3.212748     3.205105     3.197462     3.189818     3.182175     3.174532     3.166889
      3.159245     3.151602     3.143959     3.136316     3.128673     3.121029     3.113386     3.105743     3.098100     3.090456
      3.082813     3.075170     3.067527     3.059884     3.052240     3.044597     3.036954     3.029311     3.021667     3.014024
      3.006381     2.998738     2.991095     2.983451     2.975808     2.968165     2.960522     2.952878     2.945235     2.937592
      2.929949     2.922306     2.914662     2.907019     2.899376     2.891733     2.884089     2.876446     2.868803     2.861160
      2.853517     2.845873     2.838230     2.830587     2.822944     2.815300     2.807657     2.800014     2.792371     2.784728
      2.777084     2.769441     2.761798     2.754155     2.746511     2.738868     2.731225     2.723582     2.715939     2.708295
      2.700652     2.693009     2.685366     2.677722     2.670079     2.662436     2.654793     2.647150     2.639506     2.631863
      2.624220     2.616577     2.608933     2.601290     2.593647     2.586004     2.578361     2.570717     2.563074     2.555431
      2.547788     2.540144     2.532501     2.524858     2.517215     2.509572     2.501928     2.494285     2.486642     2.478999
      2.471355     2.463712     2.456069     2.448426     2.440783     2.433139     2.425496     2.417853     2.410210     2.402566
      2.394923     2.387280     2.379637     2.371994     2.364350     2.356707     2.349064     2.341421     2.333777     2.326134
      2.318491     2.310848     2.303205     2.295561     2.287918     2.280275     2.272632     2.264988     2.257345     2.249702
      2.242059     2.234416     2.226772     2.219129     2.211486     2.203843     2.196199     2.188556     2.180913     2.173270
      2.165627     2.157983     2.150340     2.142697     2.135054     2.127410     2.119767     2.112124     2.104481     2.096838
      2.089194     2.081551     2.073908     2.066265     2.058621     2.050978     2.043335     2.035692     2.028049     2.020405
      2.012762     2.005119     1.997476     1.989833     1.982190     1.974546     1.966903     1.959260     1.951617     1.943974
      1.936331     1.928688     1.921045     1.913402     1.905759     1.898115     1.890472     1.882829     1.875186     1.867543
      1.859900     1.852257     1.844614     1.836971     1.829327     1.821684     1.814041     1.806398     1.798755     1.791112
      1.783469     1.775826     1.768183     1.760540     1.752896     1.745253     1.737610     1.729967     1.722324     1.714681
      1.707038     1.699395     1.691752     1.684108     1.676465     1.668822     1.661179     1.653536     1.645893     1.638250
      1.630607     1.622964     1.615321     1.607677     1.600034     1.592391     1.584748     1.577105     1.569462     1.561819
      1.554176     1.546533     1.538890     1.531246     1.523603     1.515960     1.508317     1.500674     1.493031     1.485388
      1.477745     1.470102     1.462458     1.454815     1.447172     1.439529     1.431886     1.424243     1.416600     1.408957
      1.401314     1.393671     1.386027     1.378384     1.370741     1.363098     1.355455     1.347812     1.340169     1.332526
      1.324883     1.317240     1.309596     1.301953     1.294310     1.286667     1.279024     1.271381     1.263738     1.256095
      1.248452     1.240808     1.233165     1.225522     1.217879     1.210236     1.202593     1.194950     1.187307     1.179664
      1.172021     1.164377     1.156734     1.149091     1.141448     1.133805     1.126162     1.118519     1.110876     1.103233
      1.095590     1.087946     1.080303     1.072660     1.065017     1.057374     1.049731     1.042088     1.034445     1.026802
      1.019158     1.011515     1.003872     0.996229     0.988586     0.980943     0.973300     0.965657     0.958014     0.950371
      0.942727     0.935084     0.927441     0.919798     0.912155     0.904512     0.896869     0.889226     0.881583     0.873940
      0.866296     0.858653     0.851010     0.843367     0.835724     0.828081     0.820438     0.812795     0.805152     0.797508
      0.789865     0.782222     0.774579     0.766936     0.759293     0.751650     0.744007     0.736364     0.728721     0.721077
      0.713434     0.705791     0.698148     0.690505     0.682862     0.675219     0.667576     0.659933     0.652290     0.644646
      0.637003     0.629360     0.621717     0.614074     0.606431     0.598788     0.591145     0.583502     0.575858     0.568215
      0.560572     0.552929     0.545286     0.537643     0.530000     0.522357     0.514714     0.507071     0.499427     0.491784
      0.484141     0.476498     0.468855     0.461212     0.453569     0.445925     0.438282     0.430639     0.422996     0.415353
      0.407710     0.400067     0.392424     0.384780     0.377137     0.369494     0.361851     0.354208     0.346565     0.338922
      0.331278     0.323635     0.315992     0.308349     0.300706     0.293063     0.285420     0.277777     0.270133     0.262490
      0.254847     0.247204     0.239561     0.231918     0.224275     0.216631     0.208988     0.201345
 NY phased data points follow
   5.83598E+01  4.98796E+01  4.53563E+01  6.55702E+01  6.62352E+01  5.58555E+01  4.52892E+01  4.19163E+01  5.01387E+01  6.15164E+01
   5.93766E+01  6.07290E+01  5.82065E+01  5.72099E+01  5.68695E+01  4.73150E+01  5.12961E+01  5.15087E+01  5.05949E+01  5.96246E+01
   5.88323E+01  3.92924E+01  4.17355E+01  4.57839E+01  5.64234E+01  4.79201E+01  4.96717E+01  3.22890E+01  6.21548E+01  3.93212E+01
   5.47200E+01  4.09643E+01  4.52852E+01  4.71413E+01  3.56202E+01  3.68738E+01  4.89704E+01  3.93549E+01  4.09172E+01  3.37757E+01
   4.43392E+01  2.91729E+01  3.77810E+01  3.39963E+01  4.82005E+01  4.32890E+01  3.25598E+01  3.38822E+01  3.60900E+01  3.60357E+01
   3.85342E+01  3.88976E+01  3.38508E+01  3.51364E+01  2.91788E+01  4.37640E+01  3.97027E+01  3.82133E+01  3.90370E+01  3.06804E+01
   3.59369E+01  4.32052E+01  4.44412E+01  3.49605E+01  2.82447E+01  2.42458E+01  3.19193E+01  1.78139E+01  3.55653E+01  2.66482E+01
   2.45025E+01  3.03154E+01  2.39074E+01  2.43708E+01  3.71346E+01  3.58012E+01  2.72434E+01  2.37411E+01  4.04217E+01  4.37393E+01
   3.53532E+01  3.65968E+01  2.90767E+01  3.00605E+01  3.36879E+01  1.83777E+01  2.44115E+01  2.65671E+01  2.63701E+01  2.77744E+01
   3.29294E+01  2.83315E+01  3.04929E+01  2.99850E+01  2.85041E+01  3.97171E+01  2.49564E+01  1.93417E+01  2.12962E+01  2.81093E+01
   1.74568E+01  2.95171E+01  3.49791E+01  5.14331E+01  4.60931E+01  4.61891E+01  4.22184E+01  3.01827E+01  3.29420E+01  3.97955E+01
   3.58484E+01  3.49245E+01  2.71461E+01  3.08675E+01  1.39683E+01  2.05402E+01  2.08032E+01  1.77761E+01  2.28306E+01  2.49865E+01
   2.76341E+01  1.55349E+01  1.85641E+01  1.66610E+01  2.11915E+01  2.10670E+01  3.21943E+01  4.08198E+01  3.77938E+01  4.08829E+01
   3.49914E+01  3.66690E+01  2.46086E+01  2.78722E+01  3.23664E+01  2.19156E+01  2.92825E+01  2.48094E+01  1.72368E+01  2.17210E+01
   1.93662E+01  1.60249E+01  1.56142E+01  1.62594E+01  1.50059E+01  1.79217E+01  1.99486E+01  8.75914E+00  1.52495E+01  1.68559E+01
   2.87209E+01  2.71736E+01  2.87288E+01  2.46921E+01  1.82928E+01  2.18042E+01  1.73370E+01  1.42292E+01  1.76949E+01  2.14911E+01
   1.67179E+01  1.37956E+01  3.81349E+01  1.39715E+01  2.86541E+01  1.53824E+01  9.83626E+00  1.92695E+01  2.08519E+01  1.07658E+01
   1.66771E+01  2.05312E+01  1.85470E+01  1.66294E+01  1.44180E+01  1.75128E+01  2.53669E+00  8.61338E+00  1.07266E+01  4.69084E+00
   2.13913E+01  3.35605E+00  1.32452E+01  1.52161E+00  6.60076E+00  1.79386E+01  4.09258E+00  5.81925E+00  5.07642E+00  7.38501E+00
   9.69708E+00  1.80347E+01  1.74295E+01  5.92548E+00  1.46244E+01  1.49936E+01  2.08930E+01  1.93135E+01  9.02232E+00  2.01198E+01
   1.46078E+01  2.27467E+01  1.55245E+01  1.52174E+01  2.10661E+01  2.07372E+01  1.75586E+01  1.60928E+01  8.20706E+00  3.27328E+00
   2.04923E+01  9.61350E+00  4.80156E+00  1.62744E+01  2.19065E+01  1.64301E+01  1.04499E+01  2.13504E+01  1.52864E+01  1.38853E+01
   1.25123E+01  9.58253E+00  1.09035E+01  8.25313E+00  1.80895E+01  8.63936E+00  1.95267E+01  2.00892E+01  1.74567E+01  2.15768E+01
   9.03783E+00  2.19682E+01  1.78912E+01  2.69419E+01  2.69808E+01  1.48757E+01  1.57588E+01  1.72841E+01  2.66154E+01  1.34996E+01
   3.58833E+01  1.80443E+01  2.03924E+01  8.28225E+00  1.86660E+01  1.07977E+01  1.83945E+01  2.61877E+01  1.54044E+01  5.32761E+00
   2.56354E+01  7.16526E+00  4.69815E+00  7.51713E+00  1.29995E+01  1.50476E+01  1.32315E+01  1.33536E+01  1.88469E+01  3.58181E+01
   5.98768E+01  5.96861E+01  4.71677E+01  5.28269E+01  4.32788E+01  4.44298E+01  2.78697E+01  2.97919E+01  3.17651E+01  2.73395E+01
   1.34546E+01  6.20621E+00  1.33023E+01  1.72480E+01  1.65852E+01  1.58541E+01 -7.35046E-01  8.48480E+00 -3.17440E+00  1.39231E+01
   1.94358E+01  5.81691E+00  5.09573E+00  5.52545E+00  1.65801E+01  3.05955E+00  8.47227E+00  3.72101E+00  1.22332E+01  5.84385E+00
   7.93191E+00  1.23837E+01  9.53998E+00  7.51877E-01  6.52727E-01 -1.43871E+00  5.58621E+00 -9.71258E+00  3.16905E+00  8.03901E+00
   1.90325E+01  9.49090E+00  9.70849E+00  4.66042E+00  6.51620E+00  1.20536E+01  3.45538E+00  6.11639E+00  4.25716E+00 -2.07833E+00
   6.73834E+00 -5.64257E-03  1.64252E+01  1.02307E+00  4.84148E+00  1.45820E+01  1.38269E+01  1.39396E+01  2.33794E+01  2.19212E+00
   2.23361E+01  7.04982E+00  1.40621E+01  8.81823E+00  2.75580E+01  1.79665E+01  4.25188E+00  7.91040E+00  1.44890E+01  6.00930E+00
   2.43403E+01  7.27005E+00  9.85848E+00  1.53245E+01  1.40335E+00  4.43932E+00 -4.29496E+00 -4.43849E+00 -9.35031E+00  4.41994E+00
   6.67890E+00  1.02390E+00  5.87415E-01 -5.53021E+00 -1.46734E+01 -6.50317E+00 -8.33294E+00  4.53111E+00  9.91215E+00  7.08524E+00
   7.13346E-01 -1.17206E+01 -3.46456E-01  7.85960E+00  1.02285E+01  8.14623E+00  1.19634E+01  2.97246E+00  1.95281E+00 -1.57849E+00
   7.07732E+00  1.31682E+00  9.11433E+00  5.60884E+00 -2.74104E-01  9.98181E+00  1.04318E+01  4.71378E+00  6.75030E+00 -5.62902E+00
  -2.84069E+00  6.34572E+00 -5.51560E+00  6.55456E+00  8.99091E+00  8.21961E+00 -3.70673E+00 -7.28057E+00  5.51460E+00  2.93693E-01
  -1.94359E+00 -1.08349E+01  3.38263E+00  5.14204E+00  5.19229E+00  1.87290E+00  4.01092E+00  1.74905E+00  8.85887E+00  5.97401E+00
  -3.52410E+00  1.40571E+00  3.64053E+00 -4.35167E+00 -4.62529E-01  2.19729E+01 -6.91842E+00  1.56670E+01 -6.23016E+00  1.53929E+01
   1.34302E+01  2.19225E+00  1.30956E+01  5.93322E+00  3.04614E+00  3.62993E-01  1.47759E+01  5.27573E+00  1.64555E+01  8.06763E+00
   1.51148E+01  1.01990E+01 -1.28610E+01  9.50354E+00  1.19685E+01  4.51833E+00  8.23519E+00  7.37457E+00  3.73936E+00  8.62905E+00
   1.10472E+01 -6.58494E-01  8.10142E+00  8.77609E+00  7.69671E-01  1.44702E+01  9.19985E+00  1.79033E+01  1.27927E+01  1.18581E+01
   1.29872E+01  9.02741E+00  7.64325E+00  6.48039E+00  7.61922E+00  8.75936E+00  3.49115E+00  1.19185E+01  2.37898E+01  1.37194E+01
   1.48694E+01  5.01237E+00  4.92031E+00  4.52594E+00  1.86494E+01 -2.17206E+00  7.96926E+00  6.86816E+00  2.60169E+01  3.00111E+00
   2.47139E+00  7.99135E+00  1.06863E+01  8.44143E+00  1.76753E+01  1.02803E+01  1.35983E+01  9.03411E+00  8.20151E+00  1.01216E+01
   1.37948E+01  8.68303E+00 -3.22608E+00  2.44922E+01  1.14986E+01  2.14148E+00  1.75085E+01  2.43907E+00  1.00091E+01  5.42623E+00
  -4.39199E-01 -4.72137E+00  9.27526E+00  1.36843E+01  4.83727E+00  1.26795E+01  1.68879E+00  1.00658E+01  1.48115E+01  3.21275E+00
   6.97776E+00  7.34404E+00  9.89809E+00  1.38409E+01  1.98851E+01 -2.49433E+00  8.40206E+00  9.70641E+00  1.07943E+01  8.54757E+00
   1.15612E+01 -1.46640E+00  9.14710E+00  1.10863E+01  1.27701E+01  8.27340E+00  2.72452E+00  1.15580E+00
 NY points of the fit to the data follow
   4.50623E+01  4.47858E+01  4.45954E+01  4.44587E+01  4.44523E+01  4.45824E+01  4.48631E+01  4.54894E+01  4.69714E+01  4.95791E+01
   5.26702E+01  5.47748E+01  5.49259E+01  5.36195E+01  5.18842E+01  5.02385E+01  4.87085E+01  4.70748E+01  4.49317E+01  4.30526E+01
   4.25007E+01  4.24579E+01  4.25055E+01  4.24833E+01  4.21798E+01  4.14062E+01  4.04417E+01  4.00302E+01  4.07580E+01  4.24781E+01
   4.44718E+01  4.60246E+01  4.66093E+01  4.61808E+01  4.50207E+01  4.33516E+01  4.13130E+01  3.94610E+01  3.85351E+01  3.80633E+01
   3.78211E+01  3.78011E+01  3.80021E+01  3.83123E+01  3.87438E+01  3.93675E+01  3.98600E+01  3.99658E+01  3.97909E+01  3.93278E+01
   3.86557E+01  3.79955E+01  3.74703E+01  3.68969E+01  3.62119E+01  3.56430E+01  3.53212E+01  3.51792E+01  3.51705E+01  3.52532E+01
   3.52778E+01  3.51354E+01  3.47962E+01  3.43551E+01  3.39597E+01  3.36505E+01  3.33690E+01  3.31117E+01  3.29193E+01  3.28115E+01
   3.28066E+01  3.28427E+01  3.28563E+01  3.28195E+01  3.27326E+01  3.26108E+01  3.24434E+01  3.22444E+01  3.20012E+01  3.17122E+01
   3.14467E+01  3.12003E+01  3.09754E+01  3.08051E+01  3.06833E+01  3.05056E+01  3.01686E+01  2.97143E+01  2.92846E+01  2.89714E+01
   2.87852E+01  2.86780E+01  2.85852E+01  2.84949E+01  2.84935E+01  2.85363E+01  2.85101E+01  2.83502E+01  2.80215E+01  2.79814E+01
   2.96884E+01  3.42643E+01  4.05972E+01  4.54554E+01  4.66374E+01  4.49116E+01  4.21298E+01  3.94790E+01  3.72838E+01  3.47402E+01
   3.08933E+01  2.74244E+01  2.63138E+01  2.59591E+01  2.57546E+01  2.56039E+01  2.54767E+01  2.53302E+01  2.51478E+01  2.49525E+01
   2.47743E+01  2.45888E+01  2.43362E+01  2.45278E+01  2.65009E+01  3.10602E+01  3.68908E+01  4.10560E+01  4.18643E+01  4.02773E+01
   3.79993E+01  3.59740E+01  3.42216E+01  3.17254E+01  2.77187E+01  2.42240E+01  2.27315E+01  2.20230E+01  2.17669E+01  2.18042E+01
   2.19096E+01  2.20162E+01  2.21551E+01  2.22360E+01  2.22683E+01  2.22358E+01  2.20558E+01  2.17683E+01  2.14442E+01  2.11217E+01
   2.08700E+01  2.06376E+01  2.04070E+01  2.01887E+01  2.00245E+01  1.99201E+01  1.98498E+01  1.97621E+01  1.95237E+01  1.90436E+01
   1.84242E+01  1.79650E+01  1.78986E+01  1.81500E+01  1.84343E+01  1.84709E+01  1.82245E+01  1.79202E+01  1.77434E+01  1.75843E+01
   1.73205E+01  1.69704E+01  1.65195E+01  1.60535E+01  1.55502E+01  1.50431E+01  1.48169E+01  1.49434E+01  1.51238E+01  1.50542E+01
   1.47675E+01  1.45398E+01  1.45857E+01  1.47998E+01  1.47876E+01  1.43440E+01  1.39622E+01  1.41149E+01  1.48947E+01  1.58762E+01
   1.65935E+01  1.69498E+01  1.69834E+01  1.68531E+01  1.66632E+01  1.62653E+01  1.56080E+01  1.49925E+01  1.46537E+01  1.47781E+01
   1.53975E+01  1.63734E+01  1.74951E+01  1.85738E+01  1.92537E+01  1.93040E+01  1.84350E+01  1.65612E+01  1.40196E+01  1.16719E+01
   1.02857E+01  9.86602E+00  1.03932E+01  1.20774E+01  1.45528E+01  1.67558E+01  1.81082E+01  1.84766E+01  1.74690E+01  1.54052E+01
   1.29468E+01  1.05800E+01  8.97465E+00  8.65378E+00  9.73321E+00  1.12095E+01  1.25157E+01  1.35691E+01  1.44282E+01  1.50050E+01
   1.49202E+01  1.43265E+01  1.37933E+01  1.33958E+01  1.29519E+01  1.27272E+01  1.29336E+01  1.34887E+01  1.41267E+01  1.44423E+01
   1.41307E+01  1.33063E+01  1.24510E+01  1.19226E+01  1.14907E+01  1.11824E+01  1.11081E+01  1.10358E+01  1.08029E+01  1.07636E+01
   1.10912E+01  1.14367E+01  1.18341E+01  1.22529E+01  1.24243E+01  1.19637E+01  1.15465E+01  1.43960E+01  2.39182E+01  3.89693E+01
   5.25661E+01  5.82851E+01  5.63817E+01  5.10020E+01  4.52820E+01  4.05650E+01  3.53369E+01  2.69120E+01  1.77518E+01  1.38798E+01
   1.24647E+01  1.16993E+01  1.13763E+01  1.12763E+01  1.12320E+01  1.12214E+01  1.12093E+01  1.11611E+01  1.10572E+01  1.08966E+01
   1.06677E+01  1.04125E+01  1.01871E+01  9.99570E+00  9.84494E+00  9.74125E+00  9.66704E+00  9.61117E+00  9.56462E+00  9.51265E+00
   9.45722E+00  9.39884E+00  9.32848E+00  9.24618E+00  9.16559E+00  9.09274E+00  9.02146E+00  8.95219E+00  8.88916E+00  8.82894E+00
   8.76941E+00  8.71528E+00  8.66377E+00  8.61254E+00  8.56024E+00  8.50647E+00  8.45169E+00  8.39673E+00  8.34199E+00  8.28669E+00
   8.22995E+00  8.17275E+00  8.11586E+00  8.05948E+00  8.00389E+00  7.94876E+00  7.89387E+00  7.83954E+00  7.78631E+00  7.73450E+00
   7.68390E+00  7.63416E+00  7.58521E+00  7.53739E+00  7.49110E+00  7.44635E+00  7.40275E+00  7.35996E+00  7.31804E+00  7.27733E+00
   7.23802E+00  7.19994E+00  7.16269E+00  7.12610E+00  7.09040E+00  7.05587E+00  7.02256E+00  6.99021E+00  6.95854E+00  6.92759E+00
   6.89764E+00  6.86894E+00  6.84140E+00  6.81474E+00  6.78880E+00  6.76374E+00  6.73983E+00  6.71720E+00  6.69566E+00  6.67493E+00
   6.65495E+00  6.63592E+00  6.61802E+00  6.60116E+00  6.58502E+00  6.56933E+00  6.55410E+00  6.53945E+00  6.52543E+00  6.51178E+00
   6.49814E+00  6.48435E+00  6.47047E+00  6.45667E+00  6.44289E+00  6.42889E+00  6.41446E+00  6.39967E+00  6.38478E+00  6.37002E+00
   6.35539E+00  6.34081E+00  6.32632E+00  6.31225E+00  6.29899E+00  6.28681E+00  6.27579E+00  6.26597E+00  6.25763E+00  6.25125E+00
   6.24727E+00  6.24596E+00  6.24743E+00  6.25189E+00  6.25978E+00  6.27163E+00  6.28782E+00  6.30848E+00  6.33364E+00  6.36343E+00
   6.39803E+00  6.43753E+00  6.48165E+00  6.52981E+00  6.58126E+00  6.63528E+00  6.69108E+00  6.74760E+00  6.80345E+00  6.85707E+00
   6.90697E+00  6.95191E+00  6.99073E+00  7.02227E+00  7.04541E+00  7.05933E+00  7.06368E+00  7.05854E+00  7.04429E+00  7.02137E+00
   6.99044E+00  6.95244E+00  6.90870E+00  6.86066E+00  6.80967E+00  6.75689E+00  6.70339E+00  6.65031E+00  6.59874E+00  6.54957E+00
   6.50335E+00  6.46035E+00  6.42076E+00  6.38481E+00  6.35266E+00  6.32427E+00  6.29937E+00  6.27759E+00  6.25867E+00  6.24251E+00
   6.22895E+00  6.21771E+00  6.20841E+00  6.20071E+00  6.19448E+00  6.18968E+00  6.18622E+00  6.18385E+00  6.18232E+00  6.18147E+00
   6.18134E+00  6.18197E+00  6.18328E+00  6.18509E+00  6.18722E+00  6.18968E+00  6.19256E+00  6.19590E+00  6.19960E+00  6.20348E+00
   6.20748E+00  6.21166E+00  6.21614E+00  6.22091E+00  6.22584E+00  6.23081E+00  6.23583E+00  6.24101E+00  6.24644E+00  6.25205E+00
   6.25770E+00  6.26332E+00  6.26899E+00  6.27483E+00  6.28087E+00  6.28699E+00  6.29309E+00  6.29915E+00  6.30527E+00  6.31157E+00
   6.31799E+00  6.32442E+00  6.33078E+00  6.33711E+00  6.34355E+00  6.35013E+00  6.35679E+00  6.36338E+00  6.36989E+00  6.37640E+00
   6.38304E+00  6.38978E+00  6.39651E+00  6.40313E+00  6.40967E+00  6.41627E+00  6.42297E+00  6.42971E+00  6.43638E+00  6.44291E+00
   6.44940E+00  6.45594E+00  6.46256E+00  6.46914E+00  6.47558E+00  6.48188E+00  6.48815E+00  6.49446E+00
 NY background values follow
     4.352E+01    4.336E+01    4.319E+01    4.302E+01    4.285E+01    4.269E+01    4.252E+01    4.235E+01    4.218E+01    4.201E+01
     4.185E+01    4.168E+01    4.151E+01    4.134E+01    4.118E+01    4.101E+01    4.084E+01    4.067E+01    4.050E+01    4.034E+01
     4.017E+01    4.000E+01    3.983E+01    3.967E+01    3.950E+01    3.933E+01    3.916E+01    3.900E+01    3.883E+01    3.866E+01
     3.849E+01    3.833E+01    3.816E+01    3.799E+01    3.783E+01    3.766E+01    3.749E+01    3.733E+01    3.716E+01    3.700E+01
     3.683E+01    3.666E+01    3.650E+01    3.633E+01    3.617E+01    3.600E+01    3.584E+01    3.567E+01    3.551E+01    3.535E+01
     3.518E+01    3.502E+01    3.485E+01    3.469E+01    3.453E+01    3.436E+01    3.420E+01    3.404E+01    3.387E+01    3.371E+01
     3.355E+01    3.339E+01    3.323E+01    3.307E+01    3.290E+01    3.274E+01    3.258E+01    3.242E+01    3.226E+01    3.210E+01
     3.194E+01    3.179E+01    3.163E+01    3.147E+01    3.131E+01    3.115E+01    3.100E+01    3.084E+01    3.068E+01    3.053E+01
     3.037E+01    3.021E+01    3.006E+01    2.990E+01    2.975E+01    2.960E+01    2.944E+01    2.929E+01    2.914E+01    2.898E+01
     2.883E+01    2.868E+01    2.853E+01    2.838E+01    2.823E+01    2.808E+01    2.793E+01    2.778E+01    2.763E+01    2.748E+01
     2.733E+01    2.718E+01    2.704E+01    2.689E+01    2.674E+01    2.660E+01    2.645E+01    2.631E+01    2.617E+01    2.602E+01
     2.588E+01    2.574E+01    2.559E+01    2.545E+01    2.531E+01    2.517E+01    2.503E+01    2.489E+01    2.475E+01    2.461E+01
     2.447E+01    2.433E+01    2.420E+01    2.406E+01    2.392E+01    2.379E+01    2.365E+01    2.352E+01    2.338E+01    2.325E+01
     2.311E+01    2.298E+01    2.285E+01    2.272E+01    2.259E+01    2.246E+01    2.233E+01    2.220E+01    2.207E+01    2.194E+01
     2.181E+01    2.168E+01    2.156E+01    2.143E+01    2.130E+01    2.118E+01    2.105E+01    2.093E+01    2.081E+01    2.068E+01
     2.056E+01    2.044E+01    2.032E+01    2.020E+01    2.008E+01    1.996E+01    1.984E+01    1.972E+01    1.960E+01    1.948E+01
     1.937E+01    1.925E+01    1.914E+01    1.902E+01    1.891E+01    1.879E+01    1.868E+01    1.857E+01    1.845E+01    1.834E+01
     1.823E+01    1.812E+01    1.801E+01    1.790E+01    1.779E+01    1.768E+01    1.757E+01    1.747E+01    1.736E+01    1.725E+01
     1.715E+01    1.704E+01    1.694E+01    1.683E+01    1.673E+01    1.663E+01    1.653E+01    1.642E+01    1.632E+01    1.622E+01
     1.612E+01    1.602E+01    1.592E+01    1.582E+01    1.573E+01    1.563E+01    1.553E+01    1.544E+01    1.534E+01    1.524E+01
     1.515E+01    1.505E+01    1.496E+01    1.487E+01    1.477E+01    1.468E+01    1.459E+01    1.450E+01    1.441E+01    1.432E+01
     1.423E+01    1.414E+01    1.405E+01    1.396E+01    1.387E+01    1.379E+01    1.370E+01    1.361E+01    1.353E+01    1.344E+01
     1.335E+01    1.327E+01    1.318E+01    1.310E+01    1.302E+01    1.293E+01    1.285E+01    1.277E+01    1.269E+01    1.261E+01
     1.253E+01    1.245E+01    1.237E+01    1.229E+01    1.221E+01    1.213E+01    1.205E+01    1.197E+01    1.189E+01    1.182E+01
     1.174E+01    1.166E+01    1.159E+01    1.151E+01    1.144E+01    1.137E+01    1.129E+01    1.122E+01    1.115E+01    1.107E+01
     1.100E+01    1.093E+01    1.086E+01    1.079E+01    1.072E+01    1.065E+01    1.058E+01    1.051E+01    1.044E+01    1.037E+01
     1.031E+01    1.024E+01    1.017E+01    1.011E+01    1.004E+01    9.975E+00    9.910E+00    9.846E+00    9.782E+00    9.719E+00
     9.656E+00    9.594E+00    9.532E+00    9.470E+00    9.409E+00    9.349E+00    9.289E+00    9.229E+00    9.170E+00    9.111E+00
     9.053E+00    8.996E+00    8.938E+00    8.882E+00    8.826E+00    8.770E+00    8.714E+00    8.660E+00    8.605E+00    8.552E+00
     8.498E+00    8.445E+00    8.393E+00    8.341E+00    8.290E+00    8.239E+00    8.188E+00    8.138E+00    8.089E+00    8.040E+00
     7.992E+00    7.944E+00    7.896E+00    7.849E+00    7.803E+00    7.757E+00    7.712E+00    7.667E+00    7.622E+00    7.578E+00
     7.535E+00    7.492E+00    7.449E+00    7.408E+00    7.366E+00    7.325E+00    7.285E+00    7.245E+00    7.206E+00    7.167E+00
     7.129E+00    7.091E+00    7.053E+00    7.017E+00    6.980E+00    6.945E+00    6.909E+00    6.875E+00    6.840E+00    6.807E+00
     6.774E+00    6.741E+00    6.709E+00    6.677E+00    6.646E+00    6.615E+00    6.585E+00    6.556E+00    6.527E+00    6.498E+00
     6.470E+00    6.442E+00    6.415E+00    6.389E+00    6.363E+00    6.337E+00    6.313E+00    6.288E+00    6.264E+00    6.241E+00
     6.218E+00    6.195E+00    6.174E+00    6.152E+00    6.131E+00    6.111E+00    6.091E+00    6.072E+00    6.053E+00    6.035E+00
     6.017E+00    6.000E+00    5.983E+00    5.967E+00    5.951E+00    5.936E+00    5.922E+00    5.907E+00    5.894E+00    5.880E+00
     5.868E+00    5.855E+00    5.844E+00    5.832E+00    5.821E+00    5.811E+00    5.801E+00    5.791E+00    5.782E+00    5.773E+00
     5.765E+00    5.757E+00    5.750E+00    5.743E+00    5.736E+00    5.730E+00    5.724E+00    5.718E+00    5.713E+00    5.708E+00
     5.704E+00    5.700E+00    5.696E+00    5.693E+00    5.690E+00    5.688E+00    5.685E+00    5.683E+00    5.682E+00    5.681E+00
     5.680E+00    5.679E+00    5.679E+00    5.679E+00    5.679E+00    5.679E+00    5.680E+00    5.681E+00    5.683E+00    5.684E+00
     5.686E+00    5.688E+00    5.691E+00    5.693E+00    5.696E+00    5.699E+00    5.703E+00    5.706E+00    5.710E+00    5.714E+00
     5.718E+00    5.723E+00    5.727E+00    5.732E+00    5.737E+00    5.742E+00    5.748E+00    5.753E+00    5.759E+00    5.765E+00
     5.771E+00    5.777E+00    5.783E+00    5.789E+00    5.796E+00    5.803E+00    5.809E+00    5.816E+00    5.823E+00    5.830E+00
     5.838E+00    5.845E+00    5.852E+00    5.860E+00    5.867E+00    5.875E+00    5.883E+00    5.890E+00    5.898E+00    5.906E+00
     5.914E+00    5.922E+00    5.930E+00    5.938E+00    5.946E+00    5.954E+00    5.962E+00    5.970E+00    5.978E+00    5.986E+00
     5.995E+00    6.003E+00    6.011E+00    6.019E+00    6.028E+00    6.036E+00    6.044E+00    6.052E+00    6.061E+00    6.069E+00
     6.077E+00    6.086E+00    6.094E+00    6.103E+00    6.111E+00    6.119E+00    6.128E+00    6.136E+00    6.145E+00    6.153E+00
     6.162E+00    6.170E+00    6.179E+00    6.187E+00    6.195E+00    6.204E+00    6.212E+00    6.221E+00    6.229E+00    6.238E+00
     6.246E+00    6.255E+00    6.263E+00    6.272E+00    6.280E+00    6.289E+00    6.297E+00    6.305E+00
 Asp      Conc. = 8.57E+01
