 LCModel (Version 6.3-1L) Copyright: S.W. Provencher.          Ref.: Magn. Reson. Med. 30:672-679 (1993).                
 Slice#1 Row#3 Col#3  PD_24_press_2_raw_act
 36 lines in following concentration table = NCONC+1
    Conc.  %SD /Cr+PCr  Metabolite                                         
  337.919  62%   0.866 Ala                                                 
   55.558 119%   0.142 Asp                                                 
    0.000 999%   0.000 Cr                                                  
  390.005  24%   1.000 PCr                                                 
   35.161 113% 9.0E-02 GABA                                                
   33.069 120% 8.5E-02 Glc                                                 
    0.000 999%   0.000 Gln                                                 
    0.000 999%   0.000 Glu                                                 
    0.000 999%   0.000 GPC                                                 
  122.638  28%   0.314 PCh                                                 
   45.624 285%   0.117 GSH                                                 
  206.780 203%   0.530 Ins                                                 
    0.000 999%   0.000 Lac                                                 
    0.000 999%   0.000 NAA                                                 
  408.792  34%   1.048 NAAG                                                
   11.906 109% 3.1E-02 Scyllo                                              
   54.152 121%   0.139 Tau                                                 
  201.519  48%   0.517 -CrCH2                                              
  122.638  28%   0.314 GPC+PCh                                             
  408.792  37%   1.048 NAA+NAAG                                            
  390.005  24%   1.000 Cr+PCr                                              
    0.000 999%   0.000 Glu+Gln                                             
 5.73E+03  25%  14.692 Lip13a                                              
    0.000 999%   0.000 Lip13b                                              
 1.92E+03  21%   4.929 Lip09                                               
 1.54E+03  26%   3.954 MM09                                                
  812.934  41%   2.084 Lip20                                               
 3.06E+03  27%   7.835 MM20                                                
  127.904 507%   0.328 MM12                                                
 1.56E+03  50%   3.998 MM14                                                
 4.07E+03  17%  10.425 MM17                                                
 5.73E+03  25%  14.692 Lip13a+Lip13b                                       
 7.42E+03  13%  19.018 MM14+Lip13a+Lip13b+MM12                             
 3.46E+03  11%   8.882 MM09+Lip09                                          
 3.87E+03  20%   9.920 MM20+Lip20                                          
   6 lines in following misc. output table
  FWHM = 0.061 ppm    S/N =   2                                            
  Data shift =-0.023 ppm                                                   
  Ph: -32 deg       9.6 deg/ppm                                            
  alphaB,S = 8.5E+01,   1.0E+02                                            
   14 spline knots.   Ns = 7(1)                                            
   2 inflections.     1 extrema                                            
  498 points on ppm-axis = NY
      4.000000     3.992357     3.984714     3.977070     3.969427     3.961784     3.954141     3.946497     3.938854     3.931211
      3.923568     3.915925     3.908281     3.900638     3.892995     3.885352     3.877708     3.870065     3.862422     3.854779
      3.847136     3.839492     3.831849     3.824206     3.816563     3.808919     3.801276     3.793633     3.785990     3.778347
      3.770703     3.763060     3.755417     3.747774     3.740130     3.732487     3.724844     3.717201     3.709558     3.701914
      3.694271     3.686628     3.678985     3.671341     3.663698     3.656055     3.648412     3.640769     3.633125     3.625482
      3.617839     3.610196     3.602552     3.594909     3.587266     3.579623     3.571980     3.564336     3.556693     3.549050
      3.541407     3.533763     3.526120     3.518477     3.510834     3.503191     3.495547     3.487904     3.480261     3.472618
      3.464974     3.457331     3.449688     3.442045     3.434402     3.426758     3.419115     3.411472     3.403829     3.396185
      3.388542     3.380899     3.373256     3.365613     3.357969     3.350326     3.342683     3.335040     3.327396     3.319753
      3.312110     3.304467     3.296824     3.289180     3.281537     3.273894     3.266251     3.258607     3.250964     3.243321
      3.235678     3.228034     3.220391     3.212748     3.205105     3.197462     3.189818     3.182175     3.174532     3.166889
      3.159245     3.151602     3.143959     3.136316     3.128673     3.121029     3.113386     3.105743     3.098100     3.090456
      3.082813     3.075170     3.067527     3.059884     3.052240     3.044597     3.036954     3.029311     3.021667     3.014024
      3.006381     2.998738     2.991095     2.983451     2.975808     2.968165     2.960522     2.952878     2.945235     2.937592
      2.929949     2.922306     2.914662     2.907019     2.899376     2.891733     2.884089     2.876446     2.868803     2.861160
      2.853517     2.845873     2.838230     2.830587     2.822944     2.815300     2.807657     2.800014     2.792371     2.784728
      2.777084     2.769441     2.761798     2.754155     2.746511     2.738868     2.731225     2.723582     2.715939     2.708295
      2.700652     2.693009     2.685366     2.677722     2.670079     2.662436     2.654793     2.647150     2.639506     2.631863
      2.624220     2.616577     2.608933     2.601290     2.593647     2.586004     2.578361     2.570717     2.563074     2.555431
      2.547788     2.540144     2.532501     2.524858     2.517215     2.509572     2.501928     2.494285     2.486642     2.478999
      2.471355     2.463712     2.456069     2.448426     2.440783     2.433139     2.425496     2.417853     2.410210     2.402566
      2.394923     2.387280     2.379637     2.371994     2.364350     2.356707     2.349064     2.341421     2.333777     2.326134
      2.318491     2.310848     2.303205     2.295561     2.287918     2.280275     2.272632     2.264988     2.257345     2.249702
      2.242059     2.234416     2.226772     2.219129     2.211486     2.203843     2.196199     2.188556     2.180913     2.173270
      2.165627     2.157983     2.150340     2.142697     2.135054     2.127410     2.119767     2.112124     2.104481     2.096838
      2.089194     2.081551     2.073908     2.066265     2.058621     2.050978     2.043335     2.035692     2.028049     2.020405
      2.012762     2.005119     1.997476     1.989833     1.982190     1.974546     1.966903     1.959260     1.951617     1.943974
      1.936331     1.928688     1.921045     1.913402     1.905759     1.898115     1.890472     1.882829     1.875186     1.867543
      1.859900     1.852257     1.844614     1.836971     1.829327     1.821684     1.814041     1.806398     1.798755     1.791112
      1.783469     1.775826     1.768183     1.760540     1.752896     1.745253     1.737610     1.729967     1.722324     1.714681
      1.707038     1.699395     1.691752     1.684108     1.676465     1.668822     1.661179     1.653536     1.645893     1.638250
      1.630607     1.622964     1.615321     1.607677     1.600034     1.592391     1.584748     1.577105     1.569462     1.561819
      1.554176     1.546533     1.538890     1.531246     1.523603     1.515960     1.508317     1.500674     1.493031     1.485388
      1.477745     1.470102     1.462458     1.454815     1.447172     1.439529     1.431886     1.424243     1.416600     1.408957
      1.401314     1.393671     1.386027     1.378384     1.370741     1.363098     1.355455     1.347812     1.340169     1.332526
      1.324883     1.317240     1.309596     1.301953     1.294310     1.286667     1.279024     1.271381     1.263738     1.256095
      1.248452     1.240808     1.233165     1.225522     1.217879     1.210236     1.202593     1.194950     1.187307     1.179664
      1.172021     1.164377     1.156734     1.149091     1.141448     1.133805     1.126162     1.118519     1.110876     1.103233
      1.095590     1.087946     1.080303     1.072660     1.065017     1.057374     1.049731     1.042088     1.034445     1.026802
      1.019158     1.011515     1.003872     0.996229     0.988586     0.980943     0.973300     0.965657     0.958014     0.950371
      0.942727     0.935084     0.927441     0.919798     0.912155     0.904512     0.896869     0.889226     0.881583     0.873940
      0.866296     0.858653     0.851010     0.843367     0.835724     0.828081     0.820438     0.812795     0.805152     0.797508
      0.789865     0.782222     0.774579     0.766936     0.759293     0.751650     0.744007     0.736364     0.728721     0.721077
      0.713434     0.705791     0.698148     0.690505     0.682862     0.675219     0.667576     0.659933     0.652290     0.644646
      0.637003     0.629360     0.621717     0.614074     0.606431     0.598788     0.591145     0.583502     0.575858     0.568215
      0.560572     0.552929     0.545286     0.537643     0.530000     0.522357     0.514714     0.507071     0.499427     0.491784
      0.484141     0.476498     0.468855     0.461212     0.453569     0.445925     0.438282     0.430639     0.422996     0.415353
      0.407710     0.400067     0.392424     0.384780     0.377137     0.369494     0.361851     0.354208     0.346565     0.338922
      0.331278     0.323635     0.315992     0.308349     0.300706     0.293063     0.285420     0.277777     0.270133     0.262490
      0.254847     0.247204     0.239561     0.231918     0.224275     0.216631     0.208988     0.201345
 NY phased data points follow
  -4.16989E+01 -2.80554E+01 -2.02928E+01 -1.48827E+01 -3.42276E+01 -1.61973E+01 -3.23688E+01 -1.86766E+01 -1.69170E+01 -2.68835E+01
  -3.42218E+01 -2.05414E+01 -3.41687E+01 -2.14578E+01 -3.00427E+01 -2.90073E+01 -2.96659E+01 -2.66411E+01 -2.80107E+01 -2.10185E+01
  -3.39514E+01 -2.30789E+01 -2.65146E+01 -2.21549E+01 -3.40096E+01 -1.71033E+01 -2.74359E+01 -2.75018E+01 -2.05385E+01 -1.99953E+01
  -2.46982E+01 -2.22672E+01 -2.15400E+01 -1.87282E+01 -1.78229E+01 -1.87176E+01 -2.19754E+01 -2.45029E+01 -2.47314E+01 -1.58464E+01
  -2.00415E+01 -2.25650E+01 -2.84024E+01 -1.82228E+01 -2.06421E+01 -1.27754E+01 -2.26057E+01 -2.83419E+01 -1.88665E+01 -1.41495E+01
  -2.76174E+01 -2.76896E+01 -2.81638E+01 -2.50306E+01 -3.05358E+01 -1.83541E+01 -2.01726E+01 -2.34351E+01 -2.43108E+01 -1.55099E+01
  -1.94085E+01 -1.59739E+01 -3.08620E+01 -2.47270E+01 -2.74869E+01 -1.48472E+01 -2.92923E+01 -2.15841E+01 -2.80780E+01 -2.29891E+01
  -1.95827E+01 -2.24018E+01 -2.28332E+01 -1.17374E+01 -3.38304E+01 -1.76692E+01 -1.92112E+01 -2.40862E+01 -1.88530E+01 -1.28990E+01
  -3.04998E+01 -1.51594E+01 -3.14436E+01 -1.69849E+01 -2.58280E+01 -1.91306E+01 -1.37241E+01 -2.19172E+01 -2.58419E+01 -1.64956E+01
  -2.70476E+01 -2.07265E+01 -1.53556E+01 -1.88355E+01 -1.58310E+01 -1.63582E+01 -1.15697E+01 -1.53220E+01 -1.12174E+01 -8.93730E+00
  -1.74729E+01  2.21297E-01 -8.17109E+00 -1.20480E+01 -1.74550E+01 -1.29125E+01 -2.75565E+01 -1.82790E+01 -2.64856E+01 -2.88226E+01
  -3.10879E+01 -1.63804E+01 -2.17956E+01 -7.86613E+00 -1.75852E+01 -2.23779E+01 -2.70403E+01 -1.36913E+01 -2.04364E+01 -1.54391E+01
  -2.41414E+01 -1.55417E+01 -2.87151E+00 -3.65945E+00 -1.17937E+01 -9.20418E+00  5.26690E-01 -4.58835E-01  3.92510E+00 -2.35365E+00
  -2.06069E+01 -2.68052E+01 -2.39356E+01 -2.42037E+01 -1.50441E+01 -2.19055E+01 -1.79213E+01 -2.32390E+01 -1.76769E+01 -2.06488E+01
  -2.46020E+01 -1.78802E+01 -2.06554E+01 -1.30222E+01 -2.20378E+01 -1.55185E+01 -1.84115E+01 -2.07222E+01 -1.39945E+01 -2.16923E+01
  -2.06845E+01 -1.63554E+01 -2.39007E+01 -1.86283E+01 -1.74218E+01 -7.93680E+00 -1.43415E+01 -1.88847E+01 -2.08402E+01 -1.25021E+01
  -3.48234E+01 -2.04985E+01 -2.89746E+01 -1.81696E+01 -2.07920E+01 -1.89154E+01 -1.76678E+01 -2.20882E+01 -1.32435E+01 -2.83369E+01
  -3.21173E+01 -2.10372E+01 -2.83212E+01 -2.33472E+01 -2.64615E+01 -1.24655E+01 -1.71379E+01 -1.33127E+01 -1.68879E+01 -1.94243E+01
  -2.75318E+01 -2.11027E+01 -1.31648E+01 -1.89648E+01 -2.34857E+01 -2.40125E+01 -2.06451E+01 -1.53346E+01 -1.02650E+01 -1.82504E+01
  -1.83487E+01 -1.30982E+01 -1.71028E+01 -1.37531E+01 -7.67546E+00 -1.63210E+01 -2.35142E+01 -1.17048E+01 -2.74796E+01 -1.47454E+01
  -2.16176E+01 -2.15495E+01 -1.96196E+01 -1.95768E+01 -1.68825E+01 -9.74528E+00 -1.68185E+01 -1.37715E+01 -1.48800E+01 -2.25098E+01
  -2.08359E+01 -9.32518E+00 -4.30988E+00 -9.21696E+00 -8.00184E+00 -1.38878E+01 -1.47164E+01 -1.30232E+01 -8.77192E+00 -3.78915E+00
  -1.92705E+01 -5.63279E+00 -1.43094E+01 -6.42827E+00 -2.48664E+01 -2.05039E+01 -2.02319E+01 -5.65126E+00 -1.95361E+01  2.24627E+00
  -1.60832E+01 -7.75471E+00 -7.18713E+00 -1.34561E+01  4.70669E-01 -9.74943E+00 -2.08756E+01 -1.23049E+00 -8.96870E+00 -5.84947E+00
  -1.45640E+01 -4.89388E+00  8.01714E-02 -4.78381E-01 -2.74831E+00 -9.79983E-02 -1.40409E+00 -1.32454E+00  3.50270E+00  5.15909E-01
   6.99127E+00  5.09880E+00  1.10095E-03  1.56443E+01  1.18441E+01 -9.92471E-01  4.52519E+00  1.28454E+01  1.08109E+01  2.09277E+00
  -4.23790E-01 -8.48939E+00 -1.26227E+01 -5.64883E+00 -1.94995E+01 -1.47563E+01 -1.42119E+01 -1.74267E+01 -1.58831E+01 -1.35034E+01
  -4.96121E+00 -9.62247E+00 -7.59327E+00 -6.00341E+00 -1.24165E+01 -8.07141E+00 -1.84273E+01 -5.66793E+00 -2.09211E+01 -1.89635E+01
  -8.32345E+00 -5.92736E+00 -1.23625E+01 -5.80965E+00 -5.79341E+00 -1.23079E+00  4.91800E+00 -3.34464E+00 -6.11078E+00  4.39433E+00
   6.74491E-02 -1.24790E+01 -4.60968E+00  2.59598E-01  1.26108E-01  3.24069E+00 -7.28728E-01  3.49107E-01  4.51119E+00  3.09183E+00
   2.23237E+00  1.17434E+00 -4.13101E+00  1.36760E+01  6.49954E+00  2.71116E+00 -2.11160E+00  2.95556E-01  4.61053E+00  8.80114E+00
   5.78315E+00  9.27376E+00  5.65362E+00  8.17670E+00  1.15292E+01  1.86332E+01  8.11669E+00 -2.43192E+00 -1.38200E+00  3.96520E+00
  -5.42143E+00  3.13710E+00  5.18391E+00  4.96870E+00  3.73162E+00  6.61746E-02 -3.88994E+00 -3.89036E+00 -9.74176E+00 -9.93469E+00
  -3.40397E+00  5.19878E+00 -2.67049E+00  1.88321E+00  4.31542E+00  1.08287E+00  1.33497E+00 -3.88270E+00  2.94410E+00  1.45507E+01
  -3.23230E-02  2.45199E+00  1.05683E+01 -8.56551E-01  6.23724E+00  1.65576E+01  9.89253E+00  1.36235E+01  4.30124E+00  6.29363E+00
  -2.30950E+00  1.36550E+01  1.07237E+01  1.58550E+00 -1.78795E-01  4.70722E+00  1.44790E+01  3.95775E+00 -7.04356E+00 -2.51173E+00
   5.43755E-01 -1.24696E+01  3.32329E+00 -7.96536E+00 -3.42214E+00 -3.58352E+00  2.77898E+00 -1.07158E+01  5.39491E+00  4.19614E-01
   2.62598E+00  3.05539E+00 -1.96880E-01  6.55130E+00  3.95482E+00 -7.55055E-02  8.16426E+00  9.40895E+00 -5.75011E+00  5.39045E-01
   8.12412E-01  2.91865E+00  2.08333E+00  7.36360E+00 -6.02600E+00 -6.06139E+00 -3.12301E+00 -9.85056E+00 -1.34564E+01  3.85915E+00
  -2.87853E-01  1.39450E+00 -1.03593E+01  9.20605E+00 -8.72382E+00 -6.81721E+00 -6.05438E+00  2.46404E-01  7.33924E+00  1.65096E+01
   5.31072E+00  7.52836E+00  2.14020E+00  9.25759E+00  2.40784E+00  9.45228E-01 -2.06053E+00 -1.01787E+00 -3.53706E+00 -6.69589E+00
   6.54745E+00  2.75174E+00  3.11295E+00 -7.15402E+00 -1.02492E+01  6.39720E+00 -2.00178E+01  6.55130E+00 -3.23939E+00  2.83824E+00
   2.99760E+00 -1.44772E+00  6.09735E+00  1.02321E+00  4.09390E+00  3.27630E+00  1.17787E+01  1.13857E+01  1.31058E+01  1.47940E+01
  -4.87984E+00  5.31320E+00  3.34144E+00  5.29408E+00  3.12030E+00 -7.62985E-01 -9.71653E+00 -3.28869E+00  5.35064E+00  1.91807E-01
  -1.65649E+00  1.79419E+00 -5.58027E+00 -5.88682E+00  2.13242E+00 -5.92416E-01 -6.06124E+00 -5.73949E+00 -1.11767E+01 -1.35448E+01
  -1.39802E+01 -1.26102E+01 -1.29566E+01 -5.39210E+00 -1.34543E+01 -7.15723E+00 -2.18870E+01 -1.70863E+01 -1.07409E+01 -2.44856E+01
  -1.97747E+01 -1.83407E+01 -1.54381E+01 -1.65531E+01 -2.53010E+01 -2.08602E+01 -2.36349E+01 -8.80655E+00 -1.93731E+01 -1.69645E+01
  -2.06657E+01 -2.81354E+01 -2.63921E+01 -2.04375E+01 -2.32835E+01 -1.81317E+01 -1.93067E+01 -1.77736E+01 -1.95117E+01 -1.05647E+01
  -1.68507E+01 -1.30544E+01 -1.55754E+01 -1.28617E+01 -1.07784E+01 -1.01947E+01 -1.35357E+01 -1.54831E+01 -6.29129E+00 -1.93839E+01
  -1.30430E+01 -8.73474E+00 -7.10934E+00 -1.25812E+01 -9.82106E+00 -2.19872E+01 -3.44487E+00 -1.44673E+01
 NY points of the fit to the data follow
  -2.35588E+01 -2.33828E+01 -2.28305E+01 -2.20221E+01 -2.11716E+01 -2.04473E+01 -1.99531E+01 -1.97464E+01 -1.98413E+01 -2.02151E+01
  -2.08254E+01 -2.16139E+01 -2.24516E+01 -2.31861E+01 -2.36913E+01 -2.39093E+01 -2.38698E+01 -2.36727E+01 -2.34019E+01 -2.31189E+01
  -2.29020E+01 -2.27957E+01 -2.27960E+01 -2.28387E+01 -2.29048E+01 -2.30207E+01 -2.31264E+01 -2.31353E+01 -2.30287E+01 -2.28249E+01
  -2.25551E+01 -2.22577E+01 -2.19994E+01 -2.18610E+01 -2.18775E+01 -2.20212E+01 -2.22510E+01 -2.25251E+01 -2.28105E+01 -2.30558E+01
  -2.31558E+01 -2.30360E+01 -2.27373E+01 -2.23679E+01 -2.20258E+01 -2.17685E+01 -2.16327E+01 -2.16357E+01 -2.17623E+01 -2.19711E+01
  -2.22150E+01 -2.24457E+01 -2.25996E+01 -2.26246E+01 -2.25155E+01 -2.23176E+01 -2.21102E+01 -2.19536E+01 -2.18666E+01 -2.18396E+01
  -2.18537E+01 -2.19000E+01 -2.19589E+01 -2.20160E+01 -2.20583E+01 -2.20589E+01 -2.20064E+01 -2.19117E+01 -2.17876E+01 -2.16456E+01
  -2.15110E+01 -2.14089E+01 -2.13500E+01 -2.13381E+01 -2.13683E+01 -2.14239E+01 -2.14881E+01 -2.15469E+01 -2.15833E+01 -2.15563E+01
  -2.14665E+01 -2.13632E+01 -2.12858E+01 -2.12513E+01 -2.12639E+01 -2.13144E+01 -2.13875E+01 -2.14707E+01 -2.15498E+01 -2.16020E+01
  -2.16086E+01 -2.15601E+01 -2.14488E+01 -2.12871E+01 -2.10620E+01 -2.05411E+01 -1.91075E+01 -1.68502E+01 -1.43366E+01 -1.20752E+01
  -1.04139E+01 -9.54123E+00 -9.52677E+00 -1.03350E+01 -1.18439E+01 -1.38408E+01 -1.60039E+01 -1.79550E+01 -1.93806E+01 -2.01296E+01
  -2.02816E+01 -2.01250E+01 -1.99761E+01 -1.98683E+01 -1.97576E+01 -1.96336E+01 -1.94902E+01 -1.93108E+01 -1.90230E+01 -1.82493E+01
  -1.63780E+01 -1.37088E+01 -1.08800E+01 -8.41531E+00 -6.65502E+00 -5.78535E+00 -5.86382E+00 -6.83656E+00 -8.57134E+00 -1.08260E+01
  -1.32364E+01 -1.53912E+01 -1.69595E+01 -1.78028E+01 -1.80417E+01 -1.80073E+01 -1.79974E+01 -1.79944E+01 -1.79666E+01 -1.79179E+01
  -1.78642E+01 -1.78279E+01 -1.78245E+01 -1.78582E+01 -1.79202E+01 -1.79981E+01 -1.80821E+01 -1.81817E+01 -1.83092E+01 -1.84498E+01
  -1.85793E+01 -1.86721E+01 -1.87078E+01 -1.87090E+01 -1.87021E+01 -1.87015E+01 -1.87130E+01 -1.87428E+01 -1.87986E+01 -1.88841E+01
  -1.89916E+01 -1.91104E+01 -1.92315E+01 -1.93532E+01 -1.94514E+01 -1.94965E+01 -1.94850E+01 -1.94338E+01 -1.93784E+01 -1.93463E+01
  -1.93352E+01 -1.93375E+01 -1.93485E+01 -1.93697E+01 -1.94086E+01 -1.94784E+01 -1.95822E+01 -1.96645E+01 -1.96753E+01 -1.96043E+01
  -1.94738E+01 -1.93132E+01 -1.91387E+01 -1.89532E+01 -1.87483E+01 -1.85194E+01 -1.83037E+01 -1.81522E+01 -1.80880E+01 -1.81091E+01
  -1.82007E+01 -1.83422E+01 -1.84908E+01 -1.85992E+01 -1.86451E+01 -1.86213E+01 -1.85293E+01 -1.83799E+01 -1.81939E+01 -1.80013E+01
  -1.78342E+01 -1.77244E+01 -1.76937E+01 -1.77221E+01 -1.77700E+01 -1.77972E+01 -1.77729E+01 -1.76854E+01 -1.75442E+01 -1.73645E+01
  -1.71536E+01 -1.69194E+01 -1.66714E+01 -1.64206E+01 -1.61750E+01 -1.59351E+01 -1.56892E+01 -1.54188E+01 -1.51132E+01 -1.47804E+01
  -1.44340E+01 -1.40961E+01 -1.37807E+01 -1.34980E+01 -1.32723E+01 -1.31036E+01 -1.29632E+01 -1.28119E+01 -1.25965E+01 -1.22812E+01
  -1.18690E+01 -1.13897E+01 -1.08796E+01 -1.03746E+01 -9.90786E+00 -9.52010E+00 -9.21640E+00 -8.95263E+00 -8.67456E+00 -8.32796E+00
  -7.87234E+00 -7.30427E+00 -6.65292E+00 -5.95834E+00 -5.26672E+00 -4.60902E+00 -3.99504E+00 -3.40063E+00 -2.57680E+00 -8.34609E-01
   1.79041E+00  4.68983E+00  7.28527E+00  9.16733E+00  1.00998E+01  9.98972E+00  8.86970E+00  6.87794E+00  4.25801E+00  1.37735E+00
  -1.33006E+00 -3.50157E+00 -4.95475E+00 -5.75734E+00 -6.20427E+00 -6.63470E+00 -7.08615E+00 -7.50114E+00 -7.86589E+00 -8.18560E+00
  -8.48176E+00 -8.77117E+00 -9.05757E+00 -9.33837E+00 -9.60933E+00 -9.86166E+00 -1.00741E+01 -1.02227E+01 -1.02942E+01 -1.02796E+01
  -1.01813E+01 -1.00094E+01 -9.77465E+00 -9.48889E+00 -9.15831E+00 -8.76933E+00 -8.30375E+00 -7.75200E+00 -7.11057E+00 -6.37939E+00
  -5.56210E+00 -4.66989E+00 -3.72331E+00 -2.73943E+00 -1.73100E+00 -7.12127E-01  3.04755E-01  1.30733E+00  2.28233E+00  3.21452E+00
   4.08483E+00  4.87007E+00  5.54915E+00  6.10408E+00  6.52064E+00  6.78986E+00  6.90945E+00  6.88392E+00  6.72353E+00  6.44101E+00
   6.05240E+00  5.57726E+00  5.03775E+00  4.45814E+00  3.86436E+00  3.28362E+00  2.74526E+00  2.28333E+00  1.94573E+00  1.82583E+00
   2.04250E+00  2.36013E+00  2.43929E+00  2.13052E+00  1.41950E+00  3.58579E-01 -9.82846E-01 -2.50600E+00 -3.81743E+00 -4.47200E+00
  -4.31960E+00 -3.39732E+00 -1.87211E+00 -3.58136E-03  1.89497E+00  3.52280E+00  4.68310E+00  5.36187E+00  5.61075E+00  5.52126E+00
   5.25120E+00  4.98121E+00  4.85277E+00  4.90333E+00  5.03755E+00  5.17319E+00  5.30280E+00  5.42222E+00  5.52648E+00  5.61083E+00
   5.67089E+00  5.70252E+00  5.70193E+00  5.66560E+00  5.59045E+00  5.47388E+00  5.31398E+00  5.10951E+00  4.86016E+00  4.56645E+00
   4.22985E+00  3.85269E+00  3.43825E+00  2.99054E+00  2.51438E+00  2.01511E+00  1.49858E+00  9.70967E-01  4.38714E-01 -9.16737E-02
  -6.13619E-01 -1.12070E+00 -1.60658E+00 -2.06519E+00 -2.49064E+00 -2.87735E+00 -3.22000E+00 -3.51366E+00 -3.75371E+00 -3.93602E+00
  -4.05690E+00 -4.11339E+00 -4.10323E+00 -4.02522E+00 -3.87927E+00 -3.66670E+00 -3.39036E+00 -3.05492E+00 -2.66684E+00 -2.23454E+00
  -1.76819E+00 -1.27963E+00 -7.81921E-01 -2.89030E-01  1.84897E-01  6.26065E-01  1.02190E+00  1.36167E+00  1.63724E+00  1.84354E+00
   1.97918E+00  2.04648E+00  2.05164E+00  2.00440E+00  1.91762E+00  1.80654E+00  1.68797E+00  1.57922E+00  1.49710E+00  1.45673E+00
   1.47063E+00  1.54767E+00  1.69251E+00  1.90496E+00  2.17995E+00  2.50738E+00  2.87273E+00  3.25758E+00  3.64067E+00  3.99894E+00
   4.30893E+00  4.54800E+00  4.69573E+00  4.73502E+00  4.65317E+00  4.44246E+00  4.10056E+00  3.63055E+00  3.04063E+00  2.34341E+00
   1.55518E+00  6.94772E-01 -2.17465E-01 -1.16086E+00 -2.11534E+00 -3.06236E+00 -3.98554E+00 -4.87119E+00 -5.70851E+00 -6.48968E+00
  -7.20965E+00 -7.86602E+00 -8.45851E+00 -8.98873E+00 -9.45963E+00 -9.87517E+00 -1.02399E+01 -1.05587E+01 -1.08365E+01 -1.10781E+01
  -1.12880E+01 -1.14703E+01 -1.16287E+01 -1.17666E+01 -1.18868E+01 -1.19918E+01 -1.20837E+01 -1.21644E+01 -1.22354E+01 -1.22980E+01
  -1.23532E+01 -1.24020E+01 -1.24453E+01 -1.24835E+01 -1.25174E+01 -1.25474E+01 -1.25739E+01 -1.25972E+01 -1.26177E+01 -1.26356E+01
  -1.26512E+01 -1.26647E+01 -1.26762E+01 -1.26860E+01 -1.26941E+01 -1.27007E+01 -1.27059E+01 -1.27098E+01 -1.27124E+01 -1.27140E+01
  -1.27145E+01 -1.27141E+01 -1.27127E+01 -1.27105E+01 -1.27075E+01 -1.27037E+01 -1.26992E+01 -1.26940E+01 -1.26882E+01 -1.26818E+01
  -1.26748E+01 -1.26673E+01 -1.26593E+01 -1.26508E+01 -1.26418E+01 -1.26324E+01 -1.26226E+01 -1.26124E+01
 NY background values follow
    -2.429E+01   -2.426E+01   -2.424E+01   -2.422E+01   -2.420E+01   -2.417E+01   -2.415E+01   -2.413E+01   -2.411E+01   -2.409E+01
    -2.406E+01   -2.404E+01   -2.402E+01   -2.400E+01   -2.397E+01   -2.395E+01   -2.393E+01   -2.391E+01   -2.389E+01   -2.386E+01
    -2.384E+01   -2.382E+01   -2.380E+01   -2.377E+01   -2.375E+01   -2.373E+01   -2.371E+01   -2.369E+01   -2.366E+01   -2.364E+01
    -2.362E+01   -2.360E+01   -2.358E+01   -2.355E+01   -2.353E+01   -2.351E+01   -2.349E+01   -2.346E+01   -2.344E+01   -2.342E+01
    -2.340E+01   -2.338E+01   -2.335E+01   -2.333E+01   -2.331E+01   -2.329E+01   -2.326E+01   -2.324E+01   -2.322E+01   -2.320E+01
    -2.318E+01   -2.315E+01   -2.313E+01   -2.311E+01   -2.309E+01   -2.307E+01   -2.304E+01   -2.302E+01   -2.300E+01   -2.298E+01
    -2.295E+01   -2.293E+01   -2.291E+01   -2.289E+01   -2.287E+01   -2.284E+01   -2.282E+01   -2.280E+01   -2.278E+01   -2.275E+01
    -2.273E+01   -2.271E+01   -2.269E+01   -2.267E+01   -2.264E+01   -2.262E+01   -2.260E+01   -2.258E+01   -2.255E+01   -2.253E+01
    -2.251E+01   -2.249E+01   -2.247E+01   -2.244E+01   -2.242E+01   -2.240E+01   -2.238E+01   -2.236E+01   -2.233E+01   -2.231E+01
    -2.229E+01   -2.227E+01   -2.224E+01   -2.222E+01   -2.220E+01   -2.218E+01   -2.216E+01   -2.213E+01   -2.211E+01   -2.209E+01
    -2.207E+01   -2.204E+01   -2.202E+01   -2.200E+01   -2.198E+01   -2.196E+01   -2.193E+01   -2.191E+01   -2.189E+01   -2.187E+01
    -2.185E+01   -2.182E+01   -2.180E+01   -2.178E+01   -2.176E+01   -2.173E+01   -2.171E+01   -2.169E+01   -2.167E+01   -2.165E+01
    -2.162E+01   -2.160E+01   -2.158E+01   -2.156E+01   -2.153E+01   -2.151E+01   -2.149E+01   -2.147E+01   -2.145E+01   -2.142E+01
    -2.140E+01   -2.138E+01   -2.136E+01   -2.133E+01   -2.131E+01   -2.129E+01   -2.127E+01   -2.125E+01   -2.122E+01   -2.120E+01
    -2.118E+01   -2.116E+01   -2.114E+01   -2.111E+01   -2.109E+01   -2.107E+01   -2.105E+01   -2.102E+01   -2.100E+01   -2.098E+01
    -2.096E+01   -2.094E+01   -2.091E+01   -2.089E+01   -2.087E+01   -2.085E+01   -2.082E+01   -2.080E+01   -2.078E+01   -2.076E+01
    -2.074E+01   -2.071E+01   -2.069E+01   -2.067E+01   -2.065E+01   -2.063E+01   -2.060E+01   -2.058E+01   -2.056E+01   -2.054E+01
    -2.051E+01   -2.049E+01   -2.047E+01   -2.045E+01   -2.043E+01   -2.040E+01   -2.038E+01   -2.036E+01   -2.034E+01   -2.031E+01
    -2.029E+01   -2.027E+01   -2.025E+01   -2.023E+01   -2.020E+01   -2.018E+01   -2.016E+01   -2.014E+01   -2.012E+01   -2.009E+01
    -2.007E+01   -2.005E+01   -2.003E+01   -2.000E+01   -1.998E+01   -1.996E+01   -1.994E+01   -1.992E+01   -1.989E+01   -1.987E+01
    -1.985E+01   -1.983E+01   -1.980E+01   -1.978E+01   -1.976E+01   -1.974E+01   -1.972E+01   -1.969E+01   -1.967E+01   -1.965E+01
    -1.963E+01   -1.961E+01   -1.958E+01   -1.956E+01   -1.954E+01   -1.952E+01   -1.949E+01   -1.947E+01   -1.945E+01   -1.943E+01
    -1.941E+01   -1.938E+01   -1.936E+01   -1.934E+01   -1.932E+01   -1.929E+01   -1.927E+01   -1.925E+01   -1.923E+01   -1.921E+01
    -1.918E+01   -1.916E+01   -1.914E+01   -1.912E+01   -1.910E+01   -1.907E+01   -1.905E+01   -1.903E+01   -1.901E+01   -1.898E+01
    -1.896E+01   -1.894E+01   -1.892E+01   -1.890E+01   -1.887E+01   -1.885E+01   -1.883E+01   -1.881E+01   -1.878E+01   -1.876E+01
    -1.874E+01   -1.872E+01   -1.870E+01   -1.867E+01   -1.865E+01   -1.863E+01   -1.861E+01   -1.859E+01   -1.856E+01   -1.854E+01
    -1.852E+01   -1.850E+01   -1.847E+01   -1.845E+01   -1.843E+01   -1.841E+01   -1.839E+01   -1.836E+01   -1.834E+01   -1.832E+01
    -1.830E+01   -1.827E+01   -1.825E+01   -1.823E+01   -1.821E+01   -1.819E+01   -1.816E+01   -1.814E+01   -1.812E+01   -1.810E+01
    -1.808E+01   -1.805E+01   -1.803E+01   -1.801E+01   -1.799E+01   -1.796E+01   -1.794E+01   -1.792E+01   -1.790E+01   -1.788E+01
    -1.785E+01   -1.783E+01   -1.781E+01   -1.779E+01   -1.777E+01   -1.774E+01   -1.772E+01   -1.770E+01   -1.768E+01   -1.765E+01
    -1.763E+01   -1.761E+01   -1.759E+01   -1.757E+01   -1.754E+01   -1.752E+01   -1.750E+01   -1.748E+01   -1.745E+01   -1.743E+01
    -1.741E+01   -1.739E+01   -1.737E+01   -1.734E+01   -1.732E+01   -1.730E+01   -1.728E+01   -1.726E+01   -1.723E+01   -1.721E+01
    -1.719E+01   -1.717E+01   -1.714E+01   -1.712E+01   -1.710E+01   -1.708E+01   -1.706E+01   -1.703E+01   -1.701E+01   -1.699E+01
    -1.697E+01   -1.695E+01   -1.692E+01   -1.690E+01   -1.688E+01   -1.686E+01   -1.683E+01   -1.681E+01   -1.679E+01   -1.677E+01
    -1.675E+01   -1.672E+01   -1.670E+01   -1.668E+01   -1.666E+01   -1.663E+01   -1.661E+01   -1.659E+01   -1.657E+01   -1.655E+01
    -1.652E+01   -1.650E+01   -1.648E+01   -1.646E+01   -1.644E+01   -1.641E+01   -1.639E+01   -1.637E+01   -1.635E+01   -1.632E+01
    -1.630E+01   -1.628E+01   -1.626E+01   -1.624E+01   -1.621E+01   -1.619E+01   -1.617E+01   -1.615E+01   -1.613E+01   -1.610E+01
    -1.608E+01   -1.606E+01   -1.604E+01   -1.601E+01   -1.599E+01   -1.597E+01   -1.595E+01   -1.593E+01   -1.590E+01   -1.588E+01
    -1.586E+01   -1.584E+01   -1.581E+01   -1.579E+01   -1.577E+01   -1.575E+01   -1.573E+01   -1.570E+01   -1.568E+01   -1.566E+01
    -1.564E+01   -1.562E+01   -1.559E+01   -1.557E+01   -1.555E+01   -1.553E+01   -1.550E+01   -1.548E+01   -1.546E+01   -1.544E+01
    -1.542E+01   -1.539E+01   -1.537E+01   -1.535E+01   -1.533E+01   -1.531E+01   -1.528E+01   -1.526E+01   -1.524E+01   -1.522E+01
    -1.519E+01   -1.517E+01   -1.515E+01   -1.513E+01   -1.511E+01   -1.508E+01   -1.506E+01   -1.504E+01   -1.502E+01   -1.500E+01
    -1.497E+01   -1.495E+01   -1.493E+01   -1.491E+01   -1.488E+01   -1.486E+01   -1.484E+01   -1.482E+01   -1.480E+01   -1.477E+01
    -1.475E+01   -1.473E+01   -1.471E+01   -1.468E+01   -1.466E+01   -1.464E+01   -1.462E+01   -1.460E+01   -1.457E+01   -1.455E+01
    -1.453E+01   -1.451E+01   -1.449E+01   -1.446E+01   -1.444E+01   -1.442E+01   -1.440E+01   -1.437E+01   -1.435E+01   -1.433E+01
    -1.431E+01   -1.429E+01   -1.426E+01   -1.424E+01   -1.422E+01   -1.420E+01   -1.418E+01   -1.415E+01   -1.413E+01   -1.411E+01
    -1.409E+01   -1.406E+01   -1.404E+01   -1.402E+01   -1.400E+01   -1.398E+01   -1.395E+01   -1.393E+01   -1.391E+01   -1.389E+01
    -1.387E+01   -1.384E+01   -1.382E+01   -1.380E+01   -1.378E+01   -1.375E+01   -1.373E+01   -1.371E+01   -1.369E+01   -1.367E+01
    -1.364E+01   -1.362E+01   -1.360E+01   -1.358E+01   -1.355E+01   -1.353E+01   -1.351E+01   -1.349E+01   -1.347E+01   -1.344E+01
    -1.342E+01   -1.340E+01   -1.338E+01   -1.336E+01   -1.333E+01   -1.331E+01   -1.329E+01   -1.327E+01
 Ala      Conc. = 3.38E+02
