 LCModel (Version 6.3-1L) Copyright: S.W. Provencher.          Ref.: Magn. Reson. Med. 30:672-679 (1993).                
 Slice#2 Row#6 Col#10  PD_24_press_2_raw_act
 36 lines in following concentration table = NCONC+1
    Conc.  %SD /Cr+PCr  Metabolite                                         
  134.676 179% 7.7E-02 Ala                                                 
    0.000 999%   0.000 Asp                                                 
  493.236 121%   0.282 Cr                                                  
 1.26E+03  48%   0.718 PCr                                                 
    0.000 999%   0.000 GABA                                                
  302.791  81%   0.173 Glc                                                 
 1.54E+03  35%   0.877 Gln                                                 
 2.81E+03  21%   1.606 Glu                                                 
  837.725   5%   0.478 GPC                                                 
    0.000 999%   0.000 PCh                                                 
  355.682  43%   0.203 GSH                                                 
 1.94E+03  27%   1.109 Ins                                                 
    0.000 999%   0.000 Lac                                                 
 3.33E+03   8%   1.904 NAA                                                 
  317.599  96%   0.181 NAAG                                                
  230.572  22%   0.132 Scyllo                                              
  523.278  66%   0.299 Tau                                                 
 1.64E+03  13%   0.934 -CrCH2                                              
  837.725   5%   0.478 GPC+PCh                                             
 3.65E+03   4%   2.085 NAA+NAAG                                            
 1.75E+03   6%   1.000 Cr+PCr                                              
 4.35E+03  21%   2.483 Glu+Gln                                             
    0.000 999%   0.000 Lip13a                                              
  259.119  69%   0.148 Lip13b                                              
   52.467 132% 3.0E-02 Lip09                                               
 2.40E+03  14%   1.371 MM09                                                
   41.517 107% 2.4E-02 Lip20                                               
 5.60E+03  12%   3.198 MM20                                                
  575.538  37%   0.329 MM12                                                
 1.92E+03  27%   1.096 MM14                                                
 2.81E+03  15%   1.604 MM17                                                
  259.119  69%   0.148 Lip13a+Lip13b                                       
 2.75E+03  22%   1.573 MM14+Lip13a+Lip13b+MM12                             
 2.45E+03  14%   1.401 MM09+Lip09                                          
 5.64E+03  12%   3.222 MM20+Lip20                                          
   6 lines in following misc. output table
  FWHM = 0.069 ppm    S/N =   9                                            
  Data shift = 0.008 ppm                                                   
  Ph: -46 deg      -9.0 deg/ppm                                            
  alphaB,S = 5.8E-01,   1.6E+02                                            
   14 spline knots.   Ns = 8(1)                                            
  (15) 3 infls.   ( 9) 1 extrs.                                            
  498 points on ppm-axis = NY
      4.000000     3.992357     3.984714     3.977070     3.969427     3.961784     3.954141     3.946497     3.938854     3.931211
      3.923568     3.915925     3.908281     3.900638     3.892995     3.885352     3.877708     3.870065     3.862422     3.854779
      3.847136     3.839492     3.831849     3.824206     3.816563     3.808919     3.801276     3.793633     3.785990     3.778347
      3.770703     3.763060     3.755417     3.747774     3.740130     3.732487     3.724844     3.717201     3.709558     3.701914
      3.694271     3.686628     3.678985     3.671341     3.663698     3.656055     3.648412     3.640769     3.633125     3.625482
      3.617839     3.610196     3.602552     3.594909     3.587266     3.579623     3.571980     3.564336     3.556693     3.549050
      3.541407     3.533763     3.526120     3.518477     3.510834     3.503191     3.495547     3.487904     3.480261     3.472618
      3.464974     3.457331     3.449688     3.442045     3.434402     3.426758     3.419115     3.411472     3.403829     3.396185
      3.388542     3.380899     3.373256     3.365613     3.357969     3.350326     3.342683     3.335040     3.327396     3.319753
      3.312110     3.304467     3.296824     3.289180     3.281537     3.273894     3.266251     3.258607     3.250964     3.243321
      3.235678     3.228034     3.220391     3.212748     3.205105     3.197462     3.189818     3.182175     3.174532     3.166889
      3.159245     3.151602     3.143959     3.136316     3.128673     3.121029     3.113386     3.105743     3.098100     3.090456
      3.082813     3.075170     3.067527     3.059884     3.052240     3.044597     3.036954     3.029311     3.021667     3.014024
      3.006381     2.998738     2.991095     2.983451     2.975808     2.968165     2.960522     2.952878     2.945235     2.937592
      2.929949     2.922306     2.914662     2.907019     2.899376     2.891733     2.884089     2.876446     2.868803     2.861160
      2.853517     2.845873     2.838230     2.830587     2.822944     2.815300     2.807657     2.800014     2.792371     2.784728
      2.777084     2.769441     2.761798     2.754155     2.746511     2.738868     2.731225     2.723582     2.715939     2.708295
      2.700652     2.693009     2.685366     2.677722     2.670079     2.662436     2.654793     2.647150     2.639506     2.631863
      2.624220     2.616577     2.608933     2.601290     2.593647     2.586004     2.578361     2.570717     2.563074     2.555431
      2.547788     2.540144     2.532501     2.524858     2.517215     2.509572     2.501928     2.494285     2.486642     2.478999
      2.471355     2.463712     2.456069     2.448426     2.440783     2.433139     2.425496     2.417853     2.410210     2.402566
      2.394923     2.387280     2.379637     2.371994     2.364350     2.356707     2.349064     2.341421     2.333777     2.326134
      2.318491     2.310848     2.303205     2.295561     2.287918     2.280275     2.272632     2.264988     2.257345     2.249702
      2.242059     2.234416     2.226772     2.219129     2.211486     2.203843     2.196199     2.188556     2.180913     2.173270
      2.165627     2.157983     2.150340     2.142697     2.135054     2.127410     2.119767     2.112124     2.104481     2.096838
      2.089194     2.081551     2.073908     2.066265     2.058621     2.050978     2.043335     2.035692     2.028049     2.020405
      2.012762     2.005119     1.997476     1.989833     1.982190     1.974546     1.966903     1.959260     1.951617     1.943974
      1.936331     1.928688     1.921045     1.913402     1.905759     1.898115     1.890472     1.882829     1.875186     1.867543
      1.859900     1.852257     1.844614     1.836971     1.829327     1.821684     1.814041     1.806398     1.798755     1.791112
      1.783469     1.775826     1.768183     1.760540     1.752896     1.745253     1.737610     1.729967     1.722324     1.714681
      1.707038     1.699395     1.691752     1.684108     1.676465     1.668822     1.661179     1.653536     1.645893     1.638250
      1.630607     1.622964     1.615321     1.607677     1.600034     1.592391     1.584748     1.577105     1.569462     1.561819
      1.554176     1.546533     1.538890     1.531246     1.523603     1.515960     1.508317     1.500674     1.493031     1.485388
      1.477745     1.470102     1.462458     1.454815     1.447172     1.439529     1.431886     1.424243     1.416600     1.408957
      1.401314     1.393671     1.386027     1.378384     1.370741     1.363098     1.355455     1.347812     1.340169     1.332526
      1.324883     1.317240     1.309596     1.301953     1.294310     1.286667     1.279024     1.271381     1.263738     1.256095
      1.248452     1.240808     1.233165     1.225522     1.217879     1.210236     1.202593     1.194950     1.187307     1.179664
      1.172021     1.164377     1.156734     1.149091     1.141448     1.133805     1.126162     1.118519     1.110876     1.103233
      1.095590     1.087946     1.080303     1.072660     1.065017     1.057374     1.049731     1.042088     1.034445     1.026802
      1.019158     1.011515     1.003872     0.996229     0.988586     0.980943     0.973300     0.965657     0.958014     0.950371
      0.942727     0.935084     0.927441     0.919798     0.912155     0.904512     0.896869     0.889226     0.881583     0.873940
      0.866296     0.858653     0.851010     0.843367     0.835724     0.828081     0.820438     0.812795     0.805152     0.797508
      0.789865     0.782222     0.774579     0.766936     0.759293     0.751650     0.744007     0.736364     0.728721     0.721077
      0.713434     0.705791     0.698148     0.690505     0.682862     0.675219     0.667576     0.659933     0.652290     0.644646
      0.637003     0.629360     0.621717     0.614074     0.606431     0.598788     0.591145     0.583502     0.575858     0.568215
      0.560572     0.552929     0.545286     0.537643     0.530000     0.522357     0.514714     0.507071     0.499427     0.491784
      0.484141     0.476498     0.468855     0.461212     0.453569     0.445925     0.438282     0.430639     0.422996     0.415353
      0.407710     0.400067     0.392424     0.384780     0.377137     0.369494     0.361851     0.354208     0.346565     0.338922
      0.331278     0.323635     0.315992     0.308349     0.300706     0.293063     0.285420     0.277777     0.270133     0.262490
      0.254847     0.247204     0.239561     0.231918     0.224275     0.216631     0.208988     0.201345
 NY phased data points follow
   8.58380E+00  1.30273E+01  5.68698E+00  5.72078E+00  1.30723E+00  7.58399E+00  1.57365E+00  9.96469E+00  9.40840E+00  9.39452E+00
   9.96286E+00  1.04233E+01  8.17056E+00  1.66815E+01  1.69834E+01  8.78593E+00  1.27616E+01  1.21618E+01  7.44955E+00  7.24951E+00
   7.54710E+00  1.24877E+01  1.16505E+01  3.62533E+00  1.91029E+01  1.66268E+01  1.81753E+01  9.22375E+00  7.26430E+00  1.38761E+01
   5.15758E+00  1.67429E+01  9.64274E+00  2.07706E+01  1.43487E+01  1.63456E+01  5.27841E+00  2.21013E+01  2.17428E+01  1.25355E+01
   1.43055E+01  1.45463E+01  1.67449E+01  1.85198E+01  1.35951E+01  2.02967E+01  2.02647E+01  2.18168E+01  2.41242E+01  2.09946E+01
   2.07996E+01  1.47345E+01  1.63780E+01  2.04948E+01  1.67124E+01  1.28517E+01  1.25808E+01  1.37668E+01  8.79248E+00  1.61182E+01
   7.92298E+00  5.50102E+00  9.86058E+00 -3.95491E+00 -3.59665E+00  3.28536E+00  1.00029E+01  6.70151E+00  4.90456E+00  6.79703E+00
   4.33632E+00  3.52787E+00  1.73324E+00  7.36412E+00  1.48430E+01  1.46403E+01  1.31712E+01  1.10046E+01  1.37701E+01  1.40711E+01
   2.24893E+01  1.33638E+01  7.90638E+00  1.52336E+01  9.84801E+00  1.36382E+01  1.44115E+01  1.74710E+01  1.52409E+01  1.11269E+01
   1.25671E+01  1.15140E+01  1.67153E+01  1.74828E+01  2.10957E+01  1.41316E+01  2.37769E+01  2.76130E+01  3.63160E+01  3.89602E+01
   5.21908E+01  5.44660E+01  7.16824E+01  7.51895E+01  6.35508E+01  6.35502E+01  5.48020E+01  4.22669E+01  2.55363E+01  1.98789E+01
   2.20327E+01  1.14713E+01  1.98383E+01  6.33057E+00  8.83000E+00 -1.29162E-01  1.09672E+01  7.20875E+00  1.33002E+01  1.33145E+01
   1.06562E+01  2.10569E+01  2.07609E+01  2.82080E+01  4.26209E+01  4.03453E+01  4.74232E+01  5.66263E+01  6.02094E+01  5.99212E+01
   4.43423E+01  3.32121E+01  2.01549E+01  1.84368E+01  1.31527E+01  9.94042E+00  1.24526E+01  6.01222E+00  1.18405E+01  6.73511E+00
   1.36584E+01  7.08584E+00  4.75697E+00  1.06819E+01  6.25721E+00  1.84266E+00  9.65891E+00  2.36321E+00  3.94202E+00 -7.56234E-01
   9.52974E+00 -3.41415E-01  3.33403E+00 -3.17486E+00  6.59545E+00  1.30072E+00 -2.79019E+00  4.97776E-01  5.14308E+00  4.12202E+00
   1.24724E+01 -4.21844E+00 -1.10081E+00 -5.77680E+00 -4.03521E+00 -4.20796E+00 -9.21112E+00 -1.93985E+00 -6.44631E+00 -1.33694E+01
  -1.20692E+01 -9.10429E+00 -1.19865E+01 -2.37875E+01 -2.14259E+01 -1.77964E+01 -2.25388E+01 -1.71147E+01 -1.08054E+01 -1.40648E+01
  -5.46823E+00 -1.22436E+00 -7.03424E+00 -5.76528E+00 -1.53858E+01 -1.36754E+01 -6.71497E+00 -8.87667E+00 -1.07935E+01  9.52162E-01
  -2.66816E+00 -5.51676E+00 -9.36114E-01 -6.38439E+00  5.49792E-02  1.56730E+00 -1.53841E+00  1.40474E+00 -4.18523E+00 -1.32297E+01
  -7.92563E+00  3.45553E-01  5.93241E+00  5.51445E+00  7.51700E+00  9.87681E+00  1.07505E+01  5.65283E+00  3.53371E+00  5.71258E+00
   5.57700E+00  1.12206E+01  1.58698E+01  1.65591E+01  1.57376E+01  2.15633E+01  2.75068E+01  2.55469E+01  2.69114E+01  1.25597E+01
   9.81059E+00  1.32801E+01  3.67459E+00  1.54072E+01 -2.13805E-02  5.00095E+00  4.42151E+00  1.90885E+01  1.44866E+01  2.23696E+01
   1.74537E+01  2.24534E+01  2.02097E+01  1.99623E+01  1.39900E+01  1.36405E+01  2.14559E+01  1.86778E+01  1.29820E+01  1.03597E+01
   1.55974E+01  1.35737E+01  1.87531E+01  1.20648E+01  1.63683E+01  1.68163E+01  9.20879E+00  2.47683E+01  2.55056E+01  2.82132E+01
   2.49869E+01  3.34211E+01  4.01190E+01  5.35086E+01  4.79341E+01  5.88191E+01  8.24681E+01  8.90449E+01  9.87012E+01  1.02086E+02
   1.17277E+02  1.30596E+02  1.16504E+02  9.46772E+01  7.51668E+01  5.54331E+01  3.55721E+01  3.43309E+01  3.08960E+01  2.45261E+01
   1.89942E+01  2.56963E+01  1.95382E+01  1.64636E+01  2.06227E+01  2.13022E+01  1.03223E+01  9.58844E+00  1.25409E+01  1.49416E+01
   1.50529E+01  1.45793E+01  1.04447E+01  1.69296E+01  1.39981E+01  9.16327E+00  3.24180E+00  1.20878E+01  7.03982E+00  5.75635E+00
   9.46605E+00  1.35288E+01  1.29006E+01  1.78485E+01  1.30666E+01  1.62588E+01  1.44455E+01  2.07409E+01  2.01544E+01  1.48158E+01
   1.59537E+01  1.89113E+01  2.04686E+01  2.60853E+01  1.91748E+01  2.66577E+01  2.38896E+01  2.91677E+01  2.89619E+01  2.44427E+01
   1.84169E+01  2.81201E+01  2.75438E+01  2.41589E+01  2.36678E+01  2.30131E+01  1.58629E+01  2.16180E+01  2.03342E+01  2.16278E+01
   2.26271E+01  1.79591E+01  2.00877E+01  1.78618E+01  1.33291E+01  9.90767E+00  1.46722E+01  2.56734E+01  1.53481E+01  8.86486E+00
   1.09100E+01  1.91347E+01  4.76356E+00  1.36445E+01  1.60654E+00  6.22600E+00  9.45302E+00  1.08391E+01  5.56066E+00  2.76888E+00
   6.09760E+00  2.72548E+00  6.93963E+00  8.46248E+00 -2.89124E+00  9.86033E+00  3.61439E+00  1.00270E+01 -4.61201E+00  3.86065E+00
   2.31242E+00  6.45285E+00  2.75097E+00  3.33038E+00  1.67978E+01  1.06859E+01  7.63585E+00  8.04019E+00  1.46279E+01  7.99633E+00
   3.20975E+00  6.13586E+00  7.96482E+00  1.52183E+00  4.78936E+00  7.16309E+00  6.16287E+00  5.66404E+00  5.21431E+00  9.33310E+00
   4.02836E+00 -2.96255E-01  8.02249E+00  7.09416E-01 -2.97655E-01  2.04306E+00  2.14046E+00 -3.96925E+00  4.95446E-01 -3.10412E+00
  -4.25425E+00 -1.00022E+00 -5.40111E+00 -1.21421E+01 -6.07746E-01  6.16418E+00  2.31140E+00 -9.05138E-01 -6.76518E+00  6.63221E-01
   4.36659E+00  7.42697E+00  7.01682E+00  5.41201E+00  8.23075E+00  1.12291E+01  1.77495E+01  1.25133E+01  9.23210E+00  1.63744E+01
   1.70653E+01  1.56033E+01  1.15805E+01  1.29130E+01  1.20015E+01  1.83929E+01  1.48970E+01  1.82517E+01  2.26904E+01  1.51869E+01
   2.18523E+01  1.79843E+01  1.72100E+01  8.70197E+00  1.52558E+01  7.71091E+00  1.08168E+01  9.23445E+00  9.53887E+00  1.46021E+01
   1.03175E+01  9.52447E+00  4.07715E+00  1.14305E+01  3.02870E+00  2.10953E+00  3.80637E+00 -1.58297E+00  1.57172E+00  4.84694E+00
   3.31835E+00  1.34395E+00  5.44315E+00  1.54599E-01  2.37327E-01  4.73325E+00 -6.15798E-01  8.09382E+00  8.61062E+00 -1.86540E+00
   3.40507E+00  4.61796E+00  4.80105E+00  2.87162E-01  4.10993E+00 -5.10037E+00  9.16177E+00 -5.05726E+00  3.12662E+00  4.52755E+00
   2.73829E+00  4.41363E+00  7.10737E+00  3.77343E+00  4.30497E+00  1.73140E+00  1.31462E+00  4.95764E+00  3.28681E+00  5.28450E+00
   7.05693E-01  6.57892E-01 -5.40251E+00  4.74539E-01 -5.91463E+00 -2.36563E+00  2.45063E+00  2.64298E+00 -6.99743E-01 -2.11125E+00
  -1.30940E+00  2.19941E+00  5.17553E+00  5.58410E-01  5.23652E+00  7.94900E-01  4.74793E+00  3.98534E+00  7.99068E+00  2.45459E+00
  -2.36250E+00  2.93939E+00 -6.55082E-01  7.12861E+00  3.67008E+00  8.27674E+00 -4.13985E+00  2.23521E+00 -3.48882E+00  3.10048E+00
   1.13325E+00  4.32714E+00 -2.73267E-01 -4.19178E+00  1.77382E+00 -4.10667E+00  7.35473E+00  3.80192E-01
 NY points of the fit to the data follow
   8.76316E+00  7.73711E+00  6.90971E+00  6.75616E+00  7.09904E+00  7.54448E+00  8.03491E+00  8.54247E+00  9.03206E+00  9.66407E+00
   1.06952E+01  1.21435E+01  1.35948E+01  1.44872E+01  1.45344E+01  1.38786E+01  1.29793E+01  1.22937E+01  1.18018E+01  1.12190E+01
   1.04924E+01  9.89228E+00  9.75762E+00  9.90479E+00  1.02033E+01  1.06376E+01  1.12317E+01  1.20543E+01  1.30446E+01  1.43217E+01
   1.59777E+01  1.77073E+01  1.89664E+01  1.93696E+01  1.87441E+01  1.72093E+01  1.50293E+01  1.27699E+01  1.09524E+01  1.00113E+01
   1.02421E+01  1.13715E+01  1.30032E+01  1.47862E+01  1.65293E+01  1.81577E+01  1.95234E+01  2.04691E+01  2.07143E+01  1.98892E+01
   1.79026E+01  1.52701E+01  1.27352E+01  1.08349E+01  9.66685E+00  9.04879E+00  8.81668E+00  8.90664E+00  9.28460E+00  9.82606E+00
   1.02878E+01  1.04859E+01  1.02846E+01  9.68754E+00  8.95692E+00  8.36279E+00  8.07073E+00  8.15652E+00  8.56310E+00  9.11511E+00
   9.67562E+00  1.02007E+01  1.06553E+01  1.09625E+01  1.11141E+01  1.11051E+01  1.08965E+01  1.05253E+01  1.02875E+01  1.03885E+01
   1.05578E+01  1.08502E+01  1.14883E+01  1.24045E+01  1.34062E+01  1.43736E+01  1.50844E+01  1.50919E+01  1.41486E+01  1.24271E+01
   1.04382E+01  8.82178E+00  7.93432E+00  7.92842E+00  9.69485E+00  1.43836E+01  2.04849E+01  2.71916E+01  3.45526E+01  4.25401E+01
   5.09521E+01  5.95438E+01  6.73984E+01  7.21840E+01  7.13630E+01  6.43291E+01  5.29555E+01  4.03908E+01  2.94793E+01  2.14736E+01
   1.56113E+01  1.07461E+01  7.26451E+00  5.97368E+00  5.62389E+00  5.53761E+00  5.61859E+00  5.92646E+00  7.04164E+00  1.02755E+01
   1.48448E+01  1.96966E+01  2.49260E+01  3.07192E+01  3.69751E+01  4.35531E+01  4.99721E+01  5.46804E+01  5.56173E+01  5.18176E+01
   4.41832E+01  3.49266E+01  2.63533E+01  1.97513E+01  1.48942E+01  1.07981E+01  7.37885E+00  5.57919E+00  4.92502E+00  4.73757E+00
   4.82329E+00  5.01338E+00  5.14194E+00  5.13092E+00  4.97509E+00  4.68369E+00  4.30423E+00  3.89862E+00  3.50835E+00  3.15491E+00
   2.84246E+00  2.57364E+00  2.31466E+00  1.96098E+00  1.57214E+00  1.22899E+00  9.72865E-01  8.20933E-01  6.30953E-01  3.21782E-01
  -8.92716E-02 -5.09867E-01 -8.03427E-01 -8.73303E-01 -7.83621E-01 -7.57983E-01 -1.01876E+00 -1.64568E+00 -2.54089E+00 -3.39501E+00
  -3.99242E+00 -4.41826E+00 -4.78592E+00 -5.21254E+00 -5.61761E+00 -5.87549E+00 -5.96085E+00 -5.82779E+00 -5.51815E+00 -5.21737E+00
  -4.98158E+00 -4.78133E+00 -4.52132E+00 -4.04639E+00 -3.28944E+00 -2.39178E+00 -1.54448E+00 -6.42988E-01  4.66965E-01  1.75636E+00
   2.90726E+00  3.65006E+00  3.92429E+00  3.82897E+00  3.57318E+00  3.40727E+00  3.50516E+00  3.90961E+00  4.69049E+00  5.83822E+00
   7.16663E+00  8.41981E+00  9.16789E+00  9.31322E+00  8.71455E+00  7.16509E+00  4.86479E+00  2.26815E+00 -1.03921E-01 -1.62030E+00
  -2.05613E+00 -1.08466E+00  1.30536E+00  4.65822E+00  8.20460E+00  1.11203E+01  1.29365E+01  1.33924E+01  1.21408E+01  9.24905E+00
   5.39526E+00  1.73763E+00 -8.23247E-01 -1.83217E+00 -1.06002E+00  1.40350E+00  5.06836E+00  9.00442E+00  1.20957E+01  1.41007E+01
   1.52234E+01  1.57767E+01  1.60089E+01  1.60336E+01  1.60117E+01  1.61336E+01  1.65280E+01  1.72319E+01  1.81022E+01  1.88308E+01
   1.91876E+01  1.90339E+01  1.84241E+01  1.77602E+01  1.75227E+01  1.79631E+01  1.90395E+01  2.06626E+01  2.27541E+01  2.49571E+01
   2.71495E+01  3.01249E+01  3.66365E+01  4.62035E+01  5.63724E+01  6.69231E+01  7.80082E+01  8.91134E+01  9.97916E+01  1.09794E+02
   1.17354E+02  1.18986E+02  1.12226E+02  9.78630E+01  7.94447E+01  6.13946E+01  4.69867E+01  3.64837E+01  2.80694E+01  2.09542E+01
   1.67486E+01  1.49877E+01  1.39414E+01  1.31870E+01  1.26515E+01  1.22689E+01  1.18907E+01  1.14614E+01  1.09825E+01  1.04786E+01
   9.99344E+00  9.56554E+00  9.20558E+00  8.92211E+00  8.73965E+00  8.66632E+00  8.68330E+00  8.77648E+00  8.95168E+00  9.22783E+00
   9.61699E+00  1.01182E+01  1.07354E+01  1.14727E+01  1.23204E+01  1.32628E+01  1.42849E+01  1.53709E+01  1.65013E+01  1.76542E+01
   1.88031E+01  1.99199E+01  2.09745E+01  2.19343E+01  2.27664E+01  2.34432E+01  2.39434E+01  2.42551E+01  2.43725E+01  2.42981E+01
   2.40428E+01  2.36256E+01  2.30687E+01  2.24001E+01  2.16494E+01  2.08487E+01  2.00291E+01  1.92234E+01  1.84668E+01  1.78013E+01
   1.71988E+01  1.66126E+01  1.60556E+01  1.55347E+01  1.50310E+01  1.45167E+01  1.39536E+01  1.33336E+01  1.26675E+01  1.19466E+01
   1.12326E+01  1.06276E+01  1.01977E+01  9.95226E+00  9.85969E+00  9.86861E+00  9.91423E+00  9.92293E+00  9.79121E+00  9.46733E+00
   9.00220E+00  8.48298E+00  7.98038E+00  7.51527E+00  7.08024E+00  6.71196E+00  6.45946E+00  6.31966E+00  6.28912E+00  6.36589E+00
   6.53998E+00  6.79186E+00  7.08978E+00  7.39383E+00  7.65868E+00  7.84204E+00  7.90949E+00  7.84222E+00  7.63822E+00  7.31402E+00
   6.89903E+00  6.43138E+00  5.94901E+00  5.48556E+00  5.06455E+00  4.69999E+00  4.39515E+00  4.14687E+00  3.94637E+00  3.78416E+00
   3.65024E+00  3.53759E+00  3.44061E+00  3.35704E+00  3.28559E+00  3.22751E+00  3.18425E+00  3.15913E+00  3.15501E+00  3.17598E+00
   3.22533E+00  3.30755E+00  3.42640E+00  3.58686E+00  3.79297E+00  4.04974E+00  4.36106E+00  4.73165E+00  5.16491E+00  5.66452E+00
   6.23210E+00  6.86877E+00  7.57294E+00  8.34194E+00  9.16968E+00  1.00483E+01  1.09661E+01  1.19092E+01  1.28603E+01  1.38005E+01
   1.47084E+01  1.55623E+01  1.63391E+01  1.70179E+01  1.75782E+01  1.80036E+01  1.82805E+01  1.84005E+01  1.83590E+01  1.81577E+01
   1.78024E+01  1.73044E+01  1.66783E+01  1.59427E+01  1.51176E+01  1.42252E+01  1.32872E+01  1.23254E+01  1.13591E+01  1.04066E+01
   9.48238E+00  8.59926E+00  7.76618E+00  6.99022E+00  6.27479E+00  5.62194E+00  5.03088E+00  4.50030E+00  4.02677E+00  3.60698E+00
   3.23609E+00  2.91002E+00  2.62376E+00  2.37346E+00  2.15453E+00  1.96361E+00  1.79670E+00  1.65114E+00  1.52377E+00  1.41275E+00
   1.31553E+00  1.23076E+00  1.15637E+00  1.09150E+00  1.03462E+00  9.85254E-01  9.42082E-01  9.04789E-01  8.72242E-01  8.44405E-01
   8.20400E-01  8.00308E-01  7.83251E-01  7.69334E-01  7.57810E-01  7.48966E-01  7.42172E-01  7.37700E-01  7.34855E-01  7.33916E-01
   7.34299E-01  7.36414E-01  7.39708E-01  7.44517E-01  7.50228E-01  7.57214E-01  7.64975E-01  7.73961E-01  7.83642E-01  7.94373E-01
   8.05591E-01  8.17730E-01  8.30337E-01  8.43870E-01  8.57799E-01  8.72497E-01  8.87446E-01  9.03118E-01  9.19071E-01  9.35747E-01
   9.52608E-01  9.70047E-01  9.87589E-01  1.00573E+00  1.02402E+00  1.04289E+00  1.06180E+00  1.08117E+00  1.10057E+00  1.12048E+00
   1.14046E+00  1.16090E+00  1.18129E+00  1.20208E+00  1.22286E+00  1.24411E+00  1.26536E+00  1.28702E+00
 NY background values follow
     1.453E+00    1.456E+00    1.458E+00    1.461E+00    1.463E+00    1.465E+00    1.468E+00    1.470E+00    1.473E+00    1.475E+00
     1.478E+00    1.480E+00    1.483E+00    1.485E+00    1.487E+00    1.490E+00    1.492E+00    1.494E+00    1.497E+00    1.499E+00
     1.501E+00    1.503E+00    1.505E+00    1.507E+00    1.509E+00    1.511E+00    1.512E+00    1.514E+00    1.515E+00    1.517E+00
     1.518E+00    1.519E+00    1.520E+00    1.521E+00    1.522E+00    1.523E+00    1.524E+00    1.524E+00    1.524E+00    1.525E+00
     1.525E+00    1.525E+00    1.524E+00    1.524E+00    1.523E+00    1.523E+00    1.522E+00    1.521E+00    1.519E+00    1.518E+00
     1.516E+00    1.514E+00    1.512E+00    1.510E+00    1.508E+00    1.505E+00    1.502E+00    1.499E+00    1.496E+00    1.493E+00
     1.489E+00    1.485E+00    1.481E+00    1.477E+00    1.472E+00    1.468E+00    1.463E+00    1.457E+00    1.452E+00    1.446E+00
     1.441E+00    1.434E+00    1.428E+00    1.422E+00    1.415E+00    1.408E+00    1.400E+00    1.393E+00    1.385E+00    1.377E+00
     1.369E+00    1.360E+00    1.351E+00    1.342E+00    1.333E+00    1.323E+00    1.313E+00    1.303E+00    1.293E+00    1.282E+00
     1.271E+00    1.260E+00    1.248E+00    1.236E+00    1.224E+00    1.212E+00    1.199E+00    1.186E+00    1.173E+00    1.160E+00
     1.147E+00    1.133E+00    1.119E+00    1.105E+00    1.091E+00    1.077E+00    1.062E+00    1.047E+00    1.033E+00    1.018E+00
     1.003E+00    9.876E-01    9.724E-01    9.571E-01    9.417E-01    9.263E-01    9.108E-01    8.952E-01    8.796E-01    8.640E-01
     8.483E-01    8.327E-01    8.170E-01    8.013E-01    7.857E-01    7.700E-01    7.544E-01    7.389E-01    7.233E-01    7.079E-01
     6.925E-01    6.772E-01    6.620E-01    6.468E-01    6.318E-01    6.169E-01    6.021E-01    5.874E-01    5.729E-01    5.586E-01
     5.444E-01    5.305E-01    5.167E-01    5.033E-01    4.900E-01    4.771E-01    4.644E-01    4.521E-01    4.400E-01    4.283E-01
     4.170E-01    4.061E-01    3.956E-01    3.854E-01    3.757E-01    3.665E-01    3.577E-01    3.494E-01    3.416E-01    3.344E-01
     3.276E-01    3.215E-01    3.159E-01    3.108E-01    3.064E-01    3.027E-01    2.995E-01    2.970E-01    2.952E-01    2.941E-01
     2.937E-01    2.941E-01    2.952E-01    2.970E-01    2.997E-01    3.031E-01    3.074E-01    3.125E-01    3.184E-01    3.252E-01
     3.329E-01    3.415E-01    3.510E-01    3.614E-01    3.727E-01    3.847E-01    3.975E-01    4.111E-01    4.254E-01    4.404E-01
     4.560E-01    4.722E-01    4.891E-01    5.064E-01    5.243E-01    5.427E-01    5.615E-01    5.808E-01    6.004E-01    6.204E-01
     6.407E-01    6.613E-01    6.822E-01    7.033E-01    7.246E-01    7.460E-01    7.676E-01    7.892E-01    8.110E-01    8.327E-01
     8.545E-01    8.762E-01    8.979E-01    9.194E-01    9.408E-01    9.621E-01    9.831E-01    1.004E+00    1.024E+00    1.045E+00
     1.065E+00    1.084E+00    1.103E+00    1.122E+00    1.140E+00    1.158E+00    1.176E+00    1.192E+00    1.208E+00    1.224E+00
     1.239E+00    1.254E+00    1.267E+00    1.281E+00    1.294E+00    1.306E+00    1.317E+00    1.328E+00    1.339E+00    1.349E+00
     1.358E+00    1.367E+00    1.375E+00    1.383E+00    1.389E+00    1.396E+00    1.402E+00    1.407E+00    1.411E+00    1.415E+00
     1.419E+00    1.421E+00    1.423E+00    1.425E+00    1.426E+00    1.426E+00    1.426E+00    1.425E+00    1.423E+00    1.421E+00
     1.418E+00    1.415E+00    1.410E+00    1.406E+00    1.400E+00    1.394E+00    1.387E+00    1.380E+00    1.372E+00    1.364E+00
     1.354E+00    1.344E+00    1.334E+00    1.322E+00    1.311E+00    1.298E+00    1.285E+00    1.271E+00    1.257E+00    1.242E+00
     1.226E+00    1.210E+00    1.193E+00    1.176E+00    1.158E+00    1.140E+00    1.121E+00    1.101E+00    1.081E+00    1.061E+00
     1.040E+00    1.018E+00    9.959E-01    9.734E-01    9.503E-01    9.268E-01    9.028E-01    8.784E-01    8.535E-01    8.282E-01
     8.024E-01    7.763E-01    7.497E-01    7.227E-01    6.953E-01    6.675E-01    6.393E-01    6.107E-01    5.818E-01    5.525E-01
     5.229E-01    4.929E-01    4.626E-01    4.319E-01    4.010E-01    3.697E-01    3.381E-01    3.063E-01    2.741E-01    2.417E-01
     2.090E-01    1.762E-01    1.431E-01    1.099E-01    7.653E-02    4.302E-02    9.403E-03   -2.431E-02   -5.809E-02   -9.191E-02
    -1.258E-01   -1.596E-01   -1.935E-01   -2.273E-01   -2.610E-01   -2.947E-01   -3.283E-01   -3.617E-01   -3.950E-01   -4.282E-01
    -4.612E-01   -4.939E-01   -5.265E-01   -5.588E-01   -5.908E-01   -6.226E-01   -6.540E-01   -6.851E-01   -7.159E-01   -7.463E-01
    -7.763E-01   -8.058E-01   -8.350E-01   -8.637E-01   -8.919E-01   -9.196E-01   -9.468E-01   -9.735E-01   -9.996E-01   -1.025E+00
    -1.050E+00   -1.074E+00   -1.098E+00   -1.121E+00   -1.143E+00   -1.165E+00   -1.186E+00   -1.207E+00   -1.226E+00   -1.245E+00
    -1.264E+00   -1.281E+00   -1.298E+00   -1.315E+00   -1.331E+00   -1.346E+00   -1.360E+00   -1.374E+00   -1.386E+00   -1.399E+00
    -1.410E+00   -1.421E+00   -1.431E+00   -1.441E+00   -1.450E+00   -1.458E+00   -1.465E+00   -1.472E+00   -1.478E+00   -1.483E+00
    -1.488E+00   -1.492E+00   -1.495E+00   -1.497E+00   -1.499E+00   -1.500E+00   -1.500E+00   -1.500E+00   -1.499E+00   -1.497E+00
    -1.494E+00   -1.491E+00   -1.487E+00   -1.482E+00   -1.476E+00   -1.470E+00   -1.463E+00   -1.455E+00   -1.447E+00   -1.437E+00
    -1.427E+00   -1.417E+00   -1.405E+00   -1.393E+00   -1.381E+00   -1.367E+00   -1.353E+00   -1.339E+00   -1.324E+00   -1.308E+00
    -1.292E+00   -1.275E+00   -1.257E+00   -1.240E+00   -1.221E+00   -1.202E+00   -1.183E+00   -1.163E+00   -1.143E+00   -1.122E+00
    -1.101E+00   -1.079E+00   -1.057E+00   -1.035E+00   -1.012E+00   -9.887E-01   -9.653E-01   -9.415E-01   -9.175E-01   -8.931E-01
    -8.685E-01   -8.436E-01   -8.184E-01   -7.930E-01   -7.674E-01   -7.416E-01   -7.156E-01   -6.894E-01   -6.630E-01   -6.365E-01
    -6.098E-01   -5.831E-01   -5.562E-01   -5.292E-01   -5.022E-01   -4.750E-01   -4.478E-01   -4.205E-01   -3.931E-01   -3.656E-01
    -3.381E-01   -3.104E-01   -2.828E-01   -2.550E-01   -2.272E-01   -1.993E-01   -1.714E-01   -1.434E-01   -1.153E-01   -8.723E-02
    -5.908E-02   -3.089E-02   -2.666E-03    2.560E-02    5.390E-02    8.224E-02    1.106E-01    1.390E-01    1.674E-01    1.959E-01
     2.243E-01    2.528E-01    2.813E-01    3.098E-01    3.383E-01    3.668E-01    3.953E-01    4.238E-01    4.523E-01    4.808E-01
     5.093E-01    5.378E-01    5.663E-01    5.947E-01    6.232E-01    6.516E-01    6.800E-01    7.083E-01
 Ala      Conc. = 1.35E+02
