 LCModel (Version 6.3-1L) Copyright: S.W. Provencher.          Ref.: Magn. Reson. Med. 30:672-679 (1993).                
 Slice#3 Row#4 Col#9  PD_24_press_2_raw_act
 36 lines in following concentration table = NCONC+1
    Conc.  %SD /Cr+PCr  Metabolite                                         
  314.016  84%   0.127 Ala                                                 
    0.000 999%   0.000 Asp                                                 
  582.202  90%   0.236 Cr                                                  
 1.89E+03  29%   0.764 PCr                                                 
  116.636 249% 4.7E-02 GABA                                                
    0.000 999%   0.000 Glc                                                 
 1.65E+03  35%   0.667 Gln                                                 
 2.77E+03  24%   1.119 Glu                                                 
 1.13E+03   4%   0.456 GPC                                                 
    0.000 999%   0.000 PCh                                                 
  793.504  21%   0.321 GSH                                                 
 1.37E+03  40%   0.554 Ins                                                 
  415.196  71%   0.168 Lac                                                 
 3.14E+03   9%   1.270 NAA                                                 
  791.013  37%   0.320 NAAG                                                
  220.436  26% 8.9E-02 Scyllo                                              
    0.000 999%   0.000 Tau                                                 
  428.323  53%   0.173 -CrCH2                                              
 1.13E+03   4%   0.456 GPC+PCh                                             
 3.93E+03   4%   1.590 NAA+NAAG                                            
 2.47E+03   5%   1.000 Cr+PCr                                              
 4.41E+03  22%   1.786 Glu+Gln                                             
  359.253 122%   0.145 Lip13a                                              
    0.000 999%   0.000 Lip13b                                              
    0.000 999%   0.000 Lip09                                               
 1.38E+03  21%   0.557 MM09                                                
  125.202 126% 5.1E-02 Lip20                                               
 3.04E+03  17%   1.231 MM20                                                
  387.453  38%   0.157 MM12                                                
 1.06E+03  39%   0.427 MM14                                                
 1.66E+03  17%   0.672 MM17                                                
  359.253 122%   0.145 Lip13a+Lip13b                                       
 1.80E+03  29%   0.729 MM14+Lip13a+Lip13b+MM12                             
 1.38E+03  21%   0.557 MM09+Lip09                                          
 3.17E+03  17%   1.282 MM20+Lip20                                          
   6 lines in following misc. output table
  FWHM = 0.054 ppm    S/N =   8                                            
  Data shift = 0.015 ppm                                                   
  Ph: -53 deg     -17.7 deg/ppm                                            
  alphaB,S = 2.8E+00,   7.3E+01                                            
   14 spline knots.   Ns = 7(1)                                            
  (12) 4 infls.   (11) 1 extrs.                                            
  498 points on ppm-axis = NY
      4.000000     3.992357     3.984714     3.977070     3.969427     3.961784     3.954141     3.946497     3.938854     3.931211
      3.923568     3.915925     3.908281     3.900638     3.892995     3.885352     3.877708     3.870065     3.862422     3.854779
      3.847136     3.839492     3.831849     3.824206     3.816563     3.808919     3.801276     3.793633     3.785990     3.778347
      3.770703     3.763060     3.755417     3.747774     3.740130     3.732487     3.724844     3.717201     3.709558     3.701914
      3.694271     3.686628     3.678985     3.671341     3.663698     3.656055     3.648412     3.640769     3.633125     3.625482
      3.617839     3.610196     3.602552     3.594909     3.587266     3.579623     3.571980     3.564336     3.556693     3.549050
      3.541407     3.533763     3.526120     3.518477     3.510834     3.503191     3.495547     3.487904     3.480261     3.472618
      3.464974     3.457331     3.449688     3.442045     3.434402     3.426758     3.419115     3.411472     3.403829     3.396185
      3.388542     3.380899     3.373256     3.365613     3.357969     3.350326     3.342683     3.335040     3.327396     3.319753
      3.312110     3.304467     3.296824     3.289180     3.281537     3.273894     3.266251     3.258607     3.250964     3.243321
      3.235678     3.228034     3.220391     3.212748     3.205105     3.197462     3.189818     3.182175     3.174532     3.166889
      3.159245     3.151602     3.143959     3.136316     3.128673     3.121029     3.113386     3.105743     3.098100     3.090456
      3.082813     3.075170     3.067527     3.059884     3.052240     3.044597     3.036954     3.029311     3.021667     3.014024
      3.006381     2.998738     2.991095     2.983451     2.975808     2.968165     2.960522     2.952878     2.945235     2.937592
      2.929949     2.922306     2.914662     2.907019     2.899376     2.891733     2.884089     2.876446     2.868803     2.861160
      2.853517     2.845873     2.838230     2.830587     2.822944     2.815300     2.807657     2.800014     2.792371     2.784728
      2.777084     2.769441     2.761798     2.754155     2.746511     2.738868     2.731225     2.723582     2.715939     2.708295
      2.700652     2.693009     2.685366     2.677722     2.670079     2.662436     2.654793     2.647150     2.639506     2.631863
      2.624220     2.616577     2.608933     2.601290     2.593647     2.586004     2.578361     2.570717     2.563074     2.555431
      2.547788     2.540144     2.532501     2.524858     2.517215     2.509572     2.501928     2.494285     2.486642     2.478999
      2.471355     2.463712     2.456069     2.448426     2.440783     2.433139     2.425496     2.417853     2.410210     2.402566
      2.394923     2.387280     2.379637     2.371994     2.364350     2.356707     2.349064     2.341421     2.333777     2.326134
      2.318491     2.310848     2.303205     2.295561     2.287918     2.280275     2.272632     2.264988     2.257345     2.249702
      2.242059     2.234416     2.226772     2.219129     2.211486     2.203843     2.196199     2.188556     2.180913     2.173270
      2.165627     2.157983     2.150340     2.142697     2.135054     2.127410     2.119767     2.112124     2.104481     2.096838
      2.089194     2.081551     2.073908     2.066265     2.058621     2.050978     2.043335     2.035692     2.028049     2.020405
      2.012762     2.005119     1.997476     1.989833     1.982190     1.974546     1.966903     1.959260     1.951617     1.943974
      1.936331     1.928688     1.921045     1.913402     1.905759     1.898115     1.890472     1.882829     1.875186     1.867543
      1.859900     1.852257     1.844614     1.836971     1.829327     1.821684     1.814041     1.806398     1.798755     1.791112
      1.783469     1.775826     1.768183     1.760540     1.752896     1.745253     1.737610     1.729967     1.722324     1.714681
      1.707038     1.699395     1.691752     1.684108     1.676465     1.668822     1.661179     1.653536     1.645893     1.638250
      1.630607     1.622964     1.615321     1.607677     1.600034     1.592391     1.584748     1.577105     1.569462     1.561819
      1.554176     1.546533     1.538890     1.531246     1.523603     1.515960     1.508317     1.500674     1.493031     1.485388
      1.477745     1.470102     1.462458     1.454815     1.447172     1.439529     1.431886     1.424243     1.416600     1.408957
      1.401314     1.393671     1.386027     1.378384     1.370741     1.363098     1.355455     1.347812     1.340169     1.332526
      1.324883     1.317240     1.309596     1.301953     1.294310     1.286667     1.279024     1.271381     1.263738     1.256095
      1.248452     1.240808     1.233165     1.225522     1.217879     1.210236     1.202593     1.194950     1.187307     1.179664
      1.172021     1.164377     1.156734     1.149091     1.141448     1.133805     1.126162     1.118519     1.110876     1.103233
      1.095590     1.087946     1.080303     1.072660     1.065017     1.057374     1.049731     1.042088     1.034445     1.026802
      1.019158     1.011515     1.003872     0.996229     0.988586     0.980943     0.973300     0.965657     0.958014     0.950371
      0.942727     0.935084     0.927441     0.919798     0.912155     0.904512     0.896869     0.889226     0.881583     0.873940
      0.866296     0.858653     0.851010     0.843367     0.835724     0.828081     0.820438     0.812795     0.805152     0.797508
      0.789865     0.782222     0.774579     0.766936     0.759293     0.751650     0.744007     0.736364     0.728721     0.721077
      0.713434     0.705791     0.698148     0.690505     0.682862     0.675219     0.667576     0.659933     0.652290     0.644646
      0.637003     0.629360     0.621717     0.614074     0.606431     0.598788     0.591145     0.583502     0.575858     0.568215
      0.560572     0.552929     0.545286     0.537643     0.530000     0.522357     0.514714     0.507071     0.499427     0.491784
      0.484141     0.476498     0.468855     0.461212     0.453569     0.445925     0.438282     0.430639     0.422996     0.415353
      0.407710     0.400067     0.392424     0.384780     0.377137     0.369494     0.361851     0.354208     0.346565     0.338922
      0.331278     0.323635     0.315992     0.308349     0.300706     0.293063     0.285420     0.277777     0.270133     0.262490
      0.254847     0.247204     0.239561     0.231918     0.224275     0.216631     0.208988     0.201345
 NY phased data points follow
  -6.90984E+00 -1.34185E+01 -1.45804E+01 -5.78677E+00 -8.66655E+00  2.98466E+00  1.55835E+01  3.05817E+01  2.47192E+01  4.01864E+01
   2.95862E+01  4.23917E+01  3.33319E+01  1.67896E+01  2.08703E+01  8.86215E+00  1.92285E+01  1.99615E+00 -2.12965E+00 -3.28801E+00
  -4.88352E+00 -7.11326E+00 -8.98715E+00 -1.53347E+00 -1.53803E+01  2.16427E+00  3.27821E+00  9.81001E+00  7.39214E+00  1.16705E+01
   2.25289E+00  1.39192E+01  1.42110E+01 -7.39486E-02  1.20736E+01  3.49297E+00  2.48372E+00 -4.25641E+00  2.80707E+00  9.72991E+00
  -2.03936E+00  4.12868E+00  9.36683E+00  7.84321E+00  6.37346E+00  5.42457E+00  1.22340E+01  1.78028E+01  1.48073E+01  1.14172E+01
   1.64307E+01  1.09110E+01  7.04940E+00  6.30977E+00  4.72255E+00 -4.67377E+00 -2.37388E+00 -1.71533E+00 -1.38501E+01  1.80002E+00
  -1.07223E+01 -1.41256E+00 -1.71236E+01 -1.55816E+01 -2.58791E+01 -1.54273E+01 -1.53332E+01 -1.10908E+01 -5.44423E+00 -3.26176E+00
   6.57352E-02 -3.79301E+00 -8.52729E+00 -5.92837E+00 -5.56518E+00 -2.94525E+00 -9.59749E+00 -2.06976E+00 -4.67189E+00 -5.79731E+00
  -1.24277E+01  6.55045E+00  4.59897E-01  6.27547E+00  1.11842E+01 -3.33125E+00 -4.91773E+00  8.68300E+00  3.96389E+00  2.02410E+00
   4.64102E+00  3.21716E+00  5.99114E-01  1.50313E+01  2.06578E+01  2.23286E+01  1.77762E+01  2.74142E+01  3.34601E+01  5.11984E+01
   6.31683E+01  6.48079E+01  8.24507E+01  9.58259E+01  9.77558E+01  7.27967E+01  6.29936E+01  4.12048E+01  3.11629E+01  1.09575E+01
   1.29199E+01  1.21917E+01  7.35081E+00  5.18356E+00  8.80005E-01 -1.42597E+00  5.63599E+00  6.84115E+00  3.47860E+00  3.63917E+00
   1.38552E+01  1.91414E+01  2.62110E+01  2.73963E+01  4.35132E+01  5.89401E+01  6.59901E+01  7.75985E+01  8.30623E+01  6.37713E+01
   5.22972E+01  4.52714E+01  3.10270E+01  2.11335E+01  2.29421E+01  1.54797E+01  2.38369E+00  8.72672E+00  3.55008E+00 -1.86651E-01
   2.08912E+00  1.05728E+00  4.68914E+00  8.61962E+00  5.13191E+00  1.89911E+00 -3.59365E+00  1.52441E+00  3.22497E+00 -4.91774E+00
   3.65285E+00 -1.08298E+00 -9.67277E+00  5.29868E+00 -1.84863E+00  8.80307E+00  3.81293E+00  1.18152E+01 -6.55120E+00  1.23459E+00
  -5.72766E+00  1.61639E+01 -2.52196E+00  5.71445E+00 -6.48511E+00 -7.01060E+00 -1.42762E+01  1.72379E+00 -1.41289E+01 -4.38157E+00
  -1.62060E+01 -1.14911E+01 -8.92565E+00 -2.19557E+01 -2.00083E+01 -1.19185E+01 -1.17297E+01 -1.90002E+01 -1.25287E+01 -9.64570E+00
  -6.78019E+00 -1.57196E+01 -1.03663E+01 -1.64384E+01 -3.96629E+00 -9.60602E+00 -8.24426E+00 -2.71479E+00 -1.35032E+00 -1.72708E+00
  -7.70334E+00 -6.93819E+00  1.55102E+01  7.52017E-01 -1.34270E+00  4.06886E-01 -2.19523E-01  3.28577E+00 -6.09521E-01  1.74524E+00
  -7.77301E+00  9.48794E+00  3.50560E+00  1.00873E+01  7.82312E+00  7.17082E+00  8.58966E+00  1.18327E+01  1.02385E+00  3.56502E+00
  -4.39956E+00  5.60090E+00  1.71680E+00  1.27801E+01  1.77644E+01  2.31772E+01  2.91237E+01  1.42427E+01  1.02929E+01  1.25655E+01
   1.30377E+01  2.42618E+00  2.52218E+00  1.36153E+01  1.20729E+01  9.19807E+00 -9.12999E-01  1.83327E+01  1.04001E+01  2.55552E+01
   1.55887E+01  3.13660E+01  1.91560E+01  1.91631E+01  1.61672E+01  1.25971E+01  2.09785E+01  1.88624E+01  2.60252E+01  1.48309E+01
   8.40338E+00  9.23764E+00  7.24584E+00  1.45868E+01  6.13598E+00  1.73244E+01  1.66835E+01  1.66814E+01  1.02492E+01  2.56476E+01
   2.33480E+01  4.06200E+01  3.77332E+01  4.20901E+01  4.99069E+01  6.79232E+01  7.98889E+01  1.00895E+02  1.04175E+02  1.16594E+02
   1.25384E+02  1.26825E+02  1.07729E+02  8.09051E+01  7.01736E+01  5.95312E+01  4.55205E+01  3.69277E+01  1.90066E+01  2.17625E+01
   2.16484E+01  1.91752E+01  1.75681E+01  1.91352E+01  2.52506E+01  2.85176E+01  2.50319E+01  2.62455E+01  2.02765E+01  2.43691E+01
   1.13902E+01  1.50521E+01  1.57315E+01  1.04348E+01  2.10606E+01  1.90210E+01  2.25034E+01  1.92313E+01  1.85001E+01  1.70302E+01
   2.25813E+01  2.53501E+01  1.48248E+01  2.27671E+01  1.31992E+01  1.54680E+01  1.29157E+01  2.27977E+01  2.22089E+01  2.10192E+01
   2.00180E+01  1.24784E+01  2.24980E+01  2.00089E+01  2.85939E+01  2.05872E+01  2.81103E+01  3.10241E+01  3.62538E+01  4.02467E+01
   2.56995E+01  2.89404E+01  3.00785E+01  2.77088E+01  1.85427E+01  2.10865E+01  1.93375E+01  1.68395E+01  8.24827E+00  9.38130E+00
   1.79184E+01  7.00334E+00  1.65765E+01  1.45812E+01  2.22219E+00  1.44834E+01  5.40194E+00  2.02291E+01  9.87863E+00  8.07555E+00
   2.26745E+00  1.00894E+01  1.16010E+01  1.33885E+01  1.01026E+01  1.46055E+01  1.85724E+01  1.19891E+01  1.67390E+01  1.92925E+01
   1.58553E+01  1.69697E+01  2.24544E+01  2.89048E+01  2.64117E+01  2.50198E+01  4.06725E+01  7.18615E+00  8.37413E+00  1.75244E+01
   1.73944E+01  2.32276E+01  1.24117E+01  1.23611E+01  1.62516E-01  1.95933E+01  2.21629E+01  2.43790E+01  5.97267E+00  7.76441E+00
   9.20861E+00  1.28906E+01  1.49534E+01  1.27015E+01  9.97905E+00  2.14093E+01  1.39652E+01  1.83185E+01  2.46373E+01  1.67804E+01
   1.62420E+01  4.02554E+00  1.80783E+01  1.27190E+01  7.16787E+00  6.93877E+00  1.11635E+01  3.32955E+00  5.89627E+00  8.89599E+00
   1.39214E+01  1.50450E+01  1.75512E+01  1.23705E+01  4.46198E+00  9.09048E+00  1.25799E+01  1.05388E+01  8.38640E+00  1.65927E+01
   1.66932E+01  2.62129E+01  6.69817E+00  1.04773E+01  4.54529E+00  1.04852E+01  1.16829E+01  1.32011E+01  1.48153E+01  1.42003E+01
   1.29500E+01  2.61407E+01  2.06103E+01  1.85518E+01  2.05901E+01  1.66031E+01  2.20472E+01  2.20469E+01  1.95685E+01  1.49907E+01
   1.68473E+01  2.29638E+01  1.50315E+01  5.45431E+00  1.82814E+01  2.10454E+01  1.23562E+01  1.61181E+01  1.25567E+01  5.84752E+00
  -3.89110E-01  1.41528E+01  9.12019E+00  1.54611E+01  3.49527E+00  1.02507E+01  1.25502E+01  6.42913E+00  2.06259E+01  1.02833E+01
   1.01424E+01 -7.63902E+00  5.35010E+00  7.93043E+00  8.94812E+00  1.89930E+01  5.19717E+00  6.43327E+00  6.65210E+00  1.28022E+01
   8.58662E+00  9.81665E+00  9.68799E+00  1.28847E+01  2.72014E+01  1.48330E+01  4.80499E+00  5.56335E+00  8.32443E+00  1.03293E+01
   8.34309E+00  1.18633E+01  1.04589E+01  6.83712E+00  1.24936E+01  1.41826E+01  9.06385E+00  1.22531E+01  9.79052E+00  2.06763E+01
   8.23456E+00  1.92308E+01  1.83662E+01  9.74644E+00  1.56590E+01  1.24927E+01  2.22204E+00  1.73052E+01  1.23347E+01  1.26560E+01
   4.84718E+00  6.04765E+00  1.50784E+01  5.83696E+00  1.94136E+01  2.09824E+01  1.75141E+01  5.58803E+00  1.64201E+01  1.21698E+01
   1.10010E+01  1.04763E+01  1.41926E+01  1.49261E+01  1.69099E+01  8.13702E+00  1.05037E+00  7.08994E+00  1.37704E+01  1.83168E+01
   9.70342E+00  1.13686E+01  1.59052E+01  8.82938E+00  1.44557E+01  6.55761E+00  1.46675E+01  1.02759E+01
 NY points of the fit to the data follow
  -8.74724E+00 -8.39793E+00 -6.26448E+00 -2.27150E+00  2.71788E+00  8.56805E+00  1.48218E+01  2.11636E+01  2.75031E+01  3.31638E+01
   3.63408E+01  3.55275E+01  3.12709E+01  2.54527E+01  1.95616E+01  1.43298E+01  9.77935E+00  5.51346E+00  2.25439E+00  2.74124E-01
  -9.81551E-01 -1.93907E+00 -2.67887E+00 -2.54269E+00 -2.00327E+00 -1.03367E+00  5.47355E-01  2.60702E+00  5.28009E+00  8.66729E+00
   1.21165E+01  1.42362E+01  1.43693E+01  1.29555E+01  1.05493E+01  7.47069E+00  4.31186E+00  1.28277E+00 -1.03798E+00 -1.73220E+00
  -1.30009E+00 -1.13636E-01  1.58275E+00  3.42486E+00  5.06175E+00  6.39481E+00  7.54695E+00  8.25646E+00  8.11150E+00  6.98959E+00
   5.10542E+00  2.97182E+00  1.14782E+00 -2.93884E-01 -1.40460E+00 -2.10461E+00 -2.44356E+00 -2.50397E+00 -2.38179E+00 -2.16971E+00
  -2.05771E+00 -2.23069E+00 -2.74485E+00 -3.46604E+00 -4.15873E+00 -4.58495E+00 -4.72756E+00 -4.67500E+00 -4.45265E+00 -4.11821E+00
  -3.75829E+00 -3.39740E+00 -3.12571E+00 -3.03988E+00 -3.16195E+00 -3.39880E+00 -3.62635E+00 -3.79329E+00 -3.84174E+00 -3.51621E+00
  -2.51425E+00 -1.31990E+00 -1.33322E-01  1.13034E+00  2.42996E+00  3.72840E+00  4.92108E+00  5.43784E+00  4.68092E+00  2.98145E+00
   1.28841E+00  7.00312E-02 -7.36511E-01 -1.15856E+00 -7.83766E-01  3.10377E+00  1.27661E+01  2.40773E+01  3.58980E+01  4.87261E+01
   6.21931E+01  7.59128E+01  8.83691E+01  9.43418E+01  8.90720E+01  7.48246E+01  5.85763E+01  4.42550E+01  3.19527E+01  2.11217E+01
   1.12308E+01  3.82776E+00  1.02613E+00  1.27765E-01 -2.75324E-01 -4.54232E-01 -5.01844E-01 -3.95474E-01  2.57460E-02  1.71038E+00
   7.56325E+00  1.61673E+01  2.52459E+01  3.50711E+01  4.55980E+01  5.64206E+01  6.73172E+01  7.56169E+01  7.63607E+01  6.82542E+01
   5.58575E+01  4.39224E+01  3.36284E+01  2.45298E+01  1.59647E+01  8.00610E+00  3.35191E+00  1.79071E+00  1.49269E+00  1.90580E+00
   2.66605E+00  3.41745E+00  3.97877E+00  4.26391E+00  4.18676E+00  3.88249E+00  3.46568E+00  2.91164E+00  2.30031E+00  1.73369E+00
   1.24862E+00  9.05027E-01  6.79893E-01  4.81683E-01  1.71995E-01 -1.33682E-01 -3.17457E-01 -3.98455E-01 -4.03538E-01 -5.53172E-01
  -9.42866E-01 -1.38975E+00 -1.62986E+00 -1.61477E+00 -1.52362E+00 -1.59686E+00 -2.00787E+00 -2.65751E+00 -3.29752E+00 -3.89950E+00
  -4.50224E+00 -4.93163E+00 -5.23414E+00 -5.53468E+00 -5.89775E+00 -6.30848E+00 -6.56589E+00 -6.40519E+00 -5.95181E+00 -5.61923E+00
  -5.68490E+00 -5.82600E+00 -5.58333E+00 -4.80118E+00 -3.63792E+00 -2.38264E+00 -1.12210E+00  3.37714E-01  2.15786E+00  4.05127E+00
   5.43617E+00  5.90276E+00  5.60095E+00  4.76856E+00  3.72571E+00  2.90374E+00  2.52975E+00  2.81095E+00  3.96381E+00  5.96690E+00
   8.41843E+00  1.07139E+01  1.22101E+01  1.21954E+01  1.10677E+01  9.07209E+00  6.07654E+00  2.50786E+00 -6.90411E-01 -2.52329E+00
  -2.53519E+00 -6.43929E-01  2.84515E+00  6.91188E+00  1.07038E+01  1.36035E+01  1.47875E+01  1.38368E+01  1.10752E+01  7.07670E+00
   3.27764E+00  4.37594E-01 -1.27240E+00 -1.23782E+00  7.39161E-01  4.18574E+00  7.86496E+00  1.07109E+01  1.26003E+01  1.36147E+01
   1.41449E+01  1.42557E+01  1.40455E+01  1.41331E+01  1.47792E+01  1.54081E+01  1.56855E+01  1.59729E+01  1.62037E+01  1.59772E+01
   1.51335E+01  1.39995E+01  1.28698E+01  1.21115E+01  1.21943E+01  1.30383E+01  1.43768E+01  1.59103E+01  1.78156E+01  2.09651E+01
   2.48868E+01  2.90397E+01  3.41468E+01  4.36604E+01  5.75060E+01  7.17570E+01  8.53328E+01  9.71812E+01  1.06664E+02  1.15090E+02
   1.21749E+02  1.21085E+02  1.09624E+02  9.14186E+01  7.32452E+01  5.82835E+01  4.58757E+01  3.49218E+01  2.49770E+01  1.84587E+01
   1.60919E+01  1.50576E+01  1.44927E+01  1.42347E+01  1.41258E+01  1.39543E+01  1.36804E+01  1.33144E+01  1.29127E+01  1.25336E+01
   1.21960E+01  1.18941E+01  1.16664E+01  1.15582E+01  1.15511E+01  1.16204E+01  1.17486E+01  1.19364E+01  1.21993E+01  1.25520E+01
   1.29946E+01  1.35406E+01  1.41949E+01  1.49448E+01  1.57563E+01  1.66148E+01  1.75129E+01  1.84322E+01  1.93477E+01  2.02369E+01
   2.10776E+01  2.18544E+01  2.25345E+01  2.30798E+01  2.34647E+01  2.36732E+01  2.36995E+01  2.35454E+01  2.32154E+01  2.27291E+01
   2.21144E+01  2.14001E+01  2.06191E+01  1.98050E+01  1.89904E+01  1.82076E+01  1.74871E+01  1.68584E+01  1.63546E+01  1.60298E+01
   1.59614E+01  1.59840E+01  1.59294E+01  1.58465E+01  1.57197E+01  1.54876E+01  1.50843E+01  1.43574E+01  1.33392E+01  1.23581E+01
   1.17012E+01  1.15575E+01  1.18663E+01  1.25094E+01  1.34841E+01  1.48095E+01  1.63257E+01  1.75576E+01  1.82588E+01  1.87005E+01
   1.91955E+01  1.96197E+01  1.97247E+01  1.95383E+01  1.91603E+01  1.86771E+01  1.79564E+01  1.68032E+01  1.53031E+01  1.37180E+01
   1.24520E+01  1.18549E+01  1.18688E+01  1.23348E+01  1.32551E+01  1.45633E+01  1.59594E+01  1.68996E+01  1.71603E+01  1.70529E+01
   1.67893E+01  1.64324E+01  1.59742E+01  1.53736E+01  1.48433E+01  1.44912E+01  1.42261E+01  1.40057E+01  1.38137E+01  1.36418E+01
   1.34864E+01  1.33458E+01  1.32199E+01  1.31092E+01  1.30145E+01  1.29370E+01  1.28783E+01  1.28403E+01  1.28250E+01  1.28343E+01
   1.28703E+01  1.29348E+01  1.30303E+01  1.31586E+01  1.33220E+01  1.35220E+01  1.37599E+01  1.40364E+01  1.43519E+01  1.47058E+01
   1.50964E+01  1.55206E+01  1.59740E+01  1.64508E+01  1.69441E+01  1.74450E+01  1.79437E+01  1.84288E+01  1.88889E+01  1.93120E+01
   1.96864E+01  2.00013E+01  2.02470E+01  2.04153E+01  2.05010E+01  2.05007E+01  2.04141E+01  2.02435E+01  1.99936E+01  1.96714E+01
   1.92861E+01  1.88484E+01  1.83696E+01  1.78616E+01  1.73360E+01  1.68039E+01  1.62755E+01  1.57597E+01  1.52638E+01  1.47936E+01
   1.43533E+01  1.39457E+01  1.35724E+01  1.32337E+01  1.29289E+01  1.26567E+01  1.24150E+01  1.22018E+01  1.20147E+01  1.18511E+01
   1.17085E+01  1.15844E+01  1.14768E+01  1.13835E+01  1.13030E+01  1.12333E+01  1.11732E+01  1.11212E+01  1.10765E+01  1.10382E+01
   1.10054E+01  1.09773E+01  1.09534E+01  1.09332E+01  1.09163E+01  1.09024E+01  1.08911E+01  1.08821E+01  1.08751E+01  1.08699E+01
   1.08665E+01  1.08646E+01  1.08642E+01  1.08649E+01  1.08667E+01  1.08697E+01  1.08737E+01  1.08786E+01  1.08843E+01  1.08907E+01
   1.08978E+01  1.09055E+01  1.09140E+01  1.09231E+01  1.09326E+01  1.09425E+01  1.09530E+01  1.09639E+01  1.09754E+01  1.09871E+01
   1.09992E+01  1.10115E+01  1.10243E+01  1.10374E+01  1.10509E+01  1.10646E+01  1.10785E+01  1.10927E+01  1.11072E+01  1.11220E+01
   1.11370E+01  1.11522E+01  1.11676E+01  1.11832E+01  1.11991E+01  1.12153E+01  1.12316E+01  1.12481E+01  1.12648E+01  1.12818E+01
   1.12991E+01  1.13166E+01  1.13342E+01  1.13521E+01  1.13703E+01  1.13889E+01  1.14078E+01  1.14270E+01
 NY background values follow
    -1.322E+01   -1.314E+01   -1.305E+01   -1.297E+01   -1.288E+01   -1.280E+01   -1.271E+01   -1.263E+01   -1.255E+01   -1.246E+01
    -1.238E+01   -1.229E+01   -1.221E+01   -1.212E+01   -1.204E+01   -1.196E+01   -1.187E+01   -1.179E+01   -1.170E+01   -1.162E+01
    -1.153E+01   -1.145E+01   -1.137E+01   -1.128E+01   -1.120E+01   -1.111E+01   -1.103E+01   -1.095E+01   -1.086E+01   -1.078E+01
    -1.069E+01   -1.061E+01   -1.052E+01   -1.044E+01   -1.036E+01   -1.027E+01   -1.019E+01   -1.011E+01   -1.002E+01   -9.938E+00
    -9.854E+00   -9.770E+00   -9.686E+00   -9.603E+00   -9.519E+00   -9.435E+00   -9.352E+00   -9.268E+00   -9.185E+00   -9.101E+00
    -9.018E+00   -8.934E+00   -8.851E+00   -8.768E+00   -8.685E+00   -8.601E+00   -8.518E+00   -8.435E+00   -8.352E+00   -8.269E+00
    -8.186E+00   -8.103E+00   -8.021E+00   -7.938E+00   -7.855E+00   -7.773E+00   -7.690E+00   -7.608E+00   -7.525E+00   -7.443E+00
    -7.361E+00   -7.279E+00   -7.197E+00   -7.115E+00   -7.033E+00   -6.951E+00   -6.869E+00   -6.788E+00   -6.706E+00   -6.624E+00
    -6.543E+00   -6.462E+00   -6.381E+00   -6.300E+00   -6.219E+00   -6.138E+00   -6.057E+00   -5.976E+00   -5.896E+00   -5.815E+00
    -5.735E+00   -5.655E+00   -5.574E+00   -5.494E+00   -5.415E+00   -5.335E+00   -5.255E+00   -5.176E+00   -5.096E+00   -5.017E+00
    -4.938E+00   -4.858E+00   -4.779E+00   -4.701E+00   -4.622E+00   -4.543E+00   -4.465E+00   -4.386E+00   -4.308E+00   -4.230E+00
    -4.152E+00   -4.074E+00   -3.996E+00   -3.919E+00   -3.841E+00   -3.764E+00   -3.686E+00   -3.609E+00   -3.532E+00   -3.455E+00
    -3.378E+00   -3.302E+00   -3.225E+00   -3.149E+00   -3.073E+00   -2.996E+00   -2.920E+00   -2.845E+00   -2.769E+00   -2.693E+00
    -2.618E+00   -2.542E+00   -2.467E+00   -2.392E+00   -2.317E+00   -2.242E+00   -2.168E+00   -2.093E+00   -2.019E+00   -1.944E+00
    -1.870E+00   -1.796E+00   -1.722E+00   -1.649E+00   -1.575E+00   -1.502E+00   -1.428E+00   -1.355E+00   -1.282E+00   -1.209E+00
    -1.136E+00   -1.064E+00   -9.909E-01   -9.185E-01   -8.462E-01   -7.740E-01   -7.019E-01   -6.299E-01   -5.581E-01   -4.864E-01
    -4.148E-01   -3.433E-01   -2.720E-01   -2.007E-01   -1.296E-01   -5.863E-02    1.225E-02    8.301E-02    1.537E-01    2.242E-01
     2.946E-01    3.649E-01    4.351E-01    5.052E-01    5.751E-01    6.450E-01    7.147E-01    7.844E-01    8.539E-01    9.233E-01
     9.926E-01    1.062E+00    1.131E+00    1.200E+00    1.269E+00    1.338E+00    1.406E+00    1.475E+00    1.543E+00    1.611E+00
     1.679E+00    1.747E+00    1.815E+00    1.882E+00    1.950E+00    2.017E+00    2.084E+00    2.151E+00    2.218E+00    2.284E+00
     2.351E+00    2.417E+00    2.483E+00    2.549E+00    2.614E+00    2.679E+00    2.744E+00    2.809E+00    2.874E+00    2.938E+00
     3.002E+00    3.066E+00    3.130E+00    3.193E+00    3.256E+00    3.319E+00    3.382E+00    3.444E+00    3.506E+00    3.568E+00
     3.630E+00    3.691E+00    3.752E+00    3.812E+00    3.872E+00    3.932E+00    3.992E+00    4.051E+00    4.110E+00    4.169E+00
     4.227E+00    4.285E+00    4.343E+00    4.401E+00    4.458E+00    4.514E+00    4.571E+00    4.627E+00    4.682E+00    4.738E+00
     4.793E+00    4.847E+00    4.902E+00    4.955E+00    5.009E+00    5.062E+00    5.115E+00    5.168E+00    5.220E+00    5.272E+00
     5.323E+00    5.374E+00    5.425E+00    5.475E+00    5.525E+00    5.575E+00    5.624E+00    5.673E+00    5.721E+00    5.769E+00
     5.817E+00    5.864E+00    5.911E+00    5.958E+00    6.004E+00    6.050E+00    6.095E+00    6.140E+00    6.185E+00    6.229E+00
     6.272E+00    6.316E+00    6.359E+00    6.401E+00    6.443E+00    6.485E+00    6.527E+00    6.568E+00    6.608E+00    6.648E+00
     6.688E+00    6.728E+00    6.767E+00    6.805E+00    6.844E+00    6.882E+00    6.919E+00    6.956E+00    6.993E+00    7.030E+00
     7.066E+00    7.101E+00    7.137E+00    7.172E+00    7.206E+00    7.241E+00    7.275E+00    7.308E+00    7.342E+00    7.375E+00
     7.407E+00    7.439E+00    7.471E+00    7.503E+00    7.534E+00    7.565E+00    7.596E+00    7.626E+00    7.656E+00    7.686E+00
     7.715E+00    7.744E+00    7.773E+00    7.802E+00    7.830E+00    7.858E+00    7.885E+00    7.912E+00    7.939E+00    7.966E+00
     7.992E+00    8.018E+00    8.044E+00    8.070E+00    8.095E+00    8.120E+00    8.145E+00    8.170E+00    8.194E+00    8.218E+00
     8.242E+00    8.265E+00    8.289E+00    8.312E+00    8.335E+00    8.357E+00    8.380E+00    8.402E+00    8.424E+00    8.446E+00
     8.468E+00    8.489E+00    8.510E+00    8.532E+00    8.553E+00    8.573E+00    8.594E+00    8.614E+00    8.635E+00    8.655E+00
     8.675E+00    8.695E+00    8.714E+00    8.734E+00    8.753E+00    8.773E+00    8.792E+00    8.811E+00    8.830E+00    8.849E+00
     8.867E+00    8.886E+00    8.905E+00    8.923E+00    8.941E+00    8.960E+00    8.978E+00    8.996E+00    9.014E+00    9.032E+00
     9.050E+00    9.068E+00    9.085E+00    9.103E+00    9.121E+00    9.138E+00    9.156E+00    9.173E+00    9.191E+00    9.208E+00
     9.226E+00    9.243E+00    9.260E+00    9.278E+00    9.295E+00    9.312E+00    9.329E+00    9.347E+00    9.364E+00    9.381E+00
     9.398E+00    9.416E+00    9.433E+00    9.450E+00    9.467E+00    9.484E+00    9.502E+00    9.519E+00    9.536E+00    9.554E+00
     9.571E+00    9.588E+00    9.606E+00    9.623E+00    9.641E+00    9.658E+00    9.676E+00    9.694E+00    9.711E+00    9.729E+00
     9.747E+00    9.765E+00    9.783E+00    9.801E+00    9.819E+00    9.837E+00    9.855E+00    9.873E+00    9.891E+00    9.910E+00
     9.928E+00    9.946E+00    9.965E+00    9.983E+00    1.000E+01    1.002E+01    1.004E+01    1.006E+01    1.008E+01    1.009E+01
     1.011E+01    1.013E+01    1.015E+01    1.017E+01    1.019E+01    1.021E+01    1.023E+01    1.025E+01    1.026E+01    1.028E+01
     1.030E+01    1.032E+01    1.034E+01    1.036E+01    1.038E+01    1.040E+01    1.042E+01    1.044E+01    1.046E+01    1.048E+01
     1.050E+01    1.052E+01    1.053E+01    1.055E+01    1.057E+01    1.059E+01    1.061E+01    1.063E+01    1.065E+01    1.067E+01
     1.069E+01    1.071E+01    1.073E+01    1.075E+01    1.077E+01    1.079E+01    1.081E+01    1.083E+01    1.085E+01    1.087E+01
     1.089E+01    1.091E+01    1.093E+01    1.095E+01    1.097E+01    1.099E+01    1.101E+01    1.103E+01    1.105E+01    1.107E+01
     1.109E+01    1.111E+01    1.113E+01    1.115E+01    1.117E+01    1.119E+01    1.121E+01    1.123E+01    1.125E+01    1.127E+01
     1.129E+01    1.131E+01    1.133E+01    1.135E+01    1.136E+01    1.138E+01    1.140E+01    1.142E+01
 Ala      Conc. = 3.14E+02
