 LCModel (Version 6.3-1L) Copyright: S.W. Provencher.          Ref.: Magn. Reson. Med. 30:672-679 (1993).                
 Slice#3 Row#11 Col#10  PD_24_press_2_raw_act
 36 lines in following concentration table = NCONC+1
    Conc.  %SD /Cr+PCr  Metabolite                                         
    0.000 999%   0.000 Ala                                                 
    8.808  41%   0.166 Asp                                                 
   12.701 295%   0.240 Cr                                                  
   40.236  95%   0.760 PCr                                                 
    5.350  40%   0.101 GABA                                                
    5.354  40%   0.101 Glc                                                 
   26.940 189%   0.509 Gln                                                 
   72.459  79%   1.369 Glu                                                 
   24.012  27%   0.454 GPC                                                 
    0.000 999%   0.000 PCh                                                 
    0.000 999%   0.000 GSH                                                 
  159.517  41%   3.013 Ins                                                 
   38.616  75%   0.729 Lac                                                 
   53.325  33%   1.007 NAA                                                 
    0.000 999%   0.000 NAAG                                                
    1.865  39% 3.5E-02 Scyllo                                              
    8.987  40%   0.170 Tau                                                 
    5.506  71%   0.104 -CrCH2                                              
   24.012  27%   0.454 GPC+PCh                                             
   53.325  33%   1.007 NAA+NAAG                                            
   52.937  31%   1.000 Cr+PCr                                              
   99.399  71%   1.878 Glu+Gln                                             
 1.34E+03  10%  25.240 Lip13a                                              
    0.000 999%   0.000 Lip13b                                              
  342.812  12%   6.476 Lip09                                               
    0.000 999%   0.000 MM09                                                
  196.024  13%   3.703 Lip20                                               
    0.000 999%   0.000 MM20                                                
 4.67E-04 999% 8.8E-06 MM12                                                
 1.88E-02 999% 3.5E-04 MM14                                                
    0.000 999%   0.000 MM17                                                
 1.34E+03  10%  25.240 Lip13a+Lip13b                                       
 1.34E+03  10%  25.240 MM14+Lip13a+Lip13b+MM12                             
  342.812  12%   6.476 MM09+Lip09                                          
  196.024  13%   3.703 MM20+Lip20                                          
   6 lines in following misc. output table
  FWHM = 0.038 ppm    S/N =   2                                            
  Data shift =-0.008 ppm                                                   
  Ph: 101 deg     -16.9 deg/ppm                                            
  alphaB,S = 8.5E+01,   2.6E+01                                            
   14 spline knots.   Ns = 5(1)                                            
   2 inflections.     2 extrema                                            
  498 points on ppm-axis = NY
      4.000000     3.992357     3.984714     3.977070     3.969427     3.961784     3.954141     3.946497     3.938854     3.931211
      3.923568     3.915925     3.908281     3.900638     3.892995     3.885352     3.877708     3.870065     3.862422     3.854779
      3.847136     3.839492     3.831849     3.824206     3.816563     3.808919     3.801276     3.793633     3.785990     3.778347
      3.770703     3.763060     3.755417     3.747774     3.740130     3.732487     3.724844     3.717201     3.709558     3.701914
      3.694271     3.686628     3.678985     3.671341     3.663698     3.656055     3.648412     3.640769     3.633125     3.625482
      3.617839     3.610196     3.602552     3.594909     3.587266     3.579623     3.571980     3.564336     3.556693     3.549050
      3.541407     3.533763     3.526120     3.518477     3.510834     3.503191     3.495547     3.487904     3.480261     3.472618
      3.464974     3.457331     3.449688     3.442045     3.434402     3.426758     3.419115     3.411472     3.403829     3.396185
      3.388542     3.380899     3.373256     3.365613     3.357969     3.350326     3.342683     3.335040     3.327396     3.319753
      3.312110     3.304467     3.296824     3.289180     3.281537     3.273894     3.266251     3.258607     3.250964     3.243321
      3.235678     3.228034     3.220391     3.212748     3.205105     3.197462     3.189818     3.182175     3.174532     3.166889
      3.159245     3.151602     3.143959     3.136316     3.128673     3.121029     3.113386     3.105743     3.098100     3.090456
      3.082813     3.075170     3.067527     3.059884     3.052240     3.044597     3.036954     3.029311     3.021667     3.014024
      3.006381     2.998738     2.991095     2.983451     2.975808     2.968165     2.960522     2.952878     2.945235     2.937592
      2.929949     2.922306     2.914662     2.907019     2.899376     2.891733     2.884089     2.876446     2.868803     2.861160
      2.853517     2.845873     2.838230     2.830587     2.822944     2.815300     2.807657     2.800014     2.792371     2.784728
      2.777084     2.769441     2.761798     2.754155     2.746511     2.738868     2.731225     2.723582     2.715939     2.708295
      2.700652     2.693009     2.685366     2.677722     2.670079     2.662436     2.654793     2.647150     2.639506     2.631863
      2.624220     2.616577     2.608933     2.601290     2.593647     2.586004     2.578361     2.570717     2.563074     2.555431
      2.547788     2.540144     2.532501     2.524858     2.517215     2.509572     2.501928     2.494285     2.486642     2.478999
      2.471355     2.463712     2.456069     2.448426     2.440783     2.433139     2.425496     2.417853     2.410210     2.402566
      2.394923     2.387280     2.379637     2.371994     2.364350     2.356707     2.349064     2.341421     2.333777     2.326134
      2.318491     2.310848     2.303205     2.295561     2.287918     2.280275     2.272632     2.264988     2.257345     2.249702
      2.242059     2.234416     2.226772     2.219129     2.211486     2.203843     2.196199     2.188556     2.180913     2.173270
      2.165627     2.157983     2.150340     2.142697     2.135054     2.127410     2.119767     2.112124     2.104481     2.096838
      2.089194     2.081551     2.073908     2.066265     2.058621     2.050978     2.043335     2.035692     2.028049     2.020405
      2.012762     2.005119     1.997476     1.989833     1.982190     1.974546     1.966903     1.959260     1.951617     1.943974
      1.936331     1.928688     1.921045     1.913402     1.905759     1.898115     1.890472     1.882829     1.875186     1.867543
      1.859900     1.852257     1.844614     1.836971     1.829327     1.821684     1.814041     1.806398     1.798755     1.791112
      1.783469     1.775826     1.768183     1.760540     1.752896     1.745253     1.737610     1.729967     1.722324     1.714681
      1.707038     1.699395     1.691752     1.684108     1.676465     1.668822     1.661179     1.653536     1.645893     1.638250
      1.630607     1.622964     1.615321     1.607677     1.600034     1.592391     1.584748     1.577105     1.569462     1.561819
      1.554176     1.546533     1.538890     1.531246     1.523603     1.515960     1.508317     1.500674     1.493031     1.485388
      1.477745     1.470102     1.462458     1.454815     1.447172     1.439529     1.431886     1.424243     1.416600     1.408957
      1.401314     1.393671     1.386027     1.378384     1.370741     1.363098     1.355455     1.347812     1.340169     1.332526
      1.324883     1.317240     1.309596     1.301953     1.294310     1.286667     1.279024     1.271381     1.263738     1.256095
      1.248452     1.240808     1.233165     1.225522     1.217879     1.210236     1.202593     1.194950     1.187307     1.179664
      1.172021     1.164377     1.156734     1.149091     1.141448     1.133805     1.126162     1.118519     1.110876     1.103233
      1.095590     1.087946     1.080303     1.072660     1.065017     1.057374     1.049731     1.042088     1.034445     1.026802
      1.019158     1.011515     1.003872     0.996229     0.988586     0.980943     0.973300     0.965657     0.958014     0.950371
      0.942727     0.935084     0.927441     0.919798     0.912155     0.904512     0.896869     0.889226     0.881583     0.873940
      0.866296     0.858653     0.851010     0.843367     0.835724     0.828081     0.820438     0.812795     0.805152     0.797508
      0.789865     0.782222     0.774579     0.766936     0.759293     0.751650     0.744007     0.736364     0.728721     0.721077
      0.713434     0.705791     0.698148     0.690505     0.682862     0.675219     0.667576     0.659933     0.652290     0.644646
      0.637003     0.629360     0.621717     0.614074     0.606431     0.598788     0.591145     0.583502     0.575858     0.568215
      0.560572     0.552929     0.545286     0.537643     0.530000     0.522357     0.514714     0.507071     0.499427     0.491784
      0.484141     0.476498     0.468855     0.461212     0.453569     0.445925     0.438282     0.430639     0.422996     0.415353
      0.407710     0.400067     0.392424     0.384780     0.377137     0.369494     0.361851     0.354208     0.346565     0.338922
      0.331278     0.323635     0.315992     0.308349     0.300706     0.293063     0.285420     0.277777     0.270133     0.262490
      0.254847     0.247204     0.239561     0.231918     0.224275     0.216631     0.208988     0.201345
 NY phased data points follow
  -1.31541E+00 -2.33025E+00 -1.73905E+00 -1.89347E+00 -9.74961E-01  9.71231E-02 -6.60131E-01  1.99647E+00  1.14518E+00  8.89080E-01
  -7.53899E-01  1.35203E+00 -9.86204E-01  5.80053E-01 -1.61487E+00  1.65697E+00 -8.66628E-01 -1.64508E-01 -2.39812E+00  7.30089E-01
   1.50955E+00 -1.25311E+00  1.50588E+00 -1.79539E-01 -2.30068E+00  9.49979E-01 -2.27031E+00  8.78044E-01 -1.12377E+00 -7.29851E-01
   1.30249E+00  1.46922E+00 -8.79197E-01  7.13320E-01  1.90199E+00 -1.03399E+00 -9.00965E-01  1.99046E+00 -8.15187E-01  1.84427E-01
  -1.29582E+00  9.44206E-01 -1.45182E+00  7.57288E-02  1.09145E+00  9.70400E-01 -2.31948E-02  2.20569E+00  1.99203E+00  1.32829E+00
  -2.45370E-01  4.61431E-01 -1.67530E+00 -1.51659E+00 -6.70246E-01  1.77986E+00  1.20128E+00 -1.30178E+00 -9.44580E-01  5.53198E-01
   1.17984E-01  1.44966E-01  4.77053E-01 -1.82646E+00  1.27205E+00  1.51794E-01 -7.44756E-01 -8.17378E-01 -1.44528E+00 -1.02196E-01
   1.30192E+00  6.00384E-02  1.31353E+00 -2.09714E-01 -1.45134E-01  4.24893E-01 -2.59932E+00  5.32650E-01  4.12809E-01  9.87177E-01
  -2.53735E-01  3.92123E-01  1.79562E+00  1.01399E+00  5.26299E-01  3.05828E-01  7.53780E-01  2.26399E-02 -1.50583E-01  5.52177E-01
  -2.52492E-01 -3.50800E-01  1.60272E+00 -5.61731E-02  4.64603E-01 -9.38166E-01 -5.85543E-01  1.00613E+00 -1.02828E+00 -9.58471E-03
   2.32147E+00  3.06973E+00  3.52763E+00  2.18996E+00  1.89440E+00 -6.33812E-01 -2.71587E+00  1.48860E-01 -1.09887E+00  1.45216E+00
  -9.02026E-01  6.35910E-01  1.80664E+00  8.14987E-01 -2.64191E-01  5.76941E-01  1.19712E+00  9.29041E-01  1.04641E+00 -7.37687E-01
  -4.60504E-02 -3.89720E-01 -1.07582E+00  2.37973E+00  1.89393E+00  8.74794E-01  4.15931E+00  1.69257E+00  5.49892E-01 -7.68242E-01
  -2.70649E+00 -7.70567E-01 -2.89302E+00 -2.32590E+00 -2.76811E+00  5.10275E-01 -1.70123E+00  2.07861E-01  4.70774E-01 -4.85728E-01
   1.38194E-03 -1.74249E+00 -1.29236E+00 -1.06430E+00 -9.08871E-01  2.14834E+00 -1.18440E+00  9.88773E-01  1.05658E+00 -1.13722E+00
   4.12341E-01  1.50021E+00 -5.09395E-01  7.51006E-01 -1.33535E+00  4.43353E-01  6.44389E-01  1.25488E+00 -1.00145E+00  4.74589E-01
   1.42914E+00  6.29199E-01 -9.27434E-01 -6.02390E-01  1.32122E+00  1.93057E+00 -1.54469E+00 -6.28956E-02  1.82137E-01  9.27282E-01
   3.73960E-01 -6.68428E-01 -1.28895E+00 -1.26983E+00 -6.00553E-01  1.07516E-01 -2.24936E+00 -7.55184E-01  5.27896E-01 -2.87012E+00
   6.38010E-01 -2.18650E-01 -1.21272E+00 -7.72767E-02 -1.64721E+00  3.00364E-01 -1.05445E+00  7.29525E-02  1.39732E-02 -6.64940E-01
  -1.84225E+00  8.28821E-01  1.00190E+00 -3.19993E-02 -2.08470E-01 -5.19116E-01 -5.26850E-01  2.34237E+00 -2.21353E+00 -2.10740E+00
   4.96905E-01  1.77168E+00 -1.41636E+00  1.19181E+00 -1.10767E+00  1.06685E+00 -2.30043E+00  8.67180E-01 -1.17996E+00 -5.49033E-01
  -2.35789E-01  8.80174E-01 -6.70334E-01  7.12237E-02 -4.44722E-01  2.54828E+00 -2.54392E+00  3.51559E-01 -1.19102E+00  7.09338E-02
  -7.42729E-01 -2.12446E+00 -1.14463E+00 -1.81679E+00  2.91536E-01 -1.81779E-01 -3.94758E-01 -1.62006E-01 -4.52141E-01 -1.55141E+00
  -1.95922E+00 -1.07737E+00  8.22097E-01 -1.54095E-01  4.48976E-02 -2.25721E-03 -2.41381E+00  9.32158E-03  9.85024E-01  4.78244E-03
   2.24571E-01  6.92474E-01 -3.18594E+00 -3.97927E-01 -3.95538E-02 -3.50247E-01 -1.79703E-01 -1.18950E+00 -1.92178E+00  4.13843E-01
  -2.89706E+00  4.30414E-01 -9.70851E-01  9.46933E-01 -2.55401E-02  2.30177E+00  8.89080E-01  5.51547E-01  3.70390E+00  3.21707E+00
   3.91949E+00  1.39257E+00 -3.84276E-01  6.60655E-02 -2.68576E+00 -1.05014E+00 -1.50670E+00  4.69476E-01 -2.55045E+00 -9.37889E-01
   1.18077E+00  2.08980E+00 -3.06618E+00  8.74273E-01  2.19695E+00  2.00177E+00  7.83432E-01 -1.74240E+00  1.02226E+00  2.66533E-02
   1.09768E-01  4.61257E+00  1.64993E+00  9.00808E-01  3.84762E+00  3.53927E+00  1.57487E+00  2.08565E+00  2.28375E+00  3.63648E-01
   1.02378E+00  2.48265E+00  1.49223E+00  1.54558E+00  1.13967E+00  1.16360E+00  3.00889E+00  1.07388E+00 -1.76876E+00 -2.10383E-01
  -1.33529E+00 -1.33170E+00 -2.18073E+00 -1.55885E+00 -3.33693E+00 -1.38351E+00 -3.17476E+00 -4.64849E+00 -2.34363E+00 -2.42602E+00
  -3.02004E+00 -3.53989E+00 -3.81578E+00 -2.36191E+00 -2.63910E+00 -2.02133E+00 -2.58192E+00 -2.68021E+00 -3.55338E+00 -2.70045E+00
  -1.14113E+00 -4.44556E-02 -5.13627E-01 -4.37097E-01 -4.76766E-01  1.73709E+00  1.17111E+00  9.65695E-01  2.84289E+00  1.48489E+00
   1.86370E+00  3.92574E+00  5.76017E+00  5.96363E+00  7.31378E+00  6.86081E+00  3.67804E+00  6.30628E+00  8.81554E+00  7.30343E+00
   7.46518E+00  7.87166E+00  6.49042E+00  6.50377E+00  4.90215E+00  6.97101E+00  5.87909E+00  6.44473E+00  5.44587E+00  3.93180E+00
   7.03832E+00  5.48322E+00  4.52716E+00  6.27441E+00  3.71314E+00  6.15360E+00  4.26330E+00  4.45338E+00  5.16748E+00  4.13746E+00
   4.07042E+00  5.25770E+00  2.81431E+00  3.45234E+00  3.40154E+00  3.05729E+00  2.42136E+00  4.38358E+00  5.10369E+00  1.09529E+00
   3.89225E+00  4.04136E+00  3.16699E+00  3.00984E+00  1.50280E+00  1.32727E+00  2.75898E+00  9.11762E-01  2.36444E+00  3.11066E+00
  -1.01996E-01  1.23807E+00  1.35391E-01  2.55006E+00  5.12294E-01  2.51262E+00  5.55032E+00  2.76385E+00 -7.67087E-02  2.30137E+00
  -4.65597E-01  6.91013E-01  1.01122E+00 -1.76324E+00  1.16402E+00 -5.28058E-01 -8.16144E-01  9.81436E-02  3.47428E-01 -1.98542E+00
  -1.44731E+00 -9.85684E-01  8.59454E-01  2.99267E+00  1.32344E+00  4.77678E-01  2.41751E+00 -2.13686E-01 -2.56353E+00  4.73221E-01
   5.06646E-01 -3.52877E-01 -8.01729E-02  1.37839E+00  4.41586E-01 -5.14987E-01  8.71909E-01  3.94653E-01  1.15034E+00  3.28863E-01
   1.49147E+00 -2.68306E-01 -1.03859E+00  1.28647E+00 -2.44359E-01  8.44082E-01  2.01659E+00 -1.12735E+00  4.64185E-02  8.10306E-01
  -1.15079E-01  9.00010E-01  8.14900E-01  2.26914E-01  1.20014E+00  5.86835E-01 -6.09643E-01 -8.36095E-01  2.32510E+00 -1.61424E-01
   5.52828E-01 -2.11049E-01 -5.08836E-02  1.54944E+00  1.46189E+00 -1.29704E+00 -4.73561E-01 -6.70258E-01  2.99758E+00  2.48635E+00
   8.48820E-02 -4.36242E-01  5.45636E-03  1.42756E-01  5.21026E-01  2.96504E+00 -1.19364E-01 -2.31433E+00 -2.40272E-01  2.25335E+00
  -1.03063E+00  8.80968E-02 -1.01720E+00  8.99059E-01  2.01978E+00 -2.02299E-01  8.04835E-01  2.56144E+00 -9.25434E-01  1.12976E+00
   1.86600E+00 -1.05411E+00  1.82999E+00  1.14872E+00  1.46228E+00  1.33211E+00 -3.15122E-01  5.63157E-01  2.08634E-01  5.90208E-01
   8.46438E-01 -5.98760E-01  6.13661E-01  2.82800E+00  5.04462E-01 -1.40253E-01  2.02925E-01 -7.55904E-01 -9.06215E-01  2.37737E+00
   1.92147E+00  1.03144E+00 -9.92419E-02  1.50048E+00  2.17173E+00  1.49807E-01  1.02739E+00  1.12092E+00
 NY points of the fit to the data follow
  -4.64180E-01 -4.39514E-01 -3.69233E-01 -2.58485E-01 -3.11224E-02  3.06346E-01  6.83064E-01  1.00523E+00  1.15300E+00  1.05549E+00
   7.42673E-01  3.28803E-01 -4.71012E-02 -2.88436E-01 -3.78524E-01 -3.76904E-01 -3.67856E-01 -3.63788E-01 -3.66423E-01 -3.68185E-01
  -3.47961E-01 -3.07643E-01 -2.74517E-01 -2.88127E-01 -3.58747E-01 -4.66658E-01 -5.69613E-01 -5.99412E-01 -5.09606E-01 -3.09025E-01
  -6.16979E-02  1.37559E-01  2.14523E-01  1.58149E-01  1.81823E-02 -1.39949E-01 -2.74481E-01 -3.61314E-01 -3.98889E-01 -4.14816E-01
  -4.19877E-01 -3.84292E-01 -2.36469E-01  1.08313E-01  6.20718E-01  1.14139E+00  1.47148E+00  1.46687E+00  1.08722E+00  4.38113E-01
  -2.52515E-01 -7.43144E-01 -9.09650E-01 -8.05441E-01 -5.75900E-01 -3.34416E-01 -1.13209E-01  1.01971E-01  2.86976E-01  3.79687E-01
   3.33278E-01  1.46849E-01 -1.21038E-01 -3.71686E-01 -5.14960E-01 -5.08455E-01 -3.91362E-01 -2.22547E-01 -5.20826E-02  7.33571E-02
   1.43831E-01  1.65421E-01  1.40718E-01  7.69366E-02 -1.12896E-02 -1.05589E-01 -1.85571E-01 -2.35753E-01 -2.52651E-01 -2.52906E-01
  -2.42094E-01 -2.13812E-01 -1.99639E-01 -2.44298E-01 -3.69495E-01 -5.57445E-01 -7.57343E-01 -9.00126E-01 -9.30239E-01 -8.32070E-01
  -6.39891E-01 -4.22462E-01 -2.43096E-01 -1.51398E-01 -1.43266E-01 -1.91547E-01 -2.51176E-01 -1.82516E-01  3.10986E-01  1.17549E+00
   2.12090E+00  2.81703E+00  2.95766E+00  2.42223E+00  1.39677E+00  2.90204E-01 -5.12183E-01 -8.29537E-01 -7.49613E-01 -5.39240E-01
  -4.43458E-01 -4.23684E-01 -4.14930E-01 -4.12283E-01 -4.14952E-01 -4.22934E-01 -4.32120E-01 -4.37494E-01 -4.35510E-01 -4.20635E-01
  -3.76482E-01 -2.14737E-01  2.58986E-01  9.81752E-01  1.72454E+00  2.24020E+00  2.31519E+00  1.87632E+00  1.07571E+00  2.19212E-01
  -4.03730E-01 -6.57317E-01 -6.06925E-01 -4.53387E-01 -3.78249E-01 -3.54489E-01 -3.35273E-01 -3.18053E-01 -3.05196E-01 -2.95932E-01
  -2.87640E-01 -2.76014E-01 -2.59386E-01 -2.40330E-01 -2.21784E-01 -2.07543E-01 -2.00361E-01 -1.98537E-01 -1.97348E-01 -1.92198E-01
  -1.82233E-01 -1.69887E-01 -1.58102E-01 -1.49011E-01 -1.42969E-01 -1.42291E-01 -1.53548E-01 -1.76120E-01 -2.02236E-01 -2.20955E-01
  -2.19436E-01 -1.97823E-01 -1.66074E-01 -1.38850E-01 -1.30010E-01 -1.44704E-01 -1.76116E-01 -2.10326E-01 -2.35752E-01 -2.51626E-01
  -2.63767E-01 -2.81856E-01 -3.09015E-01 -3.31970E-01 -3.42483E-01 -3.39362E-01 -3.30213E-01 -3.23411E-01 -3.24045E-01 -3.32328E-01
  -3.41612E-01 -3.46130E-01 -3.46840E-01 -3.42114E-01 -3.32575E-01 -3.22550E-01 -3.08054E-01 -2.85726E-01 -2.60582E-01 -2.45904E-01
  -2.49279E-01 -2.67854E-01 -2.88679E-01 -3.00551E-01 -3.00582E-01 -2.95451E-01 -2.86961E-01 -2.67898E-01 -2.29841E-01 -1.67989E-01
  -8.73044E-02 -6.51485E-03  3.96054E-02  2.70575E-02 -5.54532E-02 -2.16260E-01 -4.17836E-01 -5.94490E-01 -6.95459E-01 -6.77256E-01
  -5.17568E-01 -2.19924E-01  1.28360E-01  4.12869E-01  5.49057E-01  4.93686E-01  2.59429E-01 -9.46234E-02 -4.78770E-01 -7.68892E-01
  -8.65765E-01 -7.58006E-01 -4.93124E-01 -1.63551E-01  1.44467E-01  3.52565E-01  4.17303E-01  3.59349E-01  2.48367E-01  1.56316E-01
   1.08950E-01  8.68837E-02  7.97870E-02  9.05886E-02  1.15843E-01  1.51418E-01  1.96787E-01  2.43588E-01  2.62179E-01  2.44359E-01
   1.99301E-01  1.46139E-01  1.10094E-01  1.15208E-01  1.53229E-01  1.95569E-01  2.20848E-01  2.26174E-01  2.25208E-01  2.40022E-01
   2.89477E-01  3.61797E-01  4.37157E-01  4.95786E-01  5.61582E-01  8.15974E-01  1.38674E+00  2.11825E+00  2.77964E+00  3.12346E+00
   2.96434E+00  2.31762E+00  1.42836E+00  6.22288E-01  1.33710E-01  5.96662E-03  9.36028E-02  1.70266E-01  1.60280E-01  1.39871E-01
   1.31009E-01  1.34313E-01  1.48182E-01  1.63732E-01  1.68052E-01  1.55731E-01  1.28224E-01  9.28954E-02  5.83017E-02  3.08566E-02
   1.24576E-02  2.62897E-03  6.89810E-05  1.74969E-03  4.54418E-03  6.69491E-03  7.28195E-03  6.51834E-03  5.46489E-03  4.46266E-03
   4.02324E-03  4.61019E-03  6.21630E-03  8.75340E-03  1.24479E-02  1.74814E-02  2.36295E-02  3.05801E-02  3.83339E-02  4.69116E-02
   5.62675E-02  6.65354E-02  7.77388E-02  8.98563E-02  1.02913E-01  1.17005E-01  1.32296E-01  1.48989E-01  1.67286E-01  1.87356E-01
   2.09335E-01  2.33421E-01  2.59882E-01  2.89032E-01  3.21240E-01  3.56929E-01  3.96572E-01  4.40722E-01  4.90024E-01  5.45229E-01
   6.07191E-01  6.76871E-01  7.55333E-01  8.43754E-01  9.43421E-01  1.05570E+00  1.18202E+00  1.32381E+00  1.48246E+00  1.65928E+00
   1.85543E+00  2.07179E+00  2.30889E+00  2.56682E+00  2.84516E+00  3.14296E+00  3.45873E+00  3.79052E+00  4.13625E+00  4.49444E+00
   4.86641E+00  5.26365E+00  5.71183E+00  6.15365E+00  6.47624E+00  6.61132E+00  6.53667E+00  6.28959E+00  5.96522E+00  5.68298E+00
   5.58973E+00  5.73280E+00  6.02661E+00  6.32892E+00  6.49923E+00  6.46860E+00  6.22657E+00  5.80702E+00  5.30160E+00  4.81414E+00
   4.40907E+00  4.08465E+00  3.78280E+00  3.48246E+00  3.19394E+00  2.92243E+00  2.67040E+00  2.43911E+00  2.22905E+00  2.04011E+00
   1.87173E+00  1.72305E+00  1.59294E+00  1.48016E+00  1.38337E+00  1.30120E+00  1.23233E+00  1.17551E+00  1.12956E+00  1.09341E+00
   1.06608E+00  1.04670E+00  1.03448E+00  1.02873E+00  1.02880E+00  1.03414E+00  1.04419E+00  1.05846E+00  1.07646E+00  1.09770E+00
   1.12172E+00  1.14800E+00  1.17605E+00  1.20534E+00  1.23533E+00  1.26546E+00  1.29517E+00  1.32387E+00  1.35100E+00  1.37599E+00
   1.39830E+00  1.41745E+00  1.43296E+00  1.44445E+00  1.45157E+00  1.45409E+00  1.45182E+00  1.44468E+00  1.43268E+00  1.41591E+00
   1.39454E+00  1.36882E+00  1.33907E+00  1.30567E+00  1.26903E+00  1.22961E+00  1.18787E+00  1.14430E+00  1.09937E+00  1.05353E+00
   1.00723E+00  9.60853E-01  9.14781E-01  8.69331E-01  8.24786E-01  7.81379E-01  7.39308E-01  6.98722E-01  6.59739E-01  6.22435E-01
   5.86861E-01  5.53037E-01  5.20961E-01  4.90609E-01  4.61946E-01  4.34920E-01  4.09471E-01  3.85535E-01  3.63040E-01  3.41914E-01
   3.22084E-01  3.03474E-01  2.86013E-01  2.69630E-01  2.54259E-01  2.39834E-01  2.26293E-01  2.13578E-01  2.01636E-01  1.90414E-01
   1.79867E-01  1.69947E-01  1.60616E-01  1.51833E-01  1.43564E-01  1.35774E-01  1.28433E-01  1.21511E-01  1.14982E-01  1.08821E-01
   1.03006E-01  9.75164E-02  9.23316E-02  8.74330E-02  8.28044E-02  7.84294E-02  7.42937E-02  7.03826E-02  6.66838E-02  6.31852E-02
   5.98772E-02  5.67490E-02  5.37915E-02  5.09944E-02  4.83499E-02  4.58496E-02  4.34872E-02  4.12548E-02  3.91463E-02  3.71545E-02
   3.52751E-02  3.35024E-02  3.18324E-02  3.02592E-02  2.87787E-02  2.73860E-02  2.60784E-02  2.48518E-02  2.37033E-02  2.26285E-02
   2.16248E-02  2.06890E-02  1.98200E-02  1.90146E-02  1.82708E-02  1.75852E-02  1.69571E-02  1.63847E-02
 NY background values follow
    -6.322E-01   -6.311E-01   -6.300E-01   -6.289E-01   -6.277E-01   -6.266E-01   -6.255E-01   -6.244E-01   -6.233E-01   -6.221E-01
    -6.210E-01   -6.199E-01   -6.188E-01   -6.177E-01   -6.165E-01   -6.154E-01   -6.143E-01   -6.132E-01   -6.121E-01   -6.109E-01
    -6.098E-01   -6.087E-01   -6.076E-01   -6.065E-01   -6.053E-01   -6.042E-01   -6.031E-01   -6.020E-01   -6.009E-01   -5.997E-01
    -5.986E-01   -5.975E-01   -5.964E-01   -5.953E-01   -5.941E-01   -5.930E-01   -5.919E-01   -5.908E-01   -5.897E-01   -5.885E-01
    -5.874E-01   -5.863E-01   -5.852E-01   -5.841E-01   -5.829E-01   -5.818E-01   -5.807E-01   -5.796E-01   -5.785E-01   -5.774E-01
    -5.762E-01   -5.751E-01   -5.740E-01   -5.729E-01   -5.718E-01   -5.706E-01   -5.695E-01   -5.684E-01   -5.673E-01   -5.662E-01
    -5.650E-01   -5.639E-01   -5.628E-01   -5.617E-01   -5.606E-01   -5.594E-01   -5.583E-01   -5.572E-01   -5.561E-01   -5.550E-01
    -5.538E-01   -5.527E-01   -5.516E-01   -5.505E-01   -5.494E-01   -5.482E-01   -5.471E-01   -5.460E-01   -5.449E-01   -5.438E-01
    -5.426E-01   -5.415E-01   -5.404E-01   -5.393E-01   -5.382E-01   -5.370E-01   -5.359E-01   -5.348E-01   -5.337E-01   -5.326E-01
    -5.314E-01   -5.303E-01   -5.292E-01   -5.281E-01   -5.270E-01   -5.258E-01   -5.247E-01   -5.236E-01   -5.225E-01   -5.214E-01
    -5.203E-01   -5.191E-01   -5.180E-01   -5.169E-01   -5.158E-01   -5.147E-01   -5.135E-01   -5.124E-01   -5.113E-01   -5.102E-01
    -5.091E-01   -5.079E-01   -5.068E-01   -5.057E-01   -5.046E-01   -5.035E-01   -5.023E-01   -5.012E-01   -5.001E-01   -4.990E-01
    -4.979E-01   -4.967E-01   -4.956E-01   -4.945E-01   -4.934E-01   -4.923E-01   -4.911E-01   -4.900E-01   -4.889E-01   -4.878E-01
    -4.867E-01   -4.855E-01   -4.844E-01   -4.833E-01   -4.822E-01   -4.811E-01   -4.799E-01   -4.788E-01   -4.777E-01   -4.766E-01
    -4.755E-01   -4.743E-01   -4.732E-01   -4.721E-01   -4.710E-01   -4.699E-01   -4.687E-01   -4.676E-01   -4.665E-01   -4.654E-01
    -4.643E-01   -4.631E-01   -4.620E-01   -4.609E-01   -4.598E-01   -4.587E-01   -4.576E-01   -4.564E-01   -4.553E-01   -4.542E-01
    -4.531E-01   -4.520E-01   -4.508E-01   -4.497E-01   -4.486E-01   -4.475E-01   -4.464E-01   -4.452E-01   -4.441E-01   -4.430E-01
    -4.419E-01   -4.408E-01   -4.396E-01   -4.385E-01   -4.374E-01   -4.363E-01   -4.352E-01   -4.340E-01   -4.329E-01   -4.318E-01
    -4.307E-01   -4.296E-01   -4.284E-01   -4.273E-01   -4.262E-01   -4.251E-01   -4.240E-01   -4.228E-01   -4.217E-01   -4.206E-01
    -4.195E-01   -4.184E-01   -4.172E-01   -4.161E-01   -4.150E-01   -4.139E-01   -4.128E-01   -4.116E-01   -4.105E-01   -4.094E-01
    -4.083E-01   -4.072E-01   -4.060E-01   -4.049E-01   -4.038E-01   -4.027E-01   -4.016E-01   -4.004E-01   -3.993E-01   -3.982E-01
    -3.971E-01   -3.960E-01   -3.948E-01   -3.937E-01   -3.926E-01   -3.915E-01   -3.904E-01   -3.892E-01   -3.881E-01   -3.870E-01
    -3.859E-01   -3.848E-01   -3.836E-01   -3.825E-01   -3.814E-01   -3.803E-01   -3.792E-01   -3.780E-01   -3.769E-01   -3.758E-01
    -3.747E-01   -3.736E-01   -3.724E-01   -3.713E-01   -3.702E-01   -3.691E-01   -3.680E-01   -3.668E-01   -3.657E-01   -3.646E-01
    -3.635E-01   -3.624E-01   -3.612E-01   -3.601E-01   -3.590E-01   -3.579E-01   -3.568E-01   -3.556E-01   -3.545E-01   -3.534E-01
    -3.523E-01   -3.512E-01   -3.500E-01   -3.489E-01   -3.478E-01   -3.467E-01   -3.456E-01   -3.444E-01   -3.433E-01   -3.422E-01
    -3.411E-01   -3.400E-01   -3.388E-01   -3.377E-01   -3.366E-01   -3.355E-01   -3.344E-01   -3.332E-01   -3.321E-01   -3.310E-01
    -3.299E-01   -3.288E-01   -3.276E-01   -3.265E-01   -3.254E-01   -3.243E-01   -3.232E-01   -3.220E-01   -3.209E-01   -3.198E-01
    -3.187E-01   -3.176E-01   -3.164E-01   -3.153E-01   -3.142E-01   -3.131E-01   -3.120E-01   -3.108E-01   -3.097E-01   -3.086E-01
    -3.075E-01   -3.064E-01   -3.052E-01   -3.041E-01   -3.030E-01   -3.019E-01   -3.008E-01   -2.996E-01   -2.985E-01   -2.974E-01
    -2.963E-01   -2.952E-01   -2.940E-01   -2.929E-01   -2.918E-01   -2.907E-01   -2.896E-01   -2.884E-01   -2.873E-01   -2.862E-01
    -2.851E-01   -2.839E-01   -2.828E-01   -2.817E-01   -2.806E-01   -2.795E-01   -2.783E-01   -2.772E-01   -2.761E-01   -2.750E-01
    -2.739E-01   -2.727E-01   -2.716E-01   -2.705E-01   -2.694E-01   -2.683E-01   -2.671E-01   -2.660E-01   -2.649E-01   -2.638E-01
    -2.627E-01   -2.615E-01   -2.604E-01   -2.593E-01   -2.582E-01   -2.571E-01   -2.559E-01   -2.548E-01   -2.537E-01   -2.526E-01
    -2.515E-01   -2.503E-01   -2.492E-01   -2.481E-01   -2.470E-01   -2.459E-01   -2.447E-01   -2.436E-01   -2.425E-01   -2.414E-01
    -2.402E-01   -2.391E-01   -2.380E-01   -2.369E-01   -2.358E-01   -2.346E-01   -2.335E-01   -2.324E-01   -2.313E-01   -2.302E-01
    -2.290E-01   -2.279E-01   -2.268E-01   -2.257E-01   -2.246E-01   -2.234E-01   -2.223E-01   -2.212E-01   -2.201E-01   -2.190E-01
    -2.178E-01   -2.167E-01   -2.156E-01   -2.145E-01   -2.134E-01   -2.122E-01   -2.111E-01   -2.100E-01   -2.089E-01   -2.077E-01
    -2.066E-01   -2.055E-01   -2.044E-01   -2.033E-01   -2.021E-01   -2.010E-01   -1.999E-01   -1.988E-01   -1.977E-01   -1.965E-01
    -1.954E-01   -1.943E-01   -1.932E-01   -1.921E-01   -1.909E-01   -1.898E-01   -1.887E-01   -1.876E-01   -1.865E-01   -1.853E-01
    -1.842E-01   -1.831E-01   -1.820E-01   -1.808E-01   -1.797E-01   -1.786E-01   -1.775E-01   -1.764E-01   -1.752E-01   -1.741E-01
    -1.730E-01   -1.719E-01   -1.708E-01   -1.696E-01   -1.685E-01   -1.674E-01   -1.663E-01   -1.652E-01   -1.640E-01   -1.629E-01
    -1.618E-01   -1.607E-01   -1.596E-01   -1.584E-01   -1.573E-01   -1.562E-01   -1.551E-01   -1.539E-01   -1.528E-01   -1.517E-01
    -1.506E-01   -1.495E-01   -1.483E-01   -1.472E-01   -1.461E-01   -1.450E-01   -1.439E-01   -1.427E-01   -1.416E-01   -1.405E-01
    -1.394E-01   -1.383E-01   -1.371E-01   -1.360E-01   -1.349E-01   -1.338E-01   -1.326E-01   -1.315E-01   -1.304E-01   -1.293E-01
    -1.282E-01   -1.270E-01   -1.259E-01   -1.248E-01   -1.237E-01   -1.226E-01   -1.214E-01   -1.203E-01   -1.192E-01   -1.181E-01
    -1.170E-01   -1.158E-01   -1.147E-01   -1.136E-01   -1.125E-01   -1.114E-01   -1.102E-01   -1.091E-01   -1.080E-01   -1.069E-01
    -1.057E-01   -1.046E-01   -1.035E-01   -1.024E-01   -1.013E-01   -1.001E-01   -9.902E-02   -9.790E-02   -9.678E-02   -9.566E-02
    -9.454E-02   -9.341E-02   -9.229E-02   -9.117E-02   -9.005E-02   -8.893E-02   -8.781E-02   -8.669E-02   -8.557E-02   -8.445E-02
    -8.333E-02   -8.220E-02   -8.108E-02   -7.996E-02   -7.884E-02   -7.772E-02   -7.660E-02   -7.548E-02
 Asp      Conc. = 8.81E+00
