 LCModel (Version 6.3-1L) Copyright: S.W. Provencher.          Ref.: Magn. Reson. Med. 30:672-679 (1993).                
 Slice#1 Row#10 Col#11  PD_24_press_2_raw_act
 36 lines in following concentration table = NCONC+1
    Conc.  %SD /Cr+PCr  Metabolite                                         
    0.000 999%   0.000 Ala                                                 
 3.02E+03  24%   0.000+Asp                                                 
    0.000 999%   0.000 Cr                                                  
    0.000 999%   0.000 PCr                                                 
  476.351 105%   0.000 GABA                                                
 1.83E+03  26%   0.000+Glc                                                 
 4.05E+03  55%   0.000 Gln                                                 
    0.000 999%   0.000 Glu                                                 
    0.000 999%   0.000 GPC                                                 
  811.782  12%   0.000 PCh                                                 
    0.000 999%   0.000 GSH                                                 
 9.73E+03  10%   0.000 Ins                                                 
 1.68E+03 133%   0.000 Lac                                                 
 1.26E+04  10%   0.000 NAA                                                 
 6.99E+03  18%   0.000 NAAG                                                
 1.02E+03   9%   0.000+Scyllo                                              
 4.98E+03  14%   0.000+Tau                                                 
    9.287 609%   0.000 -CrCH2                                              
  811.782  12%   0.000 GPC+PCh                                             
 1.96E+04   4%   0.000 NAA+NAAG                                            
    0.000 999%   0.000 Cr+PCr                                              
 4.05E+03  55%   0.000 Glu+Gln                                             
 9.39E+03  32%   0.000 Lip13a                                              
    0.000 999%   0.000 Lip13b                                              
    0.000 999%   0.000 Lip09                                               
 3.90E+04   7%   0.000 MM09                                                
 2.50E+03  34%   0.000 Lip20                                               
 5.84E+04   7%   0.000 MM20                                                
 1.17E+04   7%   0.000 MM12                                                
 2.92E+04   7%   0.000 MM14                                                
 1.46E+04   7%   0.000 MM17                                                
 9.39E+03  32%   0.000 Lip13a+Lip13b                                       
 5.03E+04   7%   0.000 MM14+Lip13a+Lip13b+MM12                             
 3.90E+04   7%   0.000 MM09+Lip09                                          
 6.09E+04   7%   0.000 MM20+Lip20                                          
   6 lines in following misc. output table
  FWHM = 0.199 ppm    S/N =  35                                            
  Data shift = 0.260 ppm                                                   
  Ph:-149 deg     236.9 deg/ppm                                            
  alphaB,S = 7.4E-01,   4.6E+02                                            
    8 spline knots.   Ns = 9(2)                                            
  (17) 6 infls.   ( 3) 1 extrs.                                            
  498 points on ppm-axis = NY
      4.000000     3.992357     3.984714     3.977070     3.969427     3.961784     3.954141     3.946497     3.938854     3.931211
      3.923568     3.915925     3.908281     3.900638     3.892995     3.885352     3.877708     3.870065     3.862422     3.854779
      3.847136     3.839492     3.831849     3.824206     3.816563     3.808919     3.801276     3.793633     3.785990     3.778347
      3.770703     3.763060     3.755417     3.747774     3.740130     3.732487     3.724844     3.717201     3.709558     3.701914
      3.694271     3.686628     3.678985     3.671341     3.663698     3.656055     3.648412     3.640769     3.633125     3.625482
      3.617839     3.610196     3.602552     3.594909     3.587266     3.579623     3.571980     3.564336     3.556693     3.549050
      3.541407     3.533763     3.526120     3.518477     3.510834     3.503191     3.495547     3.487904     3.480261     3.472618
      3.464974     3.457331     3.449688     3.442045     3.434402     3.426758     3.419115     3.411472     3.403829     3.396185
      3.388542     3.380899     3.373256     3.365613     3.357969     3.350326     3.342683     3.335040     3.327396     3.319753
      3.312110     3.304467     3.296824     3.289180     3.281537     3.273894     3.266251     3.258607     3.250964     3.243321
      3.235678     3.228034     3.220391     3.212748     3.205105     3.197462     3.189818     3.182175     3.174532     3.166889
      3.159245     3.151602     3.143959     3.136316     3.128673     3.121029     3.113386     3.105743     3.098100     3.090456
      3.082813     3.075170     3.067527     3.059884     3.052240     3.044597     3.036954     3.029311     3.021667     3.014024
      3.006381     2.998738     2.991095     2.983451     2.975808     2.968165     2.960522     2.952878     2.945235     2.937592
      2.929949     2.922306     2.914662     2.907019     2.899376     2.891733     2.884089     2.876446     2.868803     2.861160
      2.853517     2.845873     2.838230     2.830587     2.822944     2.815300     2.807657     2.800014     2.792371     2.784728
      2.777084     2.769441     2.761798     2.754155     2.746511     2.738868     2.731225     2.723582     2.715939     2.708295
      2.700652     2.693009     2.685366     2.677722     2.670079     2.662436     2.654793     2.647150     2.639506     2.631863
      2.624220     2.616577     2.608933     2.601290     2.593647     2.586004     2.578361     2.570717     2.563074     2.555431
      2.547788     2.540144     2.532501     2.524858     2.517215     2.509572     2.501928     2.494285     2.486642     2.478999
      2.471355     2.463712     2.456069     2.448426     2.440783     2.433139     2.425496     2.417853     2.410210     2.402566
      2.394923     2.387280     2.379637     2.371994     2.364350     2.356707     2.349064     2.341421     2.333777     2.326134
      2.318491     2.310848     2.303205     2.295561     2.287918     2.280275     2.272632     2.264988     2.257345     2.249702
      2.242059     2.234416     2.226772     2.219129     2.211486     2.203843     2.196199     2.188556     2.180913     2.173270
      2.165627     2.157983     2.150340     2.142697     2.135054     2.127410     2.119767     2.112124     2.104481     2.096838
      2.089194     2.081551     2.073908     2.066265     2.058621     2.050978     2.043335     2.035692     2.028049     2.020405
      2.012762     2.005119     1.997476     1.989833     1.982190     1.974546     1.966903     1.959260     1.951617     1.943974
      1.936331     1.928688     1.921045     1.913402     1.905759     1.898115     1.890472     1.882829     1.875186     1.867543
      1.859900     1.852257     1.844614     1.836971     1.829327     1.821684     1.814041     1.806398     1.798755     1.791112
      1.783469     1.775826     1.768183     1.760540     1.752896     1.745253     1.737610     1.729967     1.722324     1.714681
      1.707038     1.699395     1.691752     1.684108     1.676465     1.668822     1.661179     1.653536     1.645893     1.638250
      1.630607     1.622964     1.615321     1.607677     1.600034     1.592391     1.584748     1.577105     1.569462     1.561819
      1.554176     1.546533     1.538890     1.531246     1.523603     1.515960     1.508317     1.500674     1.493031     1.485388
      1.477745     1.470102     1.462458     1.454815     1.447172     1.439529     1.431886     1.424243     1.416600     1.408957
      1.401314     1.393671     1.386027     1.378384     1.370741     1.363098     1.355455     1.347812     1.340169     1.332526
      1.324883     1.317240     1.309596     1.301953     1.294310     1.286667     1.279024     1.271381     1.263738     1.256095
      1.248452     1.240808     1.233165     1.225522     1.217879     1.210236     1.202593     1.194950     1.187307     1.179664
      1.172021     1.164377     1.156734     1.149091     1.141448     1.133805     1.126162     1.118519     1.110876     1.103233
      1.095590     1.087946     1.080303     1.072660     1.065017     1.057374     1.049731     1.042088     1.034445     1.026802
      1.019158     1.011515     1.003872     0.996229     0.988586     0.980943     0.973300     0.965657     0.958014     0.950371
      0.942727     0.935084     0.927441     0.919798     0.912155     0.904512     0.896869     0.889226     0.881583     0.873940
      0.866296     0.858653     0.851010     0.843367     0.835724     0.828081     0.820438     0.812795     0.805152     0.797508
      0.789865     0.782222     0.774579     0.766936     0.759293     0.751650     0.744007     0.736364     0.728721     0.721077
      0.713434     0.705791     0.698148     0.690505     0.682862     0.675219     0.667576     0.659933     0.652290     0.644646
      0.637003     0.629360     0.621717     0.614074     0.606431     0.598788     0.591145     0.583502     0.575858     0.568215
      0.560572     0.552929     0.545286     0.537643     0.530000     0.522357     0.514714     0.507071     0.499427     0.491784
      0.484141     0.476498     0.468855     0.461212     0.453569     0.445925     0.438282     0.430639     0.422996     0.415353
      0.407710     0.400067     0.392424     0.384780     0.377137     0.369494     0.361851     0.354208     0.346565     0.338922
      0.331278     0.323635     0.315992     0.308349     0.300706     0.293063     0.285420     0.277777     0.270133     0.262490
      0.254847     0.247204     0.239561     0.231918     0.224275     0.216631     0.208988     0.201345
 NY phased data points follow
  -1.29652E+01 -1.02574E+01 -9.32622E+00 -7.77890E+00 -7.67721E+00 -8.32230E+00 -8.57614E+00 -5.85061E+00 -6.67576E+00 -7.05144E+00
  -6.86293E+00 -6.40247E+00 -3.22167E+00 -2.84023E+00 -3.32588E+00 -3.29457E+00  3.86602E-01 -2.27065E+00 -1.06822E+00 -2.17831E+00
  -3.18434E+00 -1.42883E+00  1.13553E+00 -1.09417E+00  7.99216E-01  2.03672E+00  1.67351E+00  1.07721E+00  3.79930E+00  4.69922E+00
   5.50562E+00  5.66879E+00  7.30816E+00  8.10114E+00  8.16871E+00  1.00291E+01  7.24155E+00  9.23237E+00  9.49585E+00  1.09773E+01
   9.81502E+00  1.32334E+01  1.12574E+01  1.29843E+01  1.41833E+01  1.43219E+01  1.33066E+01  1.51480E+01  1.43528E+01  1.51219E+01
   1.72530E+01  2.04227E+01  1.67797E+01  1.91483E+01  1.60064E+01  2.23770E+01  2.28977E+01  2.17461E+01  2.18836E+01  2.42585E+01
   2.13608E+01  2.23121E+01  2.33765E+01  2.37841E+01  2.30752E+01  2.13841E+01  2.32070E+01  2.09898E+01  2.64827E+01  2.73415E+01
   2.73755E+01  2.60590E+01  2.57610E+01  2.55561E+01  2.33020E+01  2.61433E+01  2.43619E+01  2.58493E+01  2.60375E+01  2.53959E+01
   2.46569E+01  2.52039E+01  2.29211E+01  2.32033E+01  2.55893E+01  2.01780E+01  2.22397E+01  2.14562E+01  2.05516E+01  2.19254E+01
   1.98864E+01  2.14449E+01  2.13689E+01  2.09497E+01  2.24952E+01  2.25511E+01  2.17847E+01  1.88465E+01  1.63508E+01  1.61723E+01
   1.80773E+01  1.82112E+01  1.48530E+01  1.30976E+01  1.48170E+01  1.69349E+01  1.31136E+01  1.40092E+01  1.20542E+01  1.21886E+01
   1.14843E+01  1.11483E+01  1.20132E+01  9.51875E+00  6.80544E+00  7.92203E+00  6.64644E+00  5.69174E+00  6.46118E+00  3.95271E+00
   1.83365E+00  2.17169E+00  6.75510E-01  4.83639E-01 -3.44232E-01 -3.67094E+00 -2.13206E+00 -4.80731E+00 -4.72627E+00 -8.31047E+00
  -1.00572E+01 -6.00802E+00 -9.94384E+00 -1.20487E+01 -1.23760E+01 -1.49112E+01 -1.52090E+01 -1.73433E+01 -1.62884E+01 -1.87476E+01
  -2.03285E+01 -2.36391E+01 -2.42804E+01 -2.71840E+01 -2.54090E+01 -2.89344E+01 -3.03371E+01 -3.22454E+01 -3.02833E+01 -3.61796E+01
  -3.54552E+01 -3.65456E+01 -3.76062E+01 -3.82541E+01 -3.80631E+01 -3.96776E+01 -4.28556E+01 -4.52989E+01 -4.44049E+01 -4.65429E+01
  -4.53937E+01 -4.64027E+01 -4.55052E+01 -4.84136E+01 -4.97609E+01 -4.89367E+01 -4.70565E+01 -4.78334E+01 -4.90484E+01 -5.06021E+01
  -4.88656E+01 -4.79994E+01 -4.84092E+01 -4.59471E+01 -4.70153E+01 -4.58258E+01 -4.61043E+01 -4.45222E+01 -4.56813E+01 -4.49763E+01
  -4.43479E+01 -4.43161E+01 -4.48994E+01 -4.34551E+01 -4.37151E+01 -4.18295E+01 -3.88677E+01 -3.84658E+01 -3.89072E+01 -3.94718E+01
  -3.81957E+01 -3.93039E+01 -3.83074E+01 -3.68069E+01 -3.56286E+01 -3.44996E+01 -3.38203E+01 -3.53757E+01 -3.24935E+01 -3.18419E+01
  -2.91421E+01 -2.84414E+01 -2.74510E+01 -2.66018E+01 -2.51345E+01 -2.53231E+01 -2.44333E+01 -2.09701E+01 -1.92747E+01 -1.89177E+01
  -1.76452E+01 -1.31148E+01 -1.32155E+01 -9.59858E+00 -8.83600E+00 -2.42939E+00 -3.04182E+00 -2.22640E+00 -3.28043E-01  1.64014E+00
   4.38311E+00  8.58549E+00  7.81280E+00  1.03156E+01  1.53484E+01  1.81108E+01  2.00728E+01  2.59622E+01  3.02801E+01  3.61236E+01
   4.08676E+01  4.44978E+01  4.55960E+01  5.18281E+01  5.83601E+01  6.81462E+01  7.25356E+01  8.22190E+01  8.94808E+01  9.83294E+01
   1.07632E+02  1.17350E+02  1.31361E+02  1.41307E+02  1.52573E+02  1.65527E+02  1.83261E+02  1.95596E+02  2.07570E+02  2.14629E+02
   2.24338E+02  2.27709E+02  2.33540E+02  2.30449E+02  2.23877E+02  2.19979E+02  2.11618E+02  2.02833E+02  1.89238E+02  1.76985E+02
   1.64818E+02  1.50840E+02  1.39071E+02  1.23081E+02  1.07612E+02  9.63523E+01  8.21386E+01  6.81743E+01  5.21927E+01  3.99914E+01
   2.21184E+01  5.43398E+00 -7.63327E+00 -2.36878E+01 -3.59622E+01 -5.13652E+01 -6.19178E+01 -7.41520E+01 -8.86562E+01 -9.28232E+01
  -1.03132E+02 -1.16899E+02 -1.22414E+02 -1.28907E+02 -1.34967E+02 -1.37170E+02 -1.41688E+02 -1.44617E+02 -1.48130E+02 -1.53309E+02
  -1.51688E+02 -1.53168E+02 -1.55319E+02 -1.53181E+02 -1.51939E+02 -1.50914E+02 -1.48549E+02 -1.43574E+02 -1.41863E+02 -1.35646E+02
  -1.29794E+02 -1.25447E+02 -1.18030E+02 -1.11236E+02 -1.09405E+02 -1.02322E+02 -9.56557E+01 -8.92961E+01 -8.50234E+01 -8.13141E+01
  -7.37812E+01 -6.96448E+01 -6.57094E+01 -6.25535E+01 -5.88476E+01 -5.55628E+01 -4.93846E+01 -4.46698E+01 -4.26240E+01 -4.06100E+01
  -3.81728E+01 -3.52469E+01 -3.29187E+01 -3.15073E+01 -2.68585E+01 -2.68993E+01 -2.63441E+01 -2.22363E+01 -1.97967E+01 -1.85738E+01
  -1.60503E+01 -1.55028E+01 -1.49810E+01 -1.39670E+01 -8.93712E+00 -6.79158E+00 -8.15561E+00 -4.31150E+00 -3.68690E+00 -1.44522E+00
  -1.78305E+00  5.42739E-01  3.48729E+00  3.08913E+00  5.35004E+00  2.26367E+00  6.05001E+00  7.17421E+00  9.54062E+00  1.11022E+01
   1.09853E+01  1.23836E+01  1.66770E+01  1.60877E+01  1.66565E+01  1.93815E+01  1.74911E+01  2.05062E+01  2.12653E+01  2.23673E+01
   2.61836E+01  2.50054E+01  2.42192E+01  3.08159E+01  2.82011E+01  2.96524E+01  2.79046E+01  3.22798E+01  3.13363E+01  3.46398E+01
   3.53671E+01  3.43876E+01  3.62326E+01  3.31554E+01  3.79185E+01  3.58837E+01  3.66355E+01  3.68727E+01  4.10398E+01  3.92628E+01
   3.90581E+01  3.88560E+01  4.21232E+01  4.04965E+01  4.09831E+01  4.00054E+01  4.12698E+01  4.24427E+01  4.15271E+01  4.20933E+01
   3.99193E+01  4.19282E+01  4.33996E+01  4.22070E+01  4.22230E+01  4.04500E+01  4.16868E+01  4.16345E+01  4.13671E+01  3.92498E+01
   3.81244E+01  3.78909E+01  3.90049E+01  3.65490E+01  3.53460E+01  3.53555E+01  3.31909E+01  3.59288E+01  3.27953E+01  3.14494E+01
   3.15559E+01  3.08790E+01  2.89378E+01  2.63582E+01  2.65111E+01  2.69967E+01  2.68434E+01  2.31853E+01  2.45803E+01  2.09126E+01
   2.03247E+01  2.12937E+01  1.67870E+01  1.59630E+01  1.65864E+01  1.32781E+01  1.19463E+01  1.06763E+01  9.70973E+00  9.87492E+00
   4.67056E+00  4.63219E+00  4.12456E+00  3.15697E+00  2.36489E+00 -1.98615E+00 -2.38574E+00 -4.95977E+00 -4.03309E+00 -5.26918E+00
  -7.35843E+00 -7.55571E+00 -7.58557E+00 -1.08377E+01 -1.24956E+01 -1.09704E+01 -1.23746E+01 -1.37909E+01 -1.59963E+01 -1.51387E+01
  -1.64199E+01 -1.95573E+01 -1.76535E+01 -1.96541E+01 -2.04719E+01 -2.05224E+01 -2.35012E+01 -2.22971E+01 -2.42312E+01 -2.51618E+01
  -2.13217E+01 -2.45612E+01 -2.59332E+01 -2.30437E+01 -2.76847E+01 -2.69168E+01 -2.59271E+01 -2.63055E+01 -2.61788E+01 -2.88811E+01
  -3.00976E+01 -2.78973E+01 -2.71351E+01 -2.90717E+01 -2.56612E+01 -2.77484E+01 -2.70054E+01 -2.63376E+01 -2.54780E+01 -2.70076E+01
  -2.44729E+01 -2.74558E+01 -2.59429E+01 -2.49614E+01 -2.70746E+01 -2.66124E+01 -2.40417E+01 -2.38442E+01 -2.23191E+01 -2.24372E+01
  -2.30892E+01 -2.29087E+01 -1.90263E+01 -2.20383E+01 -1.98214E+01 -2.21887E+01 -2.09839E+01 -2.11132E+01
 NY points of the fit to the data follow
  -3.94466E+00 -4.02158E+00 -4.39000E+00 -4.39109E+00 -4.60341E+00 -4.47739E+00 -4.57090E+00 -4.52409E+00 -4.81259E+00 -5.21529E+00
  -5.70573E+00 -6.44535E+00 -6.88015E+00 -7.39452E+00 -7.01229E+00 -7.45654E+00 -6.26915E+00 -6.27196E+00 -5.17458E+00 -4.89092E+00
  -3.75637E+00 -3.03724E+00 -1.83962E+00 -1.24703E+00 -3.45885E-01  1.66803E-01  7.17136E-01  1.22832E+00  1.37767E+00  1.69058E+00
   2.19803E+00  3.81455E+00  5.44882E+00  7.51388E+00  8.96121E+00  1.08008E+01  1.18179E+01  1.34308E+01  1.38967E+01  1.51707E+01
   1.51674E+01  1.59442E+01  1.58096E+01  1.67194E+01  1.66213E+01  1.75776E+01  1.73797E+01  1.81274E+01  1.77051E+01  1.77192E+01
   1.74425E+01  1.71132E+01  1.69066E+01  1.66889E+01  1.71024E+01  1.69345E+01  1.80586E+01  1.83833E+01  1.94153E+01  1.95678E+01
   2.01381E+01  2.03472E+01  2.05198E+01  2.06624E+01  2.04307E+01  2.05327E+01  2.02298E+01  2.19908E+01  2.15309E+01  2.34764E+01
   2.29095E+01  2.55155E+01  2.50450E+01  2.71790E+01  2.59438E+01  2.71213E+01  2.51530E+01  2.54819E+01  2.30674E+01  2.27611E+01
   2.11131E+01  1.97352E+01  1.83108E+01  1.71203E+01  1.81618E+01  1.72971E+01  1.93307E+01  1.85297E+01  2.08438E+01  1.99936E+01
   2.20835E+01  2.10449E+01  2.24468E+01  2.12465E+01  2.19872E+01  2.06866E+01  2.13265E+01  2.07342E+01  2.06028E+01  1.98170E+01
   1.87509E+01  1.74221E+01  1.57796E+01  1.43688E+01  1.28544E+01  1.15310E+01  1.06639E+01  1.12066E+01  1.08231E+01  1.16641E+01
   1.11224E+01  1.18233E+01  1.10010E+01  1.17119E+01  1.05900E+01  1.08042E+01  9.06850E+00  8.97831E+00  6.72873E+00  6.67225E+00
   4.77913E+00  4.29417E+00  2.12015E+00  1.61266E+00  1.01425E+00  2.38840E-01 -2.82558E-01 -1.32640E+00 -2.10004E+00 -3.15555E+00
  -4.11759E+00 -5.34502E+00 -6.48317E+00 -7.82792E+00 -9.09054E+00 -1.05746E+01 -1.20515E+01 -1.35093E+01 -1.50509E+01 -1.63487E+01
  -1.78336E+01 -1.91828E+01 -2.06749E+01 -2.21904E+01 -2.39827E+01 -2.55813E+01 -2.74726E+01 -2.87591E+01 -3.02348E+01 -3.14718E+01
  -3.27503E+01 -3.41996E+01 -3.53042E+01 -3.66775E+01 -3.76342E+01 -3.88814E+01 -3.97822E+01 -4.11733E+01 -4.20559E+01 -4.37850E+01
  -4.44717E+01 -4.61478E+01 -4.67280E+01 -4.86909E+01 -4.96276E+01 -5.11591E+01 -5.18176E+01 -5.27913E+01 -5.32542E+01 -5.39806E+01
  -5.43259E+01 -5.44478E+01 -5.44394E+01 -5.39065E+01 -5.37122E+01 -5.27768E+01 -5.26362E+01 -5.12921E+01 -5.10899E+01 -4.93325E+01
  -4.87859E+01 -4.70127E+01 -4.63734E+01 -4.46008E+01 -4.39745E+01 -4.20794E+01 -4.11798E+01 -3.86874E+01 -3.74344E+01 -3.51305E+01
  -3.43079E+01 -3.27090E+01 -3.28217E+01 -3.12774E+01 -3.15259E+01 -3.00577E+01 -3.06952E+01 -2.93682E+01 -3.01841E+01 -2.90945E+01
  -2.98398E+01 -2.86032E+01 -2.91387E+01 -2.79288E+01 -2.83898E+01 -2.65900E+01 -2.62888E+01 -2.40691E+01 -2.32409E+01 -2.09554E+01
  -1.99249E+01 -1.72877E+01 -1.60278E+01 -1.32254E+01 -1.18788E+01 -8.96999E+00 -7.32823E+00 -4.27744E+00 -2.81379E+00  3.51992E-01
   2.18618E+00  5.60665E+00  7.99833E+00  1.18591E+01  1.50991E+01  1.91694E+01  2.34876E+01  2.78879E+01  3.28834E+01  3.71357E+01
   4.22548E+01  4.59776E+01  5.07268E+01  5.43453E+01  5.95522E+01  6.30618E+01  6.95242E+01  7.81570E+01  8.69675E+01  9.60315E+01
   1.05337E+02  1.13655E+02  1.25844E+02  1.41585E+02  1.55839E+02  1.72131E+02  1.85022E+02  1.98496E+02  2.08171E+02  2.16754E+02
   2.22489E+02  2.26388E+02  2.27865E+02  2.26821E+02  2.24053E+02  2.18354E+02  2.11871E+02  2.01847E+02  1.91722E+02  1.78222E+02
   1.66078E+02  1.51110E+02  1.38133E+02  1.22751E+02  1.09479E+02  9.42807E+01  8.10728E+01  6.62107E+01  5.28520E+01  3.76171E+01
   2.38486E+01  7.77605E+00 -6.32035E+00 -2.23565E+01 -3.63688E+01 -5.18728E+01 -6.48435E+01 -7.62163E+01 -8.75356E+01 -9.98201E+01
  -1.10533E+02 -1.22429E+02 -1.29094E+02 -1.32195E+02 -1.35465E+02 -1.37277E+02 -1.39626E+02 -1.40773E+02 -1.42437E+02 -1.43091E+02
  -1.44135E+02 -1.44296E+02 -1.44660E+02 -1.44163E+02 -1.43715E+02 -1.42464E+02 -1.41087E+02 -1.39001E+02 -1.36745E+02 -1.33794E+02
  -1.30564E+02 -1.26696E+02 -1.22471E+02 -1.17717E+02 -1.12537E+02 -1.06965E+02 -1.01075E+02 -9.49603E+01 -8.86861E+01 -8.24269E+01
  -7.62005E+01 -7.02390E+01 -6.45099E+01 -5.91824E+01 -5.42476E+01 -4.98496E+01 -4.59382E+01 -4.25988E+01 -3.97433E+01 -3.73972E+01
  -3.54674E+01 -3.38734E+01 -3.25147E+01 -3.12934E+01 -3.01048E+01 -2.88556E+01 -2.74511E+01 -2.57984E+01 -2.37509E+01 -2.11510E+01
  -1.89078E+01 -1.62167E+01 -1.39660E+01 -1.14713E+01 -9.43371E+00 -7.47884E+00 -5.84851E+00 -3.70802E+00 -2.29616E+00 -3.39466E-01
   6.74395E-01  2.25193E+00  2.86824E+00  4.07639E+00  4.45309E+00  5.57174E+00  6.00060E+00  7.31295E+00  7.98794E+00  9.58492E+00
   1.05734E+01  1.24000E+01  1.36365E+01  1.55199E+01  1.68618E+01  1.86760E+01  1.99999E+01  2.16528E+01  2.28299E+01  2.42474E+01
   2.51579E+01  2.62256E+01  2.68325E+01  2.75017E+01  2.79316E+01  2.84042E+01  2.89242E+01  2.96000E+01  3.05836E+01  3.19562E+01
   3.30137E+01  3.42246E+01  3.53172E+01  3.62787E+01  3.72582E+01  3.77841E+01  3.85033E+01  3.92492E+01  3.99100E+01  4.04326E+01
   4.07891E+01  4.09702E+01  4.09802E+01  4.08371E+01  4.05673E+01  4.02047E+01  3.97863E+01  3.93502E+01  3.89320E+01  3.85633E+01
   3.82687E+01  3.80658E+01  3.79634E+01  3.79631E+01  3.80578E+01  3.82351E+01  3.84758E+01  3.87578E+01  3.90551E+01  3.93423E+01
   3.95930E+01  3.97834E+01  3.98904E+01  3.98947E+01  3.97794E+01  3.95320E+01  3.91426E+01  3.86061E+01  3.79197E+01  3.70846E+01
   3.61043E+01  3.49855E+01  3.37363E+01  3.23675E+01  3.08899E+01  2.93167E+01  2.76606E+01  2.59356E+01  2.41546E+01  2.23315E+01
   2.04784E+01  1.86081E+01  1.67315E+01  1.48596E+01  1.30016E+01  1.11665E+01  9.36145E+00  7.59359E+00  5.86812E+00  4.19028E+00
   2.56342E+00  9.91051E-01 -5.25023E-01 -1.98268E+00 -3.38134E+00 -4.72007E+00 -5.99937E+00 -7.21918E+00 -8.38072E+00 -9.48450E+00
  -1.05323E+01 -1.15250E+01 -1.24649E+01 -1.33531E+01 -1.41920E+01 -1.49828E+01 -1.57280E+01 -1.64289E+01 -1.70880E+01 -1.77067E+01
  -1.82872E+01 -1.88308E+01 -1.93397E+01 -1.98152E+01 -2.02594E+01 -2.06732E+01 -2.10588E+01 -2.14169E+01 -2.17495E+01 -2.20575E+01
  -2.23424E+01 -2.26049E+01 -2.28467E+01 -2.30683E+01 -2.32712E+01 -2.34558E+01 -2.36235E+01 -2.37746E+01 -2.39104E+01 -2.40310E+01
  -2.41378E+01 -2.42308E+01 -2.43111E+01 -2.43788E+01 -2.44348E+01 -2.44793E+01 -2.45131E+01 -2.45362E+01 -2.45494E+01 -2.45525E+01
  -2.45465E+01 -2.45312E+01 -2.45072E+01 -2.44745E+01 -2.44336E+01 -2.43843E+01 -2.43273E+01 -2.42623E+01 -2.41898E+01 -2.41095E+01
  -2.40220E+01 -2.39269E+01 -2.38246E+01 -2.37147E+01 -2.35976E+01 -2.34726E+01 -2.33401E+01 -2.31991E+01
 NY background values follow
    -3.162E+01   -3.058E+01   -2.960E+01   -2.865E+01   -2.774E+01   -2.688E+01   -2.606E+01   -2.528E+01   -2.454E+01   -2.383E+01
    -2.317E+01   -2.254E+01   -2.195E+01   -2.140E+01   -2.088E+01   -2.040E+01   -1.995E+01   -1.954E+01   -1.916E+01   -1.881E+01
    -1.850E+01   -1.822E+01   -1.797E+01   -1.774E+01   -1.755E+01   -1.739E+01   -1.726E+01   -1.715E+01   -1.707E+01   -1.702E+01
    -1.700E+01   -1.700E+01   -1.702E+01   -1.707E+01   -1.714E+01   -1.724E+01   -1.736E+01   -1.750E+01   -1.766E+01   -1.784E+01
    -1.804E+01   -1.826E+01   -1.850E+01   -1.876E+01   -1.904E+01   -1.933E+01   -1.964E+01   -1.996E+01   -2.030E+01   -2.066E+01
    -2.102E+01   -2.141E+01   -2.180E+01   -2.220E+01   -2.262E+01   -2.305E+01   -2.349E+01   -2.393E+01   -2.439E+01   -2.486E+01
    -2.533E+01   -2.581E+01   -2.629E+01   -2.678E+01   -2.728E+01   -2.778E+01   -2.829E+01   -2.880E+01   -2.931E+01   -2.982E+01
    -3.034E+01   -3.085E+01   -3.137E+01   -3.188E+01   -3.240E+01   -3.291E+01   -3.343E+01   -3.393E+01   -3.444E+01   -3.494E+01
    -3.544E+01   -3.593E+01   -3.641E+01   -3.689E+01   -3.737E+01   -3.783E+01   -3.829E+01   -3.873E+01   -3.917E+01   -3.960E+01
    -4.002E+01   -4.042E+01   -4.081E+01   -4.119E+01   -4.156E+01   -4.192E+01   -4.226E+01   -4.258E+01   -4.289E+01   -4.318E+01
    -4.346E+01   -4.371E+01   -4.396E+01   -4.418E+01   -4.439E+01   -4.459E+01   -4.477E+01   -4.494E+01   -4.509E+01   -4.523E+01
    -4.536E+01   -4.548E+01   -4.559E+01   -4.568E+01   -4.576E+01   -4.584E+01   -4.590E+01   -4.596E+01   -4.601E+01   -4.605E+01
    -4.608E+01   -4.610E+01   -4.612E+01   -4.613E+01   -4.614E+01   -4.614E+01   -4.614E+01   -4.613E+01   -4.612E+01   -4.611E+01
    -4.609E+01   -4.607E+01   -4.605E+01   -4.603E+01   -4.601E+01   -4.599E+01   -4.596E+01   -4.594E+01   -4.592E+01   -4.591E+01
    -4.589E+01   -4.588E+01   -4.587E+01   -4.586E+01   -4.586E+01   -4.587E+01   -4.588E+01   -4.589E+01   -4.591E+01   -4.594E+01
    -4.597E+01   -4.602E+01   -4.607E+01   -4.613E+01   -4.620E+01   -4.628E+01   -4.636E+01   -4.646E+01   -4.657E+01   -4.670E+01
    -4.683E+01   -4.698E+01   -4.714E+01   -4.731E+01   -4.750E+01   -4.770E+01   -4.792E+01   -4.815E+01   -4.840E+01   -4.867E+01
    -4.895E+01   -4.925E+01   -4.957E+01   -4.991E+01   -5.027E+01   -5.064E+01   -5.104E+01   -5.146E+01   -5.189E+01   -5.235E+01
    -5.283E+01   -5.334E+01   -5.386E+01   -5.441E+01   -5.499E+01   -5.559E+01   -5.621E+01   -5.686E+01   -5.753E+01   -5.824E+01
    -5.896E+01   -5.972E+01   -6.050E+01   -6.131E+01   -6.216E+01   -6.303E+01   -6.393E+01   -6.486E+01   -6.582E+01   -6.681E+01
    -6.783E+01   -6.889E+01   -6.997E+01   -7.109E+01   -7.223E+01   -7.340E+01   -7.460E+01   -7.582E+01   -7.707E+01   -7.834E+01
    -7.964E+01   -8.096E+01   -8.230E+01   -8.366E+01   -8.505E+01   -8.645E+01   -8.787E+01   -8.931E+01   -9.077E+01   -9.225E+01
    -9.374E+01   -9.524E+01   -9.676E+01   -9.829E+01   -9.984E+01   -1.014E+02   -1.030E+02   -1.045E+02   -1.061E+02   -1.077E+02
    -1.093E+02   -1.110E+02   -1.126E+02   -1.142E+02   -1.158E+02   -1.175E+02   -1.191E+02   -1.207E+02   -1.224E+02   -1.240E+02
    -1.257E+02   -1.273E+02   -1.289E+02   -1.306E+02   -1.322E+02   -1.338E+02   -1.355E+02   -1.371E+02   -1.387E+02   -1.403E+02
    -1.419E+02   -1.435E+02   -1.451E+02   -1.466E+02   -1.482E+02   -1.498E+02   -1.513E+02   -1.528E+02   -1.543E+02   -1.558E+02
    -1.573E+02   -1.588E+02   -1.602E+02   -1.616E+02   -1.630E+02   -1.644E+02   -1.658E+02   -1.671E+02   -1.685E+02   -1.698E+02
    -1.710E+02   -1.723E+02   -1.735E+02   -1.747E+02   -1.759E+02   -1.770E+02   -1.782E+02   -1.793E+02   -1.803E+02   -1.813E+02
    -1.823E+02   -1.833E+02   -1.842E+02   -1.851E+02   -1.860E+02   -1.868E+02   -1.876E+02   -1.884E+02   -1.891E+02   -1.898E+02
    -1.904E+02   -1.910E+02   -1.916E+02   -1.921E+02   -1.926E+02   -1.930E+02   -1.934E+02   -1.938E+02   -1.941E+02   -1.943E+02
    -1.945E+02   -1.947E+02   -1.948E+02   -1.949E+02   -1.949E+02   -1.949E+02   -1.948E+02   -1.947E+02   -1.946E+02   -1.944E+02
    -1.942E+02   -1.939E+02   -1.936E+02   -1.933E+02   -1.929E+02   -1.925E+02   -1.921E+02   -1.916E+02   -1.911E+02   -1.905E+02
    -1.900E+02   -1.894E+02   -1.887E+02   -1.880E+02   -1.873E+02   -1.866E+02   -1.858E+02   -1.850E+02   -1.842E+02   -1.834E+02
    -1.825E+02   -1.816E+02   -1.807E+02   -1.797E+02   -1.787E+02   -1.777E+02   -1.767E+02   -1.757E+02   -1.746E+02   -1.735E+02
    -1.724E+02   -1.713E+02   -1.701E+02   -1.690E+02   -1.678E+02   -1.666E+02   -1.654E+02   -1.641E+02   -1.629E+02   -1.616E+02
    -1.604E+02   -1.591E+02   -1.578E+02   -1.565E+02   -1.551E+02   -1.538E+02   -1.525E+02   -1.511E+02   -1.497E+02   -1.484E+02
    -1.470E+02   -1.456E+02   -1.442E+02   -1.428E+02   -1.414E+02   -1.400E+02   -1.386E+02   -1.372E+02   -1.358E+02   -1.344E+02
    -1.330E+02   -1.315E+02   -1.301E+02   -1.287E+02   -1.273E+02   -1.259E+02   -1.245E+02   -1.231E+02   -1.217E+02   -1.203E+02
    -1.189E+02   -1.175E+02   -1.161E+02   -1.147E+02   -1.134E+02   -1.120E+02   -1.107E+02   -1.093E+02   -1.080E+02   -1.067E+02
    -1.054E+02   -1.041E+02   -1.028E+02   -1.016E+02   -1.003E+02   -9.910E+01   -9.789E+01   -9.669E+01   -9.550E+01   -9.434E+01
    -9.319E+01   -9.206E+01   -9.095E+01   -8.985E+01   -8.877E+01   -8.770E+01   -8.665E+01   -8.562E+01   -8.460E+01   -8.360E+01
    -8.262E+01   -8.164E+01   -8.069E+01   -7.975E+01   -7.882E+01   -7.791E+01   -7.701E+01   -7.613E+01   -7.526E+01   -7.440E+01
    -7.356E+01   -7.273E+01   -7.191E+01   -7.111E+01   -7.032E+01   -6.954E+01   -6.878E+01   -6.802E+01   -6.728E+01   -6.655E+01
    -6.584E+01   -6.513E+01   -6.444E+01   -6.375E+01   -6.308E+01   -6.242E+01   -6.177E+01   -6.113E+01   -6.050E+01   -5.988E+01
    -5.927E+01   -5.867E+01   -5.808E+01   -5.749E+01   -5.692E+01   -5.636E+01   -5.580E+01   -5.526E+01   -5.472E+01   -5.419E+01
    -5.367E+01   -5.316E+01   -5.265E+01   -5.215E+01   -5.166E+01   -5.118E+01   -5.070E+01   -5.023E+01   -4.977E+01   -4.931E+01
    -4.886E+01   -4.842E+01   -4.798E+01   -4.755E+01   -4.712E+01   -4.670E+01   -4.628E+01   -4.587E+01   -4.546E+01   -4.506E+01
    -4.466E+01   -4.427E+01   -4.388E+01   -4.349E+01   -4.311E+01   -4.273E+01   -4.236E+01   -4.199E+01   -4.162E+01   -4.125E+01
    -4.089E+01   -4.053E+01   -4.017E+01   -3.981E+01   -3.946E+01   -3.911E+01   -3.875E+01   -3.840E+01   -3.805E+01   -3.771E+01
    -3.736E+01   -3.701E+01   -3.667E+01   -3.632E+01   -3.597E+01   -3.563E+01   -3.528E+01   -3.494E+01
 Asp      Conc. = 3.02E+03
