 LCModel (Version 6.3-1L) Copyright: S.W. Provencher.          Ref.: Magn. Reson. Med. 30:672-679 (1993).                
 Slice#3 Row#9 Col#3  PD_24_press_2_raw_act
 36 lines in following concentration table = NCONC+1
    Conc.  %SD /Cr+PCr  Metabolite                                         
  161.709  93% 9.3E-02 Ala                                                 
    0.000 999%   0.000 Asp                                                 
  451.465  51%   0.260 Cr                                                  
 1.28E+03  19%   0.740 PCr                                                 
   21.813 851% 1.3E-02 GABA                                                
    0.000 999%   0.000 Glc                                                 
  716.723  43%   0.413 Gln                                                 
 1.56E+03  23%   0.898 Glu                                                 
  537.493   6%   0.310 GPC                                                 
    0.000 999%   0.000 PCh                                                 
  870.319  12%   0.502 GSH                                                 
 1.60E+03  26%   0.922 Ins                                                 
    0.000 999%   0.000 Lac                                                 
 2.57E+03   5%   1.480 NAA                                                 
  186.228  75%   0.107 NAAG                                                
   88.511  42% 5.1E-02 Scyllo                                              
    0.000 999%   0.000 Tau                                                 
   68.651 217% 4.0E-02 -CrCH2                                              
  537.493   6%   0.310 GPC+PCh                                             
 2.75E+03   4%   1.587 NAA+NAAG                                            
 1.74E+03   5%   1.000 Cr+PCr                                              
 2.27E+03  23%   1.311 Glu+Gln                                             
 1.19E+03  61%   0.686 Lip13a                                              
  107.614 186% 6.2E-02 Lip13b                                              
    0.000 999%   0.000 Lip09                                               
 1.54E+03  17%   0.890 MM09                                                
  118.027 191% 6.8E-02 Lip20                                               
 2.62E+03  19%   1.508 MM20                                                
  556.972  33%   0.321 MM12                                                
 1.65E+03  22%   0.952 MM14                                                
 1.31E+03  16%   0.757 MM17                                                
 1.30E+03  45%   0.748 Lip13a+Lip13b                                       
 3.51E+03  20%   2.020 MM14+Lip13a+Lip13b+MM12                             
 1.54E+03  17%   0.890 MM09+Lip09                                          
 2.74E+03  19%   1.576 MM20+Lip20                                          
   6 lines in following misc. output table
  FWHM = 0.046 ppm    S/N =  11                                            
  Data shift = 0.031 ppm                                                   
  Ph: -23 deg     -12.4 deg/ppm                                            
  alphaB,S = 5.5E-01,   8.3E+01                                            
   14 spline knots.   Ns = 8(1)                                            
  (12) 4 infls.   (11) 3 extrs.                                            
  498 points on ppm-axis = NY
      4.000000     3.992357     3.984714     3.977070     3.969427     3.961784     3.954141     3.946497     3.938854     3.931211
      3.923568     3.915925     3.908281     3.900638     3.892995     3.885352     3.877708     3.870065     3.862422     3.854779
      3.847136     3.839492     3.831849     3.824206     3.816563     3.808919     3.801276     3.793633     3.785990     3.778347
      3.770703     3.763060     3.755417     3.747774     3.740130     3.732487     3.724844     3.717201     3.709558     3.701914
      3.694271     3.686628     3.678985     3.671341     3.663698     3.656055     3.648412     3.640769     3.633125     3.625482
      3.617839     3.610196     3.602552     3.594909     3.587266     3.579623     3.571980     3.564336     3.556693     3.549050
      3.541407     3.533763     3.526120     3.518477     3.510834     3.503191     3.495547     3.487904     3.480261     3.472618
      3.464974     3.457331     3.449688     3.442045     3.434402     3.426758     3.419115     3.411472     3.403829     3.396185
      3.388542     3.380899     3.373256     3.365613     3.357969     3.350326     3.342683     3.335040     3.327396     3.319753
      3.312110     3.304467     3.296824     3.289180     3.281537     3.273894     3.266251     3.258607     3.250964     3.243321
      3.235678     3.228034     3.220391     3.212748     3.205105     3.197462     3.189818     3.182175     3.174532     3.166889
      3.159245     3.151602     3.143959     3.136316     3.128673     3.121029     3.113386     3.105743     3.098100     3.090456
      3.082813     3.075170     3.067527     3.059884     3.052240     3.044597     3.036954     3.029311     3.021667     3.014024
      3.006381     2.998738     2.991095     2.983451     2.975808     2.968165     2.960522     2.952878     2.945235     2.937592
      2.929949     2.922306     2.914662     2.907019     2.899376     2.891733     2.884089     2.876446     2.868803     2.861160
      2.853517     2.845873     2.838230     2.830587     2.822944     2.815300     2.807657     2.800014     2.792371     2.784728
      2.777084     2.769441     2.761798     2.754155     2.746511     2.738868     2.731225     2.723582     2.715939     2.708295
      2.700652     2.693009     2.685366     2.677722     2.670079     2.662436     2.654793     2.647150     2.639506     2.631863
      2.624220     2.616577     2.608933     2.601290     2.593647     2.586004     2.578361     2.570717     2.563074     2.555431
      2.547788     2.540144     2.532501     2.524858     2.517215     2.509572     2.501928     2.494285     2.486642     2.478999
      2.471355     2.463712     2.456069     2.448426     2.440783     2.433139     2.425496     2.417853     2.410210     2.402566
      2.394923     2.387280     2.379637     2.371994     2.364350     2.356707     2.349064     2.341421     2.333777     2.326134
      2.318491     2.310848     2.303205     2.295561     2.287918     2.280275     2.272632     2.264988     2.257345     2.249702
      2.242059     2.234416     2.226772     2.219129     2.211486     2.203843     2.196199     2.188556     2.180913     2.173270
      2.165627     2.157983     2.150340     2.142697     2.135054     2.127410     2.119767     2.112124     2.104481     2.096838
      2.089194     2.081551     2.073908     2.066265     2.058621     2.050978     2.043335     2.035692     2.028049     2.020405
      2.012762     2.005119     1.997476     1.989833     1.982190     1.974546     1.966903     1.959260     1.951617     1.943974
      1.936331     1.928688     1.921045     1.913402     1.905759     1.898115     1.890472     1.882829     1.875186     1.867543
      1.859900     1.852257     1.844614     1.836971     1.829327     1.821684     1.814041     1.806398     1.798755     1.791112
      1.783469     1.775826     1.768183     1.760540     1.752896     1.745253     1.737610     1.729967     1.722324     1.714681
      1.707038     1.699395     1.691752     1.684108     1.676465     1.668822     1.661179     1.653536     1.645893     1.638250
      1.630607     1.622964     1.615321     1.607677     1.600034     1.592391     1.584748     1.577105     1.569462     1.561819
      1.554176     1.546533     1.538890     1.531246     1.523603     1.515960     1.508317     1.500674     1.493031     1.485388
      1.477745     1.470102     1.462458     1.454815     1.447172     1.439529     1.431886     1.424243     1.416600     1.408957
      1.401314     1.393671     1.386027     1.378384     1.370741     1.363098     1.355455     1.347812     1.340169     1.332526
      1.324883     1.317240     1.309596     1.301953     1.294310     1.286667     1.279024     1.271381     1.263738     1.256095
      1.248452     1.240808     1.233165     1.225522     1.217879     1.210236     1.202593     1.194950     1.187307     1.179664
      1.172021     1.164377     1.156734     1.149091     1.141448     1.133805     1.126162     1.118519     1.110876     1.103233
      1.095590     1.087946     1.080303     1.072660     1.065017     1.057374     1.049731     1.042088     1.034445     1.026802
      1.019158     1.011515     1.003872     0.996229     0.988586     0.980943     0.973300     0.965657     0.958014     0.950371
      0.942727     0.935084     0.927441     0.919798     0.912155     0.904512     0.896869     0.889226     0.881583     0.873940
      0.866296     0.858653     0.851010     0.843367     0.835724     0.828081     0.820438     0.812795     0.805152     0.797508
      0.789865     0.782222     0.774579     0.766936     0.759293     0.751650     0.744007     0.736364     0.728721     0.721077
      0.713434     0.705791     0.698148     0.690505     0.682862     0.675219     0.667576     0.659933     0.652290     0.644646
      0.637003     0.629360     0.621717     0.614074     0.606431     0.598788     0.591145     0.583502     0.575858     0.568215
      0.560572     0.552929     0.545286     0.537643     0.530000     0.522357     0.514714     0.507071     0.499427     0.491784
      0.484141     0.476498     0.468855     0.461212     0.453569     0.445925     0.438282     0.430639     0.422996     0.415353
      0.407710     0.400067     0.392424     0.384780     0.377137     0.369494     0.361851     0.354208     0.346565     0.338922
      0.331278     0.323635     0.315992     0.308349     0.300706     0.293063     0.285420     0.277777     0.270133     0.262490
      0.254847     0.247204     0.239561     0.231918     0.224275     0.216631     0.208988     0.201345
 NY phased data points follow
  -2.93537E+02 -2.89369E+02 -2.81478E+02 -2.78145E+02 -2.67260E+02 -2.59194E+02 -2.47592E+02 -2.37319E+02 -2.29649E+02 -2.26257E+02
  -2.23582E+02 -2.30166E+02 -2.21119E+02 -2.28319E+02 -2.25862E+02 -2.39983E+02 -2.33494E+02 -2.41452E+02 -2.29056E+02 -2.35673E+02
  -2.25793E+02 -2.26857E+02 -2.18306E+02 -2.26354E+02 -2.15277E+02 -2.10163E+02 -2.02742E+02 -2.02545E+02 -1.95753E+02 -1.99555E+02
  -1.84568E+02 -1.87932E+02 -1.82305E+02 -1.87955E+02 -1.84347E+02 -1.84581E+02 -1.75273E+02 -1.81314E+02 -1.73646E+02 -1.71842E+02
  -1.70101E+02 -1.72737E+02 -1.67060E+02 -1.64297E+02 -1.66686E+02 -1.66786E+02 -1.49882E+02 -1.56535E+02 -1.52637E+02 -1.54317E+02
  -1.50887E+02 -1.57782E+02 -1.55860E+02 -1.56908E+02 -1.53992E+02 -1.51618E+02 -1.46912E+02 -1.47083E+02 -1.44207E+02 -1.49716E+02
  -1.41427E+02 -1.49836E+02 -1.46647E+02 -1.46393E+02 -1.41293E+02 -1.42900E+02 -1.40679E+02 -1.43594E+02 -1.36962E+02 -1.40302E+02
  -1.34431E+02 -1.38641E+02 -1.26932E+02 -1.30897E+02 -1.28656E+02 -1.26239E+02 -1.26819E+02 -1.28299E+02 -1.21834E+02 -1.23253E+02
  -1.20445E+02 -1.28589E+02 -1.19398E+02 -1.14743E+02 -1.15370E+02 -1.13119E+02 -1.11956E+02 -1.13560E+02 -1.06802E+02 -1.15945E+02
  -1.07490E+02 -1.06799E+02 -1.03394E+02 -1.04554E+02 -9.63535E+01 -9.51379E+01 -9.44261E+01 -9.17787E+01 -8.52695E+01 -8.27068E+01
  -6.67274E+01 -6.56049E+01 -5.25696E+01 -5.47112E+01 -6.07930E+01 -6.86185E+01 -7.09818E+01 -7.66916E+01 -7.63506E+01 -8.56674E+01
  -8.20837E+01 -8.08624E+01 -8.30715E+01 -8.53810E+01 -8.18915E+01 -8.46922E+01 -7.99787E+01 -8.10159E+01 -7.90259E+01 -7.53626E+01
  -7.02783E+01 -6.88300E+01 -6.77072E+01 -6.74668E+01 -5.17763E+01 -2.92883E+01 -2.17051E+01 -2.44114E+01 -2.77534E+01 -4.02773E+01
  -4.30366E+01 -5.90475E+01 -5.89843E+01 -6.60118E+01 -6.54673E+01 -7.21359E+01 -6.96450E+01 -7.01229E+01 -7.37907E+01 -7.26467E+01
  -6.77892E+01 -7.41211E+01 -6.92734E+01 -7.34344E+01 -7.26206E+01 -7.34557E+01 -6.83967E+01 -7.20733E+01 -6.94554E+01 -7.08014E+01
  -6.71203E+01 -7.10178E+01 -7.22738E+01 -7.25610E+01 -7.03107E+01 -6.82639E+01 -6.53061E+01 -6.65632E+01 -7.17946E+01 -6.61790E+01
  -6.81308E+01 -7.16171E+01 -6.98306E+01 -6.92227E+01 -6.47443E+01 -6.22957E+01 -6.68198E+01 -6.98286E+01 -6.68287E+01 -6.65624E+01
  -6.70929E+01 -7.37972E+01 -7.09593E+01 -6.96592E+01 -7.59525E+01 -7.45908E+01 -6.59059E+01 -7.14113E+01 -6.97061E+01 -7.10586E+01
  -6.74241E+01 -7.15418E+01 -6.44846E+01 -6.98756E+01 -6.57926E+01 -6.31114E+01 -5.66270E+01 -6.47806E+01 -5.50429E+01 -5.21008E+01
  -5.08497E+01 -4.83951E+01 -4.66695E+01 -4.95566E+01 -4.41224E+01 -4.65633E+01 -4.70490E+01 -4.87012E+01 -5.33601E+01 -5.29019E+01
  -4.89939E+01 -4.84836E+01 -4.65552E+01 -4.66397E+01 -4.36125E+01 -4.68017E+01 -4.74433E+01 -5.00768E+01 -5.10222E+01 -4.66335E+01
  -5.22528E+01 -5.27432E+01 -4.42518E+01 -3.69355E+01 -3.77063E+01 -3.22104E+01 -3.45282E+01 -3.08214E+01 -3.57773E+01 -4.01018E+01
  -3.53498E+01 -4.41728E+01 -4.48627E+01 -4.32581E+01 -3.70410E+01 -3.45759E+01 -3.28667E+01 -3.00237E+01 -3.19267E+01 -3.38472E+01
  -3.38034E+01 -3.73666E+01 -3.45747E+01 -3.11478E+01 -3.23283E+01 -3.19179E+01 -3.12998E+01 -2.95855E+01 -3.19734E+01 -3.84045E+01
  -3.19150E+01 -3.66677E+01 -3.27810E+01 -2.83705E+01 -2.64225E+01 -2.11003E+01 -2.07226E+01 -2.56480E+01 -2.15555E+01 -2.07809E+01
  -1.56242E+01 -3.20311E+00 -3.39702E+00  3.77225E+00  3.82890E+00  6.18669E+00  1.36222E+01  2.72466E+01  4.75478E+01  5.61112E+01
   5.88855E+01  6.06009E+01  3.76390E+01  1.98183E+01  7.52547E+00  4.14196E+00 -9.65697E+00 -8.54031E+00 -1.18583E+01 -2.14033E+01
  -1.63119E+01 -1.70308E+01 -2.21975E+01 -2.34343E+01 -1.96623E+01 -2.04638E+01 -2.06347E+01 -2.58748E+01 -2.71466E+01 -2.65696E+01
  -2.40309E+01 -1.95715E+01 -2.55097E+01 -2.42717E+01 -2.20977E+01 -2.43249E+01 -2.66159E+01 -2.45295E+01 -2.14214E+01 -2.28505E+01
  -2.04123E+01 -2.39790E+01 -2.37428E+01 -2.67005E+01 -2.97467E+01 -2.84593E+01 -2.81872E+01 -2.09387E+01 -2.46766E+01 -2.58231E+01
  -2.06463E+01 -1.92613E+01 -2.14799E+01 -1.46277E+01 -1.95666E+01 -1.47152E+01 -8.53737E+00 -1.50028E+01 -9.10034E+00 -6.84842E+00
  -9.93071E+00 -1.05759E+01 -8.34953E+00 -4.89710E+00 -3.75149E+00 -3.32634E+00  8.25798E-01 -1.74105E+00 -5.25015E+00 -3.14601E-01
  -7.98428E+00 -6.03887E+00 -4.74886E+00 -1.14209E-01 -4.24868E+00 -8.21147E+00 -6.39786E+00 -2.21497E+00 -6.24656E+00 -5.37134E+00
  -6.23419E+00 -4.79698E+00 -9.53279E+00 -8.47063E+00 -8.54065E-01  1.72553E+00 -9.95657E-01 -1.47948E+00 -2.35664E+00 -4.02680E+00
  -3.64497E+00 -1.01530E+01 -4.22060E+00 -3.86035E+00 -4.26239E+00 -3.07186E+00 -5.24486E+00 -3.27010E+00 -3.59424E+00 -4.19804E+00
  -2.17465E+00  2.90255E+00 -6.87039E+00  1.24787E+00  2.96189E+00  1.80492E+00  7.68352E-01 -9.36727E-01 -6.26799E-01  7.20969E-01
  -1.31285E+00 -4.00586E-01 -1.02330E+00 -1.32619E+00  2.32613E+00  5.47851E-01 -2.52965E+00  3.96058E-02 -1.57511E+00 -6.70279E+00
   5.39230E+00  3.76402E-01 -1.76215E+00 -3.73179E+00  2.33833E+00 -1.06448E+00 -1.24136E+00  3.59734E+00 -6.17407E+00 -4.89708E+00
  -2.58968E+00 -3.82131E+00  7.09721E-01 -3.20595E+00 -2.53224E+00 -2.03448E+00 -5.00571E+00 -2.38526E+00 -1.70228E+00 -2.56447E+00
  -2.16149E+00  3.86090E+00 -6.64786E-01  9.50795E-01  2.34840E+00  2.89976E+00  5.03300E+00  6.01178E-01  6.33708E+00  7.34056E+00
  -8.03366E-01  5.30287E+00  5.01540E+00  3.77599E+00  5.74422E+00  7.08310E+00  6.35757E+00  9.29760E+00  2.80331E+00  4.36091E+00
   5.59427E+00  2.91318E+00  2.18774E+00 -2.16012E-01 -7.01618E-01 -2.78407E-01 -4.52233E+00  2.49577E-02 -7.08211E-01  6.36614E-01
  -2.96060E-01 -8.18274E-01 -4.41330E-01 -4.75242E+00 -3.05693E+00  3.51995E+00  2.70641E-01 -6.11220E+00 -1.75741E+00 -3.27852E+00
  -3.88923E+00  8.44139E-02 -3.36227E+00  9.00893E-01 -5.07599E-01 -2.20553E+00 -4.35824E+00 -4.34944E-02 -5.79623E+00  1.00576E+00
  -3.44499E+00 -1.28189E+00 -1.39469E+00 -2.70640E+00  5.55930E-01 -1.30365E+00 -7.59859E-01 -1.03697E+00 -5.50896E-03 -1.85436E+00
  -1.52657E+00  3.40136E+00 -4.74437E-01 -1.97671E+00 -1.79191E+00  1.32710E+00 -5.30419E+00 -1.72035E+00  1.42077E+00 -1.19083E+00
   2.24521E+00 -2.68617E-02 -5.08836E+00  4.76580E+00  8.71336E-01  2.16208E+00  4.22378E+00 -1.78391E+00  2.26775E+00 -4.99809E+00
   4.58561E-01 -1.16838E+00 -1.62150E+00  5.31141E-01  8.00617E-01 -2.44212E+00  3.23702E+00 -5.56725E+00 -4.70343E+00  8.50297E-01
  -5.62130E+00 -5.96699E+00 -1.84888E+00 -2.10055E+00 -2.81520E+00  1.41235E+00 -1.31025E+00 -2.26077E+00  2.26580E+00 -4.14388E+00
  -8.24092E-01 -6.57721E-01  8.90358E-01  1.66669E+00  1.36302E+00 -3.79124E-01 -1.80107E+00  3.12989E+00
 NY points of the fit to the data follow
  -2.83645E+02 -2.78910E+02 -2.74086E+02 -2.69715E+02 -2.65055E+02 -2.59010E+02 -2.50749E+02 -2.41168E+02 -2.32327E+02 -2.26158E+02
  -2.23842E+02 -2.24864E+02 -2.27343E+02 -2.29761E+02 -2.31278E+02 -2.31749E+02 -2.31431E+02 -2.30976E+02 -2.30675E+02 -2.29635E+02
  -2.28244E+02 -2.25929E+02 -2.22104E+02 -2.18821E+02 -2.16342E+02 -2.13408E+02 -2.09081E+02 -2.03186E+02 -1.96748E+02 -1.90843E+02
  -1.86523E+02 -1.84497E+02 -1.84225E+02 -1.84673E+02 -1.85301E+02 -1.85801E+02 -1.86049E+02 -1.85670E+02 -1.84651E+02 -1.82808E+02
  -1.80041E+02 -1.77368E+02 -1.74733E+02 -1.71475E+02 -1.67419E+02 -1.63164E+02 -1.59707E+02 -1.57608E+02 -1.57034E+02 -1.57595E+02
  -1.58299E+02 -1.58367E+02 -1.57710E+02 -1.56444E+02 -1.54944E+02 -1.53464E+02 -1.51823E+02 -1.49766E+02 -1.47448E+02 -1.45308E+02
  -1.43740E+02 -1.42790E+02 -1.42235E+02 -1.41609E+02 -1.40648E+02 -1.39346E+02 -1.37736E+02 -1.35979E+02 -1.34181E+02 -1.32379E+02
  -1.30700E+02 -1.29198E+02 -1.27921E+02 -1.26861E+02 -1.25906E+02 -1.24962E+02 -1.23979E+02 -1.22931E+02 -1.21753E+02 -1.20416E+02
  -1.19416E+02 -1.18570E+02 -1.17510E+02 -1.16157E+02 -1.14672E+02 -1.13362E+02 -1.12446E+02 -1.11901E+02 -1.11508E+02 -1.11071E+02
  -1.10333E+02 -1.09225E+02 -1.07813E+02 -1.05968E+02 -1.02323E+02 -9.70050E+01 -9.38177E+01 -9.20324E+01 -8.84970E+01 -8.10048E+01
  -7.01854E+01 -5.96360E+01 -5.31655E+01 -5.26189E+01 -5.76382E+01 -6.54405E+01 -7.26640E+01 -7.79751E+01 -8.14409E+01 -8.34820E+01
  -8.48572E+01 -8.68638E+01 -8.88113E+01 -8.91100E+01 -8.86680E+01 -8.80161E+01 -8.72292E+01 -8.61527E+01 -8.34241E+01 -7.72366E+01
  -7.24790E+01 -7.02571E+01 -6.69346E+01 -5.93676E+01 -4.73161E+01 -3.43397E+01 -2.54469E+01 -2.36614E+01 -2.88846E+01 -3.80304E+01
  -4.68504E+01 -5.33733E+01 -5.80528E+01 -6.17426E+01 -6.50086E+01 -6.91590E+01 -7.34521E+01 -7.47976E+01 -7.39792E+01 -7.23619E+01
  -7.06990E+01 -6.95481E+01 -6.91345E+01 -6.91689E+01 -6.92750E+01 -6.93563E+01 -6.93632E+01 -6.93340E+01 -6.93251E+01 -6.93412E+01
  -6.94412E+01 -6.95370E+01 -6.96017E+01 -6.97097E+01 -6.96152E+01 -6.92460E+01 -6.87478E+01 -6.83726E+01 -6.84782E+01 -6.88536E+01
  -6.90490E+01 -6.88141E+01 -6.81820E+01 -6.74437E+01 -6.69683E+01 -6.69166E+01 -6.72151E+01 -6.76897E+01 -6.81447E+01 -6.82110E+01
  -6.78551E+01 -6.75736E+01 -6.76567E+01 -6.81490E+01 -6.85121E+01 -6.82876E+01 -6.76501E+01 -6.69979E+01 -6.65592E+01 -6.63863E+01
  -6.60847E+01 -6.54764E+01 -6.46916E+01 -6.38895E+01 -6.30762E+01 -6.21069E+01 -6.07943E+01 -5.88855E+01 -5.64947E+01 -5.42305E+01
  -5.26895E+01 -5.19022E+01 -5.18532E+01 -5.24015E+01 -5.31982E+01 -5.37441E+01 -5.36983E+01 -5.30609E+01 -5.17784E+01 -4.99976E+01
  -4.80294E+01 -4.61715E+01 -4.49177E+01 -4.41599E+01 -4.38964E+01 -4.44797E+01 -4.56096E+01 -4.69749E+01 -4.80675E+01 -4.86063E+01
  -4.87067E+01 -4.78627E+01 -4.57607E+01 -4.27890E+01 -3.99249E+01 -3.80335E+01 -3.72021E+01 -3.74428E+01 -3.89025E+01 -4.10597E+01
  -4.33031E+01 -4.47204E+01 -4.46467E+01 -4.33025E+01 -4.10566E+01 -3.84124E+01 -3.59204E+01 -3.41191E+01 -3.33243E+01 -3.30103E+01
  -3.27299E+01 -3.23147E+01 -3.15739E+01 -3.05231E+01 -2.92815E+01 -2.82950E+01 -2.76996E+01 -2.73860E+01 -2.75219E+01 -2.82575E+01
  -2.91400E+01 -2.96944E+01 -2.96384E+01 -2.88181E+01 -2.73010E+01 -2.54034E+01 -2.37298E+01 -2.23760E+01 -2.10448E+01 -2.00045E+01
  -1.90676E+01 -1.63138E+01 -7.87693E+00  1.08124E+00  5.58917E+00  9.24174E+00  1.70326E+01  3.05714E+01  4.62673E+01  5.78270E+01
   6.07012E+01  5.36264E+01  3.92804E+01  2.35888E+01  1.06044E+01  1.09395E+00 -5.36490E+00 -9.57057E+00 -1.37800E+01 -1.92332E+01
  -2.26313E+01 -2.35515E+01 -2.38123E+01 -2.38973E+01 -2.38978E+01 -2.38836E+01 -2.39566E+01 -2.40853E+01 -2.42261E+01 -2.43503E+01
  -2.44351E+01 -2.44646E+01 -2.44563E+01 -2.44278E+01 -2.43757E+01 -2.43016E+01 -2.42147E+01 -2.41179E+01 -2.40034E+01 -2.38543E+01
  -2.36636E+01 -2.34434E+01 -2.31926E+01 -2.29063E+01 -2.25837E+01 -2.22223E+01 -2.18128E+01 -2.13441E+01 -2.08052E+01 -2.01865E+01
  -1.94820E+01 -1.86920E+01 -1.78186E+01 -1.68667E+01 -1.58446E+01 -1.47640E+01 -1.36397E+01 -1.24889E+01 -1.13326E+01 -1.01962E+01
  -9.10390E+00 -8.07920E+00 -7.14446E+00 -6.31737E+00 -5.60982E+00 -5.02712E+00 -4.56606E+00 -4.21118E+00 -3.92270E+00 -3.67713E+00
  -3.65700E+00 -3.81796E+00 -3.94296E+00 -3.96517E+00 -3.98847E+00 -4.21225E+00 -4.74246E+00 -5.36331E+00 -5.95611E+00 -6.52859E+00
  -6.93043E+00 -7.01612E+00 -6.70480E+00 -6.02719E+00 -5.16341E+00 -4.36500E+00 -3.78415E+00 -3.41626E+00 -3.25160E+00 -3.20770E+00
  -3.18936E+00 -3.15362E+00 -3.06981E+00 -2.96840E+00 -2.92445E+00 -2.86413E+00 -2.71870E+00 -2.51122E+00 -2.25382E+00 -1.95404E+00
  -1.62187E+00 -1.27159E+00 -9.21780E-01 -5.93725E-01 -3.09178E-01 -8.73503E-02  5.76853E-02  1.19326E-01  9.91468E-02  6.32735E-03
  -1.44721E-01 -3.37146E-01 -5.54650E-01 -7.83209E-01 -1.01237E+00 -1.23545E+00 -1.44922E+00 -1.65278E+00 -1.84650E+00 -2.03072E+00
  -2.20517E+00 -2.36856E+00 -2.51896E+00 -2.65370E+00 -2.76980E+00 -2.86375E+00 -2.93198E+00 -2.97089E+00 -2.97728E+00 -2.94817E+00
  -2.88090E+00 -2.77290E+00 -2.62191E+00 -2.42611E+00 -2.18433E+00 -1.89600E+00 -1.56129E+00 -1.18101E+00 -7.57165E-01 -2.92973E-01
   2.06765E-01  7.35877E-01  1.28671E+00  1.85032E+00  2.41625E+00  2.97289E+00  3.50770E+00  4.00789E+00  4.46085E+00  4.85475E+00
   5.17880E+00  5.42395E+00  5.58327E+00  5.65264E+00  5.63076E+00  5.51933E+00  5.32269E+00  5.04780E+00  4.70372E+00  4.30134E+00
   3.85272E+00  3.37059E+00  2.86754E+00  2.35582E+00  1.84672E+00  1.35048E+00  8.75719E-01  4.29368E-01  1.64678E-02 -3.59472E-01
  -6.96446E-01 -9.93643E-01 -1.25153E+00 -1.47151E+00 -1.65581E+00 -1.80695E+00 -1.92773E+00 -2.02100E+00 -2.08976E+00 -2.13697E+00
  -2.16546E+00 -2.17770E+00 -2.17595E+00 -2.16217E+00 -2.13833E+00 -2.10611E+00 -2.06703E+00 -2.02225E+00 -1.97282E+00 -1.91964E+00
  -1.86369E+00 -1.80575E+00 -1.74651E+00 -1.68642E+00 -1.62597E+00 -1.56562E+00 -1.50594E+00 -1.44730E+00 -1.39006E+00 -1.33439E+00
  -1.28062E+00 -1.22905E+00 -1.18008E+00 -1.13384E+00 -1.09028E+00 -1.04922E+00 -1.01068E+00 -9.74650E-01 -9.41156E-01 -9.10044E-01
  -8.81180E-01 -8.54394E-01 -8.29691E-01 -8.07021E-01 -7.86342E-01 -7.67439E-01 -7.50174E-01 -7.34400E-01 -7.20131E-01 -7.07280E-01
  -6.95749E-01 -6.85288E-01 -6.75771E-01 -6.67082E-01 -6.59231E-01 -6.52085E-01 -6.45501E-01 -6.39233E-01 -6.33188E-01 -6.27274E-01
  -6.21478E-01 -6.15617E-01 -6.09517E-01 -6.02949E-01 -5.95856E-01 -5.88151E-01 -5.79780E-01 -5.70514E-01 -5.60171E-01 -5.48551E-01
  -5.35622E-01 -5.21278E-01 -5.05410E-01 -4.87747E-01 -4.68109E-01 -4.46322E-01 -4.22349E-01 -3.96028E-01
 NY background values follow
    -2.878E+02   -2.850E+02   -2.823E+02   -2.796E+02   -2.769E+02   -2.742E+02   -2.715E+02   -2.688E+02   -2.661E+02   -2.634E+02
    -2.607E+02   -2.580E+02   -2.554E+02   -2.527E+02   -2.501E+02   -2.475E+02   -2.448E+02   -2.422E+02   -2.396E+02   -2.371E+02
    -2.345E+02   -2.320E+02   -2.294E+02   -2.269E+02   -2.244E+02   -2.219E+02   -2.195E+02   -2.170E+02   -2.146E+02   -2.122E+02
    -2.098E+02   -2.074E+02   -2.051E+02   -2.028E+02   -2.005E+02   -1.982E+02   -1.959E+02   -1.937E+02   -1.915E+02   -1.893E+02
    -1.872E+02   -1.850E+02   -1.829E+02   -1.809E+02   -1.788E+02   -1.768E+02   -1.748E+02   -1.729E+02   -1.710E+02   -1.691E+02
    -1.672E+02   -1.654E+02   -1.635E+02   -1.618E+02   -1.600E+02   -1.583E+02   -1.566E+02   -1.549E+02   -1.532E+02   -1.516E+02
    -1.500E+02   -1.484E+02   -1.469E+02   -1.454E+02   -1.438E+02   -1.424E+02   -1.409E+02   -1.395E+02   -1.380E+02   -1.367E+02
    -1.353E+02   -1.339E+02   -1.326E+02   -1.313E+02   -1.300E+02   -1.287E+02   -1.275E+02   -1.262E+02   -1.250E+02   -1.238E+02
    -1.226E+02   -1.215E+02   -1.203E+02   -1.192E+02   -1.181E+02   -1.170E+02   -1.159E+02   -1.148E+02   -1.138E+02   -1.127E+02
    -1.117E+02   -1.107E+02   -1.097E+02   -1.087E+02   -1.077E+02   -1.068E+02   -1.058E+02   -1.049E+02   -1.040E+02   -1.031E+02
    -1.022E+02   -1.013E+02   -1.004E+02   -9.957E+01   -9.873E+01   -9.790E+01   -9.708E+01   -9.627E+01   -9.548E+01   -9.470E+01
    -9.392E+01   -9.317E+01   -9.242E+01   -9.168E+01   -9.096E+01   -9.025E+01   -8.955E+01   -8.886E+01   -8.818E+01   -8.752E+01
    -8.686E+01   -8.622E+01   -8.559E+01   -8.496E+01   -8.435E+01   -8.375E+01   -8.317E+01   -8.259E+01   -8.202E+01   -8.146E+01
    -8.092E+01   -8.038E+01   -7.985E+01   -7.934E+01   -7.883E+01   -7.834E+01   -7.785E+01   -7.737E+01   -7.691E+01   -7.645E+01
    -7.600E+01   -7.556E+01   -7.513E+01   -7.470E+01   -7.429E+01   -7.388E+01   -7.347E+01   -7.307E+01   -7.268E+01   -7.230E+01
    -7.191E+01   -7.154E+01   -7.117E+01   -7.080E+01   -7.043E+01   -7.007E+01   -6.971E+01   -6.936E+01   -6.900E+01   -6.865E+01
    -6.830E+01   -6.795E+01   -6.760E+01   -6.726E+01   -6.691E+01   -6.656E+01   -6.621E+01   -6.586E+01   -6.551E+01   -6.516E+01
    -6.480E+01   -6.444E+01   -6.408E+01   -6.372E+01   -6.335E+01   -6.298E+01   -6.261E+01   -6.223E+01   -6.184E+01   -6.145E+01
    -6.105E+01   -6.065E+01   -6.024E+01   -5.983E+01   -5.941E+01   -5.899E+01   -5.855E+01   -5.812E+01   -5.768E+01   -5.724E+01
    -5.679E+01   -5.634E+01   -5.589E+01   -5.543E+01   -5.497E+01   -5.451E+01   -5.405E+01   -5.358E+01   -5.312E+01   -5.265E+01
    -5.218E+01   -5.172E+01   -5.125E+01   -5.078E+01   -5.032E+01   -4.985E+01   -4.939E+01   -4.893E+01   -4.847E+01   -4.801E+01
    -4.755E+01   -4.710E+01   -4.665E+01   -4.620E+01   -4.576E+01   -4.532E+01   -4.489E+01   -4.446E+01   -4.404E+01   -4.362E+01
    -4.321E+01   -4.280E+01   -4.240E+01   -4.201E+01   -4.162E+01   -4.124E+01   -4.087E+01   -4.051E+01   -4.015E+01   -3.980E+01
    -3.946E+01   -3.913E+01   -3.880E+01   -3.848E+01   -3.817E+01   -3.786E+01   -3.756E+01   -3.727E+01   -3.698E+01   -3.669E+01
    -3.642E+01   -3.615E+01   -3.588E+01   -3.562E+01   -3.536E+01   -3.511E+01   -3.486E+01   -3.462E+01   -3.438E+01   -3.414E+01
    -3.391E+01   -3.369E+01   -3.346E+01   -3.324E+01   -3.303E+01   -3.281E+01   -3.260E+01   -3.239E+01   -3.218E+01   -3.198E+01
    -3.178E+01   -3.158E+01   -3.138E+01   -3.118E+01   -3.099E+01   -3.079E+01   -3.060E+01   -3.041E+01   -3.021E+01   -3.002E+01
    -2.983E+01   -2.964E+01   -2.945E+01   -2.926E+01   -2.907E+01   -2.888E+01   -2.869E+01   -2.849E+01   -2.830E+01   -2.811E+01
    -2.792E+01   -2.772E+01   -2.753E+01   -2.734E+01   -2.714E+01   -2.695E+01   -2.675E+01   -2.655E+01   -2.635E+01   -2.616E+01
    -2.596E+01   -2.576E+01   -2.556E+01   -2.535E+01   -2.515E+01   -2.495E+01   -2.474E+01   -2.453E+01   -2.433E+01   -2.412E+01
    -2.391E+01   -2.369E+01   -2.348E+01   -2.327E+01   -2.305E+01   -2.283E+01   -2.261E+01   -2.239E+01   -2.217E+01   -2.194E+01
    -2.172E+01   -2.149E+01   -2.126E+01   -2.103E+01   -2.079E+01   -2.056E+01   -2.032E+01   -2.008E+01   -1.983E+01   -1.959E+01
    -1.934E+01   -1.910E+01   -1.885E+01   -1.860E+01   -1.835E+01   -1.810E+01   -1.784E+01   -1.759E+01   -1.734E+01   -1.708E+01
    -1.683E+01   -1.658E+01   -1.633E+01   -1.607E+01   -1.582E+01   -1.557E+01   -1.532E+01   -1.508E+01   -1.483E+01   -1.458E+01
    -1.434E+01   -1.410E+01   -1.386E+01   -1.362E+01   -1.339E+01   -1.316E+01   -1.293E+01   -1.270E+01   -1.248E+01   -1.226E+01
    -1.204E+01   -1.183E+01   -1.162E+01   -1.141E+01   -1.121E+01   -1.102E+01   -1.083E+01   -1.064E+01   -1.046E+01   -1.028E+01
    -1.011E+01   -9.938E+00   -9.776E+00   -9.620E+00   -9.469E+00   -9.323E+00   -9.182E+00   -9.046E+00   -8.915E+00   -8.788E+00
    -8.665E+00   -8.546E+00   -8.431E+00   -8.319E+00   -8.212E+00   -8.107E+00   -8.006E+00   -7.907E+00   -7.812E+00   -7.719E+00
    -7.628E+00   -7.540E+00   -7.454E+00   -7.369E+00   -7.287E+00   -7.205E+00   -7.126E+00   -7.047E+00   -6.970E+00   -6.893E+00
    -6.817E+00   -6.741E+00   -6.666E+00   -6.591E+00   -6.515E+00   -6.440E+00   -6.364E+00   -6.287E+00   -6.210E+00   -6.131E+00
    -6.052E+00   -5.971E+00   -5.889E+00   -5.805E+00   -5.719E+00   -5.631E+00   -5.541E+00   -5.449E+00   -5.354E+00   -5.257E+00
    -5.157E+00   -5.056E+00   -4.953E+00   -4.848E+00   -4.741E+00   -4.633E+00   -4.524E+00   -4.413E+00   -4.302E+00   -4.189E+00
    -4.076E+00   -3.962E+00   -3.848E+00   -3.733E+00   -3.618E+00   -3.503E+00   -3.388E+00   -3.273E+00   -3.159E+00   -3.045E+00
    -2.932E+00   -2.820E+00   -2.708E+00   -2.598E+00   -2.489E+00   -2.381E+00   -2.274E+00   -2.169E+00   -2.066E+00   -1.965E+00
    -1.866E+00   -1.769E+00   -1.675E+00   -1.583E+00   -1.493E+00   -1.406E+00   -1.322E+00   -1.241E+00   -1.164E+00   -1.089E+00
    -1.018E+00   -9.508E-01   -8.870E-01   -8.271E-01   -7.708E-01   -7.180E-01   -6.686E-01   -6.226E-01   -5.796E-01   -5.397E-01
    -5.026E-01   -4.683E-01   -4.366E-01   -4.074E-01   -3.805E-01   -3.558E-01   -3.332E-01   -3.126E-01   -2.938E-01   -2.767E-01
    -2.611E-01   -2.469E-01   -2.341E-01   -2.224E-01   -2.117E-01   -2.019E-01   -1.929E-01   -1.845E-01   -1.767E-01   -1.691E-01
    -1.619E-01   -1.547E-01   -1.475E-01   -1.402E-01   -1.325E-01   -1.245E-01   -1.159E-01   -1.066E-01   -9.646E-02   -8.541E-02
    -7.328E-02   -5.995E-02   -4.528E-02   -2.914E-02   -1.140E-02    8.069E-03    2.940E-02    5.273E-02
 Ala      Conc. = 1.62E+02
