 LCModel (Version 6.3-1L) Copyright: S.W. Provencher.          Ref.: Magn. Reson. Med. 30:672-679 (1993).                
 Slice#3 Row#6 Col#6  PD_24_press_2_raw_act
 36 lines in following concentration table = NCONC+1
    Conc.  %SD /Cr+PCr  Metabolite                                         
    0.000 999%   0.000 Ala                                                 
  129.777 274% 7.7E-02 Asp                                                 
   24.629 999% 1.5E-02 Cr                                                  
 1.67E+03  24%   0.985 PCr                                                 
  155.453 139% 9.2E-02 GABA                                                
  252.734  89%   0.150 Glc                                                 
  895.064  48%   0.530 Gln                                                 
 1.68E+03  29%   0.993 Glu                                                 
  802.966   6%   0.475 GPC                                                 
    0.000 999%   0.000 PCh                                                 
  965.781  17%   0.572 GSH                                                 
 2.77E+03  20%   1.641 Ins                                                 
    0.000 999%   0.000 Lac                                                 
 3.07E+03   5%   1.814 NAA                                                 
    0.000 999%   0.000 NAAG                                                
  200.479  27%   0.119 Scyllo                                              
  509.774  68%   0.302 Tau                                                 
  242.247  99%   0.143 -CrCH2                                              
  802.966   6%   0.475 GPC+PCh                                             
 3.07E+03   5%   1.814 NAA+NAAG                                            
 1.69E+03   8%   1.000 Cr+PCr                                              
 2.57E+03  25%   1.523 Glu+Gln                                             
 3.38E+03  31%   1.998 Lip13a                                              
    0.000 999%   0.000 Lip13b                                              
  647.541  83%   0.383 Lip09                                               
  884.093  59%   0.523 MM09                                                
  419.897  88%   0.248 Lip20                                               
 1.28E+03  64%   0.758 MM20                                                
  314.243  93%   0.186 MM12                                                
 1.41E+03  48%   0.832 MM14                                                
 2.15E+03  18%   1.270 MM17                                                
 3.38E+03  31%   1.998 Lip13a+Lip13b                                       
 5.10E+03  22%   3.015 MM14+Lip13a+Lip13b+MM12                             
 1.53E+03  34%   0.906 MM09+Lip09                                          
 1.70E+03  48%   1.006 MM20+Lip20                                          
   6 lines in following misc. output table
  FWHM = 0.038 ppm    S/N =   7                                            
  Data shift = 0.015 ppm                                                   
  Ph: -51 deg      -6.8 deg/ppm                                            
  alphaB,S = 7.4E-01,   2.6E+01                                            
   14 spline knots.   Ns = 5(1)                                            
  ( 9) 2 infls.   ( 5) 1 extrs.                                            
  498 points on ppm-axis = NY
      4.000000     3.992357     3.984714     3.977070     3.969427     3.961784     3.954141     3.946497     3.938854     3.931211
      3.923568     3.915925     3.908281     3.900638     3.892995     3.885352     3.877708     3.870065     3.862422     3.854779
      3.847136     3.839492     3.831849     3.824206     3.816563     3.808919     3.801276     3.793633     3.785990     3.778347
      3.770703     3.763060     3.755417     3.747774     3.740130     3.732487     3.724844     3.717201     3.709558     3.701914
      3.694271     3.686628     3.678985     3.671341     3.663698     3.656055     3.648412     3.640769     3.633125     3.625482
      3.617839     3.610196     3.602552     3.594909     3.587266     3.579623     3.571980     3.564336     3.556693     3.549050
      3.541407     3.533763     3.526120     3.518477     3.510834     3.503191     3.495547     3.487904     3.480261     3.472618
      3.464974     3.457331     3.449688     3.442045     3.434402     3.426758     3.419115     3.411472     3.403829     3.396185
      3.388542     3.380899     3.373256     3.365613     3.357969     3.350326     3.342683     3.335040     3.327396     3.319753
      3.312110     3.304467     3.296824     3.289180     3.281537     3.273894     3.266251     3.258607     3.250964     3.243321
      3.235678     3.228034     3.220391     3.212748     3.205105     3.197462     3.189818     3.182175     3.174532     3.166889
      3.159245     3.151602     3.143959     3.136316     3.128673     3.121029     3.113386     3.105743     3.098100     3.090456
      3.082813     3.075170     3.067527     3.059884     3.052240     3.044597     3.036954     3.029311     3.021667     3.014024
      3.006381     2.998738     2.991095     2.983451     2.975808     2.968165     2.960522     2.952878     2.945235     2.937592
      2.929949     2.922306     2.914662     2.907019     2.899376     2.891733     2.884089     2.876446     2.868803     2.861160
      2.853517     2.845873     2.838230     2.830587     2.822944     2.815300     2.807657     2.800014     2.792371     2.784728
      2.777084     2.769441     2.761798     2.754155     2.746511     2.738868     2.731225     2.723582     2.715939     2.708295
      2.700652     2.693009     2.685366     2.677722     2.670079     2.662436     2.654793     2.647150     2.639506     2.631863
      2.624220     2.616577     2.608933     2.601290     2.593647     2.586004     2.578361     2.570717     2.563074     2.555431
      2.547788     2.540144     2.532501     2.524858     2.517215     2.509572     2.501928     2.494285     2.486642     2.478999
      2.471355     2.463712     2.456069     2.448426     2.440783     2.433139     2.425496     2.417853     2.410210     2.402566
      2.394923     2.387280     2.379637     2.371994     2.364350     2.356707     2.349064     2.341421     2.333777     2.326134
      2.318491     2.310848     2.303205     2.295561     2.287918     2.280275     2.272632     2.264988     2.257345     2.249702
      2.242059     2.234416     2.226772     2.219129     2.211486     2.203843     2.196199     2.188556     2.180913     2.173270
      2.165627     2.157983     2.150340     2.142697     2.135054     2.127410     2.119767     2.112124     2.104481     2.096838
      2.089194     2.081551     2.073908     2.066265     2.058621     2.050978     2.043335     2.035692     2.028049     2.020405
      2.012762     2.005119     1.997476     1.989833     1.982190     1.974546     1.966903     1.959260     1.951617     1.943974
      1.936331     1.928688     1.921045     1.913402     1.905759     1.898115     1.890472     1.882829     1.875186     1.867543
      1.859900     1.852257     1.844614     1.836971     1.829327     1.821684     1.814041     1.806398     1.798755     1.791112
      1.783469     1.775826     1.768183     1.760540     1.752896     1.745253     1.737610     1.729967     1.722324     1.714681
      1.707038     1.699395     1.691752     1.684108     1.676465     1.668822     1.661179     1.653536     1.645893     1.638250
      1.630607     1.622964     1.615321     1.607677     1.600034     1.592391     1.584748     1.577105     1.569462     1.561819
      1.554176     1.546533     1.538890     1.531246     1.523603     1.515960     1.508317     1.500674     1.493031     1.485388
      1.477745     1.470102     1.462458     1.454815     1.447172     1.439529     1.431886     1.424243     1.416600     1.408957
      1.401314     1.393671     1.386027     1.378384     1.370741     1.363098     1.355455     1.347812     1.340169     1.332526
      1.324883     1.317240     1.309596     1.301953     1.294310     1.286667     1.279024     1.271381     1.263738     1.256095
      1.248452     1.240808     1.233165     1.225522     1.217879     1.210236     1.202593     1.194950     1.187307     1.179664
      1.172021     1.164377     1.156734     1.149091     1.141448     1.133805     1.126162     1.118519     1.110876     1.103233
      1.095590     1.087946     1.080303     1.072660     1.065017     1.057374     1.049731     1.042088     1.034445     1.026802
      1.019158     1.011515     1.003872     0.996229     0.988586     0.980943     0.973300     0.965657     0.958014     0.950371
      0.942727     0.935084     0.927441     0.919798     0.912155     0.904512     0.896869     0.889226     0.881583     0.873940
      0.866296     0.858653     0.851010     0.843367     0.835724     0.828081     0.820438     0.812795     0.805152     0.797508
      0.789865     0.782222     0.774579     0.766936     0.759293     0.751650     0.744007     0.736364     0.728721     0.721077
      0.713434     0.705791     0.698148     0.690505     0.682862     0.675219     0.667576     0.659933     0.652290     0.644646
      0.637003     0.629360     0.621717     0.614074     0.606431     0.598788     0.591145     0.583502     0.575858     0.568215
      0.560572     0.552929     0.545286     0.537643     0.530000     0.522357     0.514714     0.507071     0.499427     0.491784
      0.484141     0.476498     0.468855     0.461212     0.453569     0.445925     0.438282     0.430639     0.422996     0.415353
      0.407710     0.400067     0.392424     0.384780     0.377137     0.369494     0.361851     0.354208     0.346565     0.338922
      0.331278     0.323635     0.315992     0.308349     0.300706     0.293063     0.285420     0.277777     0.270133     0.262490
      0.254847     0.247204     0.239561     0.231918     0.224275     0.216631     0.208988     0.201345
 NY phased data points follow
  -3.69109E+02 -3.61388E+02 -3.47203E+02 -3.45591E+02 -3.34618E+02 -3.10109E+02 -2.96713E+02 -2.94805E+02 -2.70842E+02 -2.68598E+02
  -2.49529E+02 -2.72946E+02 -2.65440E+02 -2.78837E+02 -2.78334E+02 -2.90747E+02 -3.00242E+02 -2.82256E+02 -2.88122E+02 -2.75955E+02
  -2.74566E+02 -2.80775E+02 -2.57642E+02 -2.61948E+02 -2.55933E+02 -2.70611E+02 -2.45250E+02 -2.57991E+02 -2.29198E+02 -2.35156E+02
  -2.31701E+02 -2.24370E+02 -2.22162E+02 -2.37188E+02 -2.21632E+02 -2.39163E+02 -2.23593E+02 -2.17799E+02 -2.18522E+02 -2.35197E+02
  -2.24851E+02 -2.16767E+02 -2.22420E+02 -2.18590E+02 -2.10702E+02 -2.05570E+02 -1.92414E+02 -1.88025E+02 -1.97924E+02 -1.87752E+02
  -1.88774E+02 -2.02175E+02 -2.07797E+02 -2.00019E+02 -1.96476E+02 -2.00917E+02 -1.85796E+02 -1.83444E+02 -1.81757E+02 -1.90957E+02
  -1.89812E+02 -1.97490E+02 -1.95161E+02 -1.92723E+02 -1.88586E+02 -1.82219E+02 -1.72909E+02 -1.90950E+02 -1.89416E+02 -1.75956E+02
  -1.75878E+02 -1.67808E+02 -1.59877E+02 -1.79734E+02 -1.57023E+02 -1.68026E+02 -1.78487E+02 -1.76321E+02 -1.74066E+02 -1.58238E+02
  -1.57853E+02 -1.62232E+02 -1.49452E+02 -1.49256E+02 -1.34383E+02 -1.62429E+02 -1.54502E+02 -1.48769E+02 -1.32620E+02 -1.51373E+02
  -1.47484E+02 -1.34090E+02 -1.43895E+02 -1.50639E+02 -1.36729E+02 -1.52096E+02 -1.39354E+02 -1.51497E+02 -1.32482E+02 -1.16799E+02
  -9.34160E+01 -7.71286E+01 -5.32768E+01 -4.33369E+01 -5.89412E+01 -8.53572E+01 -9.71340E+01 -1.08299E+02 -1.06448E+02 -1.34909E+02
  -1.28929E+02 -1.28973E+02 -1.31287E+02 -1.25611E+02 -1.28437E+02 -1.21061E+02 -1.20492E+02 -1.34526E+02 -1.14429E+02 -1.40531E+02
  -1.29767E+02 -1.37339E+02 -1.18383E+02 -1.19726E+02 -1.05222E+02 -7.35381E+01 -5.17015E+01 -4.04737E+01 -5.71134E+01 -7.49322E+01
  -7.18585E+01 -9.78123E+01 -1.03315E+02 -1.06370E+02 -1.08126E+02 -1.08058E+02 -1.10407E+02 -1.19997E+02 -1.16575E+02 -1.18584E+02
  -1.15955E+02 -1.09152E+02 -1.16089E+02 -1.12355E+02 -1.10327E+02 -1.17957E+02 -9.86759E+01 -1.20596E+02 -1.12530E+02 -1.20777E+02
  -1.03342E+02 -1.09016E+02 -9.89139E+01 -1.04012E+02 -1.13810E+02 -1.04946E+02 -1.03413E+02 -1.05227E+02 -1.13443E+02 -1.00287E+02
  -9.86604E+01 -1.01840E+02 -1.01850E+02 -1.06973E+02 -1.04217E+02 -9.88938E+01 -8.48324E+01 -9.59585E+01 -9.04274E+01 -1.09601E+02
  -1.00325E+02 -9.46700E+01 -1.03219E+02 -1.08360E+02 -9.92429E+01 -1.04655E+02 -1.11856E+02 -1.07393E+02 -1.16779E+02 -8.85391E+01
  -1.03070E+02 -1.10237E+02 -9.91526E+01 -1.10940E+02 -9.36474E+01 -1.05842E+02 -9.37315E+01 -9.25349E+01 -8.41181E+01 -8.31259E+01
  -6.89205E+01 -6.54205E+01 -6.74459E+01 -7.83088E+01 -7.43164E+01 -7.18189E+01 -6.50317E+01 -8.23056E+01 -6.77591E+01 -8.25909E+01
  -7.15510E+01 -7.39756E+01 -6.09324E+01 -6.74721E+01 -6.19289E+01 -7.15924E+01 -5.40633E+01 -7.72103E+01 -9.28418E+01 -8.37094E+01
  -7.90452E+01 -8.61337E+01 -6.36905E+01 -7.30931E+01 -7.13209E+01 -4.78800E+01 -5.59884E+01 -6.05211E+01 -5.96657E+01 -6.06846E+01
  -6.31992E+01 -6.90850E+01 -6.96398E+01 -7.64135E+01 -6.24798E+01 -6.84130E+01 -5.44192E+01 -5.71276E+01 -5.10388E+01 -6.34587E+01
  -5.30544E+01 -5.97218E+01 -4.84376E+01 -6.13723E+01 -5.36138E+01 -6.94531E+01 -4.59537E+01 -4.64329E+01 -5.28038E+01 -5.92120E+01
  -6.82828E+01 -5.08676E+01 -6.67964E+01 -7.54608E+01 -6.86848E+01 -5.62716E+01 -5.17888E+01 -5.69736E+01 -4.47739E+01 -4.52305E+01
  -3.41741E+01 -3.94764E+01 -6.24475E+01 -4.89621E+01 -6.39815E+01 -5.32748E+01 -4.57149E+01 -1.35600E+01  1.87843E+01  5.80357E+01
   5.41786E+01  7.00604E+01  4.37528E+01  3.96259E+01  7.72752E+00 -1.03833E+01 -3.86999E+01 -4.00272E+01 -5.57815E+01 -5.40124E+01
  -4.34187E+01 -6.48616E+01 -5.82823E+01 -5.75674E+01 -5.44008E+01 -4.76517E+01 -5.68215E+01 -5.24131E+01 -4.40512E+01 -5.32919E+01
  -4.72341E+01 -4.54101E+01 -5.45469E+01 -6.18275E+01 -4.99913E+01 -5.37024E+01 -4.88026E+01 -6.20615E+01 -5.08434E+01 -5.29499E+01
  -6.30855E+01 -4.41405E+01 -5.37042E+01 -5.87878E+01 -5.81250E+01 -5.29075E+01 -6.20043E+01 -4.79016E+01 -4.96131E+01 -4.96533E+01
  -5.14499E+01 -3.00161E+01 -4.91569E+01 -4.64623E+01 -4.93779E+01 -4.59919E+01 -5.18346E+01 -3.60788E+01 -3.17664E+01 -3.98103E+01
  -3.06454E+01 -3.21545E+01 -1.86910E+01 -2.12679E+01 -1.73579E+01 -3.48960E+01 -1.15241E+01 -2.65651E+01 -1.43586E+01 -2.45744E+01
  -1.36036E+01 -2.32340E+01 -1.22935E+01 -1.34402E+01 -2.13538E+01 -1.94432E+01 -9.69209E+00 -2.38741E+01 -2.00397E+01 -2.54987E+01
  -1.63307E+01 -1.58201E+01 -1.96096E+01 -2.35314E+01 -2.43560E+01 -2.71271E+01 -1.20416E+01 -2.47494E+01 -4.39102E+01 -3.93892E+01
  -3.04556E+01 -4.73844E+01 -1.80233E+01 -2.78980E+01 -2.46327E+01 -7.79141E+00 -1.58289E+01 -1.95929E+01 -1.28159E+01 -1.56521E+01
  -7.56395E+00 -9.90635E+00 -1.36705E+01 -1.11200E+01 -1.44084E+01 -1.88219E+01 -6.82931E+00 -1.66806E+01 -2.44274E+01 -1.75878E+01
  -1.23811E+01 -2.36596E+01 -2.19010E+01 -1.98977E+01 -3.47409E+01 -1.17158E+01 -1.84646E+01 -1.39529E+01 -2.04673E+01 -1.56612E+01
   3.51656E+00 -1.91241E+01 -1.30470E+01 -1.79079E+01 -8.33184E+00 -1.38175E+01 -2.13577E+01 -1.99212E+01 -1.37646E+01 -1.72497E+01
  -9.88783E+00 -3.95262E+01 -1.49184E+01 -1.13292E+01 -3.31457E+01 -2.60220E+01 -2.98968E+01 -3.05384E+01 -3.13222E+01 -8.27453E+00
   6.51876E+00 -1.80880E+01 -2.99025E+01 -1.58533E+01 -1.09880E+01 -1.82921E+01 -1.64038E+01 -9.44014E+00 -1.81161E+01 -1.89436E+01
  -1.52434E+01  4.62089E+00 -2.67144E+01 -2.47085E+01 -2.23154E+01 -1.05766E+01 -1.08045E+01 -3.62719E+00 -1.95682E+01 -2.36935E+01
  -1.87663E+01 -1.18035E+01 -1.21872E+01 -1.17889E+01 -1.42847E+01 -2.18276E+01 -2.57263E+00 -1.56406E+01 -1.23157E+01 -1.09989E+01
  -1.36935E+01 -1.08963E+01 -1.80580E+01 -1.96988E+01 -4.01305E+00 -1.77000E+01 -9.18397E+00 -2.02847E+01 -1.91673E+01 -1.73123E+01
  -1.17979E+01 -1.90737E+01 -3.23579E+00 -7.62269E+00 -1.26325E+01 -9.09418E+00 -2.67034E+01 -2.69761E+01 -1.29076E+01 -6.56822E+00
  -1.89025E+01 -3.35918E+01 -1.28641E+01 -2.47282E+01 -9.80287E+00 -1.87697E+01 -2.12291E+01 -1.89971E+01 -1.22405E+01 -1.28906E+01
  -6.44381E+00 -2.47886E+01 -2.02201E+01 -2.58062E+01 -2.74431E+01 -2.41354E+01 -2.44904E+01 -2.43116E+01 -1.68090E+01 -1.74519E+01
  -1.38495E+01 -2.38679E+01 -2.11866E+01 -3.55036E+01 -3.33886E+01 -1.25198E+01 -2.64218E+01 -9.22312E+00 -1.16813E+01 -1.85545E+01
  -1.37666E+01 -2.00780E+01 -2.01662E+01 -1.48591E+01 -1.93418E+01 -2.67208E+01 -8.99076E+00 -1.74358E+01 -2.80074E+01 -2.93730E+01
  -1.59710E+01 -1.59855E+01 -1.69190E+01 -1.47300E+01 -2.17443E+01 -1.53316E+01 -4.09858E+00 -1.26766E+01 -1.92085E+01 -2.56418E+01
  -1.85003E+01 -3.10894E+01 -1.32889E+01 -8.97476E+00 -2.07886E+01 -1.84422E+01 -1.47311E+01 -1.58449E+01
 NY points of the fit to the data follow
  -3.28130E+02 -3.26530E+02 -3.24172E+02 -3.20982E+02 -3.16967E+02 -3.09865E+02 -2.98157E+02 -2.84406E+02 -2.72312E+02 -2.65021E+02
  -2.63931E+02 -2.67470E+02 -2.72159E+02 -2.76563E+02 -2.80486E+02 -2.83444E+02 -2.84231E+02 -2.83008E+02 -2.81225E+02 -2.79063E+02
  -2.76841E+02 -2.74800E+02 -2.73042E+02 -2.71374E+02 -2.69737E+02 -2.67424E+02 -2.62066E+02 -2.53344E+02 -2.42865E+02 -2.33079E+02
  -2.26193E+02 -2.23497E+02 -2.23949E+02 -2.25970E+02 -2.28903E+02 -2.32386E+02 -2.35491E+02 -2.36873E+02 -2.36969E+02 -2.35920E+02
  -2.33764E+02 -2.30895E+02 -2.26886E+02 -2.20678E+02 -2.12170E+02 -2.03136E+02 -1.96211E+02 -1.93305E+02 -1.94478E+02 -1.97978E+02
  -2.01857E+02 -2.05302E+02 -2.07796E+02 -2.08703E+02 -2.07651E+02 -2.04848E+02 -2.00948E+02 -1.96390E+02 -1.91872E+02 -1.88341E+02
  -1.86537E+02 -1.86340E+02 -1.86995E+02 -1.87574E+02 -1.87596E+02 -1.86726E+02 -1.85004E+02 -1.82622E+02 -1.79738E+02 -1.76674E+02
  -1.73919E+02 -1.71506E+02 -1.69330E+02 -1.67447E+02 -1.65862E+02 -1.64803E+02 -1.64424E+02 -1.64645E+02 -1.64767E+02 -1.64348E+02
  -1.63431E+02 -1.62013E+02 -1.59480E+02 -1.55675E+02 -1.51927E+02 -1.49456E+02 -1.48860E+02 -1.49895E+02 -1.51443E+02 -1.52221E+02
  -1.52197E+02 -1.51842E+02 -1.51137E+02 -1.49979E+02 -1.48511E+02 -1.47118E+02 -1.45727E+02 -1.43831E+02 -1.37796E+02 -1.20909E+02
  -9.57992E+01 -7.03914E+01 -5.34599E+01 -5.00030E+01 -5.96749E+01 -7.50648E+01 -9.08449E+01 -1.06087E+02 -1.19628E+02 -1.28884E+02
  -1.31859E+02 -1.32191E+02 -1.31916E+02 -1.31446E+02 -1.30885E+02 -1.30253E+02 -1.29673E+02 -1.29170E+02 -1.28669E+02 -1.28073E+02
  -1.27234E+02 -1.25875E+02 -1.22880E+02 -1.13064E+02 -9.52335E+01 -7.46524E+01 -5.83192E+01 -5.12414E+01 -5.48771E+01 -6.48032E+01
  -7.54355E+01 -8.58438E+01 -9.64001E+01 -1.06153E+02 -1.12590E+02 -1.16233E+02 -1.18332E+02 -1.18646E+02 -1.17193E+02 -1.14523E+02
  -1.11394E+02 -1.08592E+02 -1.06712E+02 -1.05829E+02 -1.05633E+02 -1.05832E+02 -1.06145E+02 -1.06378E+02 -1.06444E+02 -1.06311E+02
  -1.06140E+02 -1.05966E+02 -1.05717E+02 -1.05316E+02 -1.04738E+02 -1.04007E+02 -1.03221E+02 -1.02769E+02 -1.02867E+02 -1.03284E+02
  -1.03569E+02 -1.03171E+02 -1.01979E+02 -1.00469E+02 -9.92423E+01 -9.85572E+01 -9.83543E+01 -9.83746E+01 -9.84661E+01 -9.85781E+01
  -9.86154E+01 -9.85828E+01 -9.86216E+01 -9.89941E+01 -9.93890E+01 -9.93143E+01 -9.85575E+01 -9.74660E+01 -9.65404E+01 -9.59951E+01
  -9.55534E+01 -9.49808E+01 -9.43604E+01 -9.41113E+01 -9.42952E+01 -9.40166E+01 -9.24976E+01 -8.95239E+01 -8.55640E+01 -8.15518E+01
  -7.84601E+01 -7.67552E+01 -7.65520E+01 -7.76048E+01 -7.96653E+01 -8.19125E+01 -8.34076E+01 -8.34761E+01 -8.19515E+01 -7.91412E+01
  -7.56262E+01 -7.19762E+01 -6.86600E+01 -6.63031E+01 -6.54952E+01 -6.66140E+01 -6.96124E+01 -7.35025E+01 -7.70625E+01 -7.95557E+01
  -8.05796E+01 -7.96102E+01 -7.64975E+01 -7.14888E+01 -6.57271E+01 -6.08870E+01 -5.84101E+01 -5.88616E+01 -6.16843E+01 -6.60252E+01
  -7.09923E+01 -7.49821E+01 -7.65429E+01 -7.51137E+01 -7.13466E+01 -6.69365E+01 -6.30826E+01 -6.04424E+01 -5.94062E+01 -5.98342E+01
  -6.10007E+01 -6.19157E+01 -6.19773E+01 -6.09051E+01 -5.88074E+01 -5.62551E+01 -5.39730E+01 -5.26717E+01 -5.30338E+01 -5.51581E+01
  -5.81206E+01 -6.08958E+01 -6.26367E+01 -6.28613E+01 -6.13606E+01 -5.88063E+01 -5.62902E+01 -5.43568E+01 -5.31036E+01 -5.24993E+01
  -5.24106E+01 -5.23688E+01 -5.19347E+01 -5.09493E+01 -4.95708E+01 -4.72179E+01 -3.79107E+01 -1.39242E+01  1.92957E+01  5.04488E+01
   6.85829E+01  6.82522E+01  5.17589E+01  2.94144E+01  7.03580E+00 -1.44695E+01 -3.33321E+01 -4.56058E+01 -4.99454E+01 -5.16237E+01
  -5.25311E+01 -5.28772E+01 -5.27715E+01 -5.24103E+01 -5.19264E+01 -5.14797E+01 -5.11800E+01 -5.10755E+01 -5.11449E+01 -5.13395E+01
  -5.15782E+01 -5.17616E+01 -5.18204E+01 -5.17454E+01 -5.15645E+01 -5.13166E+01 -5.10344E+01 -5.07446E+01 -5.04707E+01 -5.02082E+01
  -4.99524E+01 -4.97016E+01 -4.94411E+01 -4.91531E+01 -4.88298E+01 -4.84629E+01 -4.80427E+01 -4.75594E+01 -4.70058E+01 -4.63729E+01
  -4.56470E+01 -4.48178E+01 -4.38751E+01 -4.28117E+01 -4.16232E+01 -4.03091E+01 -3.88719E+01 -3.73206E+01 -3.56715E+01 -3.39482E+01
  -3.21807E+01 -3.04039E+01 -2.86575E+01 -2.69835E+01 -2.54243E+01 -2.40197E+01 -2.28041E+01 -2.18045E+01 -2.10388E+01 -2.05145E+01
  -2.02285E+01 -2.01672E+01 -2.03072E+01 -2.06168E+01 -2.10591E+01 -2.15940E+01 -2.21813E+01 -2.27820E+01 -2.33607E+01 -2.38872E+01
  -2.43373E+01 -2.46939E+01 -2.49459E+01 -2.50884E+01 -2.51211E+01 -2.50477E+01 -2.48750E+01 -2.46120E+01 -2.42686E+01 -2.38549E+01
  -2.33808E+01 -2.28560E+01 -2.22899E+01 -2.16917E+01 -2.10704E+01 -2.04345E+01 -1.97928E+01 -1.91543E+01 -1.85286E+01 -1.79256E+01
  -1.73552E+01 -1.68269E+01 -1.63501E+01 -1.59332E+01 -1.55842E+01 -1.53091E+01 -1.51124E+01 -1.49966E+01 -1.49619E+01 -1.50070E+01
  -1.51284E+01 -1.53207E+01 -1.55766E+01 -1.58874E+01 -1.62437E+01 -1.66353E+01 -1.70519E+01 -1.74830E+01 -1.79184E+01 -1.83488E+01
  -1.87655E+01 -1.91610E+01 -1.95290E+01 -1.98637E+01 -2.01607E+01 -2.04163E+01 -2.06280E+01 -2.07939E+01 -2.09128E+01 -2.09837E+01
  -2.10060E+01 -2.09795E+01 -2.09041E+01 -2.07802E+01 -2.06077E+01 -2.03868E+01 -2.01182E+01 -1.98026E+01 -1.94414E+01 -1.90366E+01
  -1.85907E+01 -1.81069E+01 -1.75898E+01 -1.70452E+01 -1.64799E+01 -1.59019E+01 -1.53201E+01 -1.47444E+01 -1.41855E+01 -1.36545E+01
  -1.31624E+01 -1.27195E+01 -1.23352E+01 -1.20177E+01 -1.17737E+01 -1.16077E+01 -1.15219E+01 -1.15162E+01 -1.15881E+01 -1.17332E+01
  -1.19451E+01 -1.22159E+01 -1.25363E+01 -1.28965E+01 -1.32861E+01 -1.36951E+01 -1.41142E+01 -1.45344E+01 -1.49480E+01 -1.53484E+01
  -1.57302E+01 -1.60894E+01 -1.64233E+01 -1.67300E+01 -1.70086E+01 -1.72591E+01 -1.74822E+01 -1.76793E+01 -1.78519E+01 -1.80017E+01
  -1.81306E+01 -1.82404E+01 -1.83334E+01 -1.84113E+01 -1.84759E+01 -1.85287E+01 -1.85712E+01 -1.86047E+01 -1.86305E+01 -1.86496E+01
  -1.86631E+01 -1.86714E+01 -1.86755E+01 -1.86759E+01 -1.86732E+01 -1.86680E+01 -1.86604E+01 -1.86509E+01 -1.86398E+01 -1.86273E+01
  -1.86138E+01 -1.85994E+01 -1.85842E+01 -1.85683E+01 -1.85519E+01 -1.85351E+01 -1.85180E+01 -1.85006E+01 -1.84830E+01 -1.84651E+01
  -1.84472E+01 -1.84292E+01 -1.84111E+01 -1.83929E+01 -1.83746E+01 -1.83562E+01 -1.83378E+01 -1.83193E+01 -1.83008E+01 -1.82822E+01
  -1.82634E+01 -1.82445E+01 -1.82255E+01 -1.82064E+01 -1.81870E+01 -1.81674E+01 -1.81475E+01 -1.81273E+01 -1.81069E+01 -1.80862E+01
  -1.80650E+01 -1.80434E+01 -1.80213E+01 -1.79988E+01 -1.79759E+01 -1.79523E+01 -1.79281E+01 -1.79032E+01 -1.78776E+01 -1.78513E+01
  -1.78243E+01 -1.77964E+01 -1.77676E+01 -1.77378E+01 -1.77070E+01 -1.76753E+01 -1.76425E+01 -1.76084E+01
 NY background values follow
    -3.343E+02   -3.318E+02   -3.293E+02   -3.268E+02   -3.244E+02   -3.219E+02   -3.194E+02   -3.169E+02   -3.144E+02   -3.119E+02
    -3.095E+02   -3.070E+02   -3.045E+02   -3.021E+02   -2.996E+02   -2.972E+02   -2.947E+02   -2.923E+02   -2.899E+02   -2.875E+02
    -2.850E+02   -2.827E+02   -2.803E+02   -2.779E+02   -2.755E+02   -2.732E+02   -2.708E+02   -2.685E+02   -2.662E+02   -2.639E+02
    -2.616E+02   -2.593E+02   -2.570E+02   -2.548E+02   -2.525E+02   -2.503E+02   -2.481E+02   -2.459E+02   -2.437E+02   -2.416E+02
    -2.394E+02   -2.373E+02   -2.352E+02   -2.331E+02   -2.311E+02   -2.290E+02   -2.270E+02   -2.250E+02   -2.230E+02   -2.211E+02
    -2.191E+02   -2.172E+02   -2.153E+02   -2.134E+02   -2.116E+02   -2.097E+02   -2.079E+02   -2.061E+02   -2.043E+02   -2.026E+02
    -2.008E+02   -1.991E+02   -1.974E+02   -1.957E+02   -1.941E+02   -1.924E+02   -1.908E+02   -1.892E+02   -1.876E+02   -1.860E+02
    -1.845E+02   -1.829E+02   -1.814E+02   -1.799E+02   -1.785E+02   -1.770E+02   -1.756E+02   -1.742E+02   -1.728E+02   -1.714E+02
    -1.700E+02   -1.687E+02   -1.674E+02   -1.661E+02   -1.648E+02   -1.635E+02   -1.623E+02   -1.610E+02   -1.598E+02   -1.586E+02
    -1.574E+02   -1.563E+02   -1.551E+02   -1.540E+02   -1.529E+02   -1.518E+02   -1.507E+02   -1.497E+02   -1.486E+02   -1.476E+02
    -1.466E+02   -1.456E+02   -1.446E+02   -1.437E+02   -1.427E+02   -1.418E+02   -1.408E+02   -1.399E+02   -1.390E+02   -1.381E+02
    -1.372E+02   -1.364E+02   -1.355E+02   -1.347E+02   -1.338E+02   -1.330E+02   -1.322E+02   -1.314E+02   -1.306E+02   -1.298E+02
    -1.290E+02   -1.283E+02   -1.275E+02   -1.268E+02   -1.260E+02   -1.253E+02   -1.245E+02   -1.238E+02   -1.231E+02   -1.224E+02
    -1.217E+02   -1.210E+02   -1.203E+02   -1.196E+02   -1.189E+02   -1.182E+02   -1.175E+02   -1.168E+02   -1.162E+02   -1.155E+02
    -1.148E+02   -1.142E+02   -1.135E+02   -1.128E+02   -1.122E+02   -1.115E+02   -1.109E+02   -1.102E+02   -1.096E+02   -1.090E+02
    -1.083E+02   -1.077E+02   -1.070E+02   -1.064E+02   -1.058E+02   -1.052E+02   -1.045E+02   -1.039E+02   -1.033E+02   -1.027E+02
    -1.021E+02   -1.015E+02   -1.008E+02   -1.002E+02   -9.963E+01   -9.903E+01   -9.843E+01   -9.783E+01   -9.723E+01   -9.663E+01
    -9.604E+01   -9.545E+01   -9.486E+01   -9.427E+01   -9.368E+01   -9.310E+01   -9.251E+01   -9.193E+01   -9.135E+01   -9.077E+01
    -9.019E+01   -8.961E+01   -8.903E+01   -8.846E+01   -8.789E+01   -8.731E+01   -8.675E+01   -8.618E+01   -8.561E+01   -8.505E+01
    -8.449E+01   -8.393E+01   -8.338E+01   -8.283E+01   -8.228E+01   -8.174E+01   -8.119E+01   -8.066E+01   -8.012E+01   -7.960E+01
    -7.907E+01   -7.855E+01   -7.804E+01   -7.753E+01   -7.702E+01   -7.652E+01   -7.603E+01   -7.554E+01   -7.505E+01   -7.458E+01
    -7.410E+01   -7.364E+01   -7.318E+01   -7.273E+01   -7.228E+01   -7.184E+01   -7.141E+01   -7.099E+01   -7.057E+01   -7.016E+01
    -6.976E+01   -6.936E+01   -6.898E+01   -6.860E+01   -6.823E+01   -6.787E+01   -6.752E+01   -6.718E+01   -6.684E+01   -6.652E+01
    -6.620E+01   -6.589E+01   -6.559E+01   -6.529E+01   -6.500E+01   -6.472E+01   -6.445E+01   -6.418E+01   -6.392E+01   -6.366E+01
    -6.341E+01   -6.317E+01   -6.292E+01   -6.269E+01   -6.246E+01   -6.223E+01   -6.201E+01   -6.179E+01   -6.157E+01   -6.136E+01
    -6.115E+01   -6.094E+01   -6.073E+01   -6.053E+01   -6.033E+01   -6.013E+01   -5.993E+01   -5.973E+01   -5.953E+01   -5.934E+01
    -5.914E+01   -5.894E+01   -5.875E+01   -5.855E+01   -5.835E+01   -5.815E+01   -5.795E+01   -5.775E+01   -5.755E+01   -5.734E+01
    -5.713E+01   -5.692E+01   -5.670E+01   -5.649E+01   -5.627E+01   -5.604E+01   -5.582E+01   -5.559E+01   -5.536E+01   -5.513E+01
    -5.489E+01   -5.465E+01   -5.441E+01   -5.417E+01   -5.392E+01   -5.367E+01   -5.342E+01   -5.317E+01   -5.291E+01   -5.265E+01
    -5.239E+01   -5.213E+01   -5.187E+01   -5.160E+01   -5.133E+01   -5.106E+01   -5.079E+01   -5.052E+01   -5.024E+01   -4.997E+01
    -4.969E+01   -4.941E+01   -4.913E+01   -4.884E+01   -4.856E+01   -4.827E+01   -4.798E+01   -4.769E+01   -4.740E+01   -4.711E+01
    -4.682E+01   -4.652E+01   -4.623E+01   -4.593E+01   -4.564E+01   -4.534E+01   -4.504E+01   -4.474E+01   -4.444E+01   -4.413E+01
    -4.383E+01   -4.353E+01   -4.323E+01   -4.292E+01   -4.262E+01   -4.231E+01   -4.201E+01   -4.170E+01   -4.140E+01   -4.109E+01
    -4.079E+01   -4.048E+01   -4.018E+01   -3.988E+01   -3.957E+01   -3.927E+01   -3.897E+01   -3.867E+01   -3.837E+01   -3.807E+01
    -3.777E+01   -3.747E+01   -3.717E+01   -3.688E+01   -3.658E+01   -3.629E+01   -3.600E+01   -3.571E+01   -3.542E+01   -3.513E+01
    -3.485E+01   -3.456E+01   -3.428E+01   -3.400E+01   -3.373E+01   -3.345E+01   -3.318E+01   -3.291E+01   -3.264E+01   -3.237E+01
    -3.211E+01   -3.185E+01   -3.159E+01   -3.134E+01   -3.109E+01   -3.084E+01   -3.059E+01   -3.035E+01   -3.011E+01   -2.987E+01
    -2.963E+01   -2.940E+01   -2.917E+01   -2.894E+01   -2.872E+01   -2.849E+01   -2.828E+01   -2.806E+01   -2.785E+01   -2.764E+01
    -2.743E+01   -2.722E+01   -2.702E+01   -2.682E+01   -2.662E+01   -2.643E+01   -2.624E+01   -2.605E+01   -2.586E+01   -2.568E+01
    -2.550E+01   -2.532E+01   -2.515E+01   -2.497E+01   -2.480E+01   -2.464E+01   -2.447E+01   -2.431E+01   -2.415E+01   -2.400E+01
    -2.384E+01   -2.369E+01   -2.355E+01   -2.340E+01   -2.326E+01   -2.312E+01   -2.298E+01   -2.285E+01   -2.272E+01   -2.259E+01
    -2.246E+01   -2.234E+01   -2.222E+01   -2.210E+01   -2.199E+01   -2.187E+01   -2.176E+01   -2.166E+01   -2.155E+01   -2.145E+01
    -2.135E+01   -2.125E+01   -2.115E+01   -2.106E+01   -2.097E+01   -2.088E+01   -2.079E+01   -2.070E+01   -2.062E+01   -2.054E+01
    -2.046E+01   -2.038E+01   -2.030E+01   -2.023E+01   -2.016E+01   -2.009E+01   -2.002E+01   -1.995E+01   -1.989E+01   -1.983E+01
    -1.976E+01   -1.970E+01   -1.965E+01   -1.959E+01   -1.953E+01   -1.948E+01   -1.943E+01   -1.938E+01   -1.933E+01   -1.928E+01
    -1.923E+01   -1.919E+01   -1.914E+01   -1.910E+01   -1.906E+01   -1.902E+01   -1.898E+01   -1.894E+01   -1.890E+01   -1.887E+01
    -1.883E+01   -1.879E+01   -1.876E+01   -1.873E+01   -1.869E+01   -1.866E+01   -1.863E+01   -1.860E+01   -1.857E+01   -1.854E+01
    -1.851E+01   -1.848E+01   -1.845E+01   -1.842E+01   -1.839E+01   -1.837E+01   -1.834E+01   -1.831E+01   -1.828E+01   -1.825E+01
    -1.823E+01   -1.820E+01   -1.817E+01   -1.814E+01   -1.811E+01   -1.808E+01   -1.805E+01   -1.802E+01   -1.799E+01   -1.796E+01
    -1.793E+01   -1.790E+01   -1.787E+01   -1.783E+01   -1.780E+01   -1.776E+01   -1.773E+01   -1.769E+01
 Asp      Conc. = 1.30E+02
