 LCModel (Version 6.3-1L) Copyright: S.W. Provencher.          Ref.: Magn. Reson. Med. 30:672-679 (1993).                
 Slice#1 Row#7 Col#5  PD_24_press_2_raw_act
 36 lines in following concentration table = NCONC+1
    Conc.  %SD /Cr+PCr  Metabolite                                         
    0.000 999%   0.000 Ala                                                 
   50.401 660% 2.6E-02 Asp                                                 
 1.83E+03  18%   0.961 Cr                                                  
   75.103 435% 3.9E-02 PCr                                                 
   17.645 999% 9.3E-03 GABA                                                
  125.362 169% 6.6E-02 Glc                                                 
 1.34E+03  33%   0.706 Gln                                                 
 1.42E+03  35%   0.748 Glu                                                 
  546.052   8%   0.287 GPC                                                 
    0.000 999%   0.000 PCh                                                 
  468.363  30%   0.246 GSH                                                 
 1.74E+03  27%   0.917 Ins                                                 
  320.412  79%   0.168 Lac                                                 
 2.91E+03   8%   1.529 NAA                                                 
  229.010 110%   0.120 NAAG                                                
   78.031  59% 4.1E-02 Scyllo                                              
  137.137 219% 7.2E-02 Tau                                                 
    0.000 999%   0.000 -CrCH2                                              
  546.052   8%   0.287 GPC+PCh                                             
 3.14E+03   5%   1.650 NAA+NAAG                                            
 1.90E+03   6%   1.000 Cr+PCr                                              
 2.77E+03  26%   1.454 Glu+Gln                                             
    0.000 999%   0.000 Lip13a                                              
 1.39E+03  59%   0.733 Lip13b                                              
  276.028 133%   0.145 Lip09                                               
 2.99E+03  15%   1.573 MM09                                                
  239.202 100%   0.126 Lip20                                               
 5.25E+03  13%   2.761 MM20                                                
  809.057  45%   0.425 MM12                                                
 3.86E+03  20%   2.030 MM14                                                
 1.31E+03  25%   0.689 MM17                                                
 1.39E+03  59%   0.733 Lip13a+Lip13b                                       
 6.07E+03  11%   3.189 MM14+Lip13a+Lip13b+MM12                             
 3.27E+03  11%   1.718 MM09+Lip09                                          
 5.49E+03  12%   2.887 MM20+Lip20                                          
   6 lines in following misc. output table
  FWHM = 0.038 ppm    S/N =   9                                            
  Data shift = 0.008 ppm                                                   
  Ph:  -6 deg       4.2 deg/ppm                                            
  alphaB,S = 1.9E+00,   4.6E+01                                            
   14 spline knots.   Ns = 7(1)                                            
  (12) 4 infls.   (13) 1 extrs.                                            
  498 points on ppm-axis = NY
      4.000000     3.992357     3.984714     3.977070     3.969427     3.961784     3.954141     3.946497     3.938854     3.931211
      3.923568     3.915925     3.908281     3.900638     3.892995     3.885352     3.877708     3.870065     3.862422     3.854779
      3.847136     3.839492     3.831849     3.824206     3.816563     3.808919     3.801276     3.793633     3.785990     3.778347
      3.770703     3.763060     3.755417     3.747774     3.740130     3.732487     3.724844     3.717201     3.709558     3.701914
      3.694271     3.686628     3.678985     3.671341     3.663698     3.656055     3.648412     3.640769     3.633125     3.625482
      3.617839     3.610196     3.602552     3.594909     3.587266     3.579623     3.571980     3.564336     3.556693     3.549050
      3.541407     3.533763     3.526120     3.518477     3.510834     3.503191     3.495547     3.487904     3.480261     3.472618
      3.464974     3.457331     3.449688     3.442045     3.434402     3.426758     3.419115     3.411472     3.403829     3.396185
      3.388542     3.380899     3.373256     3.365613     3.357969     3.350326     3.342683     3.335040     3.327396     3.319753
      3.312110     3.304467     3.296824     3.289180     3.281537     3.273894     3.266251     3.258607     3.250964     3.243321
      3.235678     3.228034     3.220391     3.212748     3.205105     3.197462     3.189818     3.182175     3.174532     3.166889
      3.159245     3.151602     3.143959     3.136316     3.128673     3.121029     3.113386     3.105743     3.098100     3.090456
      3.082813     3.075170     3.067527     3.059884     3.052240     3.044597     3.036954     3.029311     3.021667     3.014024
      3.006381     2.998738     2.991095     2.983451     2.975808     2.968165     2.960522     2.952878     2.945235     2.937592
      2.929949     2.922306     2.914662     2.907019     2.899376     2.891733     2.884089     2.876446     2.868803     2.861160
      2.853517     2.845873     2.838230     2.830587     2.822944     2.815300     2.807657     2.800014     2.792371     2.784728
      2.777084     2.769441     2.761798     2.754155     2.746511     2.738868     2.731225     2.723582     2.715939     2.708295
      2.700652     2.693009     2.685366     2.677722     2.670079     2.662436     2.654793     2.647150     2.639506     2.631863
      2.624220     2.616577     2.608933     2.601290     2.593647     2.586004     2.578361     2.570717     2.563074     2.555431
      2.547788     2.540144     2.532501     2.524858     2.517215     2.509572     2.501928     2.494285     2.486642     2.478999
      2.471355     2.463712     2.456069     2.448426     2.440783     2.433139     2.425496     2.417853     2.410210     2.402566
      2.394923     2.387280     2.379637     2.371994     2.364350     2.356707     2.349064     2.341421     2.333777     2.326134
      2.318491     2.310848     2.303205     2.295561     2.287918     2.280275     2.272632     2.264988     2.257345     2.249702
      2.242059     2.234416     2.226772     2.219129     2.211486     2.203843     2.196199     2.188556     2.180913     2.173270
      2.165627     2.157983     2.150340     2.142697     2.135054     2.127410     2.119767     2.112124     2.104481     2.096838
      2.089194     2.081551     2.073908     2.066265     2.058621     2.050978     2.043335     2.035692     2.028049     2.020405
      2.012762     2.005119     1.997476     1.989833     1.982190     1.974546     1.966903     1.959260     1.951617     1.943974
      1.936331     1.928688     1.921045     1.913402     1.905759     1.898115     1.890472     1.882829     1.875186     1.867543
      1.859900     1.852257     1.844614     1.836971     1.829327     1.821684     1.814041     1.806398     1.798755     1.791112
      1.783469     1.775826     1.768183     1.760540     1.752896     1.745253     1.737610     1.729967     1.722324     1.714681
      1.707038     1.699395     1.691752     1.684108     1.676465     1.668822     1.661179     1.653536     1.645893     1.638250
      1.630607     1.622964     1.615321     1.607677     1.600034     1.592391     1.584748     1.577105     1.569462     1.561819
      1.554176     1.546533     1.538890     1.531246     1.523603     1.515960     1.508317     1.500674     1.493031     1.485388
      1.477745     1.470102     1.462458     1.454815     1.447172     1.439529     1.431886     1.424243     1.416600     1.408957
      1.401314     1.393671     1.386027     1.378384     1.370741     1.363098     1.355455     1.347812     1.340169     1.332526
      1.324883     1.317240     1.309596     1.301953     1.294310     1.286667     1.279024     1.271381     1.263738     1.256095
      1.248452     1.240808     1.233165     1.225522     1.217879     1.210236     1.202593     1.194950     1.187307     1.179664
      1.172021     1.164377     1.156734     1.149091     1.141448     1.133805     1.126162     1.118519     1.110876     1.103233
      1.095590     1.087946     1.080303     1.072660     1.065017     1.057374     1.049731     1.042088     1.034445     1.026802
      1.019158     1.011515     1.003872     0.996229     0.988586     0.980943     0.973300     0.965657     0.958014     0.950371
      0.942727     0.935084     0.927441     0.919798     0.912155     0.904512     0.896869     0.889226     0.881583     0.873940
      0.866296     0.858653     0.851010     0.843367     0.835724     0.828081     0.820438     0.812795     0.805152     0.797508
      0.789865     0.782222     0.774579     0.766936     0.759293     0.751650     0.744007     0.736364     0.728721     0.721077
      0.713434     0.705791     0.698148     0.690505     0.682862     0.675219     0.667576     0.659933     0.652290     0.644646
      0.637003     0.629360     0.621717     0.614074     0.606431     0.598788     0.591145     0.583502     0.575858     0.568215
      0.560572     0.552929     0.545286     0.537643     0.530000     0.522357     0.514714     0.507071     0.499427     0.491784
      0.484141     0.476498     0.468855     0.461212     0.453569     0.445925     0.438282     0.430639     0.422996     0.415353
      0.407710     0.400067     0.392424     0.384780     0.377137     0.369494     0.361851     0.354208     0.346565     0.338922
      0.331278     0.323635     0.315992     0.308349     0.300706     0.293063     0.285420     0.277777     0.270133     0.262490
      0.254847     0.247204     0.239561     0.231918     0.224275     0.216631     0.208988     0.201345
 NY phased data points follow
   8.06634E+00  2.36752E+01  1.36687E+01  1.84495E+01  5.73683E+00  2.50686E+01  2.50960E+01  3.71878E+01  3.56423E+01  4.40170E+01
   4.11137E+01  6.19587E+01  6.39664E+01  6.17827E+01  4.66316E+01  5.23673E+01  3.52954E+01  3.84891E+01  3.21416E+01  3.34748E+01
   2.59203E+01  3.10926E+01  1.01505E+01  3.41450E+01  1.60231E+01  2.10931E+01  1.05153E+01  2.28411E+01  1.88885E+01  3.41911E+01
   2.50162E+01  3.90962E+01  1.90960E+01  3.12324E+01  1.51551E+01  2.22424E+01  1.59494E+01  2.26851E+01  7.46144E+00  2.56057E+01
   1.62520E+01  3.08720E+01  2.13031E+01  2.58670E+01  1.39515E+01  1.98586E+01  2.69138E+01  3.04591E+01  2.31643E+01  3.43583E+01
   3.37609E+01  3.19086E+01  7.36283E+00  2.88454E+01  1.72201E+01  3.14659E+01  2.23876E+01  2.51003E+01  2.33992E+01  2.60316E+01
   2.61534E+01  2.40499E+01  1.39466E+01  1.71901E+01  1.19885E+01  1.45258E+01  1.06611E+01  1.40988E+01  1.07001E+01  1.55314E+01
   1.12847E+01  9.55803E+00 -4.21860E+00  1.57976E+01  1.59814E+01  1.69662E+01  1.31236E+01  1.27771E+01  4.68366E+00  1.24307E+01
   1.64446E+01  1.78622E+01  7.73261E+00  2.45209E+01  1.16620E+01  1.61397E+01  8.62425E+00  2.36731E+01 -1.82465E+00  4.83261E+00
   1.00448E+01  2.02169E+01  9.88301E+00  1.88930E+01  1.08291E+01  1.57280E+01  1.69487E+01  1.13214E+01 -2.91556E-01  2.14680E+01
   1.69785E+01  4.30949E+01  4.72993E+01  6.24502E+01  6.22245E+01  5.59375E+01  4.19227E+01  4.22987E+01  3.91082E+01  3.18590E+01
   2.45915E+01  2.77019E+01  2.03817E+01  2.59015E+01  2.06356E+01  1.74355E+01  3.98197E+00  1.61207E+01  5.60410E+00  1.56646E+01
   4.56759E+00  1.88896E+01  1.25218E+01  2.95744E+01  2.54791E+01  3.86729E+01  5.34672E+01  8.28208E+01  7.65629E+01  7.32363E+01
   5.66986E+01  5.59768E+01  3.75726E+01  3.81260E+01  3.45586E+01  3.27131E+01  1.55327E+01  2.79216E+01  1.99153E+01  1.08308E+01
   2.28276E+01  1.52339E+01  1.63927E+01  5.30115E+00  3.94524E+00  9.79179E+00  1.52335E+01  1.10696E+01  1.27864E+01  1.01981E+01
   7.22933E+00  6.11161E+00  1.08799E+01  7.09728E+00  3.03802E+00  1.03356E+01  3.98337E+00  4.01094E+00  3.36686E+00  3.65221E+00
   1.21862E+01  1.29748E+01  4.41611E+00  1.30290E+01 -1.07270E+00  8.16022E+00  2.88544E-01  9.08020E+00  6.45192E+00 -6.36276E-01
   1.87898E+00 -3.25134E+00 -8.48863E+00 -6.88761E-01 -1.40209E+01  4.92290E+00 -9.93827E+00 -6.45375E+00 -7.27588E+00 -8.79197E+00
  -3.19092E+00  5.33533E+00 -3.15145E+00  1.05356E+00 -1.18969E+01  8.56727E+00 -7.71438E-01  9.52897E+00  1.09861E+01  3.09299E+00
   6.22405E+00 -3.58608E-01  1.00660E+01  8.91433E+00 -5.87596E+00 -6.71439E+00 -1.12554E+01  9.02963E+00 -2.85816E+00  4.92292E+00
  -1.30765E+01  5.30809E+00  4.99686E+00  1.26025E+01 -1.56753E+00  6.30113E+00  9.84454E+00 -2.81662E+00 -4.41176E+00  1.86167E+00
  -8.60428E+00 -7.09170E+00  3.06249E+00  1.34162E+01  2.47405E+01  1.58190E+01  1.01200E+01  1.95511E+01  9.96073E+00  1.52683E+01
   1.14572E+00  8.49918E+00  1.28549E+00  2.36607E+00 -1.61770E-01  1.34140E+01  1.45656E+01  2.04677E+01  8.66511E+00  2.21193E+01
   4.25150E+00  1.66098E+01  1.36748E+01  1.07101E+01  1.58769E+01  2.41990E+01  1.85742E+01  1.88500E+01  1.64420E+01  1.16234E+01
   1.40486E+01  1.58744E+01  2.11391E+01  1.71974E+01  9.56974E+00  1.99537E+01  2.31673E+01  1.93947E+01  1.91569E+01  2.54167E+01
   1.15566E+01  3.52680E+01  3.34017E+01  2.58625E+01  3.61289E+01  5.06882E+01  5.00431E+01  6.46301E+01  8.35466E+01  1.06048E+02
   1.39859E+02  1.28923E+02  1.03758E+02  8.78494E+01  6.60679E+01  5.52088E+01  3.61360E+01  3.73848E+01  1.58172E+01  2.12446E+01
   1.91447E+01  1.83728E+01  1.30245E+01  8.46810E+00 -1.33199E-01  4.63809E+00  9.36388E+00  3.70219E+00  2.41864E+00  3.60801E+00
  -1.46363E+01 -2.43001E+00  1.10055E+00 -3.06208E+00  4.57830E+00 -5.34207E-01 -1.21009E+01 -5.84785E-01  6.89729E+00 -1.68606E+00
  -8.13657E+00 -7.56567E+00 -1.43501E+01 -1.21797E+01 -1.13733E+01 -1.30764E+01 -1.74047E+01 -1.09413E+01 -3.47535E+00 -3.43160E+00
  -5.38044E+00  2.32315E+00 -7.37995E+00  4.43593E+00  6.82380E+00  5.38998E+00  6.72678E+00  1.16936E+01  2.68215E+00  1.17283E+01
   1.41834E+01  9.19309E+00  6.64720E+00  2.07162E+01  1.50094E+01  1.24173E+01  1.39577E+01  1.91171E+01  1.62632E+01  2.59178E+01
   1.72614E+01  1.25504E+01  2.31969E+01  9.68816E+00  1.64598E+00  1.30305E+01  2.09350E+01  2.29344E+01  1.58144E+01  1.56137E+01
   2.46471E+01  2.65293E+01  1.62741E+01  1.89114E+01  2.42705E+01  2.13304E+01  1.39119E+01  3.67910E+01  2.05600E+01  3.16951E+01
   3.21467E+01  2.78078E+01  1.84117E+01  2.72315E+01  2.54352E+01  2.44843E+01  1.52726E+01  4.30925E+01  2.56395E+01  2.96620E+01
   2.53848E+01  2.22256E+01  1.75413E+01  2.28805E+01  1.06435E+01  2.13133E+01  9.75364E+00  1.83277E+01  2.39988E+01  2.62060E+01
   1.50350E+01  1.89347E+01  1.85438E+01  1.67858E+01  1.95441E+01  1.86928E+01  1.71854E+01  1.00201E+01  2.15477E+01  5.72853E+00
   9.13827E+00 -8.41415E+00  7.50748E+00  4.01125E+00  6.48939E+00  4.00194E+00  6.38808E+00 -8.22074E+00  2.36237E+00  1.50473E+01
   4.92048E-01  5.49783E+00  8.26273E+00  6.70147E-01 -2.66678E+00  8.38805E-01  1.08301E+00  8.41174E+00  5.84639E+00  8.49776E+00
   1.12726E+01  5.07365E+00 -7.77465E-01  1.43763E+01  9.70293E+00  1.89727E+01  1.12850E+01  1.70867E+01  2.69784E+01  1.40783E+01
   2.80579E+01  2.30124E+01  2.43556E+01  2.63977E+01  3.08083E+01  3.41452E+01  2.00214E+01  3.43544E+01  2.59450E+01  3.39054E+01
   3.30456E+01  1.90260E+01  2.25123E+01  2.10102E+01  1.73208E+01  1.70835E+01  1.67600E+01  1.40633E+01  1.47352E+01  1.31632E+01
   2.01612E+01  1.11741E+01  9.25353E+00  1.26037E+01  9.27581E+00  4.18272E+00  7.03125E+00  1.43181E+01 -6.37977E-01  1.97035E+00
   1.49092E+00  1.11208E+01  5.57435E+00 -4.35404E+00  6.50955E+00  1.20772E+01  2.43121E+00  5.42723E+00 -3.46389E+00  1.00860E+01
   4.25670E+00  4.35494E+00 -7.51413E-01  8.59820E+00  7.24558E+00  7.11666E+00 -3.67074E-01  5.17130E+00  5.12338E+00  5.76458E+00
  -1.11848E+01  7.89661E-01  6.42856E+00  1.10206E+01  7.69535E+00  9.56435E+00  9.88557E-01  7.53288E+00  1.99578E+00  1.52683E+01
   4.84371E+00  5.37105E+00  7.14819E+00  4.80864E+00  3.91050E+00  1.42557E+00  4.94261E+00  1.08806E+01 -1.95997E+00  2.80941E+00
   9.57904E+00  2.64161E+00 -5.30095E+00  2.99220E+00 -2.96436E-01 -2.57859E+00  5.57615E+00  7.77094E+00  1.79605E+00  1.99328E-01
   9.30546E+00  6.02566E+00  8.97876E+00  2.47388E+00  8.56087E-01  1.00495E+01  1.30616E+01  5.28052E+00  1.35686E+01 -6.45414E+00
  -4.15819E+00  5.05444E+00 -1.19556E+00 -3.65922E+00  6.99329E+00  3.12964E+00  8.89160E+00  1.70952E-01
 NY points of the fit to the data follow
   2.01468E+01  1.91907E+01  1.88708E+01  1.89943E+01  1.94514E+01  2.09127E+01  2.37641E+01  2.76731E+01  3.26004E+01  3.98294E+01
   4.96193E+01  5.92020E+01  6.35294E+01  6.03447E+01  5.27247E+01  4.49855E+01  3.89001E+01  3.46536E+01  3.16696E+01  2.82413E+01
   2.37599E+01  2.09913E+01  2.00604E+01  1.95788E+01  1.91288E+01  1.85468E+01  1.83673E+01  1.97429E+01  2.30293E+01  2.72679E+01
   3.06340E+01  3.20722E+01  3.13904E+01  2.88830E+01  2.55291E+01  2.24572E+01  2.01987E+01  1.86207E+01  1.77752E+01  1.77008E+01
   1.74931E+01  1.75383E+01  1.82121E+01  1.95202E+01  2.14262E+01  2.41659E+01  2.74549E+01  2.97417E+01  2.95783E+01  2.71788E+01
   2.39364E+01  2.09258E+01  1.86993E+01  1.74814E+01  1.67919E+01  1.60005E+01  1.54146E+01  1.56966E+01  1.67369E+01  1.78969E+01
   1.85891E+01  1.84398E+01  1.75015E+01  1.61375E+01  1.48588E+01  1.41347E+01  1.40394E+01  1.42197E+01  1.44470E+01  1.47781E+01
   1.52315E+01  1.58200E+01  1.62803E+01  1.64396E+01  1.63377E+01  1.60440E+01  1.55833E+01  1.50093E+01  1.44828E+01  1.40853E+01
   1.38049E+01  1.37536E+01  1.38563E+01  1.41120E+01  1.44992E+01  1.46563E+01  1.39583E+01  1.23607E+01  1.06440E+01  9.59177E+00
   9.34643E+00  9.65638E+00  1.01433E+01  1.04474E+01  1.04946E+01  1.07294E+01  1.14029E+01  1.29060E+01  1.55606E+01  1.93945E+01
   2.54123E+01  3.57789E+01  4.96401E+01  6.17189E+01  6.52154E+01  5.92384E+01  4.90579E+01  3.95920E+01  3.24893E+01  2.78430E+01
   2.42781E+01  1.94852E+01  1.40512E+01  1.17560E+01  1.12138E+01  1.10569E+01  1.10147E+01  1.10446E+01  1.11345E+01  1.13660E+01
   1.20753E+01  1.40584E+01  1.77949E+01  2.30797E+01  3.05437E+01  4.25243E+01  5.87528E+01  7.38824E+01  7.99070E+01  7.44297E+01
   6.29090E+01  5.15900E+01  4.26545E+01  3.60682E+01  3.04415E+01  2.34881E+01  1.56829E+01  1.17231E+01  1.09988E+01  1.12839E+01
   1.17056E+01  1.18029E+01  1.15925E+01  1.12554E+01  1.08381E+01  1.04272E+01  1.00324E+01  9.57229E+00  9.06387E+00  8.48913E+00
   7.94319E+00  7.50061E+00  7.11473E+00  6.78452E+00  6.51543E+00  6.31021E+00  6.13845E+00  5.90512E+00  5.43511E+00  4.63424E+00
   3.70674E+00  3.19580E+00  3.47942E+00  4.22261E+00  4.72214E+00  4.50432E+00  3.62115E+00  2.56798E+00  1.82301E+00  1.43638E+00
   1.07611E+00  6.34477E-01  7.46111E-03 -8.80614E-01 -1.76278E+00 -2.39958E+00 -2.43513E+00 -1.82089E+00 -1.22133E+00 -1.23404E+00
  -1.74315E+00 -2.15667E+00 -2.09944E+00 -1.66644E+00 -1.25956E+00 -1.09932E+00 -7.90020E-01  3.92134E-01  2.43919E+00  4.68357E+00
   6.19582E+00  6.61165E+00  6.08074E+00  5.03662E+00  4.02803E+00  3.26676E+00  2.62451E+00  2.37907E+00  2.99237E+00  4.50860E+00
   6.65978E+00  9.03914E+00  1.11025E+01  1.21795E+01  1.18656E+01  1.00999E+01  7.11079E+00  3.07132E+00 -1.09139E+00 -3.97646E+00
  -4.40484E+00 -2.55112E+00  4.85837E-01  4.21757E+00  8.16687E+00  1.10854E+01  1.18330E+01  1.09282E+01  9.14068E+00  6.40387E+00
   3.52265E+00  1.67975E+00  1.40077E+00  2.71381E+00  4.98208E+00  7.56047E+00  9.62975E+00  1.09726E+01  1.16281E+01  1.18073E+01
   1.17965E+01  1.17062E+01  1.17290E+01  1.19714E+01  1.23891E+01  1.31103E+01  1.43909E+01  1.59183E+01  1.72510E+01  1.81472E+01
   1.82757E+01  1.75000E+01  1.64636E+01  1.61971E+01  1.68772E+01  1.77520E+01  1.86784E+01  1.96766E+01  2.05145E+01  2.13552E+01
   2.28266E+01  2.48259E+01  2.69721E+01  3.04186E+01  3.64144E+01  4.42145E+01  5.28906E+01  6.58855E+01  8.68837E+01  1.11546E+02
   1.27218E+02  1.24138E+02  1.06606E+02  8.56762E+01  6.78489E+01  5.51719E+01  4.68813E+01  3.85819E+01  2.68016E+01  1.73699E+01
   1.40654E+01  1.24955E+01  1.14727E+01  1.07781E+01  1.01333E+01  9.41583E+00  8.67044E+00  7.93177E+00  7.22743E+00  6.57800E+00
   5.98633E+00  5.44595E+00  4.96593E+00  4.54913E+00  4.17618E+00  3.83267E+00  3.50901E+00  3.21206E+00  2.95598E+00  2.74044E+00
   2.56292E+00  2.43031E+00  2.34329E+00  2.29441E+00  2.27649E+00  2.29854E+00  2.36837E+00  2.49248E+00  2.68473E+00  2.95823E+00
   3.31674E+00  3.76599E+00  4.30565E+00  4.93031E+00  5.63239E+00  6.40308E+00  7.23219E+00  8.10447E+00  8.99714E+00  9.88964E+00
   1.07607E+01  1.15874E+01  1.23502E+01  1.30324E+01  1.36227E+01  1.41157E+01  1.45123E+01  1.48194E+01  1.50508E+01  1.52264E+01
   1.53699E+01  1.55077E+01  1.56658E+01  1.58688E+01  1.61380E+01  1.64903E+01  1.69361E+01  1.74782E+01  1.81121E+01  1.88264E+01
   1.96040E+01  2.04227E+01  2.12566E+01  2.20777E+01  2.28583E+01  2.35731E+01  2.42016E+01  2.47293E+01  2.51508E+01  2.54744E+01
   2.57340E+01  2.59796E+01  2.62042E+01  2.63800E+01  2.65784E+01  2.68593E+01  2.69095E+01  2.62029E+01  2.45048E+01  2.23801E+01
   2.06345E+01  1.95352E+01  1.90189E+01  1.92164E+01  2.01050E+01  2.12430E+01  2.20490E+01  2.22853E+01  2.17512E+01  2.06942E+01
   1.94102E+01  1.81222E+01  1.68640E+01  1.54171E+01  1.37908E+01  1.23946E+01  1.12254E+01  1.02215E+01  9.35642E+00  8.61290E+00
   7.97584E+00  7.43119E+00  6.96611E+00  6.56971E+00  6.23375E+00  5.95277E+00  5.72357E+00  5.54463E+00  5.41589E+00  5.33886E+00
   5.31666E+00  5.35376E+00  5.45554E+00  5.62787E+00  5.87720E+00  6.21068E+00  6.63600E+00  7.16084E+00  7.79208E+00  8.53527E+00
   9.39422E+00  1.03706E+01  1.14629E+01  1.26660E+01  1.39697E+01  1.53587E+01  1.68128E+01  1.83065E+01  1.98101E+01  2.12893E+01
   2.27071E+01  2.40251E+01  2.52052E+01  2.62120E+01  2.70142E+01  2.75858E+01  2.79082E+01  2.79712E+01  2.77735E+01  2.73230E+01
   2.66358E+01  2.57351E+01  2.46501E+01  2.34146E+01  2.20649E+01  2.06380E+01  1.91697E+01  1.76930E+01  1.62374E+01  1.48281E+01
   1.34852E+01  1.22241E+01  1.10547E+01  9.98266E+00  9.00985E+00  8.13507E+00  7.35466E+00  6.66301E+00  6.05317E+00  5.51756E+00
   5.04854E+00  4.63875E+00  4.28110E+00  3.96890E+00  3.69596E+00  3.45685E+00  3.24700E+00  3.06246E+00  2.89975E+00  2.75576E+00
   2.62779E+00  2.51372E+00  2.41184E+00  2.32072E+00  2.23901E+00  2.16543E+00  2.09898E+00  2.03890E+00  1.98465E+00  1.93566E+00
   1.89132E+00  1.85105E+00  1.81443E+00  1.78124E+00  1.75130E+00  1.72431E+00  1.69991E+00  1.67778E+00  1.65778E+00  1.63987E+00
   1.62398E+00  1.60987E+00  1.59730E+00  1.58612E+00  1.57633E+00  1.56795E+00  1.56090E+00  1.55496E+00  1.54998E+00  1.54591E+00
   1.54282E+00  1.54073E+00  1.53953E+00  1.53904E+00  1.53918E+00  1.53998E+00  1.54152E+00  1.54378E+00  1.54663E+00  1.54992E+00
   1.55364E+00  1.55787E+00  1.56267E+00  1.56799E+00  1.57367E+00  1.57963E+00  1.58591E+00  1.59260E+00  1.59975E+00  1.60722E+00
   1.61490E+00  1.62274E+00  1.63085E+00  1.63930E+00  1.64807E+00  1.65702E+00  1.66605E+00  1.67518E+00
 NY background values follow
     1.431E+01    1.425E+01    1.419E+01    1.413E+01    1.406E+01    1.400E+01    1.394E+01    1.387E+01    1.381E+01    1.375E+01
     1.368E+01    1.362E+01    1.356E+01    1.350E+01    1.343E+01    1.337E+01    1.331E+01    1.324E+01    1.318E+01    1.312E+01
     1.306E+01    1.299E+01    1.293E+01    1.287E+01    1.280E+01    1.274E+01    1.268E+01    1.261E+01    1.255E+01    1.249E+01
     1.243E+01    1.236E+01    1.230E+01    1.224E+01    1.217E+01    1.211E+01    1.205E+01    1.198E+01    1.192E+01    1.186E+01
     1.180E+01    1.173E+01    1.167E+01    1.161E+01    1.154E+01    1.148E+01    1.142E+01    1.135E+01    1.129E+01    1.123E+01
     1.117E+01    1.110E+01    1.104E+01    1.098E+01    1.091E+01    1.085E+01    1.079E+01    1.072E+01    1.066E+01    1.060E+01
     1.053E+01    1.047E+01    1.041E+01    1.035E+01    1.028E+01    1.022E+01    1.016E+01    1.009E+01    1.003E+01    9.967E+00
     9.904E+00    9.841E+00    9.778E+00    9.716E+00    9.653E+00    9.590E+00    9.527E+00    9.464E+00    9.401E+00    9.339E+00
     9.276E+00    9.213E+00    9.151E+00    9.088E+00    9.025E+00    8.963E+00    8.900E+00    8.838E+00    8.775E+00    8.713E+00
     8.650E+00    8.588E+00    8.525E+00    8.463E+00    8.401E+00    8.339E+00    8.276E+00    8.214E+00    8.152E+00    8.090E+00
     8.028E+00    7.966E+00    7.904E+00    7.842E+00    7.780E+00    7.718E+00    7.657E+00    7.595E+00    7.533E+00    7.472E+00
     7.410E+00    7.349E+00    7.287E+00    7.226E+00    7.164E+00    7.103E+00    7.042E+00    6.981E+00    6.920E+00    6.859E+00
     6.798E+00    6.737E+00    6.676E+00    6.615E+00    6.554E+00    6.494E+00    6.433E+00    6.372E+00    6.312E+00    6.252E+00
     6.191E+00    6.131E+00    6.071E+00    6.011E+00    5.951E+00    5.891E+00    5.831E+00    5.771E+00    5.712E+00    5.652E+00
     5.592E+00    5.533E+00    5.474E+00    5.414E+00    5.355E+00    5.296E+00    5.237E+00    5.178E+00    5.120E+00    5.061E+00
     5.002E+00    4.944E+00    4.886E+00    4.828E+00    4.770E+00    4.712E+00    4.654E+00    4.596E+00    4.539E+00    4.481E+00
     4.424E+00    4.367E+00    4.310E+00    4.253E+00    4.197E+00    4.140E+00    4.084E+00    4.028E+00    3.972E+00    3.916E+00
     3.860E+00    3.805E+00    3.749E+00    3.694E+00    3.639E+00    3.584E+00    3.530E+00    3.475E+00    3.421E+00    3.367E+00
     3.313E+00    3.260E+00    3.206E+00    3.153E+00    3.100E+00    3.047E+00    2.994E+00    2.942E+00    2.890E+00    2.837E+00
     2.786E+00    2.734E+00    2.683E+00    2.631E+00    2.580E+00    2.530E+00    2.479E+00    2.429E+00    2.379E+00    2.329E+00
     2.279E+00    2.230E+00    2.181E+00    2.132E+00    2.083E+00    2.035E+00    1.986E+00    1.938E+00    1.891E+00    1.843E+00
     1.796E+00    1.749E+00    1.702E+00    1.655E+00    1.609E+00    1.563E+00    1.517E+00    1.472E+00    1.426E+00    1.381E+00
     1.336E+00    1.292E+00    1.248E+00    1.204E+00    1.160E+00    1.116E+00    1.073E+00    1.030E+00    9.874E-01    9.450E-01
     9.029E-01    8.610E-01    8.194E-01    7.781E-01    7.371E-01    6.964E-01    6.560E-01    6.159E-01    5.760E-01    5.365E-01
     4.973E-01    4.584E-01    4.198E-01    3.815E-01    3.435E-01    3.059E-01    2.686E-01    2.316E-01    1.949E-01    1.586E-01
     1.225E-01    8.688E-02    5.156E-02    1.657E-02   -1.806E-02   -5.235E-02   -8.629E-02   -1.199E-01   -1.531E-01   -1.860E-01
    -2.184E-01   -2.506E-01   -2.823E-01   -3.137E-01   -3.447E-01   -3.754E-01   -4.056E-01   -4.355E-01   -4.650E-01   -4.941E-01
    -5.228E-01   -5.511E-01   -5.790E-01   -6.065E-01   -6.336E-01   -6.603E-01   -6.866E-01   -7.125E-01   -7.380E-01   -7.631E-01
    -7.878E-01   -8.122E-01   -8.361E-01   -8.596E-01   -8.828E-01   -9.055E-01   -9.278E-01   -9.498E-01   -9.713E-01   -9.925E-01
    -1.013E+00   -1.034E+00   -1.054E+00   -1.073E+00   -1.092E+00   -1.111E+00   -1.130E+00   -1.148E+00   -1.165E+00   -1.182E+00
    -1.199E+00   -1.216E+00   -1.232E+00   -1.247E+00   -1.263E+00   -1.278E+00   -1.292E+00   -1.306E+00   -1.320E+00   -1.333E+00
    -1.346E+00   -1.359E+00   -1.371E+00   -1.383E+00   -1.394E+00   -1.405E+00   -1.416E+00   -1.426E+00   -1.436E+00   -1.445E+00
    -1.454E+00   -1.463E+00   -1.471E+00   -1.479E+00   -1.487E+00   -1.494E+00   -1.501E+00   -1.508E+00   -1.514E+00   -1.519E+00
    -1.525E+00   -1.530E+00   -1.535E+00   -1.539E+00   -1.543E+00   -1.547E+00   -1.550E+00   -1.553E+00   -1.556E+00   -1.558E+00
    -1.560E+00   -1.562E+00   -1.563E+00   -1.564E+00   -1.565E+00   -1.565E+00   -1.565E+00   -1.565E+00   -1.564E+00   -1.563E+00
    -1.562E+00   -1.561E+00   -1.559E+00   -1.557E+00   -1.554E+00   -1.552E+00   -1.549E+00   -1.545E+00   -1.542E+00   -1.538E+00
    -1.534E+00   -1.529E+00   -1.525E+00   -1.520E+00   -1.514E+00   -1.509E+00   -1.503E+00   -1.497E+00   -1.490E+00   -1.484E+00
    -1.477E+00   -1.470E+00   -1.462E+00   -1.455E+00   -1.447E+00   -1.439E+00   -1.430E+00   -1.422E+00   -1.413E+00   -1.404E+00
    -1.394E+00   -1.385E+00   -1.375E+00   -1.365E+00   -1.354E+00   -1.344E+00   -1.333E+00   -1.322E+00   -1.311E+00   -1.299E+00
    -1.288E+00   -1.276E+00   -1.264E+00   -1.251E+00   -1.239E+00   -1.226E+00   -1.213E+00   -1.200E+00   -1.187E+00   -1.173E+00
    -1.159E+00   -1.145E+00   -1.131E+00   -1.117E+00   -1.102E+00   -1.088E+00   -1.073E+00   -1.058E+00   -1.042E+00   -1.027E+00
    -1.011E+00   -9.955E-01   -9.795E-01   -9.634E-01   -9.471E-01   -9.307E-01   -9.141E-01   -8.973E-01   -8.804E-01   -8.634E-01
    -8.462E-01   -8.289E-01   -8.114E-01   -7.938E-01   -7.761E-01   -7.583E-01   -7.403E-01   -7.222E-01   -7.040E-01   -6.856E-01
    -6.672E-01   -6.487E-01   -6.300E-01   -6.112E-01   -5.924E-01   -5.734E-01   -5.544E-01   -5.353E-01   -5.161E-01   -4.968E-01
    -4.774E-01   -4.579E-01   -4.384E-01   -4.188E-01   -3.991E-01   -3.794E-01   -3.596E-01   -3.398E-01   -3.199E-01   -2.999E-01
    -2.799E-01   -2.599E-01   -2.398E-01   -2.196E-01   -1.995E-01   -1.793E-01   -1.590E-01   -1.387E-01   -1.184E-01   -9.810E-02
    -7.772E-02   -5.732E-02   -3.689E-02   -1.643E-02    4.062E-03    2.458E-02    4.512E-02    6.568E-02    8.626E-02    1.069E-01
     1.275E-01    1.481E-01    1.688E-01    1.895E-01    2.102E-01    2.309E-01    2.516E-01    2.724E-01    2.931E-01    3.139E-01
     3.347E-01    3.554E-01    3.762E-01    3.970E-01    4.178E-01    4.386E-01    4.594E-01    4.802E-01    5.011E-01    5.219E-01
     5.427E-01    5.635E-01    5.843E-01    6.051E-01    6.259E-01    6.467E-01    6.674E-01    6.882E-01
 Asp      Conc. = 5.04E+01
