 LCModel (Version 6.3-1L) Copyright: S.W. Provencher.          Ref.: Magn. Reson. Med. 30:672-679 (1993).                
 Slice#1 Row#7 Col#11  PD_24_press_2_raw_act
 36 lines in following concentration table = NCONC+1
    Conc.  %SD /Cr+PCr  Metabolite                                         
  650.865  22%   1.935 Ala                                                 
  126.563 133%   0.376 Asp                                                 
   43.274 488%   0.129 Cr                                                  
  293.033  73%   0.871 PCr                                                 
   40.198 270%   0.120 GABA                                                
   89.090 120%   0.265 Glc                                                 
  316.941  91%   0.942 Gln                                                 
 1.09E+03  30%   3.231 Glu                                                 
    0.000 999%   0.000 GPC                                                 
  127.139  17%   0.378 PCh                                                 
   87.736  95%   0.261 GSH                                                 
  240.118 113%   0.714 Ins                                                 
    0.000 999%   0.000 Lac                                                 
 2.81E+03   3%   8.365 NAA                                                 
    0.000 999%   0.000 NAAG                                                
   75.492  33%   0.224 Scyllo                                              
  356.105  45%   1.059 Tau                                                 
  257.213  31%   0.765 -CrCH2                                              
  127.139  17%   0.378 GPC+PCh                                             
 2.81E+03   3%   8.365 NAA+NAAG                                            
  336.306  17%   1.000 Cr+PCr                                              
 1.40E+03  34%   4.174 Glu+Gln                                             
  390.146  66%   1.160 Lip13a                                              
    0.000 999%   0.000 Lip13b                                              
    0.000 999%   0.000 Lip09                                               
 1.80E+03   9%   5.362 MM09                                                
   96.391  91%   0.287 Lip20                                               
 4.39E+03   8%  13.053 MM20                                                
  570.200  24%   1.695 MM12                                                
 2.06E+03  17%   6.138 MM14                                                
 1.36E+03  21%   4.045 MM17                                                
  390.146  66%   1.160 Lip13a+Lip13b                                       
 3.02E+03  12%   8.994 MM14+Lip13a+Lip13b+MM12                             
 1.80E+03   9%   5.362 MM09+Lip09                                          
 4.49E+03   8%  13.339 MM20+Lip20                                          
   6 lines in following misc. output table
  FWHM = 0.061 ppm    S/N =  12                                            
  Data shift =-0.015 ppm                                                   
  Ph: -91 deg     -29.0 deg/ppm                                            
  alphaB,S = 8.5E+01,   1.4E+02                                            
   14 spline knots.   Ns = 8(1)                                            
   2 inflections.     1 extrema                                            
  498 points on ppm-axis = NY
      4.000000     3.992357     3.984714     3.977070     3.969427     3.961784     3.954141     3.946497     3.938854     3.931211
      3.923568     3.915925     3.908281     3.900638     3.892995     3.885352     3.877708     3.870065     3.862422     3.854779
      3.847136     3.839492     3.831849     3.824206     3.816563     3.808919     3.801276     3.793633     3.785990     3.778347
      3.770703     3.763060     3.755417     3.747774     3.740130     3.732487     3.724844     3.717201     3.709558     3.701914
      3.694271     3.686628     3.678985     3.671341     3.663698     3.656055     3.648412     3.640769     3.633125     3.625482
      3.617839     3.610196     3.602552     3.594909     3.587266     3.579623     3.571980     3.564336     3.556693     3.549050
      3.541407     3.533763     3.526120     3.518477     3.510834     3.503191     3.495547     3.487904     3.480261     3.472618
      3.464974     3.457331     3.449688     3.442045     3.434402     3.426758     3.419115     3.411472     3.403829     3.396185
      3.388542     3.380899     3.373256     3.365613     3.357969     3.350326     3.342683     3.335040     3.327396     3.319753
      3.312110     3.304467     3.296824     3.289180     3.281537     3.273894     3.266251     3.258607     3.250964     3.243321
      3.235678     3.228034     3.220391     3.212748     3.205105     3.197462     3.189818     3.182175     3.174532     3.166889
      3.159245     3.151602     3.143959     3.136316     3.128673     3.121029     3.113386     3.105743     3.098100     3.090456
      3.082813     3.075170     3.067527     3.059884     3.052240     3.044597     3.036954     3.029311     3.021667     3.014024
      3.006381     2.998738     2.991095     2.983451     2.975808     2.968165     2.960522     2.952878     2.945235     2.937592
      2.929949     2.922306     2.914662     2.907019     2.899376     2.891733     2.884089     2.876446     2.868803     2.861160
      2.853517     2.845873     2.838230     2.830587     2.822944     2.815300     2.807657     2.800014     2.792371     2.784728
      2.777084     2.769441     2.761798     2.754155     2.746511     2.738868     2.731225     2.723582     2.715939     2.708295
      2.700652     2.693009     2.685366     2.677722     2.670079     2.662436     2.654793     2.647150     2.639506     2.631863
      2.624220     2.616577     2.608933     2.601290     2.593647     2.586004     2.578361     2.570717     2.563074     2.555431
      2.547788     2.540144     2.532501     2.524858     2.517215     2.509572     2.501928     2.494285     2.486642     2.478999
      2.471355     2.463712     2.456069     2.448426     2.440783     2.433139     2.425496     2.417853     2.410210     2.402566
      2.394923     2.387280     2.379637     2.371994     2.364350     2.356707     2.349064     2.341421     2.333777     2.326134
      2.318491     2.310848     2.303205     2.295561     2.287918     2.280275     2.272632     2.264988     2.257345     2.249702
      2.242059     2.234416     2.226772     2.219129     2.211486     2.203843     2.196199     2.188556     2.180913     2.173270
      2.165627     2.157983     2.150340     2.142697     2.135054     2.127410     2.119767     2.112124     2.104481     2.096838
      2.089194     2.081551     2.073908     2.066265     2.058621     2.050978     2.043335     2.035692     2.028049     2.020405
      2.012762     2.005119     1.997476     1.989833     1.982190     1.974546     1.966903     1.959260     1.951617     1.943974
      1.936331     1.928688     1.921045     1.913402     1.905759     1.898115     1.890472     1.882829     1.875186     1.867543
      1.859900     1.852257     1.844614     1.836971     1.829327     1.821684     1.814041     1.806398     1.798755     1.791112
      1.783469     1.775826     1.768183     1.760540     1.752896     1.745253     1.737610     1.729967     1.722324     1.714681
      1.707038     1.699395     1.691752     1.684108     1.676465     1.668822     1.661179     1.653536     1.645893     1.638250
      1.630607     1.622964     1.615321     1.607677     1.600034     1.592391     1.584748     1.577105     1.569462     1.561819
      1.554176     1.546533     1.538890     1.531246     1.523603     1.515960     1.508317     1.500674     1.493031     1.485388
      1.477745     1.470102     1.462458     1.454815     1.447172     1.439529     1.431886     1.424243     1.416600     1.408957
      1.401314     1.393671     1.386027     1.378384     1.370741     1.363098     1.355455     1.347812     1.340169     1.332526
      1.324883     1.317240     1.309596     1.301953     1.294310     1.286667     1.279024     1.271381     1.263738     1.256095
      1.248452     1.240808     1.233165     1.225522     1.217879     1.210236     1.202593     1.194950     1.187307     1.179664
      1.172021     1.164377     1.156734     1.149091     1.141448     1.133805     1.126162     1.118519     1.110876     1.103233
      1.095590     1.087946     1.080303     1.072660     1.065017     1.057374     1.049731     1.042088     1.034445     1.026802
      1.019158     1.011515     1.003872     0.996229     0.988586     0.980943     0.973300     0.965657     0.958014     0.950371
      0.942727     0.935084     0.927441     0.919798     0.912155     0.904512     0.896869     0.889226     0.881583     0.873940
      0.866296     0.858653     0.851010     0.843367     0.835724     0.828081     0.820438     0.812795     0.805152     0.797508
      0.789865     0.782222     0.774579     0.766936     0.759293     0.751650     0.744007     0.736364     0.728721     0.721077
      0.713434     0.705791     0.698148     0.690505     0.682862     0.675219     0.667576     0.659933     0.652290     0.644646
      0.637003     0.629360     0.621717     0.614074     0.606431     0.598788     0.591145     0.583502     0.575858     0.568215
      0.560572     0.552929     0.545286     0.537643     0.530000     0.522357     0.514714     0.507071     0.499427     0.491784
      0.484141     0.476498     0.468855     0.461212     0.453569     0.445925     0.438282     0.430639     0.422996     0.415353
      0.407710     0.400067     0.392424     0.384780     0.377137     0.369494     0.361851     0.354208     0.346565     0.338922
      0.331278     0.323635     0.315992     0.308349     0.300706     0.293063     0.285420     0.277777     0.270133     0.262490
      0.254847     0.247204     0.239561     0.231918     0.224275     0.216631     0.208988     0.201345
 NY phased data points follow
   2.48041E+00 -1.13654E+00  4.22992E+00  1.42032E+00 -5.28116E-02  2.46954E+00 -2.99184E-01  2.14748E+00  4.85954E+00  7.70259E+00
   8.82620E-01  2.61275E+00  5.82119E+00  8.92099E-01  5.10899E+00 -2.23683E+00  2.24535E+00  1.36188E+00  3.53819E+00  6.71443E+00
   2.94859E+00  1.09952E+00  3.08675E+00  2.56122E+00  7.67716E+00  4.36553E+00  8.95541E-01  4.19677E+00  2.47741E+00  3.72590E+00
   9.94952E+00  8.11813E+00 -3.94204E-01  1.80986E+00  7.57040E+00  2.36794E+00  7.23601E+00  1.00546E+01  4.78741E+00  6.44508E-01
   9.87426E+00  3.72986E+00  1.18849E+01  1.84351E+00  4.48327E+00  4.73190E+00  4.72524E+00  5.69597E+00  6.26621E+00  6.58983E+00
   3.77051E+00  2.02965E+00  5.25861E+00  6.02230E+00  7.04385E+00  6.39399E+00  4.16847E+00  5.71316E+00  8.01591E+00  4.17525E+00
   5.48738E+00  5.26583E+00  8.60485E+00  6.79816E+00  5.69263E+00  1.04051E+00  5.16995E+00  1.27336E+00  5.91603E+00  6.96440E+00
   4.32196E+00  5.98732E+00  1.91951E+00  3.75529E+00  5.65368E+00  6.78413E+00  3.05544E+00  5.73237E+00  5.81150E+00  3.96393E-01
   5.31584E+00  1.14989E+01  6.46380E+00  9.96051E+00  1.39160E+01  6.62133E+00  4.72457E+00  4.96301E+00  9.01984E+00  9.67855E+00
   8.54952E+00  4.64057E+00  6.98068E+00  8.25183E+00  7.94876E+00  8.59427E+00  5.85827E+00  3.79992E+00  1.45241E+01  1.11842E+01
   9.34825E+00  1.56373E+01  1.48579E+01  1.51671E+01  1.30080E+01  1.16485E+01  1.55346E+01  1.21550E+01  5.44692E+00  9.62404E+00
   1.68046E+01  1.02344E+01  1.02354E+01  1.37878E+00  9.50048E+00  2.57134E+00  5.71136E+00  3.46557E+00  4.95233E+00  8.54979E+00
   7.55798E+00  1.02611E+01  6.67262E+00  1.57193E+01  1.44582E+01  1.63368E+01  1.66954E+01  1.59793E+01  2.02643E+01  1.27138E+01
   1.81951E+01  1.13174E+01  1.01947E+01  1.14726E+01  5.10698E+00  8.40626E+00 -6.74894E-01  5.74198E+00  9.98452E+00  7.32668E+00
   4.03259E+00  3.39439E+00  3.05489E-01  8.54597E+00 -2.45544E+00  1.10745E+00  4.87489E+00  1.01147E+00  6.23921E+00  3.59239E+00
   2.52366E+00  1.61099E+00 -1.41379E-01  1.41149E+00  1.15281E+01  5.04157E+00  8.79405E+00  7.65731E+00  4.95652E+00  6.12207E+00
  -6.77635E-01  4.07572E+00  2.77070E+00  3.13509E+00  5.68032E+00  8.38348E-01  2.25305E+00  6.17020E-01  5.69981E+00 -4.12305E-01
  -2.85290E+00 -7.34805E+00 -7.62066E+00 -6.28348E+00  2.91943E-01  1.10517E+00 -8.83549E+00  5.98490E-01 -5.09869E+00 -1.55650E+00
  -1.71373E+00 -1.70815E-01  1.99046E+00  2.53360E+00  1.90315E+00 -5.27380E+00  3.76312E+00  4.29360E+00  1.58716E+00  2.90669E+00
   8.56418E+00  3.21456E+00  3.65666E+00  2.87463E+00  6.60614E+00  4.98663E-01  4.85746E-01  2.80331E+00  3.78810E-01 -3.42135E+00
  -7.89132E-01 -5.55361E-01  1.70938E+00  1.03701E+01  6.20910E+00  6.51880E+00  7.64358E+00  5.48294E+00  4.96174E+00  1.08707E+01
   4.10313E+00  1.17941E+01  1.19298E+01  9.77342E+00  1.94307E+01  1.24349E+01  1.56743E+01  1.78680E+01  1.09716E+01  1.02663E+01
   9.47209E+00  5.98556E+00  7.18209E+00  6.88351E+00  6.28285E+00  1.04518E+01  1.46618E+01  1.34633E+01  1.08275E+01  1.22770E+01
   1.20346E+01  1.24444E+01  1.21977E+01  1.19497E+01  1.58849E+01  8.87364E+00  2.02192E+01  1.21632E+01  1.82080E+01  1.38263E+01
   1.34999E+01  1.54615E+01  1.58325E+01  1.44148E+01  1.53926E+01  1.41353E+01  1.95752E+01  1.83950E+01  2.22586E+01  1.80271E+01
   2.13033E+01  2.30868E+01  2.44335E+01  2.74543E+01  3.44551E+01  4.05747E+01  4.88313E+01  6.72424E+01  8.04412E+01  9.21416E+01
   1.02606E+02  9.67123E+01  9.36178E+01  8.09675E+01  6.98421E+01  5.20838E+01  3.99269E+01  2.96004E+01  2.53024E+01  2.42746E+01
   2.22087E+01  1.45712E+01  2.16610E+01  1.18986E+01  1.30870E+01  1.19134E+01  4.71288E+00  1.58776E+01  1.04030E+01  7.94328E+00
   8.35595E+00  8.13927E+00  9.82368E+00  9.77172E+00  1.16674E+01  1.18166E+01  1.34927E+01  1.30790E+01  1.11032E+01  1.34384E+01
   1.05831E+01  9.38461E+00  1.42434E+01  6.02098E+00  1.13519E+01  7.26665E+00  5.62338E+00  8.05665E+00  1.08108E+01  7.71507E+00
   1.23087E+01  6.89591E+00  9.13968E+00  9.68148E+00  1.01316E+01  1.14985E+01  1.45778E+01  1.33545E+01  1.00764E+01  1.08023E+01
   1.03370E+01  1.37193E+01  1.52515E+01  1.52965E+01  1.19287E+01  1.75619E+01  1.93354E+01  2.06547E+01  2.05571E+01  1.92188E+01
   1.41631E+01  1.85686E+01  2.13225E+01  1.64156E+01  2.07789E+01  1.13917E+01  1.93126E+01  1.80257E+01  1.86834E+01  6.22549E+00
   4.99002E+00  1.21482E+01  7.43546E+00  9.42464E+00  6.13326E+00  1.12087E+01  1.53975E+01  8.59665E+00  1.18741E+01  2.11086E+01
   1.64673E+01  1.10553E+01  1.02108E+01  9.09314E+00  1.61404E+01  1.28353E+01  1.42453E+01  1.28837E+01  7.90824E+00  1.13141E+01
   1.17657E+01  9.84095E+00  8.90461E+00  8.86480E+00  1.09494E+01  5.01576E+00  1.11492E+01  6.82668E+00  9.95595E+00  8.11168E+00
   9.89207E+00  4.18228E+00  7.38704E+00  8.75207E+00  6.75085E+00  9.78314E+00  9.84412E+00  1.27367E+01  6.41399E+00  1.36072E+01
   5.49411E+00  7.32194E+00  6.30285E+00  7.88261E+00  1.18933E+01  4.80599E+00  5.96069E+00  5.88821E+00  6.59951E+00  4.64237E+00
  -1.38137E+00  4.22460E+00  1.19826E+00  2.43392E+00  5.87320E+00 -2.02027E+00  4.31216E+00  4.00750E+00  3.14937E+00  5.56407E+00
   1.97041E+00 -3.32640E-01  7.63759E+00  4.88889E+00  7.42537E+00  6.09605E+00  9.69482E+00  8.10787E+00  8.63308E-01  9.34920E+00
   9.48778E+00  1.17696E+01  1.93335E+01  1.62575E+01  1.79631E+01  2.24642E+01  2.40671E+01  1.40710E+01  1.85299E+01  1.31971E+01
   1.27987E+01  1.78238E+01  1.85131E+01  1.39076E+01  2.13865E+01  1.25148E+01  1.54799E+01  1.05654E+01  2.32387E+01  1.28436E+01
   1.07419E+01  6.97829E+00  3.09598E+00  4.89518E+00  4.31548E+00  4.49384E+00  7.91336E+00  2.06765E+00  1.96351E+00  5.21212E+00
   3.35798E+00  4.85339E+00 -4.23081E-01  5.41167E+00 -1.02162E+00  1.60252E+00  4.73304E+00  4.50712E+00 -8.35942E-01  3.58034E+00
   4.69219E+00  4.41391E-01 -2.34276E+00  4.01607E-01  1.51136E-01  1.10126E+00  3.47459E+00  2.81254E+00  3.61288E-02 -2.80452E+00
   2.31596E+00  4.97832E+00  3.56776E+00  1.98773E+00  3.72388E+00  6.28227E+00  3.07075E+00  1.43643E+00  3.55955E-01  1.13791E+00
   8.91250E-01  3.02090E+00  2.18537E+00 -3.02695E+00 -8.28415E-01  9.73277E-01  6.34882E+00 -3.75660E+00  1.62658E+00  3.53836E+00
   8.52655E-01  2.60426E+00  2.03818E+00  3.71778E+00  6.48929E-01  8.78442E-01 -4.90090E-02  4.16388E+00 -1.27804E-01  9.91689E-01
   3.74881E+00  1.56776E+00  1.97218E+00  2.80524E+00  5.43685E+00  3.84774E+00  6.23014E+00 -2.06409E-01  2.39780E-01  1.06709E-01
  -4.46604E-01  7.79356E+00  3.04731E+00 -1.82001E+00  6.67837E+00 -1.44938E+00 -4.46768E+00 -3.72056E-01
 NY points of the fit to the data follow
   3.92946E+00  3.83716E+00  3.78378E+00  3.79468E+00  3.86146E+00  3.97320E+00  4.13601E+00  4.33705E+00  4.54768E+00  4.72426E+00
   4.81841E+00  4.80167E+00  4.67388E+00  4.45229E+00  4.16937E+00  3.88380E+00  3.67374E+00  3.62489E+00  3.76511E+00  4.08191E+00
   4.50052E+00  4.94407E+00  5.33157E+00  5.51283E+00  5.39553E+00  5.01976E+00  4.57218E+00  4.26180E+00  4.21874E+00  4.50058E+00
   5.08667E+00  5.84827E+00  6.57460E+00  7.00141E+00  6.96805E+00  6.55912E+00  5.97182E+00  5.33309E+00  4.71000E+00  4.22468E+00
   4.00208E+00  4.00054E+00  4.12093E+00  4.30621E+00  4.57572E+00  4.88732E+00  5.13866E+00  5.27003E+00  5.24142E+00  5.05537E+00
   4.79370E+00  4.51055E+00  4.25484E+00  4.07388E+00  3.99312E+00  3.98986E+00  4.02756E+00  4.10318E+00  4.22366E+00  4.36421E+00
   4.48357E+00  4.56876E+00  4.62352E+00  4.65333E+00  4.66580E+00  4.66703E+00  4.65834E+00  4.65855E+00  4.68735E+00  4.75259E+00
   4.87403E+00  5.06504E+00  5.30248E+00  5.52144E+00  5.65598E+00  5.64701E+00  5.48527E+00  5.23441E+00  5.02039E+00  4.96818E+00
   5.11933E+00  5.51547E+00  6.16381E+00  6.93716E+00  7.62878E+00  8.10317E+00  8.28068E+00  8.12126E+00  7.68494E+00  7.04948E+00
   6.29373E+00  5.55552E+00  4.97555E+00  4.61209E+00  4.45663E+00  4.60161E+00  5.23182E+00  6.32936E+00  7.81555E+00  9.63550E+00
   1.16270E+01  1.34950E+01  1.49197E+01  1.56308E+01  1.55383E+01  1.47440E+01  1.34152E+01  1.17573E+01  1.00980E+01  8.76699E+00
   7.80306E+00  7.02927E+00  6.30429E+00  5.81813E+00  5.65737E+00  5.61429E+00  5.61629E+00  5.65243E+00  5.80482E+00  6.21944E+00
   6.93363E+00  7.98730E+00  9.43978E+00  1.12470E+01  1.31809E+01  1.49057E+01  1.60872E+01  1.65064E+01  1.61606E+01  1.51877E+01
   1.37757E+01  1.21721E+01  1.06775E+01  9.47719E+00  8.53079E+00  7.66657E+00  6.90462E+00  6.50446E+00  6.33555E+00  6.25194E+00
   6.20648E+00  6.16704E+00  6.10808E+00  6.02272E+00  5.91425E+00  5.77712E+00  5.61681E+00  5.44242E+00  5.25751E+00  5.07271E+00
   4.90295E+00  4.75930E+00  4.64321E+00  4.51637E+00  4.34446E+00  4.11583E+00  3.81917E+00  3.46123E+00  3.06641E+00  2.68947E+00
   2.41892E+00  2.32015E+00  2.38048E+00  2.51506E+00  2.62242E+00  2.61886E+00  2.45404E+00  2.11099E+00  1.60764E+00  1.01630E+00
   4.62204E-01 -4.57786E-02 -5.45607E-01 -1.02340E+00 -1.42692E+00 -1.62584E+00 -1.60547E+00 -1.46996E+00 -1.29554E+00 -1.13391E+00
  -9.92082E-01 -8.45321E-01 -7.06458E-01 -5.51193E-01 -2.74010E-01  2.27191E-01  9.20103E-01  1.70116E+00  2.57678E+00  3.51876E+00
   4.44699E+00  5.22348E+00  5.75289E+00  6.06561E+00  6.21711E+00  6.28782E+00  6.34962E+00  6.38802E+00  6.44086E+00  6.63948E+00
   7.00110E+00  7.46901E+00  7.90504E+00  8.15562E+00  8.06495E+00  7.52181E+00  6.56750E+00  5.44246E+00  4.40228E+00  3.65769E+00
   3.41325E+00  3.78901E+00  4.71711E+00  5.96035E+00  7.21273E+00  8.09504E+00  8.34789E+00  7.92374E+00  6.93968E+00  5.65546E+00
   4.38342E+00  3.59796E+00  3.61208E+00  4.33437E+00  5.49998E+00  6.89892E+00  8.41686E+00  9.80420E+00  1.08087E+01  1.14345E+01
   1.18464E+01  1.22071E+01  1.25345E+01  1.28198E+01  1.31617E+01  1.36158E+01  1.41162E+01  1.45965E+01  1.50095E+01  1.53478E+01
   1.56596E+01  1.59783E+01  1.63366E+01  1.67945E+01  1.73675E+01  1.80047E+01  1.86236E+01  1.92050E+01  1.97401E+01  2.02479E+01
   2.07960E+01  2.15820E+01  2.33356E+01  2.71157E+01  3.31023E+01  4.16726E+01  5.31753E+01  6.69220E+01  8.08392E+01  9.22027E+01
   9.84728E+01  9.83076E+01  9.21237E+01  8.13516E+01  6.78126E+01  5.37816E+01  4.16992E+01  3.27156E+01  2.59738E+01  1.99143E+01
   1.50354E+01  1.29313E+01  1.20452E+01  1.14737E+01  1.10455E+01  1.06821E+01  1.03197E+01  9.95321E+00  9.58362E+00  9.22315E+00
   8.89160E+00  8.60465E+00  8.36145E+00  8.16549E+00  8.02478E+00  7.93674E+00  7.89331E+00  7.88907E+00  7.92120E+00  7.98962E+00
   8.09291E+00  8.22730E+00  8.39435E+00  8.59404E+00  8.82368E+00  9.08084E+00  9.36325E+00  9.66707E+00  9.98685E+00  1.03172E+01
   1.06532E+01  1.09893E+01  1.13198E+01  1.16400E+01  1.19454E+01  1.22325E+01  1.24989E+01  1.27436E+01  1.29668E+01  1.31702E+01
   1.33568E+01  1.35304E+01  1.36962E+01  1.38608E+01  1.40322E+01  1.42200E+01  1.44369E+01  1.47016E+01  1.50476E+01  1.55444E+01
   1.62181E+01  1.69673E+01  1.77281E+01  1.83876E+01  1.87155E+01  1.84312E+01  1.73430E+01  1.54735E+01  1.31640E+01  1.08184E+01
   8.83130E+00  7.59780E+00  7.43638E+00  8.39861E+00  1.01567E+01  1.21350E+01  1.38443E+01  1.51766E+01  1.60716E+01  1.62489E+01
   1.57875E+01  1.49842E+01  1.41452E+01  1.33905E+01  1.25990E+01  1.17334E+01  1.10700E+01  1.05930E+01  1.02201E+01  9.91754E+00
   9.66836E+00  9.46159E+00  9.28899E+00  9.14370E+00  9.01962E+00  8.91113E+00  8.81302E+00  8.72051E+00  8.62922E+00  8.53535E+00
   8.43563E+00  8.32739E+00  8.20861E+00  8.07800E+00  7.93494E+00  7.77951E+00  7.61237E+00  7.43480E+00  7.24855E+00  7.05582E+00
   6.85915E+00  6.66131E+00  6.46517E+00  6.27368E+00  6.08976E+00  5.91627E+00  5.75595E+00  5.61142E+00  5.48512E+00  5.37944E+00
   5.29668E+00  5.23923E+00  5.20951E+00  5.21016E+00  5.24399E+00  5.31421E+00  5.42436E+00  5.57840E+00  5.78058E+00  6.03539E+00
   6.34737E+00  6.72090E+00  7.15983E+00  7.66713E+00  8.24433E+00  8.89107E+00  9.60459E+00  1.03793E+01  1.12063E+01  1.20734E+01
   1.29647E+01  1.38612E+01  1.47408E+01  1.55796E+01  1.63525E+01  1.70346E+01  1.76020E+01  1.80339E+01  1.83132E+01  1.84277E+01
   1.83711E+01  1.81434E+01  1.77504E+01  1.72042E+01  1.65219E+01  1.57247E+01  1.48366E+01  1.38835E+01  1.28910E+01  1.18841E+01
   1.08855E+01  9.91507E+00  8.98904E+00  8.12008E+00  7.31701E+00  6.58515E+00  5.92665E+00  5.34095E+00  4.82534E+00  4.37553E+00
   3.98616E+00  3.65129E+00  3.36475E+00  3.12045E+00  2.91260E+00  2.73588E+00  2.58552E+00  2.45735E+00  2.34772E+00  2.25355E+00
   2.17224E+00  2.10162E+00  2.03989E+00  1.98563E+00  1.93760E+00  1.89482E+00  1.85647E+00  1.82189E+00  1.79055E+00  1.76202E+00
   1.73590E+00  1.71189E+00  1.68971E+00  1.66917E+00  1.65007E+00  1.63227E+00  1.61560E+00  1.59996E+00  1.58523E+00  1.57135E+00
   1.55822E+00  1.54579E+00  1.53398E+00  1.52273E+00  1.51200E+00  1.50177E+00  1.49198E+00  1.48261E+00  1.47360E+00  1.46495E+00
   1.45662E+00  1.44861E+00  1.44089E+00  1.43344E+00  1.42623E+00  1.41927E+00  1.41253E+00  1.40603E+00  1.39972E+00  1.39361E+00
   1.38767E+00  1.38193E+00  1.37635E+00  1.37097E+00  1.36574E+00  1.36068E+00  1.35576E+00  1.35102E+00  1.34645E+00  1.34205E+00
   1.33780E+00  1.33373E+00  1.32982E+00  1.32611E+00  1.32259E+00  1.31929E+00  1.31619E+00  1.31333E+00
 NY background values follow
     3.529E+00    3.526E+00    3.522E+00    3.518E+00    3.515E+00    3.511E+00    3.508E+00    3.504E+00    3.500E+00    3.497E+00
     3.493E+00    3.489E+00    3.486E+00    3.482E+00    3.479E+00    3.475E+00    3.471E+00    3.468E+00    3.464E+00    3.460E+00
     3.457E+00    3.453E+00    3.449E+00    3.446E+00    3.442E+00    3.439E+00    3.435E+00    3.431E+00    3.428E+00    3.424E+00
     3.420E+00    3.417E+00    3.413E+00    3.409E+00    3.406E+00    3.402E+00    3.398E+00    3.395E+00    3.391E+00    3.388E+00
     3.384E+00    3.380E+00    3.377E+00    3.373E+00    3.369E+00    3.366E+00    3.362E+00    3.358E+00    3.355E+00    3.351E+00
     3.347E+00    3.344E+00    3.340E+00    3.336E+00    3.333E+00    3.329E+00    3.325E+00    3.322E+00    3.318E+00    3.314E+00
     3.311E+00    3.307E+00    3.303E+00    3.299E+00    3.296E+00    3.292E+00    3.288E+00    3.285E+00    3.281E+00    3.277E+00
     3.274E+00    3.270E+00    3.266E+00    3.263E+00    3.259E+00    3.255E+00    3.252E+00    3.248E+00    3.244E+00    3.240E+00
     3.237E+00    3.233E+00    3.229E+00    3.226E+00    3.222E+00    3.218E+00    3.215E+00    3.211E+00    3.207E+00    3.203E+00
     3.200E+00    3.196E+00    3.192E+00    3.189E+00    3.185E+00    3.181E+00    3.177E+00    3.174E+00    3.170E+00    3.166E+00
     3.163E+00    3.159E+00    3.155E+00    3.151E+00    3.148E+00    3.144E+00    3.140E+00    3.137E+00    3.133E+00    3.129E+00
     3.125E+00    3.122E+00    3.118E+00    3.114E+00    3.110E+00    3.107E+00    3.103E+00    3.099E+00    3.095E+00    3.092E+00
     3.088E+00    3.084E+00    3.081E+00    3.077E+00    3.073E+00    3.069E+00    3.066E+00    3.062E+00    3.058E+00    3.054E+00
     3.051E+00    3.047E+00    3.043E+00    3.039E+00    3.036E+00    3.032E+00    3.028E+00    3.024E+00    3.021E+00    3.017E+00
     3.013E+00    3.009E+00    3.006E+00    3.002E+00    2.998E+00    2.994E+00    2.990E+00    2.987E+00    2.983E+00    2.979E+00
     2.975E+00    2.972E+00    2.968E+00    2.964E+00    2.960E+00    2.957E+00    2.953E+00    2.949E+00    2.945E+00    2.942E+00
     2.938E+00    2.934E+00    2.930E+00    2.926E+00    2.923E+00    2.919E+00    2.915E+00    2.911E+00    2.908E+00    2.904E+00
     2.900E+00    2.896E+00    2.892E+00    2.889E+00    2.885E+00    2.881E+00    2.877E+00    2.874E+00    2.870E+00    2.866E+00
     2.862E+00    2.858E+00    2.855E+00    2.851E+00    2.847E+00    2.843E+00    2.839E+00    2.836E+00    2.832E+00    2.828E+00
     2.824E+00    2.820E+00    2.817E+00    2.813E+00    2.809E+00    2.805E+00    2.801E+00    2.798E+00    2.794E+00    2.790E+00
     2.786E+00    2.782E+00    2.779E+00    2.775E+00    2.771E+00    2.767E+00    2.763E+00    2.760E+00    2.756E+00    2.752E+00
     2.748E+00    2.744E+00    2.741E+00    2.737E+00    2.733E+00    2.729E+00    2.725E+00    2.721E+00    2.718E+00    2.714E+00
     2.710E+00    2.706E+00    2.702E+00    2.699E+00    2.695E+00    2.691E+00    2.687E+00    2.683E+00    2.679E+00    2.676E+00
     2.672E+00    2.668E+00    2.664E+00    2.660E+00    2.656E+00    2.653E+00    2.649E+00    2.645E+00    2.641E+00    2.637E+00
     2.633E+00    2.630E+00    2.626E+00    2.622E+00    2.618E+00    2.614E+00    2.610E+00    2.607E+00    2.603E+00    2.599E+00
     2.595E+00    2.591E+00    2.587E+00    2.584E+00    2.580E+00    2.576E+00    2.572E+00    2.568E+00    2.564E+00    2.561E+00
     2.557E+00    2.553E+00    2.549E+00    2.545E+00    2.541E+00    2.537E+00    2.534E+00    2.530E+00    2.526E+00    2.522E+00
     2.518E+00    2.514E+00    2.511E+00    2.507E+00    2.503E+00    2.499E+00    2.495E+00    2.491E+00    2.487E+00    2.484E+00
     2.480E+00    2.476E+00    2.472E+00    2.468E+00    2.464E+00    2.460E+00    2.457E+00    2.453E+00    2.449E+00    2.445E+00
     2.441E+00    2.437E+00    2.433E+00    2.430E+00    2.426E+00    2.422E+00    2.418E+00    2.414E+00    2.410E+00    2.406E+00
     2.403E+00    2.399E+00    2.395E+00    2.391E+00    2.387E+00    2.383E+00    2.379E+00    2.375E+00    2.372E+00    2.368E+00
     2.364E+00    2.360E+00    2.356E+00    2.352E+00    2.348E+00    2.344E+00    2.341E+00    2.337E+00    2.333E+00    2.329E+00
     2.325E+00    2.321E+00    2.317E+00    2.313E+00    2.310E+00    2.306E+00    2.302E+00    2.298E+00    2.294E+00    2.290E+00
     2.286E+00    2.282E+00    2.279E+00    2.275E+00    2.271E+00    2.267E+00    2.263E+00    2.259E+00    2.255E+00    2.251E+00
     2.248E+00    2.244E+00    2.240E+00    2.236E+00    2.232E+00    2.228E+00    2.224E+00    2.220E+00    2.216E+00    2.213E+00
     2.209E+00    2.205E+00    2.201E+00    2.197E+00    2.193E+00    2.189E+00    2.185E+00    2.181E+00    2.178E+00    2.174E+00
     2.170E+00    2.166E+00    2.162E+00    2.158E+00    2.154E+00    2.150E+00    2.146E+00    2.143E+00    2.139E+00    2.135E+00
     2.131E+00    2.127E+00    2.123E+00    2.119E+00    2.115E+00    2.111E+00    2.108E+00    2.104E+00    2.100E+00    2.096E+00
     2.092E+00    2.088E+00    2.084E+00    2.080E+00    2.076E+00    2.073E+00    2.069E+00    2.065E+00    2.061E+00    2.057E+00
     2.053E+00    2.049E+00    2.045E+00    2.041E+00    2.037E+00    2.034E+00    2.030E+00    2.026E+00    2.022E+00    2.018E+00
     2.014E+00    2.010E+00    2.006E+00    2.002E+00    1.998E+00    1.995E+00    1.991E+00    1.987E+00    1.983E+00    1.979E+00
     1.975E+00    1.971E+00    1.967E+00    1.963E+00    1.959E+00    1.956E+00    1.952E+00    1.948E+00    1.944E+00    1.940E+00
     1.936E+00    1.932E+00    1.928E+00    1.924E+00    1.920E+00    1.917E+00    1.913E+00    1.909E+00    1.905E+00    1.901E+00
     1.897E+00    1.893E+00    1.889E+00    1.885E+00    1.881E+00    1.878E+00    1.874E+00    1.870E+00    1.866E+00    1.862E+00
     1.858E+00    1.854E+00    1.850E+00    1.846E+00    1.842E+00    1.839E+00    1.835E+00    1.831E+00    1.827E+00    1.823E+00
     1.819E+00    1.815E+00    1.811E+00    1.807E+00    1.803E+00    1.800E+00    1.796E+00    1.792E+00    1.788E+00    1.784E+00
     1.780E+00    1.776E+00    1.772E+00    1.768E+00    1.764E+00    1.761E+00    1.757E+00    1.753E+00    1.749E+00    1.745E+00
     1.741E+00    1.737E+00    1.733E+00    1.729E+00    1.725E+00    1.722E+00    1.718E+00    1.714E+00    1.710E+00    1.706E+00
     1.702E+00    1.698E+00    1.694E+00    1.690E+00    1.686E+00    1.683E+00    1.679E+00    1.675E+00    1.671E+00    1.667E+00
     1.663E+00    1.659E+00    1.655E+00    1.651E+00    1.647E+00    1.643E+00    1.640E+00    1.636E+00
 Ala      Conc. = 6.51E+02
