 LCModel (Version 6.3-1L) Copyright: S.W. Provencher.          Ref.: Magn. Reson. Med. 30:672-679 (1993).                
 Slice#2 Row#7 Col#11  PD_24_press_2_raw_act
 36 lines in following concentration table = NCONC+1
    Conc.  %SD /Cr+PCr  Metabolite                                         
  369.010  48%   0.480 Ala                                                 
    0.000 999%   0.000 Asp                                                 
    0.000 999%   0.000 Cr                                                  
  768.658   9%   1.000 PCr                                                 
    0.000 999%   0.000 GABA                                                
  249.484  64%   0.325 Glc                                                 
 1.26E+03  28%   1.643 Gln                                                 
 1.67E+03  23%   2.175 Glu                                                 
  204.919  13%   0.267 GPC                                                 
    0.000 999%   0.000 PCh                                                 
    4.418 999% 5.7E-03 GSH                                                 
  526.804  61%   0.685 Ins                                                 
    0.000 999%   0.000 Lac                                                 
 3.66E+03   5%   4.761 NAA                                                 
   43.478 469% 5.7E-02 NAAG                                                
  100.977  32%   0.131 Scyllo                                              
  499.291  45%   0.650 Tau                                                 
  721.692  16%   0.939 -CrCH2                                              
  204.919  13%   0.267 GPC+PCh                                             
 3.70E+03   3%   4.817 NAA+NAAG                                            
  768.658   9%   1.000 Cr+PCr                                              
 2.93E+03  20%   3.818 Glu+Gln                                             
 1.93E+03  24%   2.510 Lip13a                                              
    0.000 999%   0.000 Lip13b                                              
    0.000 999%   0.000 Lip09                                               
 2.01E+03  11%   2.617 MM09                                                
  383.864  43%   0.499 Lip20                                               
 4.35E+03  10%   5.663 MM20                                                
  650.384  24%   0.846 MM12                                                
 3.53E+03  13%   4.590 MM14                                                
 1.90E+03  18%   2.478 MM17                                                
 1.93E+03  24%   2.510 Lip13a+Lip13b                                       
 6.11E+03   8%   7.946 MM14+Lip13a+Lip13b+MM12                             
 2.01E+03  11%   2.617 MM09+Lip09                                          
 4.74E+03   9%   6.163 MM20+Lip20                                          
   6 lines in following misc. output table
  FWHM = 0.061 ppm    S/N =  14                                            
  Data shift = 0.008 ppm                                                   
  Ph: -65 deg     -24.9 deg/ppm                                            
  alphaB,S = 8.5E+01,   2.9E+02                                            
   14 spline knots.   Ns = 8(1)                                            
   2 inflections.     1 extrema                                            
  498 points on ppm-axis = NY
      4.000000     3.992357     3.984714     3.977070     3.969427     3.961784     3.954141     3.946497     3.938854     3.931211
      3.923568     3.915925     3.908281     3.900638     3.892995     3.885352     3.877708     3.870065     3.862422     3.854779
      3.847136     3.839492     3.831849     3.824206     3.816563     3.808919     3.801276     3.793633     3.785990     3.778347
      3.770703     3.763060     3.755417     3.747774     3.740130     3.732487     3.724844     3.717201     3.709558     3.701914
      3.694271     3.686628     3.678985     3.671341     3.663698     3.656055     3.648412     3.640769     3.633125     3.625482
      3.617839     3.610196     3.602552     3.594909     3.587266     3.579623     3.571980     3.564336     3.556693     3.549050
      3.541407     3.533763     3.526120     3.518477     3.510834     3.503191     3.495547     3.487904     3.480261     3.472618
      3.464974     3.457331     3.449688     3.442045     3.434402     3.426758     3.419115     3.411472     3.403829     3.396185
      3.388542     3.380899     3.373256     3.365613     3.357969     3.350326     3.342683     3.335040     3.327396     3.319753
      3.312110     3.304467     3.296824     3.289180     3.281537     3.273894     3.266251     3.258607     3.250964     3.243321
      3.235678     3.228034     3.220391     3.212748     3.205105     3.197462     3.189818     3.182175     3.174532     3.166889
      3.159245     3.151602     3.143959     3.136316     3.128673     3.121029     3.113386     3.105743     3.098100     3.090456
      3.082813     3.075170     3.067527     3.059884     3.052240     3.044597     3.036954     3.029311     3.021667     3.014024
      3.006381     2.998738     2.991095     2.983451     2.975808     2.968165     2.960522     2.952878     2.945235     2.937592
      2.929949     2.922306     2.914662     2.907019     2.899376     2.891733     2.884089     2.876446     2.868803     2.861160
      2.853517     2.845873     2.838230     2.830587     2.822944     2.815300     2.807657     2.800014     2.792371     2.784728
      2.777084     2.769441     2.761798     2.754155     2.746511     2.738868     2.731225     2.723582     2.715939     2.708295
      2.700652     2.693009     2.685366     2.677722     2.670079     2.662436     2.654793     2.647150     2.639506     2.631863
      2.624220     2.616577     2.608933     2.601290     2.593647     2.586004     2.578361     2.570717     2.563074     2.555431
      2.547788     2.540144     2.532501     2.524858     2.517215     2.509572     2.501928     2.494285     2.486642     2.478999
      2.471355     2.463712     2.456069     2.448426     2.440783     2.433139     2.425496     2.417853     2.410210     2.402566
      2.394923     2.387280     2.379637     2.371994     2.364350     2.356707     2.349064     2.341421     2.333777     2.326134
      2.318491     2.310848     2.303205     2.295561     2.287918     2.280275     2.272632     2.264988     2.257345     2.249702
      2.242059     2.234416     2.226772     2.219129     2.211486     2.203843     2.196199     2.188556     2.180913     2.173270
      2.165627     2.157983     2.150340     2.142697     2.135054     2.127410     2.119767     2.112124     2.104481     2.096838
      2.089194     2.081551     2.073908     2.066265     2.058621     2.050978     2.043335     2.035692     2.028049     2.020405
      2.012762     2.005119     1.997476     1.989833     1.982190     1.974546     1.966903     1.959260     1.951617     1.943974
      1.936331     1.928688     1.921045     1.913402     1.905759     1.898115     1.890472     1.882829     1.875186     1.867543
      1.859900     1.852257     1.844614     1.836971     1.829327     1.821684     1.814041     1.806398     1.798755     1.791112
      1.783469     1.775826     1.768183     1.760540     1.752896     1.745253     1.737610     1.729967     1.722324     1.714681
      1.707038     1.699395     1.691752     1.684108     1.676465     1.668822     1.661179     1.653536     1.645893     1.638250
      1.630607     1.622964     1.615321     1.607677     1.600034     1.592391     1.584748     1.577105     1.569462     1.561819
      1.554176     1.546533     1.538890     1.531246     1.523603     1.515960     1.508317     1.500674     1.493031     1.485388
      1.477745     1.470102     1.462458     1.454815     1.447172     1.439529     1.431886     1.424243     1.416600     1.408957
      1.401314     1.393671     1.386027     1.378384     1.370741     1.363098     1.355455     1.347812     1.340169     1.332526
      1.324883     1.317240     1.309596     1.301953     1.294310     1.286667     1.279024     1.271381     1.263738     1.256095
      1.248452     1.240808     1.233165     1.225522     1.217879     1.210236     1.202593     1.194950     1.187307     1.179664
      1.172021     1.164377     1.156734     1.149091     1.141448     1.133805     1.126162     1.118519     1.110876     1.103233
      1.095590     1.087946     1.080303     1.072660     1.065017     1.057374     1.049731     1.042088     1.034445     1.026802
      1.019158     1.011515     1.003872     0.996229     0.988586     0.980943     0.973300     0.965657     0.958014     0.950371
      0.942727     0.935084     0.927441     0.919798     0.912155     0.904512     0.896869     0.889226     0.881583     0.873940
      0.866296     0.858653     0.851010     0.843367     0.835724     0.828081     0.820438     0.812795     0.805152     0.797508
      0.789865     0.782222     0.774579     0.766936     0.759293     0.751650     0.744007     0.736364     0.728721     0.721077
      0.713434     0.705791     0.698148     0.690505     0.682862     0.675219     0.667576     0.659933     0.652290     0.644646
      0.637003     0.629360     0.621717     0.614074     0.606431     0.598788     0.591145     0.583502     0.575858     0.568215
      0.560572     0.552929     0.545286     0.537643     0.530000     0.522357     0.514714     0.507071     0.499427     0.491784
      0.484141     0.476498     0.468855     0.461212     0.453569     0.445925     0.438282     0.430639     0.422996     0.415353
      0.407710     0.400067     0.392424     0.384780     0.377137     0.369494     0.361851     0.354208     0.346565     0.338922
      0.331278     0.323635     0.315992     0.308349     0.300706     0.293063     0.285420     0.277777     0.270133     0.262490
      0.254847     0.247204     0.239561     0.231918     0.224275     0.216631     0.208988     0.201345
 NY phased data points follow
   5.97536E+00  7.22172E+00  1.09567E+01  8.72883E+00  1.00961E+01  6.80860E+00  7.91665E+00  6.21654E+00  9.43417E+00  9.43941E+00
   2.77829E+00  2.39854E+00 -5.86962E+00  8.01210E+00  3.81144E+00  2.42838E+00  5.79398E+00  4.53918E+00  2.17339E+00  4.46247E+00
   7.26404E+00  1.10632E+01  1.32694E+01  9.27762E+00  9.78047E+00  8.64674E+00  5.34129E+00  1.10568E+01  5.55519E+00  5.17538E+00
   2.36267E+00  5.84327E+00  2.14666E+00  7.31081E+00  8.57304E+00  7.81096E+00  4.18845E+00  6.30227E+00  8.97964E+00  7.25946E+00
   8.93964E+00  1.36022E+01  4.64603E+00  1.19194E+01  4.23920E+00  7.51740E+00  7.94684E+00  1.05363E+01  1.12487E+01  9.45541E+00
   4.52047E+00  8.21994E+00  4.76033E+00  6.45754E+00  6.70873E+00  9.23678E+00  3.84561E+00  6.01552E+00  4.53976E+00  1.47459E+01
   9.02744E+00  4.28309E+00  5.65002E+00  1.50272E-01  5.47183E+00  8.70910E+00  7.32355E+00  7.37503E+00  7.43521E+00  8.23415E+00
   4.44860E+00  7.30296E+00  1.03162E+01  5.54016E+00  8.27918E+00  8.48535E+00  7.89632E+00  7.86975E+00  1.11849E+01  7.97745E+00
   1.13245E+01  9.72713E+00  6.19429E+00  1.11616E+01  6.61348E+00  7.07542E+00  1.23475E+01  1.25533E+01  8.07166E+00  9.06993E+00
   9.29078E+00  7.42810E+00  1.07964E+01  4.11942E+00  9.65356E+00  1.35804E+01  8.19067E+00  1.44987E+01  1.36777E+01  1.93410E+01
   2.09243E+01  2.28885E+01  2.42475E+01  2.51362E+01  1.81705E+01  1.18279E+01  1.05504E+01  1.60836E+01  1.15567E+01  1.15803E+01
   6.96770E+00  7.50298E+00  4.54518E+00  1.08673E+01  1.46730E+00  7.22180E+00  7.81550E+00  7.37875E+00  9.70616E+00  7.78440E+00
   1.01018E+01  1.45391E+01  1.86346E+01  2.02571E+01  2.52247E+01  2.83900E+01  2.52671E+01  3.46969E+01  3.11715E+01  2.48941E+01
   2.20266E+01  6.54462E+00  1.30488E+01  2.70454E+00  9.89965E+00  9.26494E+00  1.19485E+01  5.23972E+00  5.44370E+00  4.90662E+00
   1.07569E+01  6.95125E+00  4.85646E+00  1.26273E+01  9.52297E+00  2.59167E+00  3.91048E+00  4.96283E+00 -4.14383E+00  4.10732E+00
   6.29298E+00  7.45078E+00  3.08072E+00  7.59073E+00  1.23958E+01  4.24942E+00  6.26990E+00  1.04301E+00  4.54932E+00  6.38212E+00
   8.10637E+00  5.98654E+00  5.31668E+00  5.06974E+00 -2.13218E-02  1.40493E+00  4.72233E+00 -2.07628E+00 -4.57846E-01 -8.08282E+00
  -1.10961E+01 -4.84767E+00 -6.94392E+00 -9.71256E+00 -1.05436E+01 -9.07430E+00 -7.68716E+00 -7.34121E+00 -2.59875E+00 -5.72136E+00
  -1.48686E+00 -2.71368E+00 -4.38690E+00  2.83680E+00  1.85896E+00 -6.38362E-01 -2.72242E+00  5.35002E-01 -1.27824E+00  2.89218E-01
   1.31769E+00  5.98546E+00  3.17564E+00 -1.24471E+00  5.35563E+00  3.15959E+00 -2.40073E+00 -5.00798E+00 -5.52709E+00 -1.01769E+00
   1.43596E+00 -1.27863E+00 -1.11317E+00  5.80248E+00  7.84124E+00  4.00556E+00  9.50805E+00  1.18473E+00  2.47453E+00  6.42022E+00
   4.83972E+00  1.22060E+01  1.03419E+01  1.52557E+01  1.97435E+01  2.06410E+01  2.47239E+01  2.21106E+01  1.12218E+01  1.25017E+01
   1.05475E+01  3.49410E+00  5.50827E+00  1.19329E+01  1.32810E+01  1.11161E+01  1.31657E+01  1.34006E+01  1.41688E+01  1.57915E+01
   1.63844E+01  1.29026E+01  9.10398E+00  1.69440E+01  1.71725E+01  1.42556E+01  1.81313E+01  1.33545E+01  1.57213E+01  1.40396E+01
   9.47693E+00  9.36665E+00  1.45988E+01  1.31756E+01  1.42618E+01  1.65098E+01  1.62202E+01  1.31022E+01  1.81316E+01  2.22792E+01
   2.45689E+01  3.01135E+01  3.12431E+01  3.58869E+01  4.58589E+01  5.51647E+01  7.19828E+01  8.88103E+01  1.02512E+02  1.19232E+02
   1.23182E+02  1.32359E+02  1.12773E+02  9.12893E+01  7.26917E+01  5.60783E+01  4.48525E+01  3.78365E+01  2.75526E+01  2.80798E+01
   2.15291E+01  1.99272E+01  1.85066E+01  1.03434E+01  1.96840E+01  1.32114E+01  1.26931E+01  1.34689E+01  6.57023E+00  1.44087E+01
   9.29823E+00  1.02796E+01  8.16110E+00  6.76198E+00  1.29956E+01  5.43173E+00  5.27873E+00  5.14356E+00  6.92466E+00  1.07670E+01
   4.97426E+00  9.97377E+00  6.41018E+00  3.52267E+00  7.20314E+00  6.43890E+00  2.81586E+00  9.01901E+00  1.09021E+01  1.34411E+01
   8.16611E+00  7.20783E+00  1.09764E+01  1.33871E+01  1.29784E+01  1.29296E+01  1.31456E+01  1.69933E+01  1.77495E+01  1.80810E+01
   1.91865E+01  2.37738E+01  2.47196E+01  2.69524E+01  2.50880E+01  2.51497E+01  2.61896E+01  2.49525E+01  2.68769E+01  3.38022E+01
   2.93328E+01  3.31394E+01  2.42095E+01  3.06943E+01  3.03499E+01  3.27761E+01  2.17085E+01  2.24421E+01  2.94205E+01  2.47985E+01
   2.55990E+01  2.37396E+01  2.59477E+01  2.55510E+01  1.96669E+01  2.74534E+01  2.86652E+01  2.54349E+01  2.82234E+01  2.43528E+01
   1.79014E+01  2.11448E+01  2.40774E+01  2.46612E+01  2.13406E+01  2.18486E+01  2.26584E+01  2.39722E+01  2.24412E+01  2.04234E+01
   2.35925E+01  1.92228E+01  1.57690E+01  1.91900E+01  1.06176E+01  1.57531E+01  1.59789E+01  1.64512E+01  1.02470E+01  1.65823E+01
   1.25044E+01  1.51085E+01  1.37191E+01  1.63259E+01  1.66799E+01  1.52001E+01  1.10911E+01  1.09677E+01  1.07910E+01  1.22155E+01
   1.52433E+01  1.58500E+01  1.12375E+01  9.68368E+00  9.20265E+00  7.03401E+00  9.77460E+00  6.64010E+00  8.80455E+00  5.16446E+00
   4.92565E+00  4.78850E+00  3.98670E+00  3.44733E+00  1.91427E+00  7.71426E+00  6.34893E+00  9.25736E+00  4.69422E-01  3.14365E+00
   1.18329E+00  2.64130E+00  7.46010E+00  6.91773E+00  1.03977E+01  9.45365E+00  4.50998E+00  6.42947E+00  7.91470E+00  1.84632E+01
   1.30524E+01  2.03025E+01  1.28376E+01  1.42590E+01  1.08889E+01  1.47610E+01  1.54417E+01  1.30479E+01  1.49707E+01  1.60190E+01
   1.43169E+01  1.60815E+01  1.17840E+01  1.64374E+01  8.07249E+00  1.87873E+01  1.41734E+01  1.16125E+01  1.01691E+01  6.48685E+00
   5.93368E+00  5.69172E+00  3.35929E+00  2.44050E+00  3.53019E+00  4.19435E+00  8.13779E-01  2.88196E+00  2.00514E+00  1.03229E+00
   2.87573E-01  1.16618E+00  3.72972E+00  6.13731E+00  5.21793E+00  1.00743E+00 -1.46457E+00  4.34614E+00  2.57088E+00 -1.97485E+00
   1.31834E+00  6.29213E-01 -3.74464E+00  6.02232E+00 -9.39834E-01 -3.06643E+00 -4.00903E-01 -3.36421E+00 -1.53823E+00 -8.63398E-01
   2.61554E+00 -3.28139E+00  4.34268E-01 -6.84175E-01  3.97799E-01 -3.48984E+00 -3.33980E+00 -1.47908E+00 -2.70901E+00  1.00192E+00
  -1.49875E+00  1.47316E+00  6.88151E-01 -5.68872E-01  1.00661E+00  2.64125E+00  2.09311E+00  9.92058E-01  7.76600E-01 -2.11289E+00
   3.63443E+00  4.00754E+00 -1.15029E+00  5.47629E+00  2.49231E+00  5.00935E+00  1.97477E+00  1.88154E+00  2.87023E+00  6.24544E+00
  -2.33473E+00  5.50304E+00  6.32905E-02  3.50837E+00 -1.38995E+00 -2.14456E+00  2.31909E+00 -5.64151E+00  5.21986E+00  1.62988E-01
  -1.53428E+00  2.14519E+00  6.86551E+00 -2.35981E+00 -1.80954E+00  1.26674E+00 -2.06157E+00  1.35061E+00
 NY points of the fit to the data follow
   6.13598E+00  6.67907E+00  7.25794E+00  7.83119E+00  8.36191E+00  8.74691E+00  8.85880E+00  8.57138E+00  7.82794E+00  6.71418E+00
   5.49861E+00  4.55806E+00  4.11578E+00  4.12472E+00  4.37567E+00  4.67343E+00  4.97920E+00  5.35524E+00  5.94868E+00  6.66105E+00
   7.10460E+00  7.26562E+00  7.13100E+00  6.75382E+00  6.23166E+00  5.69572E+00  5.33524E+00  5.34850E+00  5.79132E+00  6.63070E+00
   7.73689E+00  8.82216E+00  9.54118E+00  9.68646E+00  9.25508E+00  8.42020E+00  7.43029E+00  6.60404E+00  6.10207E+00  5.96672E+00
   6.17105E+00  6.64892E+00  7.27040E+00  7.91494E+00  8.53653E+00  9.08442E+00  9.44740E+00  9.54546E+00  9.36087E+00  8.89384E+00
   8.21676E+00  7.49598E+00  6.88338E+00  6.45575E+00  6.20587E+00  6.09679E+00  6.08646E+00  6.15092E+00  6.28044E+00  6.44649E+00
   6.57135E+00  6.62742E+00  6.60549E+00  6.52043E+00  6.43117E+00  6.38176E+00  6.37040E+00  6.41715E+00  6.55780E+00  6.78909E+00
   7.09353E+00  7.44945E+00  7.80447E+00  8.08247E+00  8.22533E+00  8.18739E+00  7.94528E+00  7.55144E+00  7.19953E+00  7.11120E+00
   7.31763E+00  7.78833E+00  8.45331E+00  9.17241E+00  9.78802E+00  1.01837E+01  1.02485E+01  9.88615E+00  9.13898E+00  8.17514E+00
   7.20332E+00  6.41058E+00  5.85400E+00  5.58777E+00  5.97258E+00  7.24640E+00  9.30349E+00  1.19689E+01  1.49423E+01  1.78871E+01
   2.04434E+01  2.22192E+01  2.28598E+01  2.21604E+01  2.02565E+01  1.76592E+01  1.49821E+01  1.26464E+01  1.07879E+01  9.33324E+00
   8.11023E+00  7.09516E+00  6.50004E+00  6.27085E+00  6.14976E+00  6.08952E+00  6.09618E+00  6.25226E+00  7.00690E+00  8.71722E+00
   1.12054E+01  1.43026E+01  1.78467E+01  2.15621E+01  2.50162E+01  2.76464E+01  2.88743E+01  2.83228E+01  2.60838E+01  2.27845E+01
   1.92538E+01  1.61188E+01  1.36060E+01  1.16249E+01  9.98757E+00  8.63089E+00  7.77232E+00  7.41118E+00  7.19761E+00  7.02504E+00
   6.86933E+00  6.72212E+00  6.57908E+00  6.43960E+00  6.30365E+00  6.17244E+00  6.04602E+00  5.92588E+00  5.81363E+00  5.71244E+00
   5.62533E+00  5.55680E+00  5.50081E+00  5.39415E+00  5.17434E+00  4.85537E+00  4.46910E+00  4.08351E+00  3.73492E+00  3.40636E+00
   3.13130E+00  2.96761E+00  2.94336E+00  3.01415E+00  3.05037E+00  2.89885E+00  2.47001E+00  1.79242E+00  9.68357E-01  1.01939E-01
  -6.71545E-01 -1.33742E+00 -1.92843E+00 -2.44857E+00 -2.87753E+00 -3.09307E+00 -3.05507E+00 -2.82802E+00 -2.50080E+00 -2.22936E+00
  -2.10409E+00 -2.02602E+00 -1.86728E+00 -1.53426E+00 -1.00474E+00 -3.26695E-01  4.38149E-01  1.26941E+00  2.20734E+00  3.22613E+00
   4.15804E+00  4.80373E+00  5.15013E+00  5.38047E+00  5.64785E+00  6.02864E+00  6.61398E+00  7.38393E+00  8.26222E+00  9.20807E+00
   1.00578E+01  1.05559E+01  1.04552E+01  9.69422E+00  8.25944E+00  6.17688E+00  3.70419E+00  1.39348E+00 -1.58961E-01 -5.46024E-01
   2.94666E-01  2.17891E+00  4.67273E+00  7.24889E+00  9.43598E+00  1.07639E+01  1.09694E+01  1.00837E+01  8.31880E+00  6.11865E+00
   4.10230E+00  2.88528E+00  2.73701E+00  3.59683E+00  5.23509E+00  7.32530E+00  9.46648E+00  1.12081E+01  1.22780E+01  1.27878E+01
   1.29503E+01  1.29780E+01  1.30295E+01  1.32102E+01  1.36094E+01  1.42758E+01  1.51270E+01  1.59962E+01  1.66720E+01  1.69662E+01
   1.68394E+01  1.64232E+01  1.59798E+01  1.57926E+01  1.60055E+01  1.65930E+01  1.74798E+01  1.85829E+01  1.98144E+01  2.11492E+01
   2.25961E+01  2.43581E+01  2.77847E+01  3.51145E+01  4.59570E+01  5.93602E+01  7.46134E+01  9.06521E+01  1.05744E+02  1.17546E+02
   1.23432E+02  1.21356E+02  1.11092E+02  9.50291E+01  7.70162E+01  6.04157E+01  4.68593E+01  3.62554E+01  2.77165E+01  2.06650E+01
   1.57190E+01  1.35448E+01  1.25532E+01  1.18927E+01  1.13793E+01  1.09262E+01  1.04648E+01  9.99201E+00  9.51847E+00  9.06041E+00
   8.63329E+00  8.24593E+00  7.89724E+00  7.58965E+00  7.32755E+00  7.10791E+00  6.92307E+00  6.77051E+00  6.65222E+00  6.57251E+00
   6.53374E+00  6.53693E+00  6.58773E+00  6.69254E+00  6.85658E+00  7.08624E+00  7.38879E+00  7.77199E+00  8.24226E+00  8.80519E+00
   9.46491E+00  1.02237E+01  1.10804E+01  1.20307E+01  1.30658E+01  1.41739E+01  1.53394E+01  1.65444E+01  1.77678E+01  1.89873E+01
   2.01797E+01  2.13230E+01  2.23973E+01  2.33874E+01  2.42826E+01  2.50794E+01  2.57824E+01  2.64089E+01  2.69999E+01  2.76257E+01
   2.82424E+01  2.87413E+01  2.90692E+01  2.91766E+01  2.89955E+01  2.84509E+01  2.74897E+01  2.62174E+01  2.48823E+01  2.37208E+01
   2.29566E+01  2.27229E+01  2.30090E+01  2.36829E+01  2.45456E+01  2.53812E+01  2.59971E+01  2.62709E+01  2.61151E+01  2.55761E+01
   2.48281E+01  2.40108E+01  2.31889E+01  2.23700E+01  2.15510E+01  2.08049E+01  2.01932E+01  1.96759E+01  1.92266E+01  1.88315E+01
   1.84796E+01  1.81611E+01  1.78655E+01  1.75828E+01  1.73030E+01  1.70167E+01  1.67155E+01  1.63928E+01  1.60433E+01  1.56636E+01
   1.52520E+01  1.48086E+01  1.43353E+01  1.38355E+01  1.33136E+01  1.27751E+01  1.22260E+01  1.16727E+01  1.11217E+01  1.05796E+01
   1.00522E+01  9.54541E+00  9.06393E+00  8.61242E+00  8.19458E+00  7.81388E+00  7.47281E+00  7.17367E+00  6.91806E+00  6.70769E+00
   6.54377E+00  6.42769E+00  6.36040E+00  6.34319E+00  6.37712E+00  6.46369E+00  6.60408E+00  6.79968E+00  7.05128E+00  7.35965E+00
   7.72467E+00  8.14579E+00  8.62097E+00  9.14709E+00  9.71902E+00  1.03302E+01  1.09718E+01  1.16335E+01  1.23024E+01  1.29644E+01
   1.36036E+01  1.42037E+01  1.47478E+01  1.52198E+01  1.56043E+01  1.58882E+01  1.60606E+01  1.61142E+01  1.60448E+01  1.58524E+01
   1.55405E+01  1.51165E+01  1.45906E+01  1.39764E+01  1.32890E+01  1.25449E+01  1.17611E+01  1.09544E+01  1.01406E+01  9.33437E+00
   8.54813E+00  7.79249E+00  7.07552E+00  6.40335E+00  5.77977E+00  5.20696E+00  4.68509E+00  4.21325E+00  3.78918E+00  3.41020E+00
   3.07284E+00  2.77366E+00  2.50876E+00  2.27457E+00  2.06742E+00  1.88422E+00  1.72189E+00  1.57787E+00  1.44959E+00  1.33505E+00
   1.23231E+00  1.13995E+00  1.05650E+00  9.80919E-01  9.12010E-01  8.49047E-01  7.91183E-01  7.37973E-01  6.88748E-01  6.43154E-01
   6.00620E-01  5.60947E-01  5.23737E-01  4.88901E-01  4.56061E-01  4.25117E-01  3.95736E-01  3.67924E-01  3.41448E-01  3.16339E-01
   2.92324E-01  2.69408E-01  2.47369E-01  2.26300E-01  2.06029E-01  1.86621E-01  1.67847E-01  1.49766E-01  1.32214E-01  1.15326E-01
   9.89482E-02  8.31583E-02  6.77555E-02  5.28381E-02  3.82793E-02  2.42233E-02  1.05160E-02 -2.76428E-03 -1.57947E-02 -2.84478E-02
  -4.08295E-02 -5.27973E-02 -6.45087E-02 -7.58797E-02 -8.70590E-02 -9.78951E-02 -1.08484E-01 -1.18692E-01 -1.28679E-01 -1.38347E-01
  -1.47814E-01 -1.56909E-01 -1.65722E-01 -1.74125E-01 -1.82268E-01 -1.90021E-01 -1.97463E-01 -2.04396E-01
 NY background values follow
     4.631E+00    4.622E+00    4.614E+00    4.606E+00    4.597E+00    4.589E+00    4.580E+00    4.572E+00    4.564E+00    4.555E+00
     4.547E+00    4.539E+00    4.530E+00    4.522E+00    4.513E+00    4.505E+00    4.497E+00    4.488E+00    4.480E+00    4.471E+00
     4.463E+00    4.455E+00    4.446E+00    4.438E+00    4.429E+00    4.421E+00    4.413E+00    4.404E+00    4.396E+00    4.387E+00
     4.379E+00    4.371E+00    4.362E+00    4.354E+00    4.345E+00    4.337E+00    4.328E+00    4.320E+00    4.311E+00    4.303E+00
     4.295E+00    4.286E+00    4.278E+00    4.269E+00    4.261E+00    4.252E+00    4.244E+00    4.235E+00    4.227E+00    4.218E+00
     4.210E+00    4.201E+00    4.193E+00    4.184E+00    4.176E+00    4.168E+00    4.159E+00    4.151E+00    4.142E+00    4.134E+00
     4.125E+00    4.117E+00    4.108E+00    4.100E+00    4.091E+00    4.083E+00    4.074E+00    4.066E+00    4.057E+00    4.048E+00
     4.040E+00    4.031E+00    4.023E+00    4.014E+00    4.006E+00    3.997E+00    3.989E+00    3.980E+00    3.972E+00    3.963E+00
     3.955E+00    3.946E+00    3.938E+00    3.929E+00    3.920E+00    3.912E+00    3.903E+00    3.895E+00    3.886E+00    3.878E+00
     3.869E+00    3.861E+00    3.852E+00    3.843E+00    3.835E+00    3.826E+00    3.818E+00    3.809E+00    3.801E+00    3.792E+00
     3.783E+00    3.775E+00    3.766E+00    3.758E+00    3.749E+00    3.741E+00    3.732E+00    3.723E+00    3.715E+00    3.706E+00
     3.698E+00    3.689E+00    3.680E+00    3.672E+00    3.663E+00    3.655E+00    3.646E+00    3.637E+00    3.629E+00    3.620E+00
     3.612E+00    3.603E+00    3.594E+00    3.586E+00    3.577E+00    3.568E+00    3.560E+00    3.551E+00    3.543E+00    3.534E+00
     3.525E+00    3.517E+00    3.508E+00    3.499E+00    3.491E+00    3.482E+00    3.473E+00    3.465E+00    3.456E+00    3.448E+00
     3.439E+00    3.430E+00    3.422E+00    3.413E+00    3.404E+00    3.396E+00    3.387E+00    3.378E+00    3.370E+00    3.361E+00
     3.352E+00    3.344E+00    3.335E+00    3.326E+00    3.318E+00    3.309E+00    3.300E+00    3.292E+00    3.283E+00    3.274E+00
     3.266E+00    3.257E+00    3.248E+00    3.240E+00    3.231E+00    3.222E+00    3.214E+00    3.205E+00    3.196E+00    3.187E+00
     3.179E+00    3.170E+00    3.161E+00    3.153E+00    3.144E+00    3.135E+00    3.127E+00    3.118E+00    3.109E+00    3.101E+00
     3.092E+00    3.083E+00    3.074E+00    3.066E+00    3.057E+00    3.048E+00    3.040E+00    3.031E+00    3.022E+00    3.013E+00
     3.005E+00    2.996E+00    2.987E+00    2.979E+00    2.970E+00    2.961E+00    2.952E+00    2.944E+00    2.935E+00    2.926E+00
     2.918E+00    2.909E+00    2.900E+00    2.891E+00    2.883E+00    2.874E+00    2.865E+00    2.856E+00    2.848E+00    2.839E+00
     2.830E+00    2.821E+00    2.813E+00    2.804E+00    2.795E+00    2.787E+00    2.778E+00    2.769E+00    2.760E+00    2.752E+00
     2.743E+00    2.734E+00    2.725E+00    2.717E+00    2.708E+00    2.699E+00    2.690E+00    2.682E+00    2.673E+00    2.664E+00
     2.655E+00    2.647E+00    2.638E+00    2.629E+00    2.620E+00    2.612E+00    2.603E+00    2.594E+00    2.585E+00    2.576E+00
     2.568E+00    2.559E+00    2.550E+00    2.541E+00    2.533E+00    2.524E+00    2.515E+00    2.506E+00    2.498E+00    2.489E+00
     2.480E+00    2.471E+00    2.462E+00    2.454E+00    2.445E+00    2.436E+00    2.427E+00    2.419E+00    2.410E+00    2.401E+00
     2.392E+00    2.383E+00    2.375E+00    2.366E+00    2.357E+00    2.348E+00    2.340E+00    2.331E+00    2.322E+00    2.313E+00
     2.304E+00    2.296E+00    2.287E+00    2.278E+00    2.269E+00    2.261E+00    2.252E+00    2.243E+00    2.234E+00    2.225E+00
     2.217E+00    2.208E+00    2.199E+00    2.190E+00    2.181E+00    2.173E+00    2.164E+00    2.155E+00    2.146E+00    2.137E+00
     2.129E+00    2.120E+00    2.111E+00    2.102E+00    2.093E+00    2.085E+00    2.076E+00    2.067E+00    2.058E+00    2.049E+00
     2.041E+00    2.032E+00    2.023E+00    2.014E+00    2.006E+00    1.997E+00    1.988E+00    1.979E+00    1.970E+00    1.962E+00
     1.953E+00    1.944E+00    1.935E+00    1.926E+00    1.918E+00    1.909E+00    1.900E+00    1.891E+00    1.882E+00    1.873E+00
     1.865E+00    1.856E+00    1.847E+00    1.838E+00    1.829E+00    1.821E+00    1.812E+00    1.803E+00    1.794E+00    1.785E+00
     1.777E+00    1.768E+00    1.759E+00    1.750E+00    1.741E+00    1.733E+00    1.724E+00    1.715E+00    1.706E+00    1.697E+00
     1.689E+00    1.680E+00    1.671E+00    1.662E+00    1.653E+00    1.645E+00    1.636E+00    1.627E+00    1.618E+00    1.609E+00
     1.601E+00    1.592E+00    1.583E+00    1.574E+00    1.565E+00    1.557E+00    1.548E+00    1.539E+00    1.530E+00    1.521E+00
     1.513E+00    1.504E+00    1.495E+00    1.486E+00    1.477E+00    1.469E+00    1.460E+00    1.451E+00    1.442E+00    1.433E+00
     1.425E+00    1.416E+00    1.407E+00    1.398E+00    1.389E+00    1.381E+00    1.372E+00    1.363E+00    1.354E+00    1.345E+00
     1.337E+00    1.328E+00    1.319E+00    1.310E+00    1.301E+00    1.293E+00    1.284E+00    1.275E+00    1.266E+00    1.257E+00
     1.249E+00    1.240E+00    1.231E+00    1.222E+00    1.214E+00    1.205E+00    1.196E+00    1.187E+00    1.178E+00    1.170E+00
     1.161E+00    1.152E+00    1.143E+00    1.134E+00    1.126E+00    1.117E+00    1.108E+00    1.099E+00    1.091E+00    1.082E+00
     1.073E+00    1.064E+00    1.055E+00    1.047E+00    1.038E+00    1.029E+00    1.020E+00    1.012E+00    1.003E+00    9.940E-01
     9.852E-01    9.764E-01    9.676E-01    9.589E-01    9.501E-01    9.413E-01    9.326E-01    9.238E-01    9.150E-01    9.063E-01
     8.975E-01    8.887E-01    8.800E-01    8.712E-01    8.625E-01    8.537E-01    8.449E-01    8.362E-01    8.274E-01    8.187E-01
     8.099E-01    8.011E-01    7.924E-01    7.836E-01    7.749E-01    7.661E-01    7.574E-01    7.486E-01    7.399E-01    7.311E-01
     7.224E-01    7.136E-01    7.049E-01    6.961E-01    6.874E-01    6.787E-01    6.699E-01    6.612E-01    6.524E-01    6.437E-01
     6.350E-01    6.262E-01    6.175E-01    6.087E-01    6.000E-01    5.913E-01    5.825E-01    5.738E-01    5.651E-01    5.564E-01
     5.476E-01    5.389E-01    5.302E-01    5.215E-01    5.127E-01    5.040E-01    4.953E-01    4.866E-01    4.779E-01    4.691E-01
     4.604E-01    4.517E-01    4.430E-01    4.343E-01    4.256E-01    4.169E-01    4.082E-01    3.994E-01    3.907E-01    3.820E-01
     3.733E-01    3.646E-01    3.559E-01    3.472E-01    3.385E-01    3.298E-01    3.211E-01    3.124E-01
 Ala      Conc. = 3.69E+02
