 LCModel (Version 6.3-1L) Copyright: S.W. Provencher.          Ref.: Magn. Reson. Med. 30:672-679 (1993).                
 Slice#3 Row#7 Col#3  PD_24_press_2_raw_act
 36 lines in following concentration table = NCONC+1
    Conc.  %SD /Cr+PCr  Metabolite                                         
    0.000 999%   0.000 Ala                                                 
    0.000 999%   0.000 Asp                                                 
 1.33E+03  35%   0.460 Cr                                                  
 1.57E+03  31%   0.540 PCr                                                 
  103.767 342% 3.6E-02 GABA                                                
  431.522  83%   0.149 Glc                                                 
  177.059 265% 6.1E-02 Gln                                                 
 2.48E+03  23%   0.854 Glu                                                 
 1.58E+03   4%   0.545 GPC                                                 
    0.000 999%   0.000 PCh                                                 
  904.499  18%   0.312 GSH                                                 
 3.18E+03  18%   1.094 Ins                                                 
  521.284  49%   0.180 Lac                                                 
 4.09E+03   7%   1.407 NAA                                                 
  919.207  31%   0.317 NAAG                                                
  431.164  15%   0.149 Scyllo                                              
  168.765 290% 5.8E-02 Tau                                                 
  380.348  64%   0.131 -CrCH2                                              
 1.58E+03   4%   0.545 GPC+PCh                                             
 5.00E+03   3%   1.724 NAA+NAAG                                            
 2.90E+03   4%   1.000 Cr+PCr                                              
 2.66E+03  30%   0.915 Glu+Gln                                             
  676.950 150%   0.233 Lip13a                                              
  364.881 159%   0.126 Lip13b                                              
    0.000 999%   0.000 Lip09                                               
 1.64E+03  21%   0.565 MM09                                                
  197.526 103% 6.8E-02 Lip20                                               
 3.31E+03  19%   1.139 MM20                                                
  533.547  36%   0.184 MM12                                                
    0.000 999%   0.000 MM14                                                
 2.29E+03  11%   0.788 MM17                                                
 1.04E+03  58%   0.359 Lip13a+Lip13b                                       
 1.58E+03  40%   0.543 MM14+Lip13a+Lip13b+MM12                             
 1.64E+03  21%   0.565 MM09+Lip09                                          
 3.51E+03  19%   1.207 MM20+Lip20                                          
   6 lines in following misc. output table
  FWHM = 0.054 ppm    S/N =  11                                            
  Data shift = 0.023 ppm                                                   
  Ph: -41 deg     -15.9 deg/ppm                                            
  alphaB,S = 8.2E-01,   4.1E+01                                            
   14 spline knots.   Ns = 7(1)                                            
  ( 9) 5 infls.   ( 7) 1 extrs.                                            
  498 points on ppm-axis = NY
      4.000000     3.992357     3.984714     3.977070     3.969427     3.961784     3.954141     3.946497     3.938854     3.931211
      3.923568     3.915925     3.908281     3.900638     3.892995     3.885352     3.877708     3.870065     3.862422     3.854779
      3.847136     3.839492     3.831849     3.824206     3.816563     3.808919     3.801276     3.793633     3.785990     3.778347
      3.770703     3.763060     3.755417     3.747774     3.740130     3.732487     3.724844     3.717201     3.709558     3.701914
      3.694271     3.686628     3.678985     3.671341     3.663698     3.656055     3.648412     3.640769     3.633125     3.625482
      3.617839     3.610196     3.602552     3.594909     3.587266     3.579623     3.571980     3.564336     3.556693     3.549050
      3.541407     3.533763     3.526120     3.518477     3.510834     3.503191     3.495547     3.487904     3.480261     3.472618
      3.464974     3.457331     3.449688     3.442045     3.434402     3.426758     3.419115     3.411472     3.403829     3.396185
      3.388542     3.380899     3.373256     3.365613     3.357969     3.350326     3.342683     3.335040     3.327396     3.319753
      3.312110     3.304467     3.296824     3.289180     3.281537     3.273894     3.266251     3.258607     3.250964     3.243321
      3.235678     3.228034     3.220391     3.212748     3.205105     3.197462     3.189818     3.182175     3.174532     3.166889
      3.159245     3.151602     3.143959     3.136316     3.128673     3.121029     3.113386     3.105743     3.098100     3.090456
      3.082813     3.075170     3.067527     3.059884     3.052240     3.044597     3.036954     3.029311     3.021667     3.014024
      3.006381     2.998738     2.991095     2.983451     2.975808     2.968165     2.960522     2.952878     2.945235     2.937592
      2.929949     2.922306     2.914662     2.907019     2.899376     2.891733     2.884089     2.876446     2.868803     2.861160
      2.853517     2.845873     2.838230     2.830587     2.822944     2.815300     2.807657     2.800014     2.792371     2.784728
      2.777084     2.769441     2.761798     2.754155     2.746511     2.738868     2.731225     2.723582     2.715939     2.708295
      2.700652     2.693009     2.685366     2.677722     2.670079     2.662436     2.654793     2.647150     2.639506     2.631863
      2.624220     2.616577     2.608933     2.601290     2.593647     2.586004     2.578361     2.570717     2.563074     2.555431
      2.547788     2.540144     2.532501     2.524858     2.517215     2.509572     2.501928     2.494285     2.486642     2.478999
      2.471355     2.463712     2.456069     2.448426     2.440783     2.433139     2.425496     2.417853     2.410210     2.402566
      2.394923     2.387280     2.379637     2.371994     2.364350     2.356707     2.349064     2.341421     2.333777     2.326134
      2.318491     2.310848     2.303205     2.295561     2.287918     2.280275     2.272632     2.264988     2.257345     2.249702
      2.242059     2.234416     2.226772     2.219129     2.211486     2.203843     2.196199     2.188556     2.180913     2.173270
      2.165627     2.157983     2.150340     2.142697     2.135054     2.127410     2.119767     2.112124     2.104481     2.096838
      2.089194     2.081551     2.073908     2.066265     2.058621     2.050978     2.043335     2.035692     2.028049     2.020405
      2.012762     2.005119     1.997476     1.989833     1.982190     1.974546     1.966903     1.959260     1.951617     1.943974
      1.936331     1.928688     1.921045     1.913402     1.905759     1.898115     1.890472     1.882829     1.875186     1.867543
      1.859900     1.852257     1.844614     1.836971     1.829327     1.821684     1.814041     1.806398     1.798755     1.791112
      1.783469     1.775826     1.768183     1.760540     1.752896     1.745253     1.737610     1.729967     1.722324     1.714681
      1.707038     1.699395     1.691752     1.684108     1.676465     1.668822     1.661179     1.653536     1.645893     1.638250
      1.630607     1.622964     1.615321     1.607677     1.600034     1.592391     1.584748     1.577105     1.569462     1.561819
      1.554176     1.546533     1.538890     1.531246     1.523603     1.515960     1.508317     1.500674     1.493031     1.485388
      1.477745     1.470102     1.462458     1.454815     1.447172     1.439529     1.431886     1.424243     1.416600     1.408957
      1.401314     1.393671     1.386027     1.378384     1.370741     1.363098     1.355455     1.347812     1.340169     1.332526
      1.324883     1.317240     1.309596     1.301953     1.294310     1.286667     1.279024     1.271381     1.263738     1.256095
      1.248452     1.240808     1.233165     1.225522     1.217879     1.210236     1.202593     1.194950     1.187307     1.179664
      1.172021     1.164377     1.156734     1.149091     1.141448     1.133805     1.126162     1.118519     1.110876     1.103233
      1.095590     1.087946     1.080303     1.072660     1.065017     1.057374     1.049731     1.042088     1.034445     1.026802
      1.019158     1.011515     1.003872     0.996229     0.988586     0.980943     0.973300     0.965657     0.958014     0.950371
      0.942727     0.935084     0.927441     0.919798     0.912155     0.904512     0.896869     0.889226     0.881583     0.873940
      0.866296     0.858653     0.851010     0.843367     0.835724     0.828081     0.820438     0.812795     0.805152     0.797508
      0.789865     0.782222     0.774579     0.766936     0.759293     0.751650     0.744007     0.736364     0.728721     0.721077
      0.713434     0.705791     0.698148     0.690505     0.682862     0.675219     0.667576     0.659933     0.652290     0.644646
      0.637003     0.629360     0.621717     0.614074     0.606431     0.598788     0.591145     0.583502     0.575858     0.568215
      0.560572     0.552929     0.545286     0.537643     0.530000     0.522357     0.514714     0.507071     0.499427     0.491784
      0.484141     0.476498     0.468855     0.461212     0.453569     0.445925     0.438282     0.430639     0.422996     0.415353
      0.407710     0.400067     0.392424     0.384780     0.377137     0.369494     0.361851     0.354208     0.346565     0.338922
      0.331278     0.323635     0.315992     0.308349     0.300706     0.293063     0.285420     0.277777     0.270133     0.262490
      0.254847     0.247204     0.239561     0.231918     0.224275     0.216631     0.208988     0.201345
 NY phased data points follow
  -1.56488E+02 -1.39310E+02 -1.50066E+02 -1.35803E+02 -1.29624E+02 -1.12577E+02 -1.01637E+02 -9.91625E+01 -8.06869E+01 -6.35822E+01
  -7.25472E+01 -7.65111E+01 -8.19759E+01 -8.24530E+01 -1.12656E+02 -1.10021E+02 -1.22851E+02 -1.13795E+02 -1.27942E+02 -1.17596E+02
  -1.29135E+02 -1.19028E+02 -1.33428E+02 -1.12139E+02 -1.17903E+02 -1.10351E+02 -1.08099E+02 -1.02143E+02 -1.03208E+02 -9.45057E+01
  -8.68124E+01 -9.37067E+01 -8.99065E+01 -9.46078E+01 -1.04319E+02 -8.48219E+01 -9.73530E+01 -8.11896E+01 -9.59775E+01 -8.73999E+01
  -9.28598E+01 -8.55602E+01 -8.87617E+01 -9.21267E+01 -8.57558E+01 -7.64863E+01 -7.72901E+01 -6.91988E+01 -6.91175E+01 -7.54639E+01
  -8.25308E+01 -8.40973E+01 -8.62952E+01 -8.00814E+01 -8.62755E+01 -7.90485E+01 -8.42886E+01 -8.00862E+01 -8.77359E+01 -8.66667E+01
  -9.04174E+01 -8.95784E+01 -9.53821E+01 -8.73597E+01 -9.48003E+01 -9.40540E+01 -8.90080E+01 -8.86464E+01 -9.04541E+01 -7.87682E+01
  -8.68268E+01 -8.68340E+01 -7.84177E+01 -7.41311E+01 -8.27594E+01 -7.96725E+01 -7.10914E+01 -7.73563E+01 -6.78875E+01 -6.60842E+01
  -6.93164E+01 -6.66886E+01 -6.54398E+01 -5.86952E+01 -6.77961E+01 -5.93716E+01 -5.25340E+01 -5.49089E+01 -6.02206E+01 -5.55273E+01
  -5.96504E+01 -5.64775E+01 -5.37295E+01 -4.96000E+01 -4.99436E+01 -4.56964E+01 -3.19766E+01 -3.44878E+01 -1.02319E+01  2.01075E+00
   2.57988E+01  6.68879E+01  6.68093E+01  6.38445E+01  6.59669E+01  4.19474E+01  6.26966E+00 -6.82827E+00 -2.93026E+01 -3.80137E+01
  -4.17301E+01 -4.92068E+01 -5.17489E+01 -4.67627E+01 -6.36504E+01 -4.76556E+01 -5.96197E+01 -4.79249E+01 -5.06072E+01 -4.41937E+01
  -5.39195E+01 -3.62039E+01 -3.47184E+01 -9.78858E+00  1.40843E+01  2.29848E+01  3.90883E+01  4.18413E+01  3.05655E+01  2.53489E+01
  -4.16034E+00 -1.09282E+01 -2.10018E+01 -3.17341E+01 -3.97092E+01 -4.59727E+01 -5.42847E+01 -4.83243E+01 -4.85144E+01 -4.93153E+01
  -4.99964E+01 -4.47416E+01 -5.13383E+01 -5.03066E+01 -4.92687E+01 -4.97112E+01 -5.00873E+01 -4.71276E+01 -5.41339E+01 -4.28819E+01
  -4.70063E+01 -4.94814E+01 -4.31126E+01 -4.34292E+01 -4.90755E+01 -4.30341E+01 -3.80099E+01 -4.71843E+01 -4.49638E+01 -4.58673E+01
  -4.53896E+01 -4.48693E+01 -4.17688E+01 -4.39754E+01 -4.52378E+01 -3.93405E+01 -4.31092E+01 -3.44143E+01 -3.17427E+01 -4.80361E+01
  -3.30082E+01 -4.27303E+01 -4.93869E+01 -5.96210E+01 -5.18900E+01 -5.44984E+01 -5.47623E+01 -5.64107E+01 -5.57111E+01 -4.82556E+01
  -5.34001E+01 -4.61949E+01 -5.29912E+01 -5.17179E+01 -5.32061E+01 -5.30025E+01 -4.21296E+01 -3.94047E+01 -2.81194E+01 -2.47376E+01
  -2.02005E+01 -1.47882E+01 -1.54447E+01 -1.20252E+01 -1.73054E+01 -2.40477E+01 -1.60171E+01 -3.07334E+01 -2.58404E+01 -2.78680E+01
  -3.75950E+01 -2.11420E+01 -2.43417E+01 -2.38795E+01 -3.01118E+01 -2.33117E+01 -3.28792E+01 -3.19194E+01 -3.55081E+01 -3.13030E+01
  -3.40915E+01 -3.24777E+01 -2.86244E+01 -1.86073E+01 -1.05771E+01 -1.49023E+01 -1.44763E+01 -1.26253E+01 -2.29209E+01 -2.06531E+01
  -2.04300E+01 -2.96329E+01 -2.38911E+01 -2.66985E+01 -2.61488E+01 -2.86647E+01 -9.22152E+00 -1.75428E+01 -1.54701E+01  1.81023E-01
   3.22089E-01 -1.50946E+01 -1.16862E+01 -1.14266E+01  9.44402E-01 -7.62824E+00 -6.99492E+00 -6.34935E+00 -7.95059E+00 -4.92086E+00
  -9.93337E+00 -1.50277E+01 -1.73312E+01 -9.89588E+00 -1.39892E+01 -6.54934E+00 -3.88139E+00  1.24811E+01  6.78544E+00  6.39772E+00
   8.26345E+00  1.05544E+01  1.73008E+01  3.37263E+01  3.84523E+01  6.35428E+01  8.13437E+01  1.02349E+02  1.22440E+02  1.32806E+02
   1.41773E+02  1.37646E+02  1.18611E+02  9.10696E+01  6.63379E+01  4.72632E+01  1.87533E+01  1.66840E+01  2.10258E+01  1.69054E+01
   1.21477E+01  1.09954E+01  3.24231E-01 -3.99765E+00  2.71266E-01  1.85410E+00  1.23447E+01  4.92440E+00  6.71935E+00  1.13826E+01
   1.11076E+01  9.60460E+00  4.84520E+00  2.47488E+00  1.77759E+00  3.31756E+00  3.41898E+00  7.17447E+00  1.13627E+01  8.98546E+00
   3.07571E+00  1.38315E+01  2.24966E+01  5.16396E+00  1.94682E+01  1.47824E+01  9.27097E+00  1.84596E+01  2.26292E+01  1.56743E+01
   1.65455E+01  8.63562E+00  1.61492E+01  1.15870E+01  2.03724E+01  1.76409E+01  1.97553E+01  1.74607E+01 -4.26195E-01  7.35648E+00
  -6.54788E+00 -7.90969E+00 -5.77462E+00 -1.12906E+01 -1.46912E+01 -1.06183E+01 -1.13173E+01 -1.61706E+01 -2.16673E+01 -1.77845E+01
  -1.66685E+01 -9.32066E+00 -8.03932E+00 -1.20039E+01 -1.46894E+01 -9.74546E+00 -4.30406E+00 -7.45555E+00  1.97383E+00 -4.29229E+00
   3.56049E+00 -6.50591E+00  4.99435E+00 -7.86579E+00  4.43234E+00  5.87580E-01 -1.24401E+00  8.54824E+00  8.39100E+00  1.96223E+00
   7.74783E+00  7.01580E-01  7.99534E+00  1.12156E+01  5.75007E+00  2.62344E+00  8.10385E+00  2.36197E+00  8.12106E-01  3.00199E+00
   3.61264E+00 -2.47510E-01  7.06739E+00  7.42193E+00  9.53670E+00  1.34398E+01  1.25468E+01  1.11405E+01  1.68863E+01  1.34022E+01
   1.08685E+01  5.18113E+00  1.28884E+01  1.08042E+01  8.84309E+00  4.39558E+00  1.37778E+01  1.04650E+01  1.18267E+01  6.28522E+00
   2.92502E-01  6.95239E+00  1.28243E+01  1.22986E+01  1.16734E+01  9.08845E+00  5.07925E+00  4.89888E+00  1.23445E+01  9.63389E+00
   1.09619E+01  8.58312E+00  1.11579E+01  1.33690E+01  6.29678E+00  3.74099E+00  1.30028E+01  1.41821E+01  8.61968E+00  1.50993E+01
  -5.33099E+00  4.26795E+00  1.02698E+01  1.04280E+01  1.37850E+01  1.38808E+01  1.77443E+01  1.70270E+01  1.26938E+01  1.79489E+01
   4.51526E+00  9.77254E+00  1.27677E+01  1.46395E+01  1.45422E+01  2.07394E+01  2.02260E+01  1.35675E+01  1.80226E+01  1.86056E+01
   1.38525E+01  1.35072E+01  1.82019E+01  1.11558E+01  2.03521E+01  1.29979E+01  1.16462E+01  1.23990E+01  1.43427E+01  1.61447E+01
   6.17726E+00  1.50973E+01  6.84549E+00  1.09609E+01  1.82973E+01  1.14917E+01  6.44280E+00  1.86870E+01  1.11316E+01  1.37685E+01
   9.22046E+00  1.73252E+01  1.21450E+01  1.30685E+01  1.82610E+01  7.69040E+00  1.41565E+01  1.69756E+01  1.03163E+01  7.47492E+00
   1.62235E+01  1.61835E+01  1.07732E+01  1.22069E+01  1.64069E+01  9.60908E+00  1.83677E+01  1.18295E+01  1.44280E+01  6.64390E+00
   1.34848E+01  1.14583E+01  1.05220E+01  1.53088E+01  2.10651E+01  2.34833E+01  1.85782E+01  1.82734E+01  1.09187E+01  5.92521E+00
   1.56431E+01  1.01589E+01  1.94200E+01  1.67686E+01  1.66275E+01  1.22702E+01  1.33169E+01  1.90102E+01  1.15751E+01  1.08868E+01
   1.33600E+01  1.23985E+01  2.03764E+01  7.25624E+00  1.22178E+01  2.26077E+01  1.03744E+01  4.93134E+00  1.29068E+01  1.19471E+01
   1.52143E+01  1.89382E+01  9.46530E+00  1.20760E+01  1.36798E+01  4.54835E+00  1.37510E+01  1.18592E+01  1.96048E+01  2.14716E+01
   1.39210E+01  1.85367E+01  1.36052E+01  1.22862E+01  9.04264E+00  1.40231E+01  9.26656E+00  1.34954E+01
 NY points of the fit to the data follow
  -1.37964E+02 -1.37083E+02 -1.33708E+02 -1.28063E+02 -1.21407E+02 -1.13851E+02 -1.04409E+02 -9.34570E+01 -8.28618E+01 -7.54105E+01
  -7.28055E+01 -7.51525E+01 -8.19052E+01 -9.11871E+01 -1.00085E+02 -1.06773E+02 -1.10792E+02 -1.13581E+02 -1.16484E+02 -1.18723E+02
  -1.19311E+02 -1.19345E+02 -1.18938E+02 -1.17165E+02 -1.15065E+02 -1.12943E+02 -1.09611E+02 -1.05006E+02 -9.96477E+01 -9.49987E+01
  -9.16589E+01 -8.95476E+01 -8.94043E+01 -9.12730E+01 -9.38235E+01 -9.63388E+01 -9.82121E+01 -9.96752E+01 -1.01508E+02 -1.01849E+02
  -9.99913E+01 -9.72456E+01 -9.38577E+01 -8.96092E+01 -8.43985E+01 -7.96038E+01 -7.64990E+01 -7.52048E+01 -7.60613E+01 -7.90164E+01
  -8.33851E+01 -8.77113E+01 -9.02478E+01 -9.10106E+01 -9.07820E+01 -9.02511E+01 -8.91550E+01 -8.72847E+01 -8.54082E+01 -8.40552E+01
  -8.34115E+01 -8.37047E+01 -8.46809E+01 -8.59161E+01 -8.67378E+01 -8.65338E+01 -8.54902E+01 -8.40686E+01 -8.22832E+01 -8.04204E+01
  -7.87257E+01 -7.72942E+01 -7.62177E+01 -7.53627E+01 -7.48583E+01 -7.46991E+01 -7.45770E+01 -7.45223E+01 -7.42788E+01 -7.36780E+01
  -7.18974E+01 -7.00306E+01 -6.79163E+01 -6.48104E+01 -6.10591E+01 -5.73423E+01 -5.49744E+01 -5.45628E+01 -5.56538E+01 -5.80228E+01
  -6.12529E+01 -6.35800E+01 -6.45751E+01 -6.41895E+01 -6.20376E+01 -5.62872E+01 -4.43372E+01 -3.20188E+01 -1.57423E+01  6.89753E+00
   3.36218E+01  5.81334E+01  7.21544E+01  7.30920E+01  6.17212E+01  3.88252E+01  1.12191E+01 -1.20164E+01 -2.88232E+01 -3.81928E+01
  -4.51011E+01 -5.41872E+01 -5.81292E+01 -5.89324E+01 -5.89669E+01 -5.86985E+01 -5.83002E+01 -5.76778E+01 -5.64396E+01 -5.25872E+01
  -4.42875E+01 -3.56063E+01 -2.52055E+01 -1.04013E+01  7.68197E+00  2.53205E+01  3.69582E+01  3.99148E+01  3.45239E+01  2.11041E+01
   3.28359E+00 -1.25721E+01 -2.44400E+01 -3.18679E+01 -3.73146E+01 -4.45365E+01 -4.92672E+01 -5.05624E+01 -5.01946E+01 -4.88572E+01
  -4.70479E+01 -4.54118E+01 -4.44866E+01 -4.40234E+01 -4.39277E+01 -4.41805E+01 -4.43987E+01 -4.45983E+01 -4.48538E+01 -4.49796E+01
  -4.51996E+01 -4.53330E+01 -4.53622E+01 -4.53534E+01 -4.53688E+01 -4.52023E+01 -4.49192E+01 -4.47122E+01 -4.46358E+01 -4.49222E+01
  -4.52404E+01 -4.52530E+01 -4.49568E+01 -4.44164E+01 -4.39274E+01 -4.38086E+01 -4.41022E+01 -4.48266E+01 -4.57301E+01 -4.62842E+01
  -4.64898E+01 -4.64417E+01 -4.65198E+01 -4.69516E+01 -4.74272E+01 -4.74838E+01 -4.70812E+01 -4.64133E+01 -4.56927E+01 -4.50987E+01
  -4.48043E+01 -4.44780E+01 -4.39552E+01 -4.31966E+01 -4.18428E+01 -4.00251E+01 -3.79786E+01 -3.55223E+01 -3.26334E+01 -2.94369E+01
  -2.66354E+01 -2.51825E+01 -2.48569E+01 -2.52830E+01 -2.63190E+01 -2.74262E+01 -2.82606E+01 -2.83973E+01 -2.78375E+01 -2.67327E+01
  -2.51630E+01 -2.32825E+01 -2.14459E+01 -2.03392E+01 -2.00842E+01 -2.07288E+01 -2.20758E+01 -2.38848E+01 -2.57450E+01 -2.69185E+01
  -2.69697E+01 -2.63475E+01 -2.45509E+01 -2.13926E+01 -1.78982E+01 -1.52973E+01 -1.45009E+01 -1.56827E+01 -1.83153E+01 -2.25050E+01
  -2.69996E+01 -2.98475E+01 -3.05347E+01 -2.88981E+01 -2.59319E+01 -2.23593E+01 -1.80656E+01 -1.46391E+01 -1.27220E+01 -1.20420E+01
  -1.17561E+01 -1.09667E+01 -9.97156E+00 -8.98317E+00 -7.58815E+00 -6.07942E+00 -5.32711E+00 -5.58397E+00 -6.74465E+00 -8.27391E+00
  -9.79248E+00 -1.08078E+01 -1.06284E+01 -9.14924E+00 -6.73735E+00 -4.08583E+00 -1.66597E+00  2.82304E-01  1.93030E+00  4.45809E+00
   6.89312E+00  1.01840E+01  1.65354E+01  3.01430E+01  4.77100E+01  6.31850E+01  8.06979E+01  1.01239E+02  1.21963E+02  1.36817E+02
   1.41286E+02  1.35325E+02  1.19623E+02  9.47415E+01  6.71582E+01  4.51152E+01  3.01564E+01  2.20801E+01  1.36865E+01  4.73851E+00
   1.39766E+00  2.19600E-01 -2.95308E-01 -5.41295E-01 -5.82246E-01 -6.33228E-01 -7.24393E-01 -8.37609E-01 -9.22391E-01 -8.88857E-01
  -6.41585E-01 -1.52044E-01  5.11242E-01  1.31725E+00  2.28900E+00  3.42185E+00  4.63504E+00  5.89353E+00  7.19546E+00  8.55158E+00
   9.92765E+00  1.12440E+01  1.24347E+01  1.34766E+01  1.42879E+01  1.48149E+01  1.50484E+01  1.49904E+01  1.46674E+01  1.41137E+01
   1.33318E+01  1.23677E+01  1.12662E+01  1.00512E+01  8.75920E+00  7.42845E+00  6.09958E+00  4.82273E+00  3.61858E+00  2.50835E+00
   1.51354E+00  6.41759E-01 -1.05472E-01 -7.29789E-01 -1.23766E+00 -1.63853E+00 -1.94345E+00 -2.16429E+00 -2.31309E+00 -2.40116E+00
  -2.43887E+00 -2.43524E+00 -2.39740E+00 -2.33179E+00 -2.24330E+00 -2.13544E+00 -2.01047E+00 -1.86986E+00 -1.71442E+00 -1.54426E+00
  -1.35863E+00 -1.15597E+00 -9.33808E-01 -6.88987E-01 -4.17038E-01 -1.11350E-01  2.38772E-01  6.51758E-01  1.16482E+00  1.87410E+00
   2.89208E+00  3.75838E+00  4.54586E+00  5.49553E+00  6.33191E+00  6.68259E+00  6.15927E+00  4.87717E+00  3.64790E+00  2.39328E+00
   1.45493E+00  1.67723E+00  3.17944E+00  5.71303E+00  8.56718E+00  1.08230E+01  1.26998E+01  1.39194E+01  1.39970E+01  1.33990E+01
   1.24912E+01  1.16272E+01  1.10006E+01  1.01137E+01  9.26142E+00  8.65639E+00  8.20265E+00  7.85327E+00  7.58279E+00  7.37286E+00
   7.20967E+00  7.08291E+00  6.98573E+00  6.91394E+00  6.86575E+00  6.84086E+00  6.84020E+00  6.86522E+00  6.91789E+00  7.00028E+00
   7.11472E+00  7.26340E+00  7.44853E+00  7.67195E+00  7.93541E+00  8.24019E+00  8.58734E+00  8.97715E+00  9.40933E+00  9.88246E+00
   1.03943E+01  1.09412E+01  1.15187E+01  1.21205E+01  1.27392E+01  1.33659E+01  1.39910E+01  1.46036E+01  1.51925E+01  1.57463E+01
   1.62538E+01  1.67045E+01  1.70891E+01  1.74000E+01  1.76316E+01  1.77805E+01  1.78458E+01  1.78287E+01  1.77331E+01  1.75650E+01
   1.73321E+01  1.70434E+01  1.67092E+01  1.63400E+01  1.59466E+01  1.55394E+01  1.51282E+01  1.47214E+01  1.43266E+01  1.39500E+01
   1.35965E+01  1.32695E+01  1.29716E+01  1.27038E+01  1.24665E+01  1.22590E+01  1.20806E+01  1.19295E+01  1.18040E+01  1.17020E+01
   1.16215E+01  1.15603E+01  1.15166E+01  1.14883E+01  1.14737E+01  1.14711E+01  1.14792E+01  1.14964E+01  1.15218E+01  1.15542E+01
   1.15926E+01  1.16363E+01  1.16846E+01  1.17367E+01  1.17924E+01  1.18508E+01  1.19116E+01  1.19744E+01  1.20389E+01  1.21048E+01
   1.21719E+01  1.22397E+01  1.23082E+01  1.23770E+01  1.24462E+01  1.25156E+01  1.25852E+01  1.26547E+01  1.27242E+01  1.27936E+01
   1.28630E+01  1.29322E+01  1.30012E+01  1.30699E+01  1.31384E+01  1.32065E+01  1.32746E+01  1.33422E+01  1.34096E+01  1.34766E+01
   1.35434E+01  1.36099E+01  1.36761E+01  1.37420E+01  1.38077E+01  1.38731E+01  1.39383E+01  1.40032E+01  1.40681E+01  1.41326E+01
   1.41969E+01  1.42611E+01  1.43252E+01  1.43891E+01  1.44530E+01  1.45167E+01  1.45804E+01  1.46440E+01  1.47077E+01  1.47714E+01
   1.48351E+01  1.48988E+01  1.49627E+01  1.50266E+01  1.50907E+01  1.51549E+01  1.52194E+01  1.52840E+01
 NY background values follow
    -1.493E+02   -1.484E+02   -1.475E+02   -1.466E+02   -1.456E+02   -1.447E+02   -1.438E+02   -1.429E+02   -1.420E+02   -1.411E+02
    -1.402E+02   -1.393E+02   -1.384E+02   -1.375E+02   -1.366E+02   -1.357E+02   -1.348E+02   -1.339E+02   -1.330E+02   -1.321E+02
    -1.312E+02   -1.304E+02   -1.295E+02   -1.286E+02   -1.277E+02   -1.268E+02   -1.259E+02   -1.250E+02   -1.242E+02   -1.233E+02
    -1.224E+02   -1.216E+02   -1.207E+02   -1.198E+02   -1.190E+02   -1.181E+02   -1.172E+02   -1.164E+02   -1.155E+02   -1.147E+02
    -1.138E+02   -1.130E+02   -1.122E+02   -1.113E+02   -1.105E+02   -1.097E+02   -1.088E+02   -1.080E+02   -1.072E+02   -1.064E+02
    -1.056E+02   -1.048E+02   -1.040E+02   -1.032E+02   -1.024E+02   -1.016E+02   -1.008E+02   -1.001E+02   -9.929E+01   -9.852E+01
    -9.775E+01   -9.699E+01   -9.623E+01   -9.548E+01   -9.473E+01   -9.399E+01   -9.325E+01   -9.252E+01   -9.179E+01   -9.106E+01
    -9.034E+01   -8.963E+01   -8.892E+01   -8.821E+01   -8.751E+01   -8.682E+01   -8.612E+01   -8.544E+01   -8.476E+01   -8.408E+01
    -8.341E+01   -8.274E+01   -8.208E+01   -8.143E+01   -8.078E+01   -8.013E+01   -7.949E+01   -7.885E+01   -7.823E+01   -7.760E+01
    -7.698E+01   -7.637E+01   -7.576E+01   -7.516E+01   -7.456E+01   -7.397E+01   -7.338E+01   -7.280E+01   -7.223E+01   -7.166E+01
    -7.109E+01   -7.053E+01   -6.997E+01   -6.942E+01   -6.887E+01   -6.833E+01   -6.779E+01   -6.726E+01   -6.673E+01   -6.621E+01
    -6.569E+01   -6.517E+01   -6.466E+01   -6.416E+01   -6.365E+01   -6.315E+01   -6.266E+01   -6.217E+01   -6.168E+01   -6.120E+01
    -6.072E+01   -6.025E+01   -5.978E+01   -5.931E+01   -5.885E+01   -5.839E+01   -5.793E+01   -5.748E+01   -5.703E+01   -5.658E+01
    -5.614E+01   -5.570E+01   -5.526E+01   -5.483E+01   -5.440E+01   -5.397E+01   -5.355E+01   -5.313E+01   -5.271E+01   -5.229E+01
    -5.188E+01   -5.147E+01   -5.106E+01   -5.066E+01   -5.026E+01   -4.986E+01   -4.946E+01   -4.906E+01   -4.867E+01   -4.828E+01
    -4.789E+01   -4.750E+01   -4.712E+01   -4.674E+01   -4.636E+01   -4.598E+01   -4.560E+01   -4.523E+01   -4.485E+01   -4.448E+01
    -4.411E+01   -4.374E+01   -4.338E+01   -4.301E+01   -4.265E+01   -4.228E+01   -4.192E+01   -4.156E+01   -4.120E+01   -4.085E+01
    -4.049E+01   -4.013E+01   -3.978E+01   -3.942E+01   -3.907E+01   -3.872E+01   -3.837E+01   -3.801E+01   -3.766E+01   -3.731E+01
    -3.696E+01   -3.662E+01   -3.627E+01   -3.592E+01   -3.557E+01   -3.522E+01   -3.488E+01   -3.453E+01   -3.418E+01   -3.384E+01
    -3.349E+01   -3.315E+01   -3.281E+01   -3.247E+01   -3.212E+01   -3.178E+01   -3.144E+01   -3.110E+01   -3.077E+01   -3.043E+01
    -3.009E+01   -2.976E+01   -2.942E+01   -2.909E+01   -2.876E+01   -2.843E+01   -2.810E+01   -2.777E+01   -2.744E+01   -2.712E+01
    -2.679E+01   -2.647E+01   -2.615E+01   -2.583E+01   -2.551E+01   -2.519E+01   -2.487E+01   -2.456E+01   -2.425E+01   -2.393E+01
    -2.362E+01   -2.332E+01   -2.301E+01   -2.270E+01   -2.240E+01   -2.210E+01   -2.180E+01   -2.150E+01   -2.121E+01   -2.091E+01
    -2.062E+01   -2.033E+01   -2.004E+01   -1.976E+01   -1.947E+01   -1.919E+01   -1.891E+01   -1.864E+01   -1.836E+01   -1.809E+01
    -1.782E+01   -1.755E+01   -1.729E+01   -1.703E+01   -1.677E+01   -1.651E+01   -1.626E+01   -1.600E+01   -1.576E+01   -1.551E+01
    -1.527E+01   -1.503E+01   -1.479E+01   -1.456E+01   -1.433E+01   -1.410E+01   -1.388E+01   -1.366E+01   -1.344E+01   -1.323E+01
    -1.301E+01   -1.281E+01   -1.260E+01   -1.240E+01   -1.221E+01   -1.201E+01   -1.183E+01   -1.164E+01   -1.146E+01   -1.128E+01
    -1.111E+01   -1.094E+01   -1.077E+01   -1.061E+01   -1.045E+01   -1.029E+01   -1.014E+01   -9.996E+00   -9.851E+00   -9.710E+00
    -9.572E+00   -9.437E+00   -9.304E+00   -9.175E+00   -9.048E+00   -8.924E+00   -8.802E+00   -8.683E+00   -8.565E+00   -8.450E+00
    -8.337E+00   -8.226E+00   -8.116E+00   -8.009E+00   -7.903E+00   -7.798E+00   -7.694E+00   -7.592E+00   -7.491E+00   -7.391E+00
    -7.292E+00   -7.194E+00   -7.097E+00   -7.000E+00   -6.903E+00   -6.807E+00   -6.711E+00   -6.615E+00   -6.520E+00   -6.424E+00
    -6.328E+00   -6.231E+00   -6.135E+00   -6.038E+00   -5.940E+00   -5.841E+00   -5.742E+00   -5.641E+00   -5.540E+00   -5.438E+00
    -5.335E+00   -5.230E+00   -5.125E+00   -5.020E+00   -4.913E+00   -4.805E+00   -4.697E+00   -4.588E+00   -4.478E+00   -4.367E+00
    -4.256E+00   -4.144E+00   -4.031E+00   -3.917E+00   -3.803E+00   -3.688E+00   -3.573E+00   -3.457E+00   -3.340E+00   -3.223E+00
    -3.106E+00   -2.987E+00   -2.869E+00   -2.750E+00   -2.630E+00   -2.510E+00   -2.390E+00   -2.269E+00   -2.148E+00   -2.026E+00
    -1.904E+00   -1.782E+00   -1.660E+00   -1.537E+00   -1.414E+00   -1.291E+00   -1.167E+00   -1.044E+00   -9.199E-01   -7.959E-01
    -6.718E-01   -5.476E-01   -4.233E-01   -2.989E-01   -1.744E-01   -4.985E-02    7.480E-02    1.996E-01    3.244E-01    4.493E-01
     5.744E-01    6.995E-01    8.248E-01    9.501E-01    1.076E+00    1.201E+00    1.327E+00    1.453E+00    1.579E+00    1.705E+00
     1.831E+00    1.957E+00    2.083E+00    2.210E+00    2.337E+00    2.463E+00    2.590E+00    2.717E+00    2.844E+00    2.972E+00
     3.099E+00    3.227E+00    3.354E+00    3.482E+00    3.610E+00    3.738E+00    3.867E+00    3.995E+00    4.124E+00    4.253E+00
     4.381E+00    4.511E+00    4.640E+00    4.769E+00    4.899E+00    5.029E+00    5.158E+00    5.289E+00    5.419E+00    5.549E+00
     5.680E+00    5.810E+00    5.941E+00    6.071E+00    6.202E+00    6.332E+00    6.462E+00    6.592E+00    6.722E+00    6.852E+00
     6.981E+00    7.110E+00    7.239E+00    7.367E+00    7.495E+00    7.623E+00    7.750E+00    7.876E+00    8.002E+00    8.128E+00
     8.253E+00    8.377E+00    8.500E+00    8.623E+00    8.745E+00    8.866E+00    8.986E+00    9.106E+00    9.224E+00    9.342E+00
     9.459E+00    9.574E+00    9.689E+00    9.802E+00    9.915E+00    1.003E+01    1.014E+01    1.024E+01    1.035E+01    1.046E+01
     1.056E+01    1.067E+01    1.077E+01    1.087E+01    1.097E+01    1.107E+01    1.116E+01    1.126E+01    1.135E+01    1.145E+01
     1.154E+01    1.163E+01    1.172E+01    1.181E+01    1.190E+01    1.198E+01    1.207E+01    1.215E+01    1.224E+01    1.232E+01
     1.240E+01    1.248E+01    1.256E+01    1.264E+01    1.272E+01    1.280E+01    1.288E+01    1.295E+01    1.303E+01    1.311E+01
     1.318E+01    1.326E+01    1.333E+01    1.341E+01    1.348E+01    1.356E+01    1.363E+01    1.370E+01    1.378E+01    1.385E+01
     1.392E+01    1.400E+01    1.407E+01    1.414E+01    1.422E+01    1.429E+01    1.436E+01    1.444E+01
 Cr       Conc. = 1.33E+03
