 LCModel (Version 6.3-1L) Copyright: S.W. Provencher.          Ref.: Magn. Reson. Med. 30:672-679 (1993).                
 Slice#2 Row#2 Col#9  PD_24_press_2_raw_act
 36 lines in following concentration table = NCONC+1
    Conc.  %SD /Cr+PCr  Metabolite                                         
    0.000 999%   0.000 Ala                                                 
   64.722  63%   0.627 Asp                                                 
  103.293  64%   1.000 Cr                                                  
    0.000 999%   0.000 PCr                                                 
   40.961  60%   0.397 GABA                                                
   35.904  69%   0.348 Glc                                                 
    0.000 999%   0.000 Gln                                                 
    0.000 999%   0.000 Glu                                                 
   82.040  32%   0.794 GPC                                                 
    0.000 999%   0.000 PCh                                                 
    0.000 999%   0.000 GSH                                                 
    0.000 999%   0.000 Ins                                                 
    0.000 999%   0.000 Lac                                                 
  565.564  19%   5.475 NAA                                                 
  279.844  37%   2.709 NAAG                                                
   14.103  57%   0.137 Scyllo                                              
   62.995  65%   0.610 Tau                                                 
   11.592 205%   0.112 -CrCH2                                              
   82.040  32%   0.794 GPC+PCh                                             
  845.407  13%   8.185 NAA+NAAG                                            
  103.293  64%   1.000 Cr+PCr                                              
    0.000 999%   0.000 Glu+Gln                                             
    0.000 999%   0.000 Lip13a                                              
    0.000 999%   0.000 Lip13b                                              
    0.000 999%   0.000 Lip09                                               
  308.534  47%   2.987 MM09                                                
 1.23E-03 999% 1.2E-05 Lip20                                               
  608.043  40%   5.887 MM20                                                
   73.652  75%   0.713 MM12                                                
    0.000 999%   0.000 MM14                                                
  240.249  46%   2.326 MM17                                                
    0.000 999%   0.000 Lip13a+Lip13b                                       
   73.652  75%   0.713 MM14+Lip13a+Lip13b+MM12                             
  308.534  47%   2.987 MM09+Lip09                                          
  608.044  40%   5.887 MM20+Lip20                                          
   6 lines in following misc. output table
  FWHM = 0.038 ppm    S/N =   2                                            
  Data shift =-0.031 ppm                                                   
  Ph: -58 deg       2.3 deg/ppm                                            
  alphaB,S = 4.5E+01,   9.9E+00                                            
   14 spline knots.   Ns = 5(1)                                            
  ( 6) 2 infls.   ( 1) 1 extrs.                                            
  498 points on ppm-axis = NY
      4.000000     3.992357     3.984714     3.977070     3.969427     3.961784     3.954141     3.946497     3.938854     3.931211
      3.923568     3.915925     3.908281     3.900638     3.892995     3.885352     3.877708     3.870065     3.862422     3.854779
      3.847136     3.839492     3.831849     3.824206     3.816563     3.808919     3.801276     3.793633     3.785990     3.778347
      3.770703     3.763060     3.755417     3.747774     3.740130     3.732487     3.724844     3.717201     3.709558     3.701914
      3.694271     3.686628     3.678985     3.671341     3.663698     3.656055     3.648412     3.640769     3.633125     3.625482
      3.617839     3.610196     3.602552     3.594909     3.587266     3.579623     3.571980     3.564336     3.556693     3.549050
      3.541407     3.533763     3.526120     3.518477     3.510834     3.503191     3.495547     3.487904     3.480261     3.472618
      3.464974     3.457331     3.449688     3.442045     3.434402     3.426758     3.419115     3.411472     3.403829     3.396185
      3.388542     3.380899     3.373256     3.365613     3.357969     3.350326     3.342683     3.335040     3.327396     3.319753
      3.312110     3.304467     3.296824     3.289180     3.281537     3.273894     3.266251     3.258607     3.250964     3.243321
      3.235678     3.228034     3.220391     3.212748     3.205105     3.197462     3.189818     3.182175     3.174532     3.166889
      3.159245     3.151602     3.143959     3.136316     3.128673     3.121029     3.113386     3.105743     3.098100     3.090456
      3.082813     3.075170     3.067527     3.059884     3.052240     3.044597     3.036954     3.029311     3.021667     3.014024
      3.006381     2.998738     2.991095     2.983451     2.975808     2.968165     2.960522     2.952878     2.945235     2.937592
      2.929949     2.922306     2.914662     2.907019     2.899376     2.891733     2.884089     2.876446     2.868803     2.861160
      2.853517     2.845873     2.838230     2.830587     2.822944     2.815300     2.807657     2.800014     2.792371     2.784728
      2.777084     2.769441     2.761798     2.754155     2.746511     2.738868     2.731225     2.723582     2.715939     2.708295
      2.700652     2.693009     2.685366     2.677722     2.670079     2.662436     2.654793     2.647150     2.639506     2.631863
      2.624220     2.616577     2.608933     2.601290     2.593647     2.586004     2.578361     2.570717     2.563074     2.555431
      2.547788     2.540144     2.532501     2.524858     2.517215     2.509572     2.501928     2.494285     2.486642     2.478999
      2.471355     2.463712     2.456069     2.448426     2.440783     2.433139     2.425496     2.417853     2.410210     2.402566
      2.394923     2.387280     2.379637     2.371994     2.364350     2.356707     2.349064     2.341421     2.333777     2.326134
      2.318491     2.310848     2.303205     2.295561     2.287918     2.280275     2.272632     2.264988     2.257345     2.249702
      2.242059     2.234416     2.226772     2.219129     2.211486     2.203843     2.196199     2.188556     2.180913     2.173270
      2.165627     2.157983     2.150340     2.142697     2.135054     2.127410     2.119767     2.112124     2.104481     2.096838
      2.089194     2.081551     2.073908     2.066265     2.058621     2.050978     2.043335     2.035692     2.028049     2.020405
      2.012762     2.005119     1.997476     1.989833     1.982190     1.974546     1.966903     1.959260     1.951617     1.943974
      1.936331     1.928688     1.921045     1.913402     1.905759     1.898115     1.890472     1.882829     1.875186     1.867543
      1.859900     1.852257     1.844614     1.836971     1.829327     1.821684     1.814041     1.806398     1.798755     1.791112
      1.783469     1.775826     1.768183     1.760540     1.752896     1.745253     1.737610     1.729967     1.722324     1.714681
      1.707038     1.699395     1.691752     1.684108     1.676465     1.668822     1.661179     1.653536     1.645893     1.638250
      1.630607     1.622964     1.615321     1.607677     1.600034     1.592391     1.584748     1.577105     1.569462     1.561819
      1.554176     1.546533     1.538890     1.531246     1.523603     1.515960     1.508317     1.500674     1.493031     1.485388
      1.477745     1.470102     1.462458     1.454815     1.447172     1.439529     1.431886     1.424243     1.416600     1.408957
      1.401314     1.393671     1.386027     1.378384     1.370741     1.363098     1.355455     1.347812     1.340169     1.332526
      1.324883     1.317240     1.309596     1.301953     1.294310     1.286667     1.279024     1.271381     1.263738     1.256095
      1.248452     1.240808     1.233165     1.225522     1.217879     1.210236     1.202593     1.194950     1.187307     1.179664
      1.172021     1.164377     1.156734     1.149091     1.141448     1.133805     1.126162     1.118519     1.110876     1.103233
      1.095590     1.087946     1.080303     1.072660     1.065017     1.057374     1.049731     1.042088     1.034445     1.026802
      1.019158     1.011515     1.003872     0.996229     0.988586     0.980943     0.973300     0.965657     0.958014     0.950371
      0.942727     0.935084     0.927441     0.919798     0.912155     0.904512     0.896869     0.889226     0.881583     0.873940
      0.866296     0.858653     0.851010     0.843367     0.835724     0.828081     0.820438     0.812795     0.805152     0.797508
      0.789865     0.782222     0.774579     0.766936     0.759293     0.751650     0.744007     0.736364     0.728721     0.721077
      0.713434     0.705791     0.698148     0.690505     0.682862     0.675219     0.667576     0.659933     0.652290     0.644646
      0.637003     0.629360     0.621717     0.614074     0.606431     0.598788     0.591145     0.583502     0.575858     0.568215
      0.560572     0.552929     0.545286     0.537643     0.530000     0.522357     0.514714     0.507071     0.499427     0.491784
      0.484141     0.476498     0.468855     0.461212     0.453569     0.445925     0.438282     0.430639     0.422996     0.415353
      0.407710     0.400067     0.392424     0.384780     0.377137     0.369494     0.361851     0.354208     0.346565     0.338922
      0.331278     0.323635     0.315992     0.308349     0.300706     0.293063     0.285420     0.277777     0.270133     0.262490
      0.254847     0.247204     0.239561     0.231918     0.224275     0.216631     0.208988     0.201345
 NY phased data points follow
  -1.14460E+01 -4.84199E+00  1.15577E+00 -1.22970E+01 -6.84620E+00 -4.16683E+00 -1.16274E+00 -1.51052E+01 -9.08650E+00 -1.37871E+01
  -8.72317E+00 -5.26794E+00 -1.03131E+01 -3.05529E+00 -2.07508E+01 -2.11549E+00 -2.62056E+00 -9.52815E+00 -6.26168E+00 -5.15754E+00
  -2.36617E+01 -4.43647E+00 -2.32825E+01 -1.43555E+01 -2.38741E+00 -9.19682E+00 -3.69300E+00 -1.42779E+01 -1.09429E+01 -1.32081E+01
  -1.03351E+01 -1.20537E+01 -1.71825E+01 -1.26806E+01 -1.61008E-01 -7.52821E+00 -1.62624E+01 -1.04012E+01 -5.65386E+00 -1.11017E+01
  -1.56507E+01 -1.71954E+01 -4.16292E+00 -5.38647E+00 -1.22267E+01 -1.65435E+01 -1.55361E+01 -1.08982E+01 -1.65587E+01 -7.48987E+00
  -3.62535E+00 -2.24620E+01  3.67341E+00 -3.27221E+00 -5.14428E+00 -6.84198E+00 -1.15294E+01 -1.14293E+01 -1.11167E+01 -1.51801E+01
  -7.39368E+00 -1.34910E+01 -1.55834E+01 -1.61916E+01  5.68414E+00 -1.02854E+01  5.12930E+00 -2.15795E+01 -5.84257E+00 -6.62415E+00
  -8.80101E+00 -7.80187E+00 -8.70450E+00 -1.23517E+01 -1.18302E+01 -5.18987E+00 -7.47679E+00 -1.52953E+01 -4.81090E+00 -9.35129E+00
  -1.63556E+01 -5.14928E+00 -1.22906E+01 -6.09794E+00 -5.05709E+00 -1.96829E+00 -2.53575E+00 -7.39108E+00 -1.02431E+01  3.92683E+00
  -1.03988E+01 -1.03210E+01 -1.13288E+01 -1.31277E+01 -6.27643E+00 -5.52525E+00 -6.64087E+00 -1.47466E+00 -6.90909E+00 -1.06244E+01
   4.97207E+00  2.03566E+00  9.47054E+00 -4.93977E+00 -7.77106E+00 -6.97859E+00 -1.27695E+01 -7.06573E+00 -1.45144E+01 -5.46902E-01
  -2.70474E+00 -7.48744E+00 -7.64745E+00 -1.96267E+01 -1.45531E+01 -1.38286E+01 -8.24166E+00 -6.70973E+00 -1.15579E+01 -9.30754E+00
  -7.86615E+00 -8.66990E+00 -1.16413E+01 -1.46479E+01 -1.33419E+01 -2.10207E+01 -9.52914E-01  2.19989E+00  2.94105E+00  2.25475E+00
  -9.30482E+00  1.19845E+00 -1.14524E+01 -9.30147E+00 -8.82049E+00 -4.92012E+00 -1.00036E+01 -1.44495E+01 -9.97743E+00 -1.45829E+01
  -8.15834E+00 -6.41612E+00 -1.44900E+01 -8.54660E+00 -7.83679E+00 -1.16458E+01 -1.89672E+01 -3.61337E+00 -1.03256E+01 -7.88124E+00
  -1.06593E+01 -1.24030E+01 -9.55073E+00 -1.61161E+01 -1.78158E+01 -6.06194E+00 -1.12670E+01 -1.10510E+01 -9.91852E+00 -1.16669E+01
  -1.86479E+01 -1.30452E+01 -6.98665E+00 -1.65039E+01 -2.45691E+00 -1.90310E+01 -1.99500E+01 -6.43257E+00 -1.32108E+01 -1.75488E+01
  -1.15703E+01 -8.71422E+00 -1.84621E+00  3.79493E+00 -1.66401E+01 -9.78358E+00 -1.76804E+01  1.30029E+00 -7.68335E+00  4.23866E-01
  -1.54607E+01 -1.42002E+01 -9.61766E+00 -2.13210E+01 -1.27493E+01 -1.06034E+01 -5.32267E+00 -1.23962E+01 -1.19605E+01 -1.22129E+01
  -1.52520E+01 -1.67274E+01 -1.37991E+01 -1.27698E+01 -8.25307E+00 -1.26018E+01  1.84853E+00 -1.86991E+00 -1.65094E+01 -1.76153E+01
  -8.61941E+00 -9.63528E+00 -4.08705E+00 -6.56653E+00 -2.01496E+01 -3.95188E+00 -1.32516E+01 -7.93752E+00 -1.24553E+01 -2.83452E+00
  -1.49621E+01 -1.39663E+00 -1.02520E+01 -8.26157E+00 -1.12026E+01 -8.48550E+00 -6.24625E+00 -1.17766E+01 -1.64555E+01 -9.54598E+00
  -1.39374E+01 -8.68861E+00  1.58568E+00  1.31094E-01 -9.96663E+00  1.94830E-01 -1.20155E+01 -1.28977E+01 -3.40867E+00 -5.07387E+00
  -1.02959E+01 -1.30289E+00 -8.19174E+00  4.12627E-01 -1.13861E+01 -3.05155E+00 -4.52493E+00  3.51986E+00 -5.59098E-01  4.12018E+00
   7.01341E+00  1.82132E+00 -5.17054E+00 -8.83296E-01 -9.83224E+00  1.66985E+00  1.25140E+00  1.13109E+00 -1.24134E+00  1.68951E-01
   2.97814E+00  6.08674E+00  3.84467E+00  7.99607E+00  7.50170E+00  6.31777E+00  1.58801E+00  2.55986E+01  9.98320E+00  1.97831E+01
   2.96121E+01  1.04594E+01  2.24571E+01  1.34184E+00  1.01134E+00 -1.41128E+01  1.84781E+00  8.09710E-01 -4.34647E+00  4.72028E-01
   4.05451E+00  3.49079E+00 -3.68616E+00 -4.60830E+00  2.08376E+00 -2.88824E+00  7.66865E+00 -3.96964E+00  5.69704E-01  5.33820E-01
  -3.85010E+00 -3.18765E+00  1.37263E+00 -9.59164E+00 -4.37541E+00  7.76596E+00 -2.24218E+00 -3.89089E+00 -1.55328E-01 -1.42722E+00
  -8.90753E+00 -5.99326E+00 -3.18132E+00 -2.88597E+00 -3.26113E-01  3.37060E+00 -3.53401E+00 -1.26161E+00 -8.70753E+00 -8.88752E+00
  -5.17188E+00 -4.83297E+00 -2.33316E+00  3.18834E+00 -2.95662E-01 -6.08760E+00  4.30874E+00  7.88014E+00  3.34116E+00 -9.19317E+00
  -1.27536E+00  7.88045E+00 -4.19742E+00  1.96776E+00 -9.22865E-01 -4.51705E+00  1.82269E+00  6.63210E+00 -4.64838E+00 -7.37580E+00
  -1.19660E+01 -8.58881E+00 -2.33698E+00 -4.73073E+00 -4.53613E+00 -5.12639E+00 -3.23289E+00 -9.23490E+00 -5.35228E+00  2.97963E+00
  -2.11347E+00 -5.68022E+00 -6.03034E+00 -1.25601E+01 -8.27543E+00 -1.93785E+01 -6.20476E+00 -9.50492E+00 -1.08520E+01 -1.04409E+01
  -1.62925E+01 -1.71498E+01 -2.08552E+01 -1.52455E+01 -7.87132E+00 -1.41183E+01 -1.66649E+01 -1.78303E+01 -8.71432E+00 -1.91435E+01
  -1.60101E+00 -9.44930E+00 -1.49810E+01 -1.02582E+01 -1.36430E+01 -1.51215E+01 -9.60145E+00 -1.39118E+01 -9.32001E+00 -1.46972E+01
  -2.06696E+01 -2.26946E+01 -1.54343E+01 -1.27155E+01 -1.33918E+01 -1.55394E+01 -1.05782E+01 -6.42928E+00 -7.39674E+00 -8.44231E+00
  -1.52471E+01 -5.77304E+00 -8.60522E+00 -7.88036E+00 -1.47801E+01 -5.04656E+00 -1.50406E+01 -5.49508E+00 -1.56435E+01 -3.37255E+00
  -6.09430E+00 -3.85103E+00 -1.23327E+00 -6.47460E+00 -1.17018E+01 -7.95676E+00 -1.27826E+01 -2.60016E+00 -1.47824E+01 -3.01136E+00
  -3.23379E+00 -1.00824E+01 -1.40781E+01  5.95191E+00 -9.48850E+00 -3.59942E-01  4.71298E+00 -5.63536E+00 -4.75191E+00  1.39859E+01
   4.47981E-01 -8.05477E+00 -1.39084E-01  1.00846E+00 -4.18939E-01 -1.64929E+01 -1.99792E-01 -1.10499E+01 -3.04867E-02 -7.45832E+00
  -1.35695E+01 -1.09378E+01  3.75241E+00 -1.26094E+01 -7.12173E+00  1.38595E+00 -1.47961E+01 -4.87254E+00 -9.66464E+00 -8.99095E+00
  -1.91088E+01 -9.03001E+00 -5.31940E+00 -5.83943E+00 -4.94273E+00 -3.47183E-01 -1.69797E+01 -1.21277E+01 -9.27516E+00 -1.05389E+01
  -5.22837E+00 -2.80822E+00 -5.31737E+00 -6.67931E+00  9.38182E-01 -2.44685E+00 -2.14661E+00 -1.56752E+01  6.62029E-01 -3.95495E+00
  -6.57990E+00 -8.05997E+00  2.57847E+00 -6.16102E+00 -8.61670E+00 -4.21320E+00 -6.12550E+00 -2.78978E+00  2.42709E+00 -4.75000E+00
  -3.04355E+00  3.95670E+00  6.60005E+00 -4.17272E+00 -4.18457E+00 -3.30622E-01 -2.81334E+00 -4.62321E+00 -4.39686E+00  6.15734E+00
   4.97903E+00 -4.47343E+00  9.86367E-01 -1.28499E+00  1.09820E+00  4.44860E+00 -1.89899E+00 -8.94554E+00 -7.17927E+00 -1.00555E+00
  -5.02760E+00 -3.01648E+00 -5.39919E+00  6.60471E+00 -4.31562E+00  7.96184E+00 -8.79380E+00  8.01238E+00 -2.51222E+00 -1.10790E+00
  -1.63083E+00 -1.30259E+01 -1.75469E+00 -2.11528E+00 -1.10813E+01 -1.18877E+01 -1.33134E+01 -2.30509E+00  1.84722E-01 -2.62488E-01
  -2.16942E+00 -3.04749E+00 -2.08004E+00 -5.22801E+00 -9.12386E+00 -1.08928E+01 -5.59536E-01 -6.57358E+00
 NY points of the fit to the data follow
  -1.00313E+01 -9.92749E+00 -9.79017E+00 -9.64147E+00 -9.52663E+00 -9.47984E+00 -9.44130E+00 -9.21949E+00 -8.68008E+00 -7.89787E+00
  -7.03331E+00 -6.56324E+00 -6.82088E+00 -7.60394E+00 -8.62612E+00 -9.37810E+00 -9.71084E+00 -9.84564E+00 -1.00344E+01 -1.01368E+01
  -1.01053E+01 -1.00044E+01 -9.91104E+00 -9.86089E+00 -9.84526E+00 -9.83413E+00 -9.81079E+00 -9.79522E+00 -9.79961E+00 -9.81764E+00
  -9.83391E+00 -9.83316E+00 -9.80918E+00 -9.75965E+00 -9.67708E+00 -9.57582E+00 -9.49051E+00 -9.43783E+00 -9.42726E+00 -9.46500E+00
  -9.51017E+00 -9.51271E+00 -9.48597E+00 -9.47172E+00 -9.47720E+00 -9.52374E+00 -9.55444E+00 -9.50124E+00 -9.39888E+00 -9.30345E+00
  -9.22234E+00 -9.20263E+00 -9.27880E+00 -9.37080E+00 -9.43208E+00 -9.47889E+00 -9.53138E+00 -9.57386E+00 -9.59258E+00 -9.58249E+00
  -9.55438E+00 -9.52097E+00 -9.48003E+00 -9.43453E+00 -9.38663E+00 -9.34501E+00 -9.34296E+00 -9.37690E+00 -9.42131E+00 -9.46756E+00
  -9.45781E+00 -9.36053E+00 -9.19542E+00 -9.00535E+00 -8.83882E+00 -8.80909E+00 -8.93159E+00 -9.13719E+00 -9.34153E+00 -9.43260E+00
  -9.35120E+00 -9.12937E+00 -8.80997E+00 -8.44681E+00 -8.10797E+00 -7.88167E+00 -7.89797E+00 -8.12458E+00 -8.47157E+00 -8.81192E+00
  -9.00795E+00 -9.07725E+00 -9.15234E+00 -9.22296E+00 -9.17663E+00 -8.96501E+00 -8.55448E+00 -7.73993E+00 -6.09969E+00 -3.61416E+00
  -7.78297E-01  1.78867E+00  2.62370E+00  1.08996E+00 -1.93202E+00 -5.46971E+00 -7.86287E+00 -8.62327E+00 -8.63902E+00 -8.80912E+00
  -8.89397E+00 -8.91905E+00 -8.91786E+00 -8.89672E+00 -8.87419E+00 -8.85137E+00 -8.83194E+00 -8.81435E+00 -8.79966E+00 -8.78213E+00
  -8.73987E+00 -8.64765E+00 -8.38114E+00 -7.69852E+00 -6.57214E+00 -5.23444E+00 -3.97722E+00 -3.48101E+00 -4.06134E+00 -5.33693E+00
  -6.88095E+00 -7.99040E+00 -8.42475E+00 -8.52670E+00 -8.65048E+00 -8.68401E+00 -8.66681E+00 -8.63252E+00 -8.60937E+00 -8.61023E+00
  -8.62648E+00 -8.64688E+00 -8.64786E+00 -8.61691E+00 -8.56314E+00 -8.52481E+00 -8.54200E+00 -8.60524E+00 -8.67698E+00 -8.73999E+00
  -8.80305E+00 -8.87437E+00 -8.96051E+00 -9.02643E+00 -8.99756E+00 -8.88268E+00 -8.76960E+00 -8.76660E+00 -8.95820E+00 -9.31160E+00
  -9.63013E+00 -9.71574E+00 -9.54670E+00 -9.22320E+00 -8.96106E+00 -8.99294E+00 -9.25957E+00 -9.57262E+00 -9.78029E+00 -9.79492E+00
  -9.65417E+00 -9.56229E+00 -9.62064E+00 -9.82404E+00 -1.00807E+01 -1.02157E+01 -1.00868E+01 -9.80640E+00 -9.59499E+00 -9.54463E+00
  -9.65413E+00 -9.71103E+00 -9.53423E+00 -9.17177E+00 -8.82450E+00 -8.60238E+00 -8.48354E+00 -8.26466E+00 -7.89043E+00 -7.50736E+00
  -7.27000E+00 -7.28312E+00 -7.44794E+00 -7.55603E+00 -7.56989E+00 -7.52127E+00 -7.45971E+00 -7.49829E+00 -7.61743E+00 -7.73134E+00
  -7.74019E+00 -7.61080E+00 -7.39600E+00 -7.22975E+00 -7.22613E+00 -7.39109E+00 -7.71182E+00 -8.05631E+00 -8.29971E+00 -8.43839E+00
  -8.55606E+00 -8.64927E+00 -8.70391E+00 -8.64164E+00 -8.45215E+00 -8.16959E+00 -7.89454E+00 -7.72291E+00 -7.63409E+00 -7.52594E+00
  -7.36130E+00 -7.17407E+00 -6.98387E+00 -6.83363E+00 -6.76718E+00 -6.79947E+00 -6.92597E+00 -7.10364E+00 -7.25151E+00 -7.33866E+00
  -7.30521E+00 -7.10567E+00 -6.79417E+00 -6.44764E+00 -6.16850E+00 -6.05792E+00 -6.10232E+00 -6.21188E+00 -6.32973E+00 -6.39097E+00
  -6.36466E+00 -6.26897E+00 -6.07716E+00 -5.80364E+00 -5.50951E+00 -5.28179E+00 -5.17546E+00 -5.15361E+00 -5.10211E+00 -4.94760E+00
  -4.50967E+00 -3.21280E+00 -6.59132E-01  2.69723E+00  6.42907E+00  9.67080E+00  1.22641E+01  1.51466E+01  1.80821E+01  2.14325E+01
   2.28308E+01  1.99054E+01  1.31716E+01  4.80029E+00 -1.30711E+00 -3.72535E+00 -4.18700E+00 -4.86088E+00 -5.28713E+00 -5.49477E+00
  -5.57874E+00 -5.59280E+00 -5.59802E+00 -5.64249E+00 -5.75295E+00 -5.92128E+00 -6.10363E+00 -6.26445E+00 -6.37762E+00 -6.42286E+00
  -6.41962E+00 -6.39497E+00 -6.36332E+00 -6.33664E+00 -6.31957E+00 -6.31893E+00 -6.33868E+00 -6.35380E+00 -6.34543E+00 -6.31103E+00
  -6.23719E+00 -6.12642E+00 -6.01102E+00 -5.90895E+00 -5.83653E+00 -5.79409E+00 -5.76011E+00 -5.72163E+00 -5.67708E+00 -5.61702E+00
  -5.54320E+00 -5.46132E+00 -5.38662E+00 -5.33255E+00 -5.30079E+00 -5.28431E+00 -5.28302E+00 -5.29603E+00 -5.32130E+00 -5.35796E+00
  -5.40483E+00 -5.46051E+00 -5.52340E+00 -5.59153E+00 -5.66272E+00 -5.73505E+00 -5.80660E+00 -5.87580E+00 -5.94150E+00 -6.00287E+00
  -6.05924E+00 -6.11033E+00 -6.15597E+00 -6.19603E+00 -6.23045E+00 -6.25949E+00 -6.28361E+00 -6.30333E+00 -6.31908E+00 -6.33113E+00
  -6.33977E+00 -6.34540E+00 -6.34848E+00 -6.34940E+00 -6.34835E+00 -6.34544E+00 -6.34079E+00 -6.33465E+00 -6.32719E+00 -6.31853E+00
  -6.30861E+00 -6.29739E+00 -6.28490E+00 -6.27129E+00 -6.25661E+00 -6.24083E+00 -6.22383E+00 -6.20557E+00 -6.18613E+00 -6.16565E+00
  -6.14419E+00 -6.12178E+00 -6.09842E+00 -6.07426E+00 -6.04951E+00 -6.02444E+00 -5.99921E+00 -5.97398E+00 -5.94891E+00 -5.92429E+00
  -5.90042E+00 -5.87756E+00 -5.85585E+00 -5.83536E+00 -5.81617E+00 -5.79843E+00 -5.78218E+00 -5.76736E+00 -5.75376E+00 -5.74112E+00
  -5.72918E+00 -5.71770E+00 -5.70630E+00 -5.69449E+00 -5.68166E+00 -5.66721E+00 -5.65055E+00 -5.63109E+00 -5.60809E+00 -5.58071E+00
  -5.54809E+00 -5.50941E+00 -5.46389E+00 -5.41075E+00 -5.34916E+00 -5.27836E+00 -5.19772E+00 -5.10691E+00 -5.00581E+00 -4.89459E+00
  -4.77368E+00 -4.64393E+00 -4.50667E+00 -4.36375E+00 -4.21745E+00 -4.07037E+00 -3.92540E+00 -3.78570E+00 -3.65457E+00 -3.53535E+00
  -3.43109E+00 -3.34446E+00 -3.27761E+00 -3.23215E+00 -3.20903E+00 -3.20850E+00 -3.22995E+00 -3.27208E+00 -3.33293E+00 -3.41015E+00
  -3.50102E+00 -3.60258E+00 -3.71171E+00 -3.82537E+00 -3.94071E+00 -4.05524E+00 -4.16682E+00 -4.27368E+00 -4.37437E+00 -4.46788E+00
  -4.55361E+00 -4.63134E+00 -4.70106E+00 -4.76298E+00 -4.81739E+00 -4.86479E+00 -4.90576E+00 -4.94094E+00 -4.97094E+00 -4.99630E+00
  -5.01751E+00 -5.03509E+00 -5.04952E+00 -5.06127E+00 -5.07064E+00 -5.07792E+00 -5.08334E+00 -5.08716E+00 -5.08963E+00 -5.09094E+00
  -5.09118E+00 -5.09044E+00 -5.08883E+00 -5.08649E+00 -5.08352E+00 -5.08000E+00 -5.07591E+00 -5.07131E+00 -5.06624E+00 -5.06080E+00
  -5.05504E+00 -5.04897E+00 -5.04256E+00 -5.03584E+00 -5.02885E+00 -5.02167E+00 -5.01430E+00 -5.00673E+00 -4.99893E+00 -4.99093E+00
  -4.98278E+00 -4.97453E+00 -4.96616E+00 -4.95763E+00 -4.94893E+00 -4.94012E+00 -4.93123E+00 -4.92228E+00 -4.91323E+00 -4.90406E+00
  -4.89477E+00 -4.88542E+00 -4.87603E+00 -4.86660E+00 -4.85708E+00 -4.84747E+00 -4.83778E+00 -4.82808E+00 -4.81835E+00 -4.80859E+00
  -4.79874E+00 -4.78883E+00 -4.77888E+00 -4.76894E+00 -4.75898E+00 -4.74899E+00 -4.73892E+00 -4.72883E+00 -4.71873E+00 -4.70865E+00
  -4.69855E+00 -4.68843E+00 -4.67825E+00 -4.66807E+00 -4.65792E+00 -4.64780E+00 -4.63767E+00 -4.62752E+00
 NY background values follow
    -1.053E+01   -1.052E+01   -1.051E+01   -1.050E+01   -1.049E+01   -1.048E+01   -1.047E+01   -1.046E+01   -1.044E+01   -1.043E+01
    -1.042E+01   -1.041E+01   -1.040E+01   -1.039E+01   -1.038E+01   -1.037E+01   -1.036E+01   -1.035E+01   -1.034E+01   -1.033E+01
    -1.032E+01   -1.031E+01   -1.030E+01   -1.029E+01   -1.028E+01   -1.026E+01   -1.025E+01   -1.024E+01   -1.023E+01   -1.022E+01
    -1.021E+01   -1.020E+01   -1.019E+01   -1.018E+01   -1.017E+01   -1.016E+01   -1.015E+01   -1.014E+01   -1.013E+01   -1.012E+01
    -1.010E+01   -1.009E+01   -1.008E+01   -1.007E+01   -1.006E+01   -1.005E+01   -1.004E+01   -1.003E+01   -1.002E+01   -1.001E+01
    -9.997E+00   -9.986E+00   -9.976E+00   -9.965E+00   -9.954E+00   -9.943E+00   -9.932E+00   -9.922E+00   -9.911E+00   -9.900E+00
    -9.889E+00   -9.878E+00   -9.867E+00   -9.857E+00   -9.846E+00   -9.835E+00   -9.824E+00   -9.813E+00   -9.802E+00   -9.791E+00
    -9.780E+00   -9.770E+00   -9.759E+00   -9.748E+00   -9.737E+00   -9.726E+00   -9.715E+00   -9.704E+00   -9.693E+00   -9.682E+00
    -9.671E+00   -9.660E+00   -9.649E+00   -9.638E+00   -9.627E+00   -9.616E+00   -9.606E+00   -9.595E+00   -9.584E+00   -9.573E+00
    -9.562E+00   -9.551E+00   -9.540E+00   -9.529E+00   -9.518E+00   -9.506E+00   -9.495E+00   -9.484E+00   -9.473E+00   -9.462E+00
    -9.451E+00   -9.440E+00   -9.429E+00   -9.418E+00   -9.407E+00   -9.396E+00   -9.385E+00   -9.374E+00   -9.363E+00   -9.352E+00
    -9.341E+00   -9.329E+00   -9.318E+00   -9.307E+00   -9.296E+00   -9.285E+00   -9.274E+00   -9.263E+00   -9.252E+00   -9.240E+00
    -9.229E+00   -9.218E+00   -9.207E+00   -9.196E+00   -9.185E+00   -9.173E+00   -9.162E+00   -9.151E+00   -9.140E+00   -9.129E+00
    -9.118E+00   -9.106E+00   -9.095E+00   -9.084E+00   -9.073E+00   -9.061E+00   -9.050E+00   -9.039E+00   -9.028E+00   -9.017E+00
    -9.005E+00   -8.994E+00   -8.983E+00   -8.972E+00   -8.960E+00   -8.949E+00   -8.938E+00   -8.927E+00   -8.915E+00   -8.904E+00
    -8.893E+00   -8.881E+00   -8.870E+00   -8.859E+00   -8.848E+00   -8.836E+00   -8.825E+00   -8.814E+00   -8.802E+00   -8.791E+00
    -8.780E+00   -8.768E+00   -8.757E+00   -8.746E+00   -8.734E+00   -8.723E+00   -8.712E+00   -8.700E+00   -8.689E+00   -8.677E+00
    -8.666E+00   -8.655E+00   -8.643E+00   -8.632E+00   -8.621E+00   -8.609E+00   -8.598E+00   -8.586E+00   -8.575E+00   -8.564E+00
    -8.552E+00   -8.541E+00   -8.529E+00   -8.518E+00   -8.507E+00   -8.495E+00   -8.484E+00   -8.472E+00   -8.461E+00   -8.449E+00
    -8.438E+00   -8.426E+00   -8.415E+00   -8.404E+00   -8.392E+00   -8.381E+00   -8.369E+00   -8.358E+00   -8.346E+00   -8.335E+00
    -8.323E+00   -8.312E+00   -8.300E+00   -8.289E+00   -8.277E+00   -8.266E+00   -8.254E+00   -8.243E+00   -8.231E+00   -8.220E+00
    -8.208E+00   -8.197E+00   -8.185E+00   -8.174E+00   -8.162E+00   -8.151E+00   -8.139E+00   -8.127E+00   -8.116E+00   -8.104E+00
    -8.093E+00   -8.081E+00   -8.070E+00   -8.058E+00   -8.047E+00   -8.035E+00   -8.023E+00   -8.012E+00   -8.000E+00   -7.989E+00
    -7.977E+00   -7.965E+00   -7.954E+00   -7.942E+00   -7.931E+00   -7.919E+00   -7.907E+00   -7.896E+00   -7.884E+00   -7.873E+00
    -7.861E+00   -7.849E+00   -7.838E+00   -7.826E+00   -7.815E+00   -7.803E+00   -7.791E+00   -7.780E+00   -7.768E+00   -7.756E+00
    -7.745E+00   -7.733E+00   -7.721E+00   -7.710E+00   -7.698E+00   -7.686E+00   -7.675E+00   -7.663E+00   -7.651E+00   -7.640E+00
    -7.628E+00   -7.616E+00   -7.605E+00   -7.593E+00   -7.581E+00   -7.570E+00   -7.558E+00   -7.546E+00   -7.535E+00   -7.523E+00
    -7.511E+00   -7.500E+00   -7.488E+00   -7.476E+00   -7.464E+00   -7.453E+00   -7.441E+00   -7.429E+00   -7.418E+00   -7.406E+00
    -7.394E+00   -7.382E+00   -7.371E+00   -7.359E+00   -7.347E+00   -7.335E+00   -7.324E+00   -7.312E+00   -7.300E+00   -7.289E+00
    -7.277E+00   -7.265E+00   -7.253E+00   -7.242E+00   -7.230E+00   -7.218E+00   -7.206E+00   -7.195E+00   -7.183E+00   -7.171E+00
    -7.159E+00   -7.147E+00   -7.136E+00   -7.124E+00   -7.112E+00   -7.100E+00   -7.089E+00   -7.077E+00   -7.065E+00   -7.053E+00
    -7.041E+00   -7.030E+00   -7.018E+00   -7.006E+00   -6.994E+00   -6.982E+00   -6.971E+00   -6.959E+00   -6.947E+00   -6.935E+00
    -6.923E+00   -6.912E+00   -6.900E+00   -6.888E+00   -6.876E+00   -6.864E+00   -6.853E+00   -6.841E+00   -6.829E+00   -6.817E+00
    -6.805E+00   -6.793E+00   -6.782E+00   -6.770E+00   -6.758E+00   -6.746E+00   -6.734E+00   -6.722E+00   -6.711E+00   -6.699E+00
    -6.687E+00   -6.675E+00   -6.663E+00   -6.651E+00   -6.640E+00   -6.628E+00   -6.616E+00   -6.604E+00   -6.592E+00   -6.580E+00
    -6.568E+00   -6.557E+00   -6.545E+00   -6.533E+00   -6.521E+00   -6.509E+00   -6.497E+00   -6.485E+00   -6.474E+00   -6.462E+00
    -6.450E+00   -6.438E+00   -6.426E+00   -6.414E+00   -6.402E+00   -6.391E+00   -6.379E+00   -6.367E+00   -6.355E+00   -6.343E+00
    -6.331E+00   -6.319E+00   -6.307E+00   -6.295E+00   -6.284E+00   -6.272E+00   -6.260E+00   -6.248E+00   -6.236E+00   -6.224E+00
    -6.212E+00   -6.200E+00   -6.188E+00   -6.177E+00   -6.165E+00   -6.153E+00   -6.141E+00   -6.129E+00   -6.117E+00   -6.105E+00
    -6.093E+00   -6.081E+00   -6.070E+00   -6.058E+00   -6.046E+00   -6.034E+00   -6.022E+00   -6.010E+00   -5.998E+00   -5.986E+00
    -5.974E+00   -5.962E+00   -5.950E+00   -5.939E+00   -5.927E+00   -5.915E+00   -5.903E+00   -5.891E+00   -5.879E+00   -5.867E+00
    -5.855E+00   -5.843E+00   -5.831E+00   -5.819E+00   -5.808E+00   -5.796E+00   -5.784E+00   -5.772E+00   -5.760E+00   -5.748E+00
    -5.736E+00   -5.724E+00   -5.712E+00   -5.700E+00   -5.688E+00   -5.676E+00   -5.665E+00   -5.653E+00   -5.641E+00   -5.629E+00
    -5.617E+00   -5.605E+00   -5.593E+00   -5.581E+00   -5.569E+00   -5.557E+00   -5.545E+00   -5.533E+00   -5.522E+00   -5.510E+00
    -5.498E+00   -5.486E+00   -5.474E+00   -5.462E+00   -5.450E+00   -5.438E+00   -5.426E+00   -5.414E+00   -5.402E+00   -5.390E+00
    -5.379E+00   -5.367E+00   -5.355E+00   -5.343E+00   -5.331E+00   -5.319E+00   -5.307E+00   -5.295E+00   -5.283E+00   -5.271E+00
    -5.259E+00   -5.247E+00   -5.236E+00   -5.224E+00   -5.212E+00   -5.200E+00   -5.188E+00   -5.176E+00   -5.164E+00   -5.152E+00
    -5.140E+00   -5.128E+00   -5.116E+00   -5.104E+00   -5.093E+00   -5.081E+00   -5.069E+00   -5.057E+00   -5.045E+00   -5.033E+00
    -5.021E+00   -5.009E+00   -4.997E+00   -4.985E+00   -4.973E+00   -4.962E+00   -4.950E+00   -4.938E+00   -4.926E+00   -4.914E+00
    -4.902E+00   -4.890E+00   -4.878E+00   -4.866E+00   -4.854E+00   -4.843E+00   -4.831E+00   -4.819E+00
 Asp      Conc. = 6.47E+01
