 LCModel (Version 6.3-1L) Copyright: S.W. Provencher.          Ref.: Magn. Reson. Med. 30:672-679 (1993).                
 Slice#2 Row#2 Col#2  PD_24_press_2_raw_act
 36 lines in following concentration table = NCONC+1
    Conc.  %SD /Cr+PCr  Metabolite                                         
 6.08E+03  23%  87.840 Ala                                                 
   39.256  67%   0.568 Asp                                                 
   69.169 234%   1.000 Cr                                                  
    0.000 999%   0.000 PCr                                                 
   24.074  66%   0.348 GABA                                                
   24.388  65%   0.353 Glc                                                 
 1.79E+03  86%  25.815 Gln                                                 
    0.000 999%   0.000 Glu                                                 
    0.000 999%   0.000 GPC                                                 
  213.500  28%   3.087 PCh                                                 
  195.741 137%   2.830 GSH                                                 
 1.22E+03  54%  17.577 Ins                                                 
 1.68E+03  74%  24.351 Lac                                                 
    0.000 999%   0.000 NAA                                                 
   94.679 237%   1.369 NAAG                                                
    8.454  63%   0.122 Scyllo                                              
   41.562  63%   0.601 Tau                                                 
    6.962 250%   0.101 -CrCH2                                              
  213.500  28%   3.087 GPC+PCh                                             
   94.679 237%   1.369 NAA+NAAG                                            
   69.169 234%   1.000 Cr+PCr                                              
 1.79E+03  86%  25.815 Glu+Gln                                             
    0.000 999%   0.000 Lip13a                                              
    0.000 999%   0.000 Lip13b                                              
    0.000 999%   0.000 Lip09                                               
 1.68E+03  17%  24.292 MM09                                                
   24.706 720%   0.357 Lip20                                               
 2.35E+03  24%  34.010 MM20                                                
  535.559  27%   7.743 MM12                                                
 2.88E+03  12%  41.662 MM14                                                
 2.13E+03  14%  30.760+MM17                                                
    0.000 999%   0.000 Lip13a+Lip13b                                       
 3.42E+03  11%  49.404 MM14+Lip13a+Lip13b+MM12                             
 1.68E+03  17%  24.292 MM09+Lip09                                          
 2.38E+03  24%  34.367 MM20+Lip20                                          
   6 lines in following misc. output table
  FWHM = 0.168 ppm    S/N =   3                                            
  Data shift = 0.138 ppm                                                   
  Ph:-137 deg      61.3 deg/ppm                                            
  alphaB,S = 8.5E+01,   4.1E+02                                            
   10 spline knots.   Ns = 9(2)                                            
   2 inflections.     1 extrema                                            
  498 points on ppm-axis = NY
      4.000000     3.992357     3.984714     3.977070     3.969427     3.961784     3.954141     3.946497     3.938854     3.931211
      3.923568     3.915925     3.908281     3.900638     3.892995     3.885352     3.877708     3.870065     3.862422     3.854779
      3.847136     3.839492     3.831849     3.824206     3.816563     3.808919     3.801276     3.793633     3.785990     3.778347
      3.770703     3.763060     3.755417     3.747774     3.740130     3.732487     3.724844     3.717201     3.709558     3.701914
      3.694271     3.686628     3.678985     3.671341     3.663698     3.656055     3.648412     3.640769     3.633125     3.625482
      3.617839     3.610196     3.602552     3.594909     3.587266     3.579623     3.571980     3.564336     3.556693     3.549050
      3.541407     3.533763     3.526120     3.518477     3.510834     3.503191     3.495547     3.487904     3.480261     3.472618
      3.464974     3.457331     3.449688     3.442045     3.434402     3.426758     3.419115     3.411472     3.403829     3.396185
      3.388542     3.380899     3.373256     3.365613     3.357969     3.350326     3.342683     3.335040     3.327396     3.319753
      3.312110     3.304467     3.296824     3.289180     3.281537     3.273894     3.266251     3.258607     3.250964     3.243321
      3.235678     3.228034     3.220391     3.212748     3.205105     3.197462     3.189818     3.182175     3.174532     3.166889
      3.159245     3.151602     3.143959     3.136316     3.128673     3.121029     3.113386     3.105743     3.098100     3.090456
      3.082813     3.075170     3.067527     3.059884     3.052240     3.044597     3.036954     3.029311     3.021667     3.014024
      3.006381     2.998738     2.991095     2.983451     2.975808     2.968165     2.960522     2.952878     2.945235     2.937592
      2.929949     2.922306     2.914662     2.907019     2.899376     2.891733     2.884089     2.876446     2.868803     2.861160
      2.853517     2.845873     2.838230     2.830587     2.822944     2.815300     2.807657     2.800014     2.792371     2.784728
      2.777084     2.769441     2.761798     2.754155     2.746511     2.738868     2.731225     2.723582     2.715939     2.708295
      2.700652     2.693009     2.685366     2.677722     2.670079     2.662436     2.654793     2.647150     2.639506     2.631863
      2.624220     2.616577     2.608933     2.601290     2.593647     2.586004     2.578361     2.570717     2.563074     2.555431
      2.547788     2.540144     2.532501     2.524858     2.517215     2.509572     2.501928     2.494285     2.486642     2.478999
      2.471355     2.463712     2.456069     2.448426     2.440783     2.433139     2.425496     2.417853     2.410210     2.402566
      2.394923     2.387280     2.379637     2.371994     2.364350     2.356707     2.349064     2.341421     2.333777     2.326134
      2.318491     2.310848     2.303205     2.295561     2.287918     2.280275     2.272632     2.264988     2.257345     2.249702
      2.242059     2.234416     2.226772     2.219129     2.211486     2.203843     2.196199     2.188556     2.180913     2.173270
      2.165627     2.157983     2.150340     2.142697     2.135054     2.127410     2.119767     2.112124     2.104481     2.096838
      2.089194     2.081551     2.073908     2.066265     2.058621     2.050978     2.043335     2.035692     2.028049     2.020405
      2.012762     2.005119     1.997476     1.989833     1.982190     1.974546     1.966903     1.959260     1.951617     1.943974
      1.936331     1.928688     1.921045     1.913402     1.905759     1.898115     1.890472     1.882829     1.875186     1.867543
      1.859900     1.852257     1.844614     1.836971     1.829327     1.821684     1.814041     1.806398     1.798755     1.791112
      1.783469     1.775826     1.768183     1.760540     1.752896     1.745253     1.737610     1.729967     1.722324     1.714681
      1.707038     1.699395     1.691752     1.684108     1.676465     1.668822     1.661179     1.653536     1.645893     1.638250
      1.630607     1.622964     1.615321     1.607677     1.600034     1.592391     1.584748     1.577105     1.569462     1.561819
      1.554176     1.546533     1.538890     1.531246     1.523603     1.515960     1.508317     1.500674     1.493031     1.485388
      1.477745     1.470102     1.462458     1.454815     1.447172     1.439529     1.431886     1.424243     1.416600     1.408957
      1.401314     1.393671     1.386027     1.378384     1.370741     1.363098     1.355455     1.347812     1.340169     1.332526
      1.324883     1.317240     1.309596     1.301953     1.294310     1.286667     1.279024     1.271381     1.263738     1.256095
      1.248452     1.240808     1.233165     1.225522     1.217879     1.210236     1.202593     1.194950     1.187307     1.179664
      1.172021     1.164377     1.156734     1.149091     1.141448     1.133805     1.126162     1.118519     1.110876     1.103233
      1.095590     1.087946     1.080303     1.072660     1.065017     1.057374     1.049731     1.042088     1.034445     1.026802
      1.019158     1.011515     1.003872     0.996229     0.988586     0.980943     0.973300     0.965657     0.958014     0.950371
      0.942727     0.935084     0.927441     0.919798     0.912155     0.904512     0.896869     0.889226     0.881583     0.873940
      0.866296     0.858653     0.851010     0.843367     0.835724     0.828081     0.820438     0.812795     0.805152     0.797508
      0.789865     0.782222     0.774579     0.766936     0.759293     0.751650     0.744007     0.736364     0.728721     0.721077
      0.713434     0.705791     0.698148     0.690505     0.682862     0.675219     0.667576     0.659933     0.652290     0.644646
      0.637003     0.629360     0.621717     0.614074     0.606431     0.598788     0.591145     0.583502     0.575858     0.568215
      0.560572     0.552929     0.545286     0.537643     0.530000     0.522357     0.514714     0.507071     0.499427     0.491784
      0.484141     0.476498     0.468855     0.461212     0.453569     0.445925     0.438282     0.430639     0.422996     0.415353
      0.407710     0.400067     0.392424     0.384780     0.377137     0.369494     0.361851     0.354208     0.346565     0.338922
      0.331278     0.323635     0.315992     0.308349     0.300706     0.293063     0.285420     0.277777     0.270133     0.262490
      0.254847     0.247204     0.239561     0.231918     0.224275     0.216631     0.208988     0.201345
 NY phased data points follow
  -1.09556E+00 -7.43833E-01 -6.62915E+00 -2.30713E-01 -5.67244E+00 -1.23695E+00  4.77594E+00  1.12111E+00 -1.21984E+00 -5.49675E-01
  -2.24203E+00  2.09873E+00 -3.35260E+00 -9.28876E+00 -1.31573E-01 -4.84580E+00 -4.85133E-01  5.25874E+00 -8.19235E-01 -2.52966E+00
   4.94513E+00 -5.94084E+00 -3.74662E+00 -2.22322E+00 -9.09723E+00 -4.57368E+00  1.68087E+00 -1.22443E+01 -3.01115E+00 -2.50466E+00
   1.95979E+00 -2.91024E+00 -1.33339E+00  3.01331E+00  2.21399E+00 -2.09531E+00  2.27720E-01 -7.82849E+00  5.19025E+00 -2.52457E+00
  -3.84260E+00  3.13909E+00 -1.67491E+00 -3.23498E-01  1.58450E+00  4.90213E+00  3.57470E+00  5.71270E+00  6.20042E+00 -2.36248E+00
   2.89771E+00 -3.55594E+00 -1.23139E+00 -1.11900E+01 -1.07477E+00 -5.06854E+00  4.79561E+00 -1.04714E+01 -5.33470E+00  5.52741E-01
  -1.00646E+00  2.90808E+00 -9.39125E-01 -1.40009E+00 -2.36333E+00  6.69342E+00 -5.92693E-01 -6.13935E+00  3.78133E+00 -4.92295E+00
  -1.44113E-01  5.33724E+00 -2.82545E-01  2.32553E+00 -7.66597E-01  8.43367E+00  1.43179E+01  5.13649E+00  6.27268E+00  2.64850E-02
   4.67799E+00 -3.75258E+00  5.36115E+00 -7.07360E+00 -8.53124E+00 -1.07758E+01 -9.72638E+00 -1.86520E+00  2.31280E+00 -7.62318E-02
   4.27900E+00 -1.41679E+00 -4.70765E-01  5.40716E+00  4.10842E+00  6.64417E+00  1.18168E+01  7.32951E+00  1.01494E+01 -1.62190E+00
   1.48595E+00  5.09078E+00  4.07025E+00  2.20182E+00  9.99743E+00 -2.18514E+00 -6.97810E+00  2.68952E-01 -3.66609E+00 -5.04005E+00
   2.65232E-01 -8.14652E-01  9.12095E+00 -8.89929E+00 -2.31733E+00 -9.53189E-01  1.80987E+00 -3.43400E+00  7.28591E+00 -9.48863E+00
   1.06853E-01  2.97772E+00  2.63426E+00 -2.88015E+00  3.39799E+00 -8.60912E+00  1.63370E+00 -8.24311E-01 -4.38221E+00  5.86107E+00
  -1.01027E+01  2.56531E+00  6.73407E-01 -8.95573E+00 -3.94035E-01  6.18550E+00  1.56737E+00 -2.59979E+00  5.82441E+00 -2.11884E-01
   2.17243E+00  4.89221E-01  3.89236E+00  6.96308E-01  4.88577E+00 -2.35815E+00  5.66241E+00 -2.07067E+00  3.58102E+00  4.69679E-01
   5.04775E+00  1.21241E+00 -2.99050E-01 -3.94310E+00 -1.12257E+01 -8.12339E+00 -6.82495E+00  1.40314E+00  2.34280E+00 -2.08057E+00
   9.02625E+00 -3.29929E+00 -1.45287E+00 -5.32818E+00  4.52320E-02 -7.30040E+00 -3.39292E+00 -3.00044E+00 -7.95379E+00 -1.01988E+01
   3.01643E+00 -1.04467E+00  2.20080E+00 -2.81167E+00 -3.03808E+00 -5.45323E+00 -5.20346E+00 -4.54979E+00 -7.66060E+00 -7.48829E+00
  -1.30837E+01 -7.62869E+00 -5.49092E+00 -1.41508E+01 -3.98061E+00 -1.45375E+01 -1.28493E+01 -1.14104E+00 -8.99273E+00 -1.17773E+01
  -1.11994E+01 -1.33736E+01 -1.11178E+01 -1.02929E+01  7.36907E-01 -1.03101E+01 -2.16012E+00 -8.99587E+00  2.86359E+00 -6.06275E+00
  -7.73137E+00 -1.78274E-01 -2.80293E+00 -1.13481E+00  8.37308E+00 -2.03864E+00 -1.95090E+00  6.65305E+00  6.70190E+00 -1.04913E+01
  -2.70352E+00  5.32776E+00 -3.70479E+00 -2.48235E+00  5.39014E+00  6.69845E+00  3.37561E+00  1.20353E-01  1.28801E+01 -4.25493E-01
   2.23986E+00  2.78525E-02  4.19539E+00  7.47375E+00  8.31329E-01 -9.98637E-01  7.85928E+00  5.91043E+00  3.94008E+00  1.44626E+00
   4.24742E+00  2.69841E+00 -3.84152E+00  9.06915E+00 -7.16231E+00 -5.83971E-01  3.80645E+00 -6.69559E+00 -2.31492E+00 -1.09892E+01
   1.57251E-01  2.13125E+00  3.33366E+00 -6.48243E+00  9.92704E+00  1.10792E+01  1.50379E+01  1.32830E+01  1.21983E+01  1.29301E+01
   7.64883E+00  1.35862E+00  1.97765E+01  2.02627E+00  7.63932E+00  7.87625E+00  7.97858E-02  1.53562E+01 -1.60084E+00 -6.38691E-01
   6.16540E+00  2.78293E+00 -1.68056E+00  2.04516E+00  1.99106E+00 -3.18639E+00  3.57015E+00  2.51458E+00  1.98852E+00  2.16084E+00
   4.62895E+00 -4.56561E+00 -7.74280E+00 -3.13451E-01  2.36393E+00 -2.91867E+00 -7.89151E+00 -1.25937E+01 -4.58625E+00 -8.57426E+00
  -1.25549E+01 -8.13626E+00 -1.28036E+01 -9.54398E+00 -1.44334E+01 -1.69297E+01 -1.23806E+01 -9.87861E+00 -6.04734E+00 -6.37600E+00
  -2.75518E+00 -1.28079E+01 -6.70269E+00 -5.94649E+00  2.91879E+00  7.58247E+00  6.67388E+00  9.39865E+00  1.90035E+01  7.10196E+00
   1.81226E+01  1.56877E+01  2.01526E+01  1.76444E+01  2.63431E+01  3.74809E+01  3.67723E+01  2.77621E+01  3.43596E+01  3.51334E+01
   3.65087E+01  3.52344E+01  3.91137E+01  3.16615E+01  4.15758E+01  4.11880E+01  3.55006E+01  4.26839E+01  3.71303E+01  3.12644E+01
   3.03714E+01  3.12068E+01  3.02748E+01  3.16485E+01  3.68724E+01  3.21510E+01  2.98433E+01  2.48021E+01  2.74303E+01  2.03254E+01
   2.25074E+01  1.54949E+01  1.89527E+01  1.44923E+01  2.37607E+01  1.71519E+01  1.37948E+01  1.79958E+01  2.15566E+01  2.13228E+01
   1.87123E+01  1.38048E+01  6.51310E+00  1.03460E+01  1.04516E+01  1.45073E+01  5.29363E+00  3.27186E+00  1.64448E+01  1.24125E+01
   6.58851E+00  1.09950E+00 -2.46674E+00  7.62928E+00  5.31257E+00  1.24776E+01  5.54675E+00  5.29157E-01  3.75715E+00  8.07963E+00
   5.34417E+00  2.07578E+00  1.85680E+01  8.37314E+00  6.68413E+00  1.00242E+01  7.20154E+00  6.76972E+00  2.90609E+00 -5.63731E+00
  -5.10326E+00  6.75185E+00  5.53419E+00  1.50928E+01  1.44333E+00 -4.24516E-01  1.04366E+01  1.24880E+01  2.74944E+00  7.86384E+00
   5.92564E+00  1.34592E+00  6.88384E+00  1.02805E+01  4.10125E+00  9.49124E-01  3.30370E+00 -2.92751E+00 -4.47268E-01  1.25453E+00
   5.13530E+00  3.25452E+00  7.48304E+00  3.13498E+00  7.39967E+00 -1.10383E+00 -9.97254E-01 -2.99702E+00  7.38495E+00 -2.28897E+00
   2.64687E+00  3.13101E-01  4.01223E+00  1.15545E+00 -1.37874E+00  3.41242E+00  2.54786E+00 -2.44106E+00  5.49820E-01  7.32097E+00
   2.44353E+00  1.05552E+01  8.62239E+00  3.30341E+00 -4.30611E-01  3.24802E+00  8.25839E+00  8.72295E+00  3.18608E+00  3.87859E+00
   3.34869E-01 -1.65183E+00  2.54493E+00 -7.41004E+00 -2.33332E+00  3.17862E+00  7.13482E+00 -1.02509E+00 -8.06956E-01 -1.23366E+00
  -1.93801E+00  1.37654E+00  6.80128E+00 -8.42891E-01 -4.65279E+00  4.13700E+00 -6.46989E+00 -6.44888E+00  4.06245E+00  1.73635E+00
   2.55463E+00 -5.41139E-01 -5.87575E+00 -9.39954E-01 -1.57114E+00  3.56701E+00 -3.49527E+00  4.92582E+00  3.58751E-01  1.08409E+00
  -4.46215E+00 -9.17753E+00 -6.38144E+00 -8.01182E+00 -8.11063E+00 -1.48805E+00  1.59521E+00  1.22574E+00  7.33557E+00 -7.67893E+00
  -5.39900E+00 -2.44749E+00 -2.49555E+00 -3.30362E+00  2.99678E+00 -4.34774E+00 -3.96266E+00 -6.05930E+00 -2.18988E+00 -5.49435E+00
  -3.95002E+00 -8.65296E-01 -5.95183E+00  5.96430E+00  5.36416E-01  2.31383E+00 -5.94001E+00  2.31188E+00 -1.15344E+01 -2.84059E+00
  -4.60059E-01  1.19273E+00 -4.03729E+00 -1.70293E+00  2.46851E+00 -1.37099E+01 -8.27060E+00  1.57639E+00 -8.56506E-01 -4.66845E+00
  -2.37467E+00 -3.38934E+00 -2.24822E+00  7.80160E+00 -3.65501E+00 -2.12294E+00  7.85159E-01 -8.40868E-01
 NY points of the fit to the data follow
  -6.65879E-01 -4.70474E-01 -1.12242E+00 -9.22045E-01 -1.44888E+00 -1.14795E+00 -1.46597E+00 -8.66684E-01 -1.26794E+00 -6.94839E-01
  -1.27819E+00 -8.08531E-01 -1.49599E+00 -1.17959E+00 -1.93275E+00 -1.48435E+00 -2.03486E+00 -1.51588E+00 -1.79625E+00 -1.31162E+00
  -1.35861E+00 -9.52477E-01 -8.96887E-01 -7.89380E-01 -6.26399E-01 -8.77827E-01 -5.39925E-01 -1.08307E+00 -4.80152E-01 -1.11151E+00
  -1.29461E-01 -7.89433E-01  4.35429E-01 -3.32480E-01  9.44717E-01 -1.52570E-03  1.20167E+00  8.30492E-02  1.15915E+00 -6.10008E-02
   9.02825E-01 -1.86460E-01  7.86373E-01 -9.24279E-02  8.58508E-01  1.77438E-01  1.02160E+00  4.59192E-01  9.64961E-01  3.06538E-01
   5.85153E-01 -5.07960E-02  1.22115E-01 -4.31110E-01 -2.53660E-01 -5.71742E-01 -2.96260E-01 -5.31226E-01 -2.57864E-01 -4.73214E-01
  -2.42059E-01 -4.70186E-01 -3.22182E-01 -6.09230E-01 -4.71312E-01 -7.56545E-01 -6.08368E-01 -8.63293E-01 -6.91144E-01 -9.20861E-01
  -7.45749E-01 -1.03109E+00 -9.21025E-01 -1.27606E+00 -1.21477E+00 -1.60465E+00 -1.56504E+00 -1.95955E+00 -1.90874E+00 -2.28438E+00
  -2.22849E+00 -2.57148E+00 -2.50312E+00 -2.80773E+00 -2.68839E+00 -2.68996E+00 -2.29256E+00 -2.17822E+00 -1.50463E+00 -1.40832E+00
  -4.76161E-01 -4.94389E-01  6.56819E-01  4.47709E-01  1.76934E+00  1.32543E+00  2.74899E+00  2.06003E+00  3.53542E+00  2.61460E+00
   4.09021E+00  2.94612E+00  4.34952E+00  2.99443E+00  4.24008E+00  2.74290E+00  3.77721E+00  2.24279E+00  3.06075E+00  1.63952E+00
   2.27107E+00  1.03863E+00  1.53155E+00  5.09537E-01  8.86740E-01  8.36666E-02  3.60125E-01 -2.76468E-01 -1.18344E-01 -5.91506E-01
  -5.41341E-01 -8.48951E-01 -8.57526E-01 -9.97275E-01 -9.95851E-01 -9.49810E-01 -8.68464E-01 -8.61726E-01 -7.87021E-01 -8.43217E-01
  -7.82607E-01 -9.01010E-01 -8.57839E-01 -1.02778E+00 -1.00132E+00 -1.20747E+00 -1.19734E+00 -1.42911E+00 -1.43101E+00 -1.67621E+00
  -1.68903E+00 -1.94198E+00 -1.97089E+00 -2.22113E+00 -2.26581E+00 -2.50133E+00 -2.55846E+00 -2.76649E+00 -2.82829E+00 -2.99026E+00
  -3.05283E+00 -3.18684E+00 -3.25165E+00 -3.35684E+00 -3.41962E+00 -3.49493E+00 -3.55606E+00 -3.61754E+00 -3.68425E+00 -3.73068E+00
  -3.79877E+00 -3.82703E+00 -3.88720E+00 -3.90088E+00 -3.95130E+00 -3.95944E+00 -3.99843E+00 -4.00749E+00 -4.03587E+00 -4.04689E+00
  -4.06342E+00 -4.07467E+00 -4.07104E+00 -4.07426E+00 -4.04488E+00 -4.04822E+00 -4.02819E+00 -4.05170E+00 -4.07010E+00 -4.16413E+00
  -4.21635E+00 -4.36632E+00 -4.42052E+00 -4.56630E+00 -4.52578E+00 -4.62381E+00 -4.49154E+00 -4.51129E+00 -4.29517E+00 -4.28886E+00
  -4.05451E+00 -4.12925E+00 -4.07550E+00 -4.25623E+00 -4.21509E+00 -4.45277E+00 -4.34817E+00 -4.60464E+00 -4.39496E+00 -4.65226E+00
  -4.33306E+00 -4.59507E+00 -4.19120E+00 -4.47180E+00 -4.00411E+00 -4.30174E+00 -3.76934E+00 -4.05400E+00 -3.43322E+00 -3.65620E+00
  -2.93003E+00 -3.06194E+00 -2.27208E+00 -2.33409E+00 -1.56264E+00 -1.59625E+00 -9.23653E-01 -9.81520E-01 -5.30594E-01 -6.15986E-01
  -2.75929E-01 -3.18677E-01  1.14497E-02  1.04744E-01  4.96876E-01  5.76764E-01  9.71448E-01  9.48589E-01  1.31998E+00  1.12646E+00
   1.47758E+00  1.10755E+00  1.45522E+00  1.02681E+00  1.56472E+00  1.15820E+00  1.88802E+00  1.54609E+00  2.48210E+00  2.16591E+00
   3.24466E+00  2.90559E+00  4.05134E+00  3.69275E+00  4.84601E+00  4.48014E+00  5.59816E+00  5.23033E+00  6.26194E+00  5.87098E+00
   6.77057E+00  6.31072E+00  7.02150E+00  6.46334E+00  6.95240E+00  6.30129E+00  6.57430E+00  5.87766E+00  5.93898E+00  5.26294E+00
   5.22145E+00  4.61201E+00  4.50220E+00  3.97390E+00  3.80935E+00  3.28373E+00  3.06477E+00  2.56423E+00  2.30633E+00  1.84628E+00
   1.57562E+00  1.17690E+00  9.13020E-01  5.99792E-01  3.62606E-01  1.18745E-01 -8.81204E-02 -2.70448E-01 -4.29270E-01 -5.76353E-01
  -6.96942E-01 -8.06637E-01 -8.75329E-01 -9.22552E-01 -9.17042E-01 -8.77337E-01 -7.69264E-01 -6.08211E-01 -3.58336E-01 -3.21417E-02
   4.07155E-01  9.49196E-01  1.62839E+00  2.43505E+00  3.39686E+00  4.50074E+00  5.76418E+00  7.16749E+00  8.71553E+00  1.03806E+01
   1.21558E+01  1.40084E+01  1.59246E+01  1.78744E+01  1.98494E+01  2.18398E+01  2.38709E+01  2.60118E+01  2.84950E+01  3.15696E+01
   3.34874E+01  3.61910E+01  3.70625E+01  3.88014E+01  3.83892E+01  3.86762E+01  3.66711E+01  3.65183E+01  3.45744E+01  3.40087E+01
   3.26229E+01  3.14593E+01  3.08052E+01  2.88631E+01  2.89438E+01  2.60274E+01  2.68229E+01  2.29443E+01  2.47194E+01  2.04405E+01
   2.29574E+01  1.84419E+01  2.16449E+01  1.71565E+01  2.07448E+01  1.61889E+01  1.95992E+01  1.54049E+01  1.82763E+01  1.45583E+01
   1.65482E+01  1.34670E+01  1.46492E+01  1.25366E+01  1.30754E+01  1.19621E+01  1.19391E+01  1.17592E+01  1.13081E+01  1.19142E+01
   1.05070E+01  1.10508E+01  9.03408E+00  9.70351E+00  7.35910E+00  8.12967E+00  5.69205E+00  6.87240E+00  5.11979E+00  6.18341E+00
   4.77022E+00  5.56592E+00  4.46019E+00  5.04336E+00  4.22551E+00  4.63280E+00  4.06645E+00  4.34082E+00  3.97915E+00  4.12367E+00
   3.72354E+00  3.57466E+00  3.18785E+00  2.86400E+00  2.52072E+00  2.13211E+00  1.88089E+00  1.70661E+00  1.58237E+00  1.49898E+00
   1.45201E+00  1.44004E+00  1.46201E+00  1.51811E+00  1.60797E+00  1.73196E+00  1.88947E+00  2.08033E+00  2.30319E+00  2.55693E+00
   2.83912E+00  3.14735E+00  3.47771E+00  3.82622E+00  4.18742E+00  4.55580E+00  4.92448E+00  5.28673E+00  5.63467E+00  5.96098E+00
   6.25768E+00  6.51783E+00  6.73435E+00  6.90174E+00  7.01482E+00  7.07044E+00  7.06617E+00  7.00181E+00  6.87797E+00  6.69746E+00
   6.46369E+00  6.18200E+00  5.85797E+00  5.49858E+00  5.11051E+00  4.70134E+00  4.27778E+00  3.84699E+00  3.41487E+00  2.98740E+00
   2.56904E+00  2.16421E+00  1.77572E+00  1.40637E+00  1.05745E+00  7.30311E-01  4.24976E-01  1.41714E-01 -1.20345E-01 -3.61622E-01
  -5.83511E-01 -7.86815E-01 -9.73180E-01 -1.14352E+00 -1.29951E+00 -1.44201E+00 -1.57260E+00 -1.69203E+00 -1.80171E+00 -1.90224E+00
  -1.99485E+00 -2.07995E+00 -2.15863E+00 -2.23117E+00 -2.29851E+00 -2.36079E+00 -2.41885E+00 -2.47269E+00 -2.52308E+00 -2.56996E+00
  -2.61401E+00 -2.65510E+00 -2.69384E+00 -2.73007E+00 -2.76435E+00 -2.79647E+00 -2.82698E+00 -2.85562E+00 -2.88289E+00 -2.90854E+00
  -2.93304E+00 -2.95612E+00 -2.97824E+00 -2.99909E+00 -3.01912E+00 -3.03802E+00 -3.05624E+00 -3.07345E+00 -3.09008E+00 -3.10579E+00
  -3.12100E+00 -3.13539E+00 -3.14936E+00 -3.16258E+00 -3.17545E+00 -3.18761E+00 -3.19948E+00 -3.21071E+00 -3.22170E+00 -3.23209E+00
  -3.24227E+00 -3.25189E+00 -3.26135E+00 -3.27028E+00 -3.27907E+00 -3.28737E+00 -3.29555E+00 -3.30325E+00 -3.31087E+00 -3.31802E+00
  -3.32510E+00 -3.33172E+00 -3.33826E+00 -3.34435E+00 -3.35035E+00 -3.35587E+00 -3.36126E+00 -3.36610E+00
 NY background values follow
    -4.129E+00   -4.128E+00   -4.128E+00   -4.127E+00   -4.126E+00   -4.126E+00   -4.125E+00   -4.124E+00   -4.124E+00   -4.123E+00
    -4.122E+00   -4.122E+00   -4.121E+00   -4.120E+00   -4.120E+00   -4.119E+00   -4.118E+00   -4.117E+00   -4.117E+00   -4.116E+00
    -4.115E+00   -4.115E+00   -4.114E+00   -4.113E+00   -4.113E+00   -4.112E+00   -4.111E+00   -4.111E+00   -4.110E+00   -4.109E+00
    -4.109E+00   -4.108E+00   -4.107E+00   -4.107E+00   -4.106E+00   -4.105E+00   -4.105E+00   -4.104E+00   -4.103E+00   -4.103E+00
    -4.102E+00   -4.101E+00   -4.100E+00   -4.100E+00   -4.099E+00   -4.098E+00   -4.098E+00   -4.097E+00   -4.096E+00   -4.096E+00
    -4.095E+00   -4.094E+00   -4.094E+00   -4.093E+00   -4.092E+00   -4.092E+00   -4.091E+00   -4.090E+00   -4.090E+00   -4.089E+00
    -4.088E+00   -4.088E+00   -4.087E+00   -4.086E+00   -4.086E+00   -4.085E+00   -4.084E+00   -4.083E+00   -4.083E+00   -4.082E+00
    -4.081E+00   -4.081E+00   -4.080E+00   -4.079E+00   -4.079E+00   -4.078E+00   -4.077E+00   -4.077E+00   -4.076E+00   -4.075E+00
    -4.075E+00   -4.074E+00   -4.073E+00   -4.073E+00   -4.072E+00   -4.071E+00   -4.071E+00   -4.070E+00   -4.069E+00   -4.069E+00
    -4.068E+00   -4.067E+00   -4.066E+00   -4.066E+00   -4.065E+00   -4.064E+00   -4.064E+00   -4.063E+00   -4.062E+00   -4.062E+00
    -4.061E+00   -4.060E+00   -4.060E+00   -4.059E+00   -4.058E+00   -4.058E+00   -4.057E+00   -4.056E+00   -4.056E+00   -4.055E+00
    -4.054E+00   -4.054E+00   -4.053E+00   -4.052E+00   -4.051E+00   -4.051E+00   -4.050E+00   -4.049E+00   -4.049E+00   -4.048E+00
    -4.047E+00   -4.047E+00   -4.046E+00   -4.045E+00   -4.045E+00   -4.044E+00   -4.043E+00   -4.043E+00   -4.042E+00   -4.041E+00
    -4.041E+00   -4.040E+00   -4.039E+00   -4.039E+00   -4.038E+00   -4.037E+00   -4.037E+00   -4.036E+00   -4.035E+00   -4.034E+00
    -4.034E+00   -4.033E+00   -4.032E+00   -4.032E+00   -4.031E+00   -4.030E+00   -4.030E+00   -4.029E+00   -4.028E+00   -4.028E+00
    -4.027E+00   -4.026E+00   -4.026E+00   -4.025E+00   -4.024E+00   -4.024E+00   -4.023E+00   -4.022E+00   -4.022E+00   -4.021E+00
    -4.020E+00   -4.019E+00   -4.019E+00   -4.018E+00   -4.017E+00   -4.017E+00   -4.016E+00   -4.015E+00   -4.015E+00   -4.014E+00
    -4.013E+00   -4.013E+00   -4.012E+00   -4.011E+00   -4.011E+00   -4.010E+00   -4.009E+00   -4.009E+00   -4.008E+00   -4.007E+00
    -4.007E+00   -4.006E+00   -4.005E+00   -4.004E+00   -4.004E+00   -4.003E+00   -4.002E+00   -4.002E+00   -4.001E+00   -4.000E+00
    -4.000E+00   -3.999E+00   -3.998E+00   -3.998E+00   -3.997E+00   -3.996E+00   -3.996E+00   -3.995E+00   -3.994E+00   -3.994E+00
    -3.993E+00   -3.992E+00   -3.992E+00   -3.991E+00   -3.990E+00   -3.989E+00   -3.989E+00   -3.988E+00   -3.987E+00   -3.987E+00
    -3.986E+00   -3.985E+00   -3.985E+00   -3.984E+00   -3.983E+00   -3.983E+00   -3.982E+00   -3.981E+00   -3.981E+00   -3.980E+00
    -3.979E+00   -3.979E+00   -3.978E+00   -3.977E+00   -3.977E+00   -3.976E+00   -3.975E+00   -3.974E+00   -3.974E+00   -3.973E+00
    -3.972E+00   -3.972E+00   -3.971E+00   -3.970E+00   -3.970E+00   -3.969E+00   -3.968E+00   -3.968E+00   -3.967E+00   -3.966E+00
    -3.966E+00   -3.965E+00   -3.964E+00   -3.964E+00   -3.963E+00   -3.962E+00   -3.961E+00   -3.961E+00   -3.960E+00   -3.959E+00
    -3.959E+00   -3.958E+00   -3.957E+00   -3.957E+00   -3.956E+00   -3.955E+00   -3.955E+00   -3.954E+00   -3.953E+00   -3.953E+00
    -3.952E+00   -3.951E+00   -3.951E+00   -3.950E+00   -3.949E+00   -3.948E+00   -3.948E+00   -3.947E+00   -3.946E+00   -3.946E+00
    -3.945E+00   -3.944E+00   -3.944E+00   -3.943E+00   -3.942E+00   -3.942E+00   -3.941E+00   -3.940E+00   -3.940E+00   -3.939E+00
    -3.938E+00   -3.937E+00   -3.937E+00   -3.936E+00   -3.935E+00   -3.935E+00   -3.934E+00   -3.933E+00   -3.933E+00   -3.932E+00
    -3.931E+00   -3.931E+00   -3.930E+00   -3.929E+00   -3.928E+00   -3.928E+00   -3.927E+00   -3.926E+00   -3.926E+00   -3.925E+00
    -3.924E+00   -3.924E+00   -3.923E+00   -3.922E+00   -3.922E+00   -3.921E+00   -3.920E+00   -3.920E+00   -3.919E+00   -3.918E+00
    -3.917E+00   -3.917E+00   -3.916E+00   -3.915E+00   -3.915E+00   -3.914E+00   -3.913E+00   -3.913E+00   -3.912E+00   -3.911E+00
    -3.911E+00   -3.910E+00   -3.909E+00   -3.908E+00   -3.908E+00   -3.907E+00   -3.906E+00   -3.906E+00   -3.905E+00   -3.904E+00
    -3.904E+00   -3.903E+00   -3.902E+00   -3.902E+00   -3.901E+00   -3.900E+00   -3.899E+00   -3.899E+00   -3.898E+00   -3.897E+00
    -3.897E+00   -3.896E+00   -3.895E+00   -3.895E+00   -3.894E+00   -3.893E+00   -3.892E+00   -3.892E+00   -3.891E+00   -3.890E+00
    -3.890E+00   -3.889E+00   -3.888E+00   -3.888E+00   -3.887E+00   -3.886E+00   -3.886E+00   -3.885E+00   -3.884E+00   -3.883E+00
    -3.883E+00   -3.882E+00   -3.881E+00   -3.881E+00   -3.880E+00   -3.879E+00   -3.879E+00   -3.878E+00   -3.877E+00   -3.876E+00
    -3.876E+00   -3.875E+00   -3.874E+00   -3.874E+00   -3.873E+00   -3.872E+00   -3.872E+00   -3.871E+00   -3.870E+00   -3.870E+00
    -3.869E+00   -3.868E+00   -3.867E+00   -3.867E+00   -3.866E+00   -3.865E+00   -3.865E+00   -3.864E+00   -3.863E+00   -3.863E+00
    -3.862E+00   -3.861E+00   -3.860E+00   -3.860E+00   -3.859E+00   -3.858E+00   -3.858E+00   -3.857E+00   -3.856E+00   -3.856E+00
    -3.855E+00   -3.854E+00   -3.853E+00   -3.853E+00   -3.852E+00   -3.851E+00   -3.851E+00   -3.850E+00   -3.849E+00   -3.849E+00
    -3.848E+00   -3.847E+00   -3.846E+00   -3.846E+00   -3.845E+00   -3.844E+00   -3.844E+00   -3.843E+00   -3.842E+00   -3.842E+00
    -3.841E+00   -3.840E+00   -3.839E+00   -3.839E+00   -3.838E+00   -3.837E+00   -3.837E+00   -3.836E+00   -3.835E+00   -3.835E+00
    -3.834E+00   -3.833E+00   -3.832E+00   -3.832E+00   -3.831E+00   -3.830E+00   -3.830E+00   -3.829E+00   -3.828E+00   -3.828E+00
    -3.827E+00   -3.826E+00   -3.825E+00   -3.825E+00   -3.824E+00   -3.823E+00   -3.823E+00   -3.822E+00   -3.821E+00   -3.821E+00
    -3.820E+00   -3.819E+00   -3.818E+00   -3.818E+00   -3.817E+00   -3.816E+00   -3.816E+00   -3.815E+00   -3.814E+00   -3.813E+00
    -3.813E+00   -3.812E+00   -3.811E+00   -3.811E+00   -3.810E+00   -3.809E+00   -3.809E+00   -3.808E+00   -3.807E+00   -3.806E+00
    -3.806E+00   -3.805E+00   -3.804E+00   -3.804E+00   -3.803E+00   -3.802E+00   -3.802E+00   -3.801E+00   -3.800E+00   -3.799E+00
    -3.799E+00   -3.798E+00   -3.797E+00   -3.797E+00   -3.796E+00   -3.795E+00   -3.795E+00   -3.794E+00   -3.793E+00   -3.792E+00
    -3.792E+00   -3.791E+00   -3.790E+00   -3.790E+00   -3.789E+00   -3.788E+00   -3.787E+00   -3.787E+00
 Ala      Conc. = 6.08E+03
