 LCModel (Version 6.3-1L) Copyright: S.W. Provencher.          Ref.: Magn. Reson. Med. 30:672-679 (1993).                
 Slice#3 Row#1 Col#10  PD_24_press_2_raw_act
 36 lines in following concentration table = NCONC+1
    Conc.  %SD /Cr+PCr  Metabolite                                         
  176.728  82%   0.000 Ala                                                 
    9.632 179%   0.000 Asp                                                 
    0.000 999%   0.000 Cr                                                  
    0.000 999%   0.000 PCr                                                 
    5.299 195%   0.000 GABA                                                
    5.461 189%   0.000 Glc                                                 
  150.320 195%   0.000 Gln                                                 
    0.000 999%   0.000 Glu                                                 
    0.000 999%   0.000 GPC                                                 
    0.000 999%   0.000 PCh                                                 
  141.076  69%   0.000 GSH                                                 
  438.912  63%   0.000 Ins                                                 
   16.125 979%   0.000 Lac                                                 
   87.598 107%   0.000 NAA                                                 
   87.789 106%   0.000 NAAG                                                
    2.254 152%   0.000 Scyllo                                              
    9.518 181%   0.000 Tau                                                 
    8.505 381%   0.000 -CrCH2                                              
    0.000 999%   0.000 GPC+PCh                                             
  175.387  51%   0.000 NAA+NAAG                                            
    0.000 999%   0.000 Cr+PCr                                              
  150.320 195%   0.000 Glu+Gln                                             
    0.000 999%   0.000 Lip13a                                              
   55.890 277%   0.000 Lip13b                                              
   14.631 321%   0.000 Lip09                                               
  526.911  33%   0.000 MM09                                                
    7.380 379%   0.000 Lip20                                               
  717.647  42%   0.000 MM20                                                
  153.446  53%   0.000 MM12                                                
  327.972  71%   0.000 MM14                                                
  362.517  43%   0.000 MM17                                                
   55.890 277%   0.000 Lip13a+Lip13b                                       
  537.309  50%   0.000 MM14+Lip13a+Lip13b+MM12                             
  541.543  31%   0.000 MM09+Lip09                                          
  725.027  41%   0.000 MM20+Lip20                                          
   6 lines in following misc. output table
  FWHM = 0.054 ppm    S/N =   1                                            
  Data shift = 0.061 ppm                                                   
  Ph: -60 deg     -43.2 deg/ppm                                            
  alphaB,S = 8.5E+01,   5.1E+01                                            
   14 spline knots.   Ns = 5(1)                                            
   2 inflections.     1 extrema                                            
  498 points on ppm-axis = NY
      4.000000     3.992357     3.984714     3.977070     3.969427     3.961784     3.954141     3.946497     3.938854     3.931211
      3.923568     3.915925     3.908281     3.900638     3.892995     3.885352     3.877708     3.870065     3.862422     3.854779
      3.847136     3.839492     3.831849     3.824206     3.816563     3.808919     3.801276     3.793633     3.785990     3.778347
      3.770703     3.763060     3.755417     3.747774     3.740130     3.732487     3.724844     3.717201     3.709558     3.701914
      3.694271     3.686628     3.678985     3.671341     3.663698     3.656055     3.648412     3.640769     3.633125     3.625482
      3.617839     3.610196     3.602552     3.594909     3.587266     3.579623     3.571980     3.564336     3.556693     3.549050
      3.541407     3.533763     3.526120     3.518477     3.510834     3.503191     3.495547     3.487904     3.480261     3.472618
      3.464974     3.457331     3.449688     3.442045     3.434402     3.426758     3.419115     3.411472     3.403829     3.396185
      3.388542     3.380899     3.373256     3.365613     3.357969     3.350326     3.342683     3.335040     3.327396     3.319753
      3.312110     3.304467     3.296824     3.289180     3.281537     3.273894     3.266251     3.258607     3.250964     3.243321
      3.235678     3.228034     3.220391     3.212748     3.205105     3.197462     3.189818     3.182175     3.174532     3.166889
      3.159245     3.151602     3.143959     3.136316     3.128673     3.121029     3.113386     3.105743     3.098100     3.090456
      3.082813     3.075170     3.067527     3.059884     3.052240     3.044597     3.036954     3.029311     3.021667     3.014024
      3.006381     2.998738     2.991095     2.983451     2.975808     2.968165     2.960522     2.952878     2.945235     2.937592
      2.929949     2.922306     2.914662     2.907019     2.899376     2.891733     2.884089     2.876446     2.868803     2.861160
      2.853517     2.845873     2.838230     2.830587     2.822944     2.815300     2.807657     2.800014     2.792371     2.784728
      2.777084     2.769441     2.761798     2.754155     2.746511     2.738868     2.731225     2.723582     2.715939     2.708295
      2.700652     2.693009     2.685366     2.677722     2.670079     2.662436     2.654793     2.647150     2.639506     2.631863
      2.624220     2.616577     2.608933     2.601290     2.593647     2.586004     2.578361     2.570717     2.563074     2.555431
      2.547788     2.540144     2.532501     2.524858     2.517215     2.509572     2.501928     2.494285     2.486642     2.478999
      2.471355     2.463712     2.456069     2.448426     2.440783     2.433139     2.425496     2.417853     2.410210     2.402566
      2.394923     2.387280     2.379637     2.371994     2.364350     2.356707     2.349064     2.341421     2.333777     2.326134
      2.318491     2.310848     2.303205     2.295561     2.287918     2.280275     2.272632     2.264988     2.257345     2.249702
      2.242059     2.234416     2.226772     2.219129     2.211486     2.203843     2.196199     2.188556     2.180913     2.173270
      2.165627     2.157983     2.150340     2.142697     2.135054     2.127410     2.119767     2.112124     2.104481     2.096838
      2.089194     2.081551     2.073908     2.066265     2.058621     2.050978     2.043335     2.035692     2.028049     2.020405
      2.012762     2.005119     1.997476     1.989833     1.982190     1.974546     1.966903     1.959260     1.951617     1.943974
      1.936331     1.928688     1.921045     1.913402     1.905759     1.898115     1.890472     1.882829     1.875186     1.867543
      1.859900     1.852257     1.844614     1.836971     1.829327     1.821684     1.814041     1.806398     1.798755     1.791112
      1.783469     1.775826     1.768183     1.760540     1.752896     1.745253     1.737610     1.729967     1.722324     1.714681
      1.707038     1.699395     1.691752     1.684108     1.676465     1.668822     1.661179     1.653536     1.645893     1.638250
      1.630607     1.622964     1.615321     1.607677     1.600034     1.592391     1.584748     1.577105     1.569462     1.561819
      1.554176     1.546533     1.538890     1.531246     1.523603     1.515960     1.508317     1.500674     1.493031     1.485388
      1.477745     1.470102     1.462458     1.454815     1.447172     1.439529     1.431886     1.424243     1.416600     1.408957
      1.401314     1.393671     1.386027     1.378384     1.370741     1.363098     1.355455     1.347812     1.340169     1.332526
      1.324883     1.317240     1.309596     1.301953     1.294310     1.286667     1.279024     1.271381     1.263738     1.256095
      1.248452     1.240808     1.233165     1.225522     1.217879     1.210236     1.202593     1.194950     1.187307     1.179664
      1.172021     1.164377     1.156734     1.149091     1.141448     1.133805     1.126162     1.118519     1.110876     1.103233
      1.095590     1.087946     1.080303     1.072660     1.065017     1.057374     1.049731     1.042088     1.034445     1.026802
      1.019158     1.011515     1.003872     0.996229     0.988586     0.980943     0.973300     0.965657     0.958014     0.950371
      0.942727     0.935084     0.927441     0.919798     0.912155     0.904512     0.896869     0.889226     0.881583     0.873940
      0.866296     0.858653     0.851010     0.843367     0.835724     0.828081     0.820438     0.812795     0.805152     0.797508
      0.789865     0.782222     0.774579     0.766936     0.759293     0.751650     0.744007     0.736364     0.728721     0.721077
      0.713434     0.705791     0.698148     0.690505     0.682862     0.675219     0.667576     0.659933     0.652290     0.644646
      0.637003     0.629360     0.621717     0.614074     0.606431     0.598788     0.591145     0.583502     0.575858     0.568215
      0.560572     0.552929     0.545286     0.537643     0.530000     0.522357     0.514714     0.507071     0.499427     0.491784
      0.484141     0.476498     0.468855     0.461212     0.453569     0.445925     0.438282     0.430639     0.422996     0.415353
      0.407710     0.400067     0.392424     0.384780     0.377137     0.369494     0.361851     0.354208     0.346565     0.338922
      0.331278     0.323635     0.315992     0.308349     0.300706     0.293063     0.285420     0.277777     0.270133     0.262490
      0.254847     0.247204     0.239561     0.231918     0.224275     0.216631     0.208988     0.201345
 NY phased data points follow
  -1.11748E+01 -5.92329E+00 -1.92042E+00  1.64309E+01  7.64765E+00  4.44329E+00 -4.17700E+00 -5.57734E+00  1.56443E+00 -3.68862E+00
   5.33328E-01 -8.74866E+00 -8.49336E+00 -2.11135E+00 -6.98744E+00 -9.76940E-01 -9.86428E-02  5.26726E+00  4.04091E+00  3.48845E+00
  -4.47445E+00 -4.64367E+00 -9.55024E+00 -5.50191E+00  2.35812E+00  2.90835E+00  5.90021E+00  1.56201E+00 -1.87142E-01  1.97784E+00
   1.00419E+00 -5.98235E+00 -2.36184E+00  1.93998E-01  1.09299E+01  6.23957E+00  4.75232E+00 -5.48458E+00 -7.63973E+00 -1.54298E+00
   3.97394E+00 -9.93265E+00  6.74610E+00  5.13591E+00  3.36218E+00  4.22583E+00  6.34357E+00 -1.23052E+01  1.18072E+01  3.39658E+00
   4.94347E-01 -5.07526E+00 -2.57794E+00 -6.01446E+00 -4.80034E+00 -3.89061E+00 -3.93802E+00 -2.73209E+00  1.47225E+00  7.93838E-01
   2.85616E+00 -2.85269E+00  5.92414E+00  3.81945E+00 -6.76121E+00 -3.72736E+00 -7.74352E+00  1.61135E+00 -8.56624E+00  4.24620E+00
  -2.80531E+00  7.59414E-01 -4.48919E+00  1.81574E-01  6.34397E-01 -3.59274E+00  6.02377E+00  1.06616E+01 -8.17761E+00  1.08929E+01
  -2.49610E+00  4.60594E+00 -2.00282E-01 -4.45756E+00  3.91721E-01 -1.97053E+00 -5.66598E+00  6.41851E+00  3.04713E+00  1.01457E+01
  -2.42839E+00  8.74558E+00 -2.53422E+00 -2.01187E+00 -2.87090E+00 -4.44622E+00  8.81351E+00 -8.77698E-01 -1.15982E+01 -2.33066E+00
   9.36439E-01 -2.96891E-01  9.35196E+00 -3.56094E+00 -1.26330E+01 -7.62566E+00 -3.37999E+00 -4.40790E+00 -1.26628E+00  3.44530E+00
  -7.41153E-01  8.54070E+00 -2.18833E+00 -8.40685E+00 -5.41312E+00 -3.89620E+00 -6.77837E+00  9.44327E+00  3.85136E+00 -2.60697E+00
  -4.26506E+00  2.79776E+00  2.24101E+00  1.28212E+01  2.38953E+00 -3.55919E+00  7.98498E+00 -8.84916E-01 -8.73576E+00 -4.01099E+00
   1.44163E-01 -2.20894E+00 -1.60864E+00 -8.82553E+00  4.62137E+00 -6.38905E-01 -3.44590E+00  4.61829E+00 -7.24734E+00 -1.14486E+01
  -2.52011E+00 -4.39644E+00  4.13149E+00  8.35472E+00  1.47632E+01  7.76928E-01 -4.83749E+00  6.35843E+00  4.17129E+00  2.14752E+00
  -8.51590E+00 -8.95119E+00 -7.09620E+00 -3.63919E+00 -6.12634E+00  4.20087E+00  7.92528E-01 -7.40372E-01 -4.41067E+00 -3.21240E+00
  -8.89341E+00  1.33301E+00  1.39036E+00 -1.26220E+01 -2.24340E+00 -3.97233E+00 -7.44404E+00 -7.16014E+00  2.48837E+00  6.37442E-01
   4.03482E-01 -7.11046E+00 -7.46435E+00 -1.72144E+01  1.31148E+00 -4.32900E+00  3.85816E+00 -3.39004E+00  1.60201E-01 -3.24112E-01
   8.53263E+00 -5.51327E+00 -2.89070E+00  2.27488E+00 -7.40174E+00 -3.57074E+00 -3.67583E+00  3.98964E-01 -1.88902E+00 -5.04759E+00
  -5.28917E+00 -1.25370E+01 -5.48877E+00 -4.05239E+00 -1.41343E+00 -3.84605E+00 -2.94715E+00 -7.35020E+00 -5.41120E+00 -1.28193E+01
  -4.27073E+00  2.69956E+00  4.53170E+00  9.52042E+00 -5.87134E+00  9.19462E-01 -2.04476E+00  1.17508E+00 -3.12444E-01  5.16892E-01
   9.22567E-01 -1.90510E+00 -1.89280E+00 -4.41409E+00 -1.12929E+00  7.03913E+00 -1.25813E+01 -5.51547E+00 -2.45444E+00  2.21514E+00
  -2.60938E+00 -3.32787E+00  1.33835E+00  4.22249E-01 -2.87767E+00  6.62849E+00 -9.47066E-01 -5.29477E+00 -5.22810E+00  6.72244E+00
  -1.86809E+00  2.82327E+00 -1.22511E+01  1.12157E+00  1.50253E+00  1.44931E+00  8.11241E+00 -2.85940E-01  5.87760E+00  9.14760E+00
  -3.60771E+00 -1.85400E+00 -2.45699E+00 -6.51120E+00  6.23445E+00  7.17024E+00 -7.97899E-01  1.98673E+00 -5.98336E+00 -7.31237E-01
   1.12650E+01  1.51878E+00  7.07204E+00  2.91017E+00  2.42622E+00  4.44488E+00  2.29237E+00  6.07676E+00  8.08675E+00  1.25691E+01
   2.77154E+00 -1.21519E+00  6.99063E+00  8.87964E-01  1.17281E+01 -4.12995E+00 -3.33429E+00  1.05439E+00 -5.55070E+00  5.57549E+00
   1.64467E+00  8.81592E+00 -1.53264E+00  2.32417E+00 -3.42789E-01 -5.37894E+00 -1.81215E+00 -1.14866E+00 -7.94485E+00  5.08310E-01
   1.10177E+00  3.08111E+00  4.80317E-01 -4.57809E+00  5.11244E+00  7.84469E-01 -8.99838E+00  3.95007E+00 -5.52118E-01  5.89017E+00
   4.97523E+00 -1.32068E+00  7.24141E-01  8.83644E-01 -4.82879E-01  5.21496E+00  5.42050E+00  5.02885E+00  5.34385E+00  9.64106E+00
   3.70604E+00  8.61492E+00  4.57386E+00  5.71454E+00  7.81576E-01  1.56439E+00  3.46136E-01  8.51056E+00  3.43201E+00 -9.70482E-01
  -1.44587E+00 -3.67925E+00  1.60838E+00 -8.71168E+00 -3.11754E+00  2.59627E+00 -5.06870E+00  5.19183E+00  2.50458E+00 -1.13544E+01
  -3.28120E+00 -4.31112E+00  6.21164E+00  1.38509E+00  9.51849E+00 -3.11538E+00 -7.34491E-01 -6.03880E-01 -1.93059E+00  1.36949E+00
  -2.54747E+00 -3.41716E+00 -7.50427E-01  1.97288E-01  3.27694E-01 -4.10200E+00  6.30284E+00  2.75669E+00 -1.63503E+00 -1.29140E+00
   8.05749E+00  7.75398E+00  7.94966E+00  3.30112E+00 -1.56055E+00  6.74366E-01  1.24720E+00  4.08845E+00 -2.69632E+00 -3.84661E+00
   5.04083E+00 -1.65615E-01  1.78714E+00  6.98079E-01  3.29507E+00  5.88614E+00  2.00040E+00 -6.87860E-01 -1.98371E+00  5.70205E+00
   1.50061E+00 -6.37164E+00  5.02429E+00  5.06884E-01 -2.07037E+00  3.18398E-01  2.62465E+00  4.61566E+00 -3.05955E+00 -3.37351E+00
  -4.57815E+00 -3.49042E+00  2.70561E+00 -1.38984E+00 -7.73457E+00 -1.77651E+00 -2.08343E+00 -1.16506E+01  3.42453E+00  8.32795E+00
   3.72977E+00  8.27611E-02  9.71505E+00  3.30143E+00  6.48137E+00  4.00141E+00 -5.42142E-01  1.51854E+01 -4.67686E+00  3.51598E+00
  -2.93219E+00  6.23142E+00 -1.75751E+00  1.20455E+01  7.75960E+00  1.23225E+01  7.65473E+00 -3.51415E-02  3.43431E+00  1.54440E+00
  -1.44140E+00  5.84473E+00  5.71760E+00  4.16059E+00 -9.24289E+00  2.44072E+00  5.76568E+00 -2.14287E-01  6.49973E+00  1.02310E+00
   1.91273E+00  3.11083E+00  5.23007E+00 -3.66639E+00  6.06222E+00 -6.00647E+00  3.59133E+00  5.82392E-01  3.11605E+00  8.05554E-01
  -4.66076E+00 -1.08473E+01  8.17587E-01 -7.33351E+00  9.84629E+00 -1.79773E+00  8.43468E+00 -3.01732E+00  4.22618E+00 -3.63994E+00
   4.05074E+00  5.81686E+00  3.94424E-01  1.18036E+00 -8.18487E-01  3.10157E+00  1.65584E+00  4.90033E+00  5.00579E+00 -9.35167E-01
  -1.18101E+01 -6.10937E-02  2.14223E+00  7.03340E+00 -4.30291E+00  2.88396E+00 -6.60107E+00  2.51089E+00 -6.06206E+00  3.41120E+00
  -9.93162E+00  4.26871E+00 -3.98926E+00 -3.33425E-01  2.95859E-01 -5.50941E+00  7.63855E-01  4.12967E+00  7.55924E+00 -4.49045E+00
  -1.74524E-01 -1.44591E+00 -3.18615E+00 -1.36700E+00 -3.95352E+00  4.77889E+00  2.14162E-01  1.23178E+00 -9.17701E-01  2.41082E-01
  -4.98276E-01  3.69247E+00 -1.68670E+00 -7.37006E+00 -8.33263E+00 -1.26319E+00  6.89463E+00  1.64822E+00  2.98044E+00 -9.16155E+00
   2.60930E+00 -4.38288E-01  2.97810E+00  7.04138E+00 -2.10802E+00 -1.15833E+00 -5.69011E+00 -9.28054E-01  3.41162E+00  2.52082E+00
  -1.09468E+01  8.24814E-01 -1.27640E+00  5.23274E+00 -2.08709E+00 -9.46709E+00 -2.84106E+00  2.84663E+00
 NY points of the fit to the data follow
  -6.36271E-01 -8.91882E-01 -1.07791E+00 -1.18113E+00 -1.25564E+00 -1.32557E+00 -1.38569E+00 -1.42942E+00 -1.45534E+00 -1.46453E+00
  -1.45764E+00 -1.43442E+00 -1.40071E+00 -1.37528E+00 -1.36117E+00 -1.35032E+00 -1.33203E+00 -1.28343E+00 -1.19050E+00 -1.06622E+00
  -9.09594E-01 -7.73948E-01 -7.31769E-01 -7.86151E-01 -8.52134E-01 -6.72660E-01 -1.91914E-01  4.23847E-01  1.05426E+00  1.63618E+00
   2.10151E+00  2.36381E+00  2.37314E+00  2.08364E+00  1.50210E+00  7.46532E-01  2.19939E-02 -4.62190E-01 -7.72235E-01 -1.01319E+00
  -1.17958E+00 -1.23053E+00 -1.03431E+00 -4.90442E-01  2.95628E-01  1.07653E+00  1.64297E+00  1.90151E+00  1.84140E+00  1.48368E+00
   8.64867E-01  7.58854E-02 -7.35005E-01 -1.36632E+00 -1.59685E+00 -1.40548E+00 -9.87187E-01 -5.28382E-01 -1.41342E-01  1.15857E-01
   2.16128E-01  1.60843E-01 -1.18701E-02 -2.55894E-01 -5.22316E-01 -7.55275E-01 -8.70030E-01 -8.10456E-01 -6.15319E-01 -3.65813E-01
  -1.47721E-01 -2.15433E-03  5.74628E-02  3.79785E-02 -3.64184E-02 -1.49194E-01 -2.81087E-01 -4.14957E-01 -5.22734E-01 -5.84685E-01
  -6.23004E-01 -6.63563E-01 -7.52345E-01 -9.21569E-01 -1.16909E+00 -1.45236E+00 -1.72063E+00 -1.93419E+00 -2.06099E+00 -2.07328E+00
  -1.96558E+00 -1.73956E+00 -1.43989E+00 -1.15929E+00 -9.86428E-01 -9.50758E-01 -1.03206E+00 -1.18875E+00 -1.38743E+00 -1.59480E+00
  -1.76796E+00 -1.86892E+00 -1.88948E+00 -1.83199E+00 -1.72984E+00 -1.61647E+00 -1.50302E+00 -1.39433E+00 -1.29559E+00 -1.21319E+00
  -1.15128E+00 -1.10556E+00 -1.06476E+00 -1.02445E+00 -9.89758E-01 -9.67119E-01 -9.58447E-01 -9.58502E-01 -9.61280E-01 -9.59204E-01
  -9.42126E-01 -9.08167E-01 -8.60741E-01 -8.02564E-01 -7.35760E-01 -6.62845E-01 -5.86562E-01 -5.04820E-01 -3.90048E-01 -2.21707E-01
  -6.06802E-02  1.83081E-02 -1.33515E-02 -1.59437E-01 -3.86324E-01 -6.31270E-01 -8.46382E-01 -9.74253E-01 -9.95712E-01 -9.02691E-01
  -6.97901E-01 -4.33347E-01 -2.15065E-01 -1.07187E-01 -1.16610E-01 -2.26787E-01 -3.90599E-01 -5.54277E-01 -6.90866E-01 -7.90468E-01
  -8.82186E-01 -9.69625E-01 -1.04321E+00 -1.09573E+00 -1.12356E+00 -1.13364E+00 -1.13696E+00 -1.14146E+00 -1.14809E+00 -1.15661E+00
  -1.16860E+00 -1.19376E+00 -1.23306E+00 -1.27196E+00 -1.30187E+00 -1.32515E+00 -1.34172E+00 -1.35312E+00 -1.36009E+00 -1.35960E+00
  -1.35771E+00 -1.36539E+00 -1.38064E+00 -1.39698E+00 -1.41209E+00 -1.42960E+00 -1.45977E+00 -1.50378E+00 -1.54614E+00 -1.56184E+00
  -1.55724E+00 -1.55368E+00 -1.56538E+00 -1.58414E+00 -1.57670E+00 -1.50573E+00 -1.35214E+00 -1.12251E+00 -8.61484E-01 -6.34206E-01
  -4.79214E-01 -4.24957E-01 -5.18580E-01 -7.84175E-01 -1.14727E+00 -1.49351E+00 -1.72655E+00 -1.77741E+00 -1.62678E+00 -1.31076E+00
  -8.95791E-01 -4.67999E-01 -1.10812E-01  9.15095E-02  6.95043E-02 -2.02251E-01 -6.06427E-01 -9.90272E-01 -1.27898E+00 -1.44492E+00
  -1.48373E+00 -1.39558E+00 -1.18543E+00 -8.90800E-01 -5.71156E-01 -2.89704E-01 -1.02467E-01 -2.39547E-02  9.78460E-03  5.14555E-02
   9.51897E-02  1.35848E-01  1.76932E-01  2.18421E-01  2.59001E-01  2.93412E-01  2.93610E-01  2.32674E-01  1.36178E-01  5.24720E-02
   1.01521E-02  1.85983E-03  5.79765E-02  2.27471E-01  4.80628E-01  7.57710E-01  1.02433E+00  1.22995E+00  1.29480E+00  1.21036E+00
   1.04485E+00  8.75521E-01  7.42015E-01  6.69419E-01  7.03078E-01  8.55623E-01  1.08712E+00  1.36664E+00  1.66540E+00  1.93468E+00
   2.19848E+00  2.64799E+00  3.27261E+00  3.91742E+00  4.47161E+00  5.00990E+00  5.60784E+00  6.10236E+00  6.32515E+00  6.19570E+00
   5.73961E+00  5.06709E+00  4.33319E+00  3.64623E+00  2.91975E+00  2.14427E+00  1.45794E+00  1.02787E+00  8.39000E-01  7.26601E-01
   6.39573E-01  5.66214E-01  4.98356E-01  4.31897E-01  3.65263E-01  2.98301E-01  2.32167E-01  1.69898E-01  1.18657E-01  8.49167E-02
   6.95258E-02  7.27525E-02  9.28821E-02  1.25033E-01  1.64472E-01  2.10184E-01  2.62683E-01  3.25090E-01  3.99774E-01  4.87942E-01
   5.90123E-01  7.04307E-01  8.26468E-01  9.52880E-01  1.07748E+00  1.19537E+00  1.30321E+00  1.39825E+00  1.47953E+00  1.54785E+00
   1.60207E+00  1.64044E+00  1.66178E+00  1.66530E+00  1.65055E+00  1.61732E+00  1.56635E+00  1.50084E+00  1.42461E+00  1.34125E+00
   1.25456E+00  1.16827E+00  1.08606E+00  1.01152E+00  9.48133E-01  8.99328E-01  8.68686E-01  8.60265E-01  8.79441E-01  9.34738E-01
   1.04275E+00  1.24498E+00  1.61489E+00  2.02530E+00  2.23943E+00  2.17445E+00  1.84790E+00  1.30333E+00  5.70067E-01 -3.23231E-01
  -1.16348E+00 -1.62554E+00 -1.58889E+00 -1.06753E+00 -1.86459E-01  7.72033E-01  1.60257E+00  2.24933E+00  2.64967E+00  2.75055E+00
   2.55366E+00  2.16466E+00  1.81467E+00  1.62355E+00  1.50148E+00  1.39903E+00  1.30304E+00  1.21168E+00  1.12471E+00  1.04423E+00
   9.91585E-01  9.85730E-01  1.02719E+00  1.10731E+00  1.20894E+00  1.30060E+00  1.35664E+00  1.36949E+00  1.33550E+00  1.25566E+00
   1.13891E+00  1.00484E+00  8.80728E-01  7.76165E-01  6.88038E-01  6.15113E-01  5.56265E-01  5.09804E-01  4.73710E-01  4.45980E-01
   4.24937E-01  4.09383E-01  3.98655E-01  3.92584E-01  3.91439E-01  3.95827E-01  4.06628E-01  4.24895E-01  4.51804E-01  4.88587E-01
   5.36510E-01  5.96815E-01  6.70693E-01  7.59197E-01  8.63189E-01  9.83252E-01  1.11963E+00  1.27212E+00  1.44002E+00  1.62202E+00
   1.81616E+00  2.01979E+00  2.22957E+00  2.44155E+00  2.65121E+00  2.85362E+00  3.04361E+00  3.21595E+00  3.36566E+00  3.48816E+00
   3.57958E+00  3.63690E+00  3.65815E+00  3.64250E+00  3.59033E+00  3.50319E+00  3.38371E+00  3.23540E+00  3.06256E+00  2.86994E+00
   2.66260E+00  2.44562E+00  2.22387E+00  2.00186E+00  1.78358E+00  1.57242E+00  1.37111E+00  1.18168E+00  1.00554E+00  8.43452E-01
   6.95716E-01  5.62173E-01  4.42338E-01  3.35457E-01  2.40615E-01  1.56784E-01  8.29122E-02  1.79483E-02 -3.91120E-02 -8.92210E-02
  -1.33248E-01 -1.71981E-01 -2.06108E-01 -2.36241E-01 -2.62907E-01 -2.86570E-01 -3.07628E-01 -3.26423E-01 -3.43238E-01 -3.58320E-01
  -3.71877E-01 -3.84100E-01 -3.95140E-01 -4.05135E-01 -4.14191E-01 -4.22408E-01 -4.29872E-01 -4.36665E-01 -4.42851E-01 -4.48489E-01
  -4.53621E-01 -4.58295E-01 -4.62552E-01 -4.66433E-01 -4.69965E-01 -4.73177E-01 -4.76086E-01 -4.78721E-01 -4.81103E-01 -4.83257E-01
  -4.85193E-01 -4.86927E-01 -4.88468E-01 -4.89834E-01 -4.91037E-01 -4.92092E-01 -4.93002E-01 -4.93777E-01 -4.94420E-01 -4.94948E-01
  -4.95366E-01 -4.95685E-01 -4.95902E-01 -4.96023E-01 -4.96052E-01 -4.96001E-01 -4.95874E-01 -4.95674E-01 -4.95398E-01 -4.95053E-01
  -4.94642E-01 -4.94174E-01 -4.93649E-01 -4.93071E-01 -4.92433E-01 -4.91743E-01 -4.91003E-01 -4.90222E-01 -4.89397E-01 -4.88528E-01
  -4.87611E-01 -4.86654E-01 -4.85657E-01 -4.84628E-01 -4.83560E-01 -4.82454E-01 -4.81305E-01 -4.80121E-01
 NY background values follow
    -1.598E+00   -1.596E+00   -1.594E+00   -1.591E+00   -1.589E+00   -1.587E+00   -1.585E+00   -1.583E+00   -1.581E+00   -1.579E+00
    -1.577E+00   -1.574E+00   -1.572E+00   -1.570E+00   -1.568E+00   -1.566E+00   -1.564E+00   -1.562E+00   -1.560E+00   -1.557E+00
    -1.555E+00   -1.553E+00   -1.551E+00   -1.549E+00   -1.547E+00   -1.545E+00   -1.542E+00   -1.540E+00   -1.538E+00   -1.536E+00
    -1.534E+00   -1.532E+00   -1.530E+00   -1.528E+00   -1.525E+00   -1.523E+00   -1.521E+00   -1.519E+00   -1.517E+00   -1.515E+00
    -1.513E+00   -1.511E+00   -1.508E+00   -1.506E+00   -1.504E+00   -1.502E+00   -1.500E+00   -1.498E+00   -1.496E+00   -1.494E+00
    -1.491E+00   -1.489E+00   -1.487E+00   -1.485E+00   -1.483E+00   -1.481E+00   -1.479E+00   -1.477E+00   -1.474E+00   -1.472E+00
    -1.470E+00   -1.468E+00   -1.466E+00   -1.464E+00   -1.462E+00   -1.459E+00   -1.457E+00   -1.455E+00   -1.453E+00   -1.451E+00
    -1.449E+00   -1.447E+00   -1.445E+00   -1.442E+00   -1.440E+00   -1.438E+00   -1.436E+00   -1.434E+00   -1.432E+00   -1.430E+00
    -1.428E+00   -1.425E+00   -1.423E+00   -1.421E+00   -1.419E+00   -1.417E+00   -1.415E+00   -1.413E+00   -1.411E+00   -1.408E+00
    -1.406E+00   -1.404E+00   -1.402E+00   -1.400E+00   -1.398E+00   -1.396E+00   -1.394E+00   -1.391E+00   -1.389E+00   -1.387E+00
    -1.385E+00   -1.383E+00   -1.381E+00   -1.379E+00   -1.376E+00   -1.374E+00   -1.372E+00   -1.370E+00   -1.368E+00   -1.366E+00
    -1.364E+00   -1.362E+00   -1.359E+00   -1.357E+00   -1.355E+00   -1.353E+00   -1.351E+00   -1.349E+00   -1.347E+00   -1.345E+00
    -1.342E+00   -1.340E+00   -1.338E+00   -1.336E+00   -1.334E+00   -1.332E+00   -1.330E+00   -1.328E+00   -1.325E+00   -1.323E+00
    -1.321E+00   -1.319E+00   -1.317E+00   -1.315E+00   -1.313E+00   -1.311E+00   -1.308E+00   -1.306E+00   -1.304E+00   -1.302E+00
    -1.300E+00   -1.298E+00   -1.296E+00   -1.293E+00   -1.291E+00   -1.289E+00   -1.287E+00   -1.285E+00   -1.283E+00   -1.281E+00
    -1.279E+00   -1.276E+00   -1.274E+00   -1.272E+00   -1.270E+00   -1.268E+00   -1.266E+00   -1.264E+00   -1.262E+00   -1.259E+00
    -1.257E+00   -1.255E+00   -1.253E+00   -1.251E+00   -1.249E+00   -1.247E+00   -1.245E+00   -1.242E+00   -1.240E+00   -1.238E+00
    -1.236E+00   -1.234E+00   -1.232E+00   -1.230E+00   -1.228E+00   -1.225E+00   -1.223E+00   -1.221E+00   -1.219E+00   -1.217E+00
    -1.215E+00   -1.213E+00   -1.210E+00   -1.208E+00   -1.206E+00   -1.204E+00   -1.202E+00   -1.200E+00   -1.198E+00   -1.196E+00
    -1.193E+00   -1.191E+00   -1.189E+00   -1.187E+00   -1.185E+00   -1.183E+00   -1.181E+00   -1.179E+00   -1.176E+00   -1.174E+00
    -1.172E+00   -1.170E+00   -1.168E+00   -1.166E+00   -1.164E+00   -1.162E+00   -1.159E+00   -1.157E+00   -1.155E+00   -1.153E+00
    -1.151E+00   -1.149E+00   -1.147E+00   -1.144E+00   -1.142E+00   -1.140E+00   -1.138E+00   -1.136E+00   -1.134E+00   -1.132E+00
    -1.130E+00   -1.127E+00   -1.125E+00   -1.123E+00   -1.121E+00   -1.119E+00   -1.117E+00   -1.115E+00   -1.113E+00   -1.110E+00
    -1.108E+00   -1.106E+00   -1.104E+00   -1.102E+00   -1.100E+00   -1.098E+00   -1.096E+00   -1.093E+00   -1.091E+00   -1.089E+00
    -1.087E+00   -1.085E+00   -1.083E+00   -1.081E+00   -1.079E+00   -1.076E+00   -1.074E+00   -1.072E+00   -1.070E+00   -1.068E+00
    -1.066E+00   -1.064E+00   -1.061E+00   -1.059E+00   -1.057E+00   -1.055E+00   -1.053E+00   -1.051E+00   -1.049E+00   -1.047E+00
    -1.044E+00   -1.042E+00   -1.040E+00   -1.038E+00   -1.036E+00   -1.034E+00   -1.032E+00   -1.030E+00   -1.027E+00   -1.025E+00
    -1.023E+00   -1.021E+00   -1.019E+00   -1.017E+00   -1.015E+00   -1.013E+00   -1.010E+00   -1.008E+00   -1.006E+00   -1.004E+00
    -1.002E+00   -9.997E-01   -9.976E-01   -9.955E-01   -9.933E-01   -9.912E-01   -9.891E-01   -9.870E-01   -9.848E-01   -9.827E-01
    -9.806E-01   -9.784E-01   -9.763E-01   -9.742E-01   -9.721E-01   -9.699E-01   -9.678E-01   -9.657E-01   -9.635E-01   -9.614E-01
    -9.593E-01   -9.572E-01   -9.550E-01   -9.529E-01   -9.508E-01   -9.486E-01   -9.465E-01   -9.444E-01   -9.423E-01   -9.401E-01
    -9.380E-01   -9.359E-01   -9.337E-01   -9.316E-01   -9.295E-01   -9.273E-01   -9.252E-01   -9.231E-01   -9.210E-01   -9.188E-01
    -9.167E-01   -9.146E-01   -9.124E-01   -9.103E-01   -9.082E-01   -9.061E-01   -9.039E-01   -9.018E-01   -8.997E-01   -8.975E-01
    -8.954E-01   -8.933E-01   -8.912E-01   -8.890E-01   -8.869E-01   -8.848E-01   -8.826E-01   -8.805E-01   -8.784E-01   -8.763E-01
    -8.741E-01   -8.720E-01   -8.699E-01   -8.677E-01   -8.656E-01   -8.635E-01   -8.614E-01   -8.592E-01   -8.571E-01   -8.550E-01
    -8.528E-01   -8.507E-01   -8.486E-01   -8.464E-01   -8.443E-01   -8.422E-01   -8.401E-01   -8.379E-01   -8.358E-01   -8.337E-01
    -8.315E-01   -8.294E-01   -8.273E-01   -8.252E-01   -8.230E-01   -8.209E-01   -8.188E-01   -8.166E-01   -8.145E-01   -8.124E-01
    -8.103E-01   -8.081E-01   -8.060E-01   -8.039E-01   -8.017E-01   -7.996E-01   -7.975E-01   -7.954E-01   -7.932E-01   -7.911E-01
    -7.890E-01   -7.868E-01   -7.847E-01   -7.826E-01   -7.804E-01   -7.783E-01   -7.762E-01   -7.741E-01   -7.719E-01   -7.698E-01
    -7.677E-01   -7.655E-01   -7.634E-01   -7.613E-01   -7.592E-01   -7.570E-01   -7.549E-01   -7.528E-01   -7.506E-01   -7.485E-01
    -7.464E-01   -7.443E-01   -7.421E-01   -7.400E-01   -7.379E-01   -7.357E-01   -7.336E-01   -7.315E-01   -7.294E-01   -7.272E-01
    -7.251E-01   -7.230E-01   -7.208E-01   -7.187E-01   -7.166E-01   -7.144E-01   -7.123E-01   -7.102E-01   -7.081E-01   -7.059E-01
    -7.038E-01   -7.017E-01   -6.995E-01   -6.974E-01   -6.953E-01   -6.932E-01   -6.910E-01   -6.889E-01   -6.868E-01   -6.846E-01
    -6.825E-01   -6.804E-01   -6.783E-01   -6.761E-01   -6.740E-01   -6.719E-01   -6.697E-01   -6.676E-01   -6.655E-01   -6.634E-01
    -6.612E-01   -6.591E-01   -6.570E-01   -6.548E-01   -6.527E-01   -6.506E-01   -6.484E-01   -6.463E-01   -6.442E-01   -6.421E-01
    -6.399E-01   -6.378E-01   -6.357E-01   -6.335E-01   -6.314E-01   -6.293E-01   -6.272E-01   -6.250E-01   -6.229E-01   -6.208E-01
    -6.186E-01   -6.165E-01   -6.144E-01   -6.123E-01   -6.101E-01   -6.080E-01   -6.059E-01   -6.037E-01   -6.016E-01   -5.995E-01
    -5.974E-01   -5.952E-01   -5.931E-01   -5.910E-01   -5.888E-01   -5.867E-01   -5.846E-01   -5.824E-01   -5.803E-01   -5.782E-01
    -5.761E-01   -5.739E-01   -5.718E-01   -5.697E-01   -5.675E-01   -5.654E-01   -5.633E-01   -5.612E-01   -5.590E-01   -5.569E-01
    -5.548E-01   -5.526E-01   -5.505E-01   -5.484E-01   -5.463E-01   -5.441E-01   -5.420E-01   -5.399E-01
 Ala      Conc. = 1.77E+02
