 LCModel (Version 6.3-1L) Copyright: S.W. Provencher.          Ref.: Magn. Reson. Med. 30:672-679 (1993).                
 Slice#1 Row#10 Col#8  PD_24_press_2_raw_act
 36 lines in following concentration table = NCONC+1
    Conc.  %SD /Cr+PCr  Metabolite                                         
    0.756 999% 5.7E-04 Ala                                                 
    0.000 999%   0.000 Asp                                                 
  314.121  71%   0.239 Cr                                                  
 1.00E+03  23%   0.761 PCr                                                 
    0.000 999%   0.000 GABA                                                
  156.414  91%   0.119 Glc                                                 
  543.108  52%   0.412 Gln                                                 
  957.117  33%   0.727 Glu                                                 
  387.168   6%   0.294 GPC                                                 
    0.000 999%   0.000 PCh                                                 
  338.698  23%   0.257 GSH                                                 
 1.29E+03  20%   0.983 Ins                                                 
  229.463  69%   0.174 Lac                                                 
 2.09E+03   7%   1.585 NAA                                                 
  238.249  60%   0.181 NAAG                                                
  172.944  15%   0.131 Scyllo                                              
  672.879  27%   0.511 Tau                                                 
  379.005  28%   0.288 -CrCH2                                              
  387.168   6%   0.294 GPC+PCh                                             
 2.33E+03   4%   1.766 NAA+NAAG                                            
 1.32E+03   4%   1.000 Cr+PCr                                              
 1.50E+03  33%   1.139 Glu+Gln                                             
 2.02E+03  33%   1.538 Lip13a                                              
    0.000 999%   0.000 Lip13b                                              
  531.821  58%   0.404 Lip09                                               
 1.54E+03  22%   1.170 MM09                                                
  344.455  57%   0.262 Lip20                                               
 3.36E+03  12%   2.554 MM20                                                
  514.496  58%   0.391 MM12                                                
 1.96E+03  22%   1.487 MM14                                                
  769.371  24%   0.584 MM17                                                
 2.02E+03  33%   1.538 Lip13a+Lip13b                                       
 4.50E+03   8%   3.416 MM14+Lip13a+Lip13b+MM12                             
 2.07E+03   9%   1.574 MM09+Lip09                                          
 3.71E+03  10%   2.816 MM20+Lip20                                          
   6 lines in following misc. output table
  FWHM = 0.076 ppm    S/N =  12                                            
  Data shift = 0.008 ppm                                                   
  Ph: -75 deg     -23.3 deg/ppm                                            
  alphaB,S = 1.5E+00,   5.5E+01                                            
   14 spline knots.   Ns =10(1)                                            
  (17) 5 infls.   (17) 3 extrs.                                            
  498 points on ppm-axis = NY
      4.000000     3.992357     3.984714     3.977070     3.969427     3.961784     3.954141     3.946497     3.938854     3.931211
      3.923568     3.915925     3.908281     3.900638     3.892995     3.885352     3.877708     3.870065     3.862422     3.854779
      3.847136     3.839492     3.831849     3.824206     3.816563     3.808919     3.801276     3.793633     3.785990     3.778347
      3.770703     3.763060     3.755417     3.747774     3.740130     3.732487     3.724844     3.717201     3.709558     3.701914
      3.694271     3.686628     3.678985     3.671341     3.663698     3.656055     3.648412     3.640769     3.633125     3.625482
      3.617839     3.610196     3.602552     3.594909     3.587266     3.579623     3.571980     3.564336     3.556693     3.549050
      3.541407     3.533763     3.526120     3.518477     3.510834     3.503191     3.495547     3.487904     3.480261     3.472618
      3.464974     3.457331     3.449688     3.442045     3.434402     3.426758     3.419115     3.411472     3.403829     3.396185
      3.388542     3.380899     3.373256     3.365613     3.357969     3.350326     3.342683     3.335040     3.327396     3.319753
      3.312110     3.304467     3.296824     3.289180     3.281537     3.273894     3.266251     3.258607     3.250964     3.243321
      3.235678     3.228034     3.220391     3.212748     3.205105     3.197462     3.189818     3.182175     3.174532     3.166889
      3.159245     3.151602     3.143959     3.136316     3.128673     3.121029     3.113386     3.105743     3.098100     3.090456
      3.082813     3.075170     3.067527     3.059884     3.052240     3.044597     3.036954     3.029311     3.021667     3.014024
      3.006381     2.998738     2.991095     2.983451     2.975808     2.968165     2.960522     2.952878     2.945235     2.937592
      2.929949     2.922306     2.914662     2.907019     2.899376     2.891733     2.884089     2.876446     2.868803     2.861160
      2.853517     2.845873     2.838230     2.830587     2.822944     2.815300     2.807657     2.800014     2.792371     2.784728
      2.777084     2.769441     2.761798     2.754155     2.746511     2.738868     2.731225     2.723582     2.715939     2.708295
      2.700652     2.693009     2.685366     2.677722     2.670079     2.662436     2.654793     2.647150     2.639506     2.631863
      2.624220     2.616577     2.608933     2.601290     2.593647     2.586004     2.578361     2.570717     2.563074     2.555431
      2.547788     2.540144     2.532501     2.524858     2.517215     2.509572     2.501928     2.494285     2.486642     2.478999
      2.471355     2.463712     2.456069     2.448426     2.440783     2.433139     2.425496     2.417853     2.410210     2.402566
      2.394923     2.387280     2.379637     2.371994     2.364350     2.356707     2.349064     2.341421     2.333777     2.326134
      2.318491     2.310848     2.303205     2.295561     2.287918     2.280275     2.272632     2.264988     2.257345     2.249702
      2.242059     2.234416     2.226772     2.219129     2.211486     2.203843     2.196199     2.188556     2.180913     2.173270
      2.165627     2.157983     2.150340     2.142697     2.135054     2.127410     2.119767     2.112124     2.104481     2.096838
      2.089194     2.081551     2.073908     2.066265     2.058621     2.050978     2.043335     2.035692     2.028049     2.020405
      2.012762     2.005119     1.997476     1.989833     1.982190     1.974546     1.966903     1.959260     1.951617     1.943974
      1.936331     1.928688     1.921045     1.913402     1.905759     1.898115     1.890472     1.882829     1.875186     1.867543
      1.859900     1.852257     1.844614     1.836971     1.829327     1.821684     1.814041     1.806398     1.798755     1.791112
      1.783469     1.775826     1.768183     1.760540     1.752896     1.745253     1.737610     1.729967     1.722324     1.714681
      1.707038     1.699395     1.691752     1.684108     1.676465     1.668822     1.661179     1.653536     1.645893     1.638250
      1.630607     1.622964     1.615321     1.607677     1.600034     1.592391     1.584748     1.577105     1.569462     1.561819
      1.554176     1.546533     1.538890     1.531246     1.523603     1.515960     1.508317     1.500674     1.493031     1.485388
      1.477745     1.470102     1.462458     1.454815     1.447172     1.439529     1.431886     1.424243     1.416600     1.408957
      1.401314     1.393671     1.386027     1.378384     1.370741     1.363098     1.355455     1.347812     1.340169     1.332526
      1.324883     1.317240     1.309596     1.301953     1.294310     1.286667     1.279024     1.271381     1.263738     1.256095
      1.248452     1.240808     1.233165     1.225522     1.217879     1.210236     1.202593     1.194950     1.187307     1.179664
      1.172021     1.164377     1.156734     1.149091     1.141448     1.133805     1.126162     1.118519     1.110876     1.103233
      1.095590     1.087946     1.080303     1.072660     1.065017     1.057374     1.049731     1.042088     1.034445     1.026802
      1.019158     1.011515     1.003872     0.996229     0.988586     0.980943     0.973300     0.965657     0.958014     0.950371
      0.942727     0.935084     0.927441     0.919798     0.912155     0.904512     0.896869     0.889226     0.881583     0.873940
      0.866296     0.858653     0.851010     0.843367     0.835724     0.828081     0.820438     0.812795     0.805152     0.797508
      0.789865     0.782222     0.774579     0.766936     0.759293     0.751650     0.744007     0.736364     0.728721     0.721077
      0.713434     0.705791     0.698148     0.690505     0.682862     0.675219     0.667576     0.659933     0.652290     0.644646
      0.637003     0.629360     0.621717     0.614074     0.606431     0.598788     0.591145     0.583502     0.575858     0.568215
      0.560572     0.552929     0.545286     0.537643     0.530000     0.522357     0.514714     0.507071     0.499427     0.491784
      0.484141     0.476498     0.468855     0.461212     0.453569     0.445925     0.438282     0.430639     0.422996     0.415353
      0.407710     0.400067     0.392424     0.384780     0.377137     0.369494     0.361851     0.354208     0.346565     0.338922
      0.331278     0.323635     0.315992     0.308349     0.300706     0.293063     0.285420     0.277777     0.270133     0.262490
      0.254847     0.247204     0.239561     0.231918     0.224275     0.216631     0.208988     0.201345
 NY phased data points follow
  -1.63668E+01 -1.38098E+01 -1.62169E+01 -1.01701E+01 -8.12247E+00 -3.62490E+00 -5.15440E+00  2.32266E+00  4.53725E-02  1.07246E+00
   2.34680E+00  4.23668E+00 -1.50600E+00 -3.73129E+00 -5.28601E+00 -9.22956E+00 -1.15433E+01 -1.34711E+01 -1.46204E+01 -1.29513E+01
  -1.43292E+01 -1.08173E+01 -1.05069E+01 -1.14956E+01 -1.22169E+01 -9.67901E+00 -6.54848E+00 -9.59157E+00 -7.55559E+00 -6.26071E+00
  -8.62582E+00 -8.59224E+00 -6.25125E+00 -6.73671E+00 -6.05132E+00 -8.71295E+00 -1.07300E+01 -8.10530E+00 -4.19333E+00 -7.80732E+00
  -9.59242E+00 -8.16480E+00 -7.15753E+00 -5.60717E+00 -1.74869E+00 -8.95368E+00 -2.93115E+00 -1.25749E+00 -4.34475E+00 -6.53090E+00
  -4.21103E+00 -5.01193E+00 -5.55521E+00 -5.96518E+00 -4.92182E+00 -7.99933E+00 -7.28534E+00 -7.34987E+00 -1.01846E+01 -9.61801E+00
  -1.03782E+01 -6.36409E+00 -1.01345E+01 -1.23228E+01 -1.17367E+01 -8.58901E+00 -1.00491E+01 -1.03438E+01 -9.11565E+00 -7.38109E+00
  -8.14041E+00 -6.15000E+00 -8.91151E+00 -6.71275E+00 -8.11076E+00 -7.17052E+00 -1.76312E+00 -5.26207E+00 -5.81836E+00 -2.43956E+00
  -9.79013E+00 -6.90698E+00 -3.14574E+00 -2.64822E+00 -8.01809E+00 -2.16628E+00 -6.68449E+00 -5.69716E-01 -6.41515E+00 -4.01029E-02
  -5.97489E+00 -1.95009E+00 -4.00641E+00  6.99461E-01  4.27961E-01  4.75582E-01  2.90540E+00  8.00315E+00  8.34785E+00  1.16372E+01
   1.17553E+01  1.36576E+01  1.46154E+01  1.77786E+01  1.74138E+01  1.58116E+01  9.40662E+00  5.07172E+00 -2.77703E+00 -1.93288E-01
  -2.37595E+00 -1.71071E+00  1.60811E+00 -2.79575E+00 -5.08563E+00 -1.97879E-01 -3.64491E-01  3.11119E+00 -1.09781E+00  3.29737E+00
   4.93172E+00  1.03559E+01  1.30917E+01  1.62599E+01  1.57726E+01  2.06825E+01  2.18124E+01  2.68869E+01  2.63026E+01  2.73554E+01
   2.20834E+01  8.19733E+00  2.48692E+00  1.03179E+00 -2.15549E-01  1.25654E+00 -1.28698E+00 -2.73102E+00 -2.70151E+00 -2.61982E+00
  -5.22826E+00 -3.73308E+00 -3.02169E+00 -1.60885E+00 -1.06772E+00 -5.11366E+00 -6.40673E+00 -1.36026E+00 -3.77167E+00 -4.20787E+00
  -7.18907E+00 -3.76140E+00 -2.12992E+00 -1.33713E+00 -3.23769E+00 -3.90495E+00 -5.32914E+00 -6.82418E+00 -5.67521E+00 -6.51961E+00
  -1.30412E+00 -4.46581E+00 -6.98465E+00 -7.10168E+00 -9.22796E+00 -9.27059E+00 -9.46145E+00 -7.63663E+00 -9.83847E+00 -1.21752E+01
  -1.67083E+01 -1.83261E+01 -1.68221E+01 -1.35662E+01 -1.40315E+01 -1.35926E+01 -1.52128E+01 -1.20793E+01 -1.29955E+01 -8.46178E+00
  -9.76726E+00 -6.81503E+00 -1.25831E+01 -1.09635E+01 -6.34442E+00 -1.13716E+01 -1.10014E+01 -9.02794E+00 -1.02708E+01 -1.03143E+01
  -9.98391E+00 -8.53487E+00 -8.37416E+00 -6.41319E+00 -7.22226E+00 -8.77575E+00 -4.81761E+00 -3.22970E+00 -6.15394E+00 -6.14678E+00
  -6.35410E+00 -1.93556E+00 -4.95745E+00  6.29322E-01 -2.43126E+00 -1.43527E+00 -1.20359E+00 -2.95386E+00 -1.99142E+00 -1.62738E+00
  -4.80003E+00 -2.94667E+00 -2.41921E+00 -2.50252E+00 -1.61673E-01  5.91469E-01  9.04394E-01  3.88066E+00 -1.60576E-01 -2.50376E+00
  -1.33245E+00 -2.95033E+00 -4.73502E+00 -4.64299E+00 -4.09981E-01  1.08237E+00  3.91307E+00  2.76617E-01  4.12287E+00  5.53753E+00
   8.17492E-02  4.02891E+00  7.71932E+00  3.65685E+00  2.93791E+00  1.16281E+00  5.84245E-01  3.24041E+00  7.01730E+00  3.76872E+00
   2.61055E+00  5.50429E+00  4.30921E+00  4.79568E+00  5.83861E+00  9.05198E+00  1.15802E+01  1.29348E+01  1.09000E+01  1.50361E+01
   1.65782E+01  2.34392E+01  2.34487E+01  3.45141E+01  3.56087E+01  4.60461E+01  5.21139E+01  5.55510E+01  5.61715E+01  5.95132E+01
   5.81832E+01  6.11662E+01  6.03808E+01  5.42564E+01  3.95916E+01  2.74974E+01  1.57445E+01  1.66066E+01  1.27774E+01  1.01778E+01
   7.52537E+00  9.85786E+00  8.21456E+00  9.84649E+00  7.43819E+00  4.51412E+00 -7.14744E-01  3.14269E+00  3.21819E+00  2.93028E+00
  -1.60357E+00  2.18535E+00  1.83469E-01 -9.56752E-01  7.01770E-01  3.73931E+00  4.03871E+00 -3.06910E-02  2.51634E+00  2.87777E+00
   1.76358E+00  7.56851E+00  6.82846E+00  6.54352E+00  7.04539E+00  8.42662E+00  3.08098E+00  9.04076E+00  3.94094E+00  8.41541E+00
   4.49627E+00  5.37275E+00  4.03589E+00  6.52449E+00  8.25890E+00  6.94573E+00  8.28124E+00  3.81693E+00  6.54883E+00  4.62506E+00
   3.06096E+00  2.59369E+00  5.64741E+00  2.28836E+00  8.06772E+00  6.29238E+00  1.44486E+00  6.87016E+00  5.87241E+00  3.88713E+00
   1.35794E+00  6.29653E+00  7.43402E+00  5.66877E+00  6.46445E+00  1.02371E+01  8.17354E+00  9.88804E+00  1.24813E+01  1.47038E+01
   1.22340E+01  1.22495E+01  1.41852E+01  1.17819E+01  8.88947E+00  1.58549E+01  1.47395E+01  1.64938E+01  1.80570E+01  1.77807E+01
   1.62102E+01  1.95061E+01  1.73344E+01  1.70248E+01  1.82643E+01  1.85878E+01  1.52789E+01  1.33346E+01  1.51043E+01  1.63436E+01
   1.43918E+01  1.97602E+01  1.46559E+01  1.47632E+01  1.24568E+01  1.44918E+01  1.75915E+01  1.60163E+01  1.51666E+01  1.71330E+01
   1.51152E+01  1.50879E+01  1.34115E+01  1.30645E+01  1.42804E+01  1.51890E+01  1.29104E+01  1.39593E+01  1.16129E+01  1.56042E+01
   1.18871E+01  1.06399E+01  1.01513E+01  1.08257E+01  1.05986E+01  1.15046E+01  6.59805E+00  1.23194E+01  9.40659E+00  5.51210E+00
   7.79727E+00  7.90692E+00  6.00044E+00  1.01433E+01  6.66444E+00  9.78935E+00  6.75758E+00  1.14206E+01  8.53218E+00  9.68103E+00
   1.12433E+01  1.24607E+01  1.29614E+01  1.27091E+01  1.12213E+01  1.54047E+01  1.06755E+01  1.49482E+01  1.63562E+01  1.43505E+01
   1.33765E+01  1.61317E+01  1.49013E+01  1.42593E+01  1.64002E+01  1.95042E+01  2.06369E+01  1.74709E+01  1.61171E+01  1.55617E+01
   1.49062E+01  1.68662E+01  1.52657E+01  1.52981E+01  1.30259E+01  1.48806E+01  1.20058E+01  1.40905E+01  1.07257E+01  1.38687E+01
   1.21651E+01  1.01381E+01  1.31481E+01  1.06876E+01  1.07989E+01  1.10712E+01  1.13082E+01  1.06320E+01  1.17930E+01  9.12264E+00
   7.54975E+00  7.02341E+00  8.13359E+00  8.12591E+00  9.24913E+00  1.07109E+01  9.97182E+00  6.85252E+00  8.04916E+00  7.58535E+00
   4.87972E+00  1.08497E+01  8.03519E+00  1.06264E+01  6.96475E+00  5.84884E+00  6.83685E+00  9.04046E+00  6.59123E+00  8.48819E+00
   8.75264E+00  5.79827E+00  7.69257E+00  6.77310E+00  7.19187E+00  6.48291E+00  1.04799E+01  9.20483E+00  5.85114E+00  6.99127E+00
   6.39258E+00  5.84366E+00  1.18763E+00  7.74873E+00  5.26799E+00  5.10153E+00  6.12356E+00  8.90480E+00  6.53280E+00  1.00306E+01
   4.31505E+00  5.15433E+00  4.16759E+00  8.20465E+00  5.08892E+00  5.55528E+00  7.96559E+00  7.86059E+00  1.01975E+01  1.34368E+00
   5.86010E+00  8.34534E+00  6.71746E+00  6.43374E+00  6.67137E+00  7.91732E+00  3.16557E+00  8.59524E+00  2.36073E+00  5.45746E+00
   7.10223E+00  5.15162E+00  2.86680E+00  7.40487E+00  6.02023E+00  4.02606E+00  5.66311E+00  6.38376E+00
 NY points of the fit to the data follow
  -1.20800E+01 -1.13271E+01 -9.98173E+00 -8.27168E+00 -6.41374E+00 -4.71919E+00 -3.31750E+00 -2.05445E+00 -8.53786E-01  3.91597E-01
   1.33315E+00  1.29647E+00 -2.35093E-01 -2.94326E+00 -5.84097E+00 -7.97483E+00 -9.29940E+00 -1.00683E+01 -1.05521E+01 -1.09932E+01
  -1.11987E+01 -1.11723E+01 -1.12412E+01 -1.09759E+01 -1.02767E+01 -9.36237E+00 -8.63540E+00 -8.10151E+00 -7.60751E+00 -7.13429E+00
  -6.50782E+00 -5.69558E+00 -4.95823E+00 -4.96047E+00 -6.09316E+00 -7.70873E+00 -8.90273E+00 -9.39515E+00 -9.50872E+00 -9.36506E+00
  -8.90129E+00 -8.20757E+00 -7.29309E+00 -6.48203E+00 -6.03957E+00 -5.82745E+00 -5.58695E+00 -5.21422E+00 -4.87258E+00 -4.83445E+00
  -5.60067E+00 -7.17008E+00 -8.82095E+00 -9.80772E+00 -9.90142E+00 -9.48516E+00 -9.01011E+00 -8.67202E+00 -8.62047E+00 -8.52480E+00
  -8.33002E+00 -8.04732E+00 -7.81280E+00 -7.93345E+00 -8.38122E+00 -8.64120E+00 -8.42488E+00 -8.02532E+00 -7.56373E+00 -7.11236E+00
  -6.80204E+00 -6.65295E+00 -6.64132E+00 -6.69705E+00 -6.74347E+00 -6.72876E+00 -6.47853E+00 -5.79517E+00 -5.65130E+00 -6.08547E+00
  -6.52244E+00 -6.31654E+00 -5.46436E+00 -4.67941E+00 -4.23749E+00 -3.83094E+00 -3.47018E+00 -3.34210E+00 -3.36820E+00 -3.76048E+00
  -4.99878E+00 -6.37206E+00 -5.70204E+00 -3.23120E+00 -1.65861E+00 -2.07717E-01  2.28859E+00  5.85322E+00  9.13819E+00  1.12660E+01
   1.28098E+01  1.45960E+01  1.66021E+01  1.83451E+01  1.86826E+01  1.61863E+01  1.04734E+01  3.67257E+00 -9.59344E-01 -2.60799E+00
  -3.14889E+00 -3.67810E+00 -4.24437E+00 -5.35702E+00 -6.59299E+00 -6.77497E+00 -5.25481E+00 -1.83172E+00  1.87259E-01  1.86708E+00
   4.90959E+00  9.45216E+00  1.39335E+01  1.67378E+01  1.84116E+01  2.04129E+01  2.30476E+01  2.58915E+01  2.73637E+01  2.53772E+01
   1.89793E+01  1.03762E+01  3.75535E+00  1.09171E+00  5.63153E-01  1.17764E-01 -5.37047E-01 -1.83058E+00 -3.74909E+00 -4.56453E+00
  -4.55935E+00 -4.28037E+00 -4.01060E+00 -3.90860E+00 -4.07328E+00 -4.46929E+00 -4.87081E+00 -5.16909E+00 -5.35215E+00 -5.44576E+00
  -5.56566E+00 -5.81912E+00 -6.04107E+00 -6.21531E+00 -6.35550E+00 -6.47363E+00 -6.70886E+00 -6.91061E+00 -6.93042E+00 -6.89156E+00
  -6.99320E+00 -7.32130E+00 -7.75380E+00 -8.06267E+00 -8.11382E+00 -7.98462E+00 -7.97842E+00 -8.26320E+00 -8.74985E+00 -9.38234E+00
  -9.96410E+00 -1.03562E+01 -1.04003E+01 -1.02771E+01 -1.02478E+01 -1.04717E+01 -1.08821E+01 -1.11888E+01 -1.10537E+01 -1.05559E+01
  -1.00230E+01 -9.69824E+00 -9.58674E+00 -9.41451E+00 -8.93137E+00 -8.17851E+00 -7.41401E+00 -6.82504E+00 -6.50875E+00 -6.08819E+00
  -5.35702E+00 -4.57522E+00 -4.07188E+00 -3.99254E+00 -4.11606E+00 -4.25993E+00 -4.30991E+00 -4.21069E+00 -3.88159E+00 -3.52918E+00
  -3.43076E+00 -3.24134E+00 -2.87674E+00 -2.76179E+00 -2.90222E+00 -3.17680E+00 -3.35989E+00 -3.81450E+00 -4.55226E+00 -5.06092E+00
  -5.15000E+00 -4.95874E+00 -4.69728E+00 -4.20117E+00 -3.22558E+00 -2.15940E+00 -1.53525E+00 -1.36617E+00 -1.52367E+00 -2.07435E+00
  -2.87983E+00 -3.51460E+00 -3.71835E+00 -3.40774E+00 -2.60718E+00 -1.41363E+00 -4.82904E-02  1.21142E+00  2.15323E+00  2.54065E+00
   2.56866E+00  2.60206E+00  2.73378E+00  2.87070E+00  3.20536E+00  3.71417E+00  4.29080E+00  4.73733E+00  5.03902E+00  5.36333E+00
   5.70995E+00  5.92202E+00  6.02434E+00  6.22489E+00  6.63624E+00  7.38866E+00  8.78605E+00  1.03107E+01  1.16396E+01  1.34838E+01
   1.86104E+01  2.46975E+01  2.78978E+01  3.14086E+01  3.75395E+01  4.53822E+01  5.16721E+01  5.46080E+01  5.59584E+01  5.75266E+01
   5.95128E+01  6.12946E+01  6.05106E+01  5.39356E+01  4.11934E+01  2.72775E+01  1.82894E+01  1.49866E+01  1.37780E+01  1.26483E+01
   1.14343E+01  9.02519E+00  6.48615E+00  5.46605E+00  4.94816E+00  4.55073E+00  4.21180E+00  3.88986E+00  3.54995E+00  3.23753E+00
   2.99489E+00  2.83264E+00  2.74343E+00  2.71354E+00  2.73526E+00  2.80459E+00  2.91596E+00  3.06517E+00  3.25598E+00  3.48680E+00
   3.75977E+00  4.07104E+00  4.41124E+00  4.76586E+00  5.11889E+00  5.45382E+00  5.75667E+00  6.01362E+00  6.22217E+00  6.38015E+00
   6.48264E+00  6.52907E+00  6.52211E+00  6.46111E+00  6.34877E+00  6.18991E+00  5.99464E+00  5.77666E+00  5.54905E+00  5.32559E+00
   5.12040E+00  4.94331E+00  4.80423E+00  4.71240E+00  4.67461E+00  4.69675E+00  4.78329E+00  4.93688E+00  5.15763E+00  5.44475E+00
   5.79686E+00  6.21088E+00  6.68234E+00  7.20555E+00  7.77420E+00  8.38213E+00  9.02145E+00  9.68267E+00  1.03567E+01  1.10345E+01
   1.17071E+01  1.23662E+01  1.30052E+01  1.36190E+01  1.42052E+01  1.47673E+01  1.53278E+01  1.59400E+01  1.64451E+01  1.66989E+01
   1.69457E+01  1.72156E+01  1.73846E+01  1.72995E+01  1.69812E+01  1.67948E+01  1.67688E+01  1.66136E+01  1.63155E+01  1.59106E+01
   1.54437E+01  1.49804E+01  1.46981E+01  1.47976E+01  1.52048E+01  1.56765E+01  1.61459E+01  1.65538E+01  1.66536E+01  1.63298E+01
   1.57379E+01  1.51070E+01  1.46316E+01  1.42490E+01  1.38787E+01  1.35144E+01  1.30733E+01  1.25791E+01  1.21263E+01  1.17014E+01
   1.12969E+01  1.09126E+01  1.05511E+01  1.02153E+01  9.90838E+00  9.63319E+00  9.39231E+00  9.18822E+00  9.02300E+00  8.89858E+00
   8.81645E+00  8.77791E+00  8.78403E+00  8.83582E+00  8.93399E+00  9.07911E+00  9.27127E+00  9.51033E+00  9.79563E+00  1.01261E+01
   1.04998E+01  1.09141E+01  1.13651E+01  1.18482E+01  1.23575E+01  1.28860E+01  1.34256E+01  1.39671E+01  1.45004E+01  1.50150E+01
   1.54998E+01  1.59442E+01  1.63374E+01  1.66701E+01  1.69337E+01  1.71215E+01  1.72287E+01  1.72527E+01  1.71927E+01  1.70505E+01
   1.68298E+01  1.65367E+01  1.61785E+01  1.57640E+01  1.53027E+01  1.48051E+01  1.42813E+01  1.37415E+01  1.31952E+01  1.26510E+01
   1.21164E+01  1.15980E+01  1.11009E+01  1.06293E+01  1.01860E+01  9.77293E+00  9.39080E+00  9.03983E+00  8.71946E+00  8.42871E+00
   8.16605E+00  7.92986E+00  7.71821E+00  7.52932E+00  7.36121E+00  7.21210E+00  7.08009E+00  6.96357E+00  6.86093E+00  6.77086E+00
   6.69200E+00  6.62325E+00  6.56347E+00  6.51178E+00  6.46729E+00  6.42939E+00  6.39733E+00  6.37059E+00  6.34854E+00  6.33082E+00
   6.31696E+00  6.30670E+00  6.29963E+00  6.29551E+00  6.29399E+00  6.29496E+00  6.29814E+00  6.30345E+00  6.31061E+00  6.31954E+00
   6.33001E+00  6.34202E+00  6.35539E+00  6.37010E+00  6.38595E+00  6.40292E+00  6.42088E+00  6.43986E+00  6.45973E+00  6.48049E+00
   6.50198E+00  6.52424E+00  6.54716E+00  6.57081E+00  6.59507E+00  6.61996E+00  6.64534E+00  6.67128E+00  6.69770E+00  6.72469E+00
   6.75209E+00  6.77997E+00  6.80820E+00  6.83688E+00  6.86594E+00  6.89546E+00  6.92529E+00  6.95552E+00  6.98602E+00  7.01694E+00
   7.04819E+00  7.07985E+00  7.11178E+00  7.14408E+00  7.17667E+00  7.20969E+00  7.24307E+00  7.27691E+00
 NY background values follow
    -1.669E+01   -1.663E+01   -1.657E+01   -1.651E+01   -1.645E+01   -1.639E+01   -1.633E+01   -1.626E+01   -1.620E+01   -1.614E+01
    -1.608E+01   -1.602E+01   -1.596E+01   -1.590E+01   -1.584E+01   -1.578E+01   -1.572E+01   -1.566E+01   -1.560E+01   -1.553E+01
    -1.547E+01   -1.541E+01   -1.535E+01   -1.529E+01   -1.523E+01   -1.517E+01   -1.511E+01   -1.505E+01   -1.499E+01   -1.493E+01
    -1.487E+01   -1.481E+01   -1.475E+01   -1.469E+01   -1.463E+01   -1.457E+01   -1.451E+01   -1.445E+01   -1.439E+01   -1.433E+01
    -1.427E+01   -1.421E+01   -1.415E+01   -1.409E+01   -1.403E+01   -1.397E+01   -1.391E+01   -1.385E+01   -1.379E+01   -1.373E+01
    -1.367E+01   -1.361E+01   -1.355E+01   -1.349E+01   -1.343E+01   -1.338E+01   -1.332E+01   -1.326E+01   -1.320E+01   -1.314E+01
    -1.308E+01   -1.302E+01   -1.297E+01   -1.291E+01   -1.285E+01   -1.279E+01   -1.274E+01   -1.268E+01   -1.262E+01   -1.256E+01
    -1.251E+01   -1.245E+01   -1.239E+01   -1.233E+01   -1.228E+01   -1.222E+01   -1.216E+01   -1.211E+01   -1.205E+01   -1.200E+01
    -1.194E+01   -1.188E+01   -1.183E+01   -1.177E+01   -1.172E+01   -1.166E+01   -1.161E+01   -1.155E+01   -1.150E+01   -1.144E+01
    -1.139E+01   -1.133E+01   -1.128E+01   -1.123E+01   -1.117E+01   -1.112E+01   -1.106E+01   -1.101E+01   -1.096E+01   -1.090E+01
    -1.085E+01   -1.080E+01   -1.075E+01   -1.069E+01   -1.064E+01   -1.059E+01   -1.054E+01   -1.048E+01   -1.043E+01   -1.038E+01
    -1.033E+01   -1.028E+01   -1.023E+01   -1.018E+01   -1.012E+01   -1.007E+01   -1.002E+01   -9.973E+00   -9.922E+00   -9.872E+00
    -9.822E+00   -9.772E+00   -9.723E+00   -9.673E+00   -9.624E+00   -9.574E+00   -9.525E+00   -9.476E+00   -9.428E+00   -9.379E+00
    -9.330E+00   -9.282E+00   -9.234E+00   -9.186E+00   -9.138E+00   -9.090E+00   -9.042E+00   -8.995E+00   -8.947E+00   -8.900E+00
    -8.853E+00   -8.806E+00   -8.759E+00   -8.713E+00   -8.666E+00   -8.620E+00   -8.573E+00   -8.527E+00   -8.481E+00   -8.435E+00
    -8.389E+00   -8.343E+00   -8.297E+00   -8.251E+00   -8.206E+00   -8.160E+00   -8.115E+00   -8.069E+00   -8.024E+00   -7.978E+00
    -7.933E+00   -7.888E+00   -7.843E+00   -7.798E+00   -7.753E+00   -7.708E+00   -7.663E+00   -7.618E+00   -7.573E+00   -7.528E+00
    -7.483E+00   -7.438E+00   -7.393E+00   -7.348E+00   -7.304E+00   -7.259E+00   -7.214E+00   -7.169E+00   -7.124E+00   -7.079E+00
    -7.034E+00   -6.989E+00   -6.944E+00   -6.899E+00   -6.854E+00   -6.809E+00   -6.764E+00   -6.719E+00   -6.674E+00   -6.629E+00
    -6.584E+00   -6.538E+00   -6.493E+00   -6.448E+00   -6.403E+00   -6.358E+00   -6.312E+00   -6.267E+00   -6.222E+00   -6.176E+00
    -6.131E+00   -6.086E+00   -6.041E+00   -5.995E+00   -5.950E+00   -5.905E+00   -5.859E+00   -5.814E+00   -5.769E+00   -5.723E+00
    -5.678E+00   -5.633E+00   -5.587E+00   -5.542E+00   -5.497E+00   -5.452E+00   -5.406E+00   -5.361E+00   -5.316E+00   -5.270E+00
    -5.225E+00   -5.180E+00   -5.135E+00   -5.090E+00   -5.044E+00   -4.999E+00   -4.954E+00   -4.909E+00   -4.864E+00   -4.819E+00
    -4.774E+00   -4.729E+00   -4.684E+00   -4.639E+00   -4.594E+00   -4.549E+00   -4.504E+00   -4.459E+00   -4.414E+00   -4.369E+00
    -4.324E+00   -4.279E+00   -4.234E+00   -4.189E+00   -4.144E+00   -4.099E+00   -4.054E+00   -4.009E+00   -3.964E+00   -3.919E+00
    -3.874E+00   -3.829E+00   -3.784E+00   -3.739E+00   -3.693E+00   -3.648E+00   -3.603E+00   -3.558E+00   -3.513E+00   -3.468E+00
    -3.423E+00   -3.377E+00   -3.332E+00   -3.287E+00   -3.242E+00   -3.196E+00   -3.151E+00   -3.106E+00   -3.060E+00   -3.015E+00
    -2.969E+00   -2.924E+00   -2.878E+00   -2.833E+00   -2.787E+00   -2.741E+00   -2.696E+00   -2.650E+00   -2.604E+00   -2.558E+00
    -2.512E+00   -2.466E+00   -2.421E+00   -2.375E+00   -2.329E+00   -2.283E+00   -2.237E+00   -2.191E+00   -2.144E+00   -2.098E+00
    -2.052E+00   -2.006E+00   -1.960E+00   -1.913E+00   -1.867E+00   -1.821E+00   -1.775E+00   -1.728E+00   -1.682E+00   -1.635E+00
    -1.589E+00   -1.543E+00   -1.496E+00   -1.450E+00   -1.403E+00   -1.357E+00   -1.310E+00   -1.263E+00   -1.217E+00   -1.170E+00
    -1.124E+00   -1.077E+00   -1.030E+00   -9.837E-01   -9.370E-01   -8.903E-01   -8.435E-01   -7.968E-01   -7.500E-01   -7.033E-01
    -6.565E-01   -6.097E-01   -5.629E-01   -5.160E-01   -4.692E-01   -4.224E-01   -3.755E-01   -3.287E-01   -2.818E-01   -2.350E-01
    -1.881E-01   -1.412E-01   -9.434E-02   -4.746E-02   -5.819E-04    4.630E-02    9.318E-02    1.401E-01    1.869E-01    2.338E-01
     2.807E-01    3.276E-01    3.744E-01    4.213E-01    4.682E-01    5.150E-01    5.619E-01    6.087E-01    6.555E-01    7.023E-01
     7.491E-01    7.959E-01    8.427E-01    8.895E-01    9.362E-01    9.830E-01    1.030E+00    1.076E+00    1.123E+00    1.170E+00
     1.216E+00    1.263E+00    1.310E+00    1.356E+00    1.403E+00    1.449E+00    1.496E+00    1.542E+00    1.589E+00    1.635E+00
     1.682E+00    1.728E+00    1.775E+00    1.821E+00    1.867E+00    1.913E+00    1.960E+00    2.006E+00    2.052E+00    2.098E+00
     2.144E+00    2.190E+00    2.236E+00    2.282E+00    2.328E+00    2.374E+00    2.420E+00    2.466E+00    2.512E+00    2.557E+00
     2.603E+00    2.649E+00    2.694E+00    2.740E+00    2.785E+00    2.831E+00    2.876E+00    2.921E+00    2.967E+00    3.012E+00
     3.057E+00    3.102E+00    3.147E+00    3.192E+00    3.237E+00    3.282E+00    3.327E+00    3.372E+00    3.416E+00    3.461E+00
     3.505E+00    3.550E+00    3.594E+00    3.639E+00    3.683E+00    3.727E+00    3.771E+00    3.815E+00    3.859E+00    3.903E+00
     3.947E+00    3.991E+00    4.035E+00    4.078E+00    4.122E+00    4.166E+00    4.209E+00    4.252E+00    4.296E+00    4.339E+00
     4.382E+00    4.425E+00    4.468E+00    4.511E+00    4.554E+00    4.596E+00    4.639E+00    4.682E+00    4.724E+00    4.767E+00
     4.809E+00    4.851E+00    4.893E+00    4.935E+00    4.977E+00    5.019E+00    5.061E+00    5.103E+00    5.144E+00    5.186E+00
     5.227E+00    5.269E+00    5.310E+00    5.351E+00    5.392E+00    5.433E+00    5.474E+00    5.515E+00    5.556E+00    5.596E+00
     5.637E+00    5.677E+00    5.718E+00    5.758E+00    5.799E+00    5.839E+00    5.879E+00    5.919E+00    5.959E+00    5.999E+00
     6.039E+00    6.079E+00    6.119E+00    6.159E+00    6.199E+00    6.238E+00    6.278E+00    6.318E+00    6.357E+00    6.397E+00
     6.436E+00    6.476E+00    6.516E+00    6.555E+00    6.595E+00    6.634E+00    6.673E+00    6.713E+00    6.752E+00    6.792E+00
     6.831E+00    6.870E+00    6.910E+00    6.949E+00    6.989E+00    7.028E+00    7.067E+00    7.107E+00
 Ala      Conc. = 7.56E-01
