 LCModel (Version 6.3-1L) Copyright: S.W. Provencher.          Ref.: Magn. Reson. Med. 30:672-679 (1993).                
 Slice#3 Row#6 Col#11  PD_24_press_2_raw_act
 36 lines in following concentration table = NCONC+1
    Conc.  %SD /Cr+PCr  Metabolite                                         
  153.026 143%   0.191 Ala                                                 
  147.518 139%   0.184 Asp                                                 
   68.378 516% 8.5E-02 Cr                                                  
  732.333  48%   0.915 PCr                                                 
   46.998 275% 5.9E-02 GABA                                                
  157.980  80%   0.197 Glc                                                 
 1.73E+03  27%   2.155 Gln                                                 
 1.45E+03  37%   1.809 Glu                                                 
  156.908  20%   0.196 GPC                                                 
    0.000 999%   0.000 PCh                                                 
    0.000 999%   0.000 GSH                                                 
  307.758 121%   0.384 Ins                                                 
    0.000 999%   0.000 Lac                                                 
 2.91E+03   4%   3.630 NAA                                                 
    0.000 999%   0.000 NAAG                                                
   60.612  53% 7.6E-02 Scyllo                                              
  435.546  44%   0.544 Tau                                                 
  809.039  16%   1.010 -CrCH2                                              
  156.908  20%   0.196 GPC+PCh                                             
 2.91E+03   4%   3.630 NAA+NAAG                                            
  800.712  11%   1.000 Cr+PCr                                              
 3.17E+03  25%   3.964 Glu+Gln                                             
 1.93E+03  28%   2.410 Lip13a                                              
    0.000 999%   0.000 Lip13b                                              
   97.161 251%   0.121 Lip09                                               
 1.57E+03  19%   1.955 MM09                                                
  423.523  41%   0.529 Lip20                                               
 2.75E+03  16%   3.429 MM20                                                
  482.622  24%   0.603 MM12                                                
 1.24E+03  27%   1.552 MM14                                                
  561.753  34%   0.702 MM17                                                
 1.93E+03  28%   2.410 Lip13a+Lip13b                                       
 3.65E+03  11%   4.564 MM14+Lip13a+Lip13b+MM12                             
 1.66E+03  13%   2.076 MM09+Lip09                                          
 3.17E+03  13%   3.958 MM20+Lip20                                          
   6 lines in following misc. output table
  FWHM = 0.061 ppm    S/N =   8                                            
  Data shift = 0.015 ppm                                                   
  Ph: -54 deg     -19.1 deg/ppm                                            
  alphaB,S = 8.5E+01,   2.0E+02                                            
   14 spline knots.   Ns = 9(1)                                            
   2 inflections.     1 extrema                                            
  498 points on ppm-axis = NY
      4.000000     3.992357     3.984714     3.977070     3.969427     3.961784     3.954141     3.946497     3.938854     3.931211
      3.923568     3.915925     3.908281     3.900638     3.892995     3.885352     3.877708     3.870065     3.862422     3.854779
      3.847136     3.839492     3.831849     3.824206     3.816563     3.808919     3.801276     3.793633     3.785990     3.778347
      3.770703     3.763060     3.755417     3.747774     3.740130     3.732487     3.724844     3.717201     3.709558     3.701914
      3.694271     3.686628     3.678985     3.671341     3.663698     3.656055     3.648412     3.640769     3.633125     3.625482
      3.617839     3.610196     3.602552     3.594909     3.587266     3.579623     3.571980     3.564336     3.556693     3.549050
      3.541407     3.533763     3.526120     3.518477     3.510834     3.503191     3.495547     3.487904     3.480261     3.472618
      3.464974     3.457331     3.449688     3.442045     3.434402     3.426758     3.419115     3.411472     3.403829     3.396185
      3.388542     3.380899     3.373256     3.365613     3.357969     3.350326     3.342683     3.335040     3.327396     3.319753
      3.312110     3.304467     3.296824     3.289180     3.281537     3.273894     3.266251     3.258607     3.250964     3.243321
      3.235678     3.228034     3.220391     3.212748     3.205105     3.197462     3.189818     3.182175     3.174532     3.166889
      3.159245     3.151602     3.143959     3.136316     3.128673     3.121029     3.113386     3.105743     3.098100     3.090456
      3.082813     3.075170     3.067527     3.059884     3.052240     3.044597     3.036954     3.029311     3.021667     3.014024
      3.006381     2.998738     2.991095     2.983451     2.975808     2.968165     2.960522     2.952878     2.945235     2.937592
      2.929949     2.922306     2.914662     2.907019     2.899376     2.891733     2.884089     2.876446     2.868803     2.861160
      2.853517     2.845873     2.838230     2.830587     2.822944     2.815300     2.807657     2.800014     2.792371     2.784728
      2.777084     2.769441     2.761798     2.754155     2.746511     2.738868     2.731225     2.723582     2.715939     2.708295
      2.700652     2.693009     2.685366     2.677722     2.670079     2.662436     2.654793     2.647150     2.639506     2.631863
      2.624220     2.616577     2.608933     2.601290     2.593647     2.586004     2.578361     2.570717     2.563074     2.555431
      2.547788     2.540144     2.532501     2.524858     2.517215     2.509572     2.501928     2.494285     2.486642     2.478999
      2.471355     2.463712     2.456069     2.448426     2.440783     2.433139     2.425496     2.417853     2.410210     2.402566
      2.394923     2.387280     2.379637     2.371994     2.364350     2.356707     2.349064     2.341421     2.333777     2.326134
      2.318491     2.310848     2.303205     2.295561     2.287918     2.280275     2.272632     2.264988     2.257345     2.249702
      2.242059     2.234416     2.226772     2.219129     2.211486     2.203843     2.196199     2.188556     2.180913     2.173270
      2.165627     2.157983     2.150340     2.142697     2.135054     2.127410     2.119767     2.112124     2.104481     2.096838
      2.089194     2.081551     2.073908     2.066265     2.058621     2.050978     2.043335     2.035692     2.028049     2.020405
      2.012762     2.005119     1.997476     1.989833     1.982190     1.974546     1.966903     1.959260     1.951617     1.943974
      1.936331     1.928688     1.921045     1.913402     1.905759     1.898115     1.890472     1.882829     1.875186     1.867543
      1.859900     1.852257     1.844614     1.836971     1.829327     1.821684     1.814041     1.806398     1.798755     1.791112
      1.783469     1.775826     1.768183     1.760540     1.752896     1.745253     1.737610     1.729967     1.722324     1.714681
      1.707038     1.699395     1.691752     1.684108     1.676465     1.668822     1.661179     1.653536     1.645893     1.638250
      1.630607     1.622964     1.615321     1.607677     1.600034     1.592391     1.584748     1.577105     1.569462     1.561819
      1.554176     1.546533     1.538890     1.531246     1.523603     1.515960     1.508317     1.500674     1.493031     1.485388
      1.477745     1.470102     1.462458     1.454815     1.447172     1.439529     1.431886     1.424243     1.416600     1.408957
      1.401314     1.393671     1.386027     1.378384     1.370741     1.363098     1.355455     1.347812     1.340169     1.332526
      1.324883     1.317240     1.309596     1.301953     1.294310     1.286667     1.279024     1.271381     1.263738     1.256095
      1.248452     1.240808     1.233165     1.225522     1.217879     1.210236     1.202593     1.194950     1.187307     1.179664
      1.172021     1.164377     1.156734     1.149091     1.141448     1.133805     1.126162     1.118519     1.110876     1.103233
      1.095590     1.087946     1.080303     1.072660     1.065017     1.057374     1.049731     1.042088     1.034445     1.026802
      1.019158     1.011515     1.003872     0.996229     0.988586     0.980943     0.973300     0.965657     0.958014     0.950371
      0.942727     0.935084     0.927441     0.919798     0.912155     0.904512     0.896869     0.889226     0.881583     0.873940
      0.866296     0.858653     0.851010     0.843367     0.835724     0.828081     0.820438     0.812795     0.805152     0.797508
      0.789865     0.782222     0.774579     0.766936     0.759293     0.751650     0.744007     0.736364     0.728721     0.721077
      0.713434     0.705791     0.698148     0.690505     0.682862     0.675219     0.667576     0.659933     0.652290     0.644646
      0.637003     0.629360     0.621717     0.614074     0.606431     0.598788     0.591145     0.583502     0.575858     0.568215
      0.560572     0.552929     0.545286     0.537643     0.530000     0.522357     0.514714     0.507071     0.499427     0.491784
      0.484141     0.476498     0.468855     0.461212     0.453569     0.445925     0.438282     0.430639     0.422996     0.415353
      0.407710     0.400067     0.392424     0.384780     0.377137     0.369494     0.361851     0.354208     0.346565     0.338922
      0.331278     0.323635     0.315992     0.308349     0.300706     0.293063     0.285420     0.277777     0.270133     0.262490
      0.254847     0.247204     0.239561     0.231918     0.224275     0.216631     0.208988     0.201345
 NY phased data points follow
   6.40132E+00  7.63438E+00  9.53162E+00  1.98272E+00  1.12818E+01  7.69909E-01  8.82019E+00 -7.30435E-01 -3.71160E+00 -3.14260E+00
  -1.07832E+01  5.91809E+00  2.78346E+00  6.96929E+00 -6.60181E+00  9.81241E+00  4.16606E+00  2.73409E+00 -3.65485E+00  4.33483E+00
  -3.68716E+00  1.27620E+01  1.46918E+00  1.99798E+00  5.16507E+00  2.07144E+00  9.11646E+00 -7.17125E+00  2.55174E+00 -2.26612E+00
   4.34542E+00  1.69442E+00  1.20082E+00  6.99516E+00  7.17076E+00  2.63441E+00  1.79521E+00  6.39103E+00 -3.17579E+00  5.55045E+00
   7.62791E+00 -1.66432E+00 -3.70844E+00  4.67359E+00  3.31659E+00  1.67913E+00  3.75696E+00  5.09135E+00  2.89768E+00  4.18977E+00
   2.12112E+00  5.46531E+00  1.84170E+00  9.93829E+00  1.19764E+00  6.75465E+00  2.77191E+00  4.96127E+00  8.09115E-01 -1.31777E+00
  -3.92485E+00 -6.54450E-01  2.91671E+00  9.27781E+00  1.36061E+01  1.02307E-01  7.49410E+00  3.68047E+00  4.50747E+00  8.34254E+00
   2.74318E+00  7.45315E+00  4.36948E+00  4.51605E+00  5.19629E+00  9.59966E+00  7.34488E+00  5.16350E+00  1.14936E+01  2.28651E+00
   3.40567E+00  8.45661E+00  4.52441E+00  3.73273E+00  1.12033E+00  8.11047E+00  9.69091E+00  4.51762E+00 -1.90087E+00  8.16058E+00
   6.19350E+00 -9.53622E-02  1.29372E+00  6.79542E+00  1.15899E+01  4.10991E+00  7.77342E+00  1.59641E+01  1.11631E+01  1.48169E+01
   7.60531E+00  1.29230E+01  1.37465E+01  1.93841E+01  1.46836E+01  1.57303E+01  1.08482E+01  6.78064E-01  3.52889E+00  2.02670E+00
   5.84960E+00  2.08659E+00  5.11926E+00  5.82242E-01 -3.42637E+00 -2.71909E+00  9.91277E-01  7.76760E+00  2.58062E-01  2.57539E+00
   7.52226E+00  9.70649E+00  1.00847E+01  1.59785E+01  1.51097E+01  2.14750E+01  2.52894E+01  2.73727E+01  2.93289E+01  2.62618E+01
   2.23156E+01  1.52283E+01  8.00922E+00  2.29314E+00  4.24604E+00  1.06286E+01 -9.28379E+00  5.26196E+00  7.68547E+00  9.41311E+00
   6.78013E+00  5.31528E+00  1.36844E+01 -2.96654E+00  3.33275E+00  4.33032E+00 -1.21034E+00 -9.37713E-01  6.01402E+00  1.00658E+01
   2.66553E+00  2.42574E+00  3.18103E+00 -9.79829E-01  2.02071E+00 -3.64733E-01  3.49129E+00  8.13232E-01  8.65963E+00  1.53449E+01
  -1.92144E+00 -7.93742E-01 -4.38881E+00 -8.72003E+00 -4.82346E+00 -1.02594E+01 -6.95886E+00  2.06479E+00 -3.71153E+00 -4.41836E+00
  -1.47978E+01 -3.70950E+00 -1.68374E+01 -8.73069E+00 -9.96255E+00 -1.09558E+01 -1.33111E+01 -7.10008E+00 -9.50239E+00 -4.67689E+00
  -3.50984E+00 -2.22274E+00 -1.05988E+01 -2.10213E+00 -7.29237E+00  4.26765E-01  2.93382E+00 -6.60937E+00 -3.93673E+00 -9.07885E+00
  -7.15165E+00 -4.15501E+00 -2.44262E+00  1.85224E+00 -3.82581E+00  3.76143E+00  5.48173E-02 -4.67373E+00 -5.45943E+00 -5.03580E+00
  -2.05599E+00 -5.62229E+00  7.15463E+00  2.85839E+00  4.09109E+00  6.83619E+00 -5.96754E-01  6.16302E+00  4.68448E+00 -4.40390E+00
  -1.36847E+00 -3.67333E+00  3.10922E+00  3.63457E+00  1.38538E+01  1.83078E+01  2.04446E+01  1.04434E+01  1.23682E+01  1.36136E+01
   1.09889E+01  5.80403E+00  1.16993E+01  5.47642E+00  5.88807E+00 -5.83126E-01  7.03123E+00  8.79283E+00  6.63788E+00  8.23966E+00
   1.54973E+01  1.22528E+01  8.18131E+00  1.34768E+01  8.92770E+00  1.55782E+01  7.01961E+00  1.51637E+01  5.89998E+00  7.62160E+00
   5.67961E+00  3.39021E+00  2.48953E+00  2.21972E+00  1.43775E+01  4.39120E+00  4.47590E+00  4.87589E+00  1.72565E+01  1.07243E+01
   2.07560E+01  1.22627E+01  1.49414E+01  2.35777E+01  2.45480E+01  3.18634E+01  4.12533E+01  5.22728E+01  6.33161E+01  6.65383E+01
   7.96979E+01  8.76151E+01  9.40764E+01  8.36776E+01  7.23648E+01  4.85840E+01  4.43138E+01  3.40919E+01  2.92489E+01  1.93063E+01
   1.59555E+01  2.12242E+01  1.39435E+01  2.04570E+01  6.35493E+00  1.60355E+01  8.84533E+00  6.87458E+00  3.35843E+00  8.55528E+00
   4.26629E+00  2.15017E+00  4.91136E+00  5.18244E+00 -5.05051E-01  7.21063E+00 -1.07837E+00 -5.93427E+00 -5.04931E+00 -1.09685E+00
  -2.01202E+00  6.47921E+00  1.63899E+00 -5.38080E+00  4.17395E+00 -1.91780E+00  6.03356E+00  3.03872E+00 -1.92512E+00 -2.36456E+00
   4.19949E+00  9.91849E-01  1.24111E+00 -5.24789E+00 -4.46118E+00  8.48253E+00  6.41936E+00 -4.02456E-01  8.37298E+00  3.02543E+00
   7.47560E+00  2.52575E+00  1.25245E+01  3.21840E+00  3.29446E+00  8.53742E+00  9.39510E+00  8.87991E+00  9.69156E+00  1.23995E+01
   1.00959E+00  6.71015E-01  6.66938E+00  1.01706E+01  1.94811E+00  7.69376E+00  3.86038E+00  8.17112E+00  4.97694E-01  5.99053E+00
   8.88429E+00  6.15882E+00  7.28948E+00  6.99822E+00  6.39127E+00  5.89102E+00  5.35090E+00  1.45069E+01  5.40112E+00  6.78095E+00
   1.19686E+01  2.71812E+00  1.11645E+01  1.36871E+01  1.03236E+01  1.30107E+01  7.51085E+00  1.59746E+01  1.68365E+01  2.44734E+01
   1.00054E+01  1.10745E+01  3.98142E+00  1.31295E+01  1.57507E+01  5.61513E+00  1.31407E+01  8.75701E+00  3.95514E+00  4.39144E+00
   1.30880E+01  1.10355E+01  1.42254E+01  1.27483E+01  9.76868E+00  8.05519E+00  6.54370E+00  8.62288E+00  2.01582E+01  8.03692E+00
   1.18498E+01  1.15028E+01  8.89360E+00  3.95890E+00  7.45141E+00  1.00962E+01  7.77882E+00  3.30264E+00  6.86023E+00  2.75061E+00
   2.68957E+00  2.20501E+00  5.30540E+00  5.73615E+00 -1.17986E+00  4.21540E-01  1.65241E+00 -2.14617E-01  4.83523E+00  6.58798E+00
   4.88605E+00 -1.26143E-01 -2.14647E+00  6.75128E+00  8.60211E+00  1.59348E+01  7.44322E+00  4.77098E+00  5.29627E+00  5.87894E+00
   1.19621E+01  2.54960E+00  6.52056E+00  7.14476E+00  3.86730E-02  9.05087E+00  1.02738E+01  8.59407E+00  9.55896E+00  6.08455E+00
   9.59350E+00  8.42863E+00  1.35783E+01  1.00454E+01  1.11796E+00  5.90092E+00  1.23390E+01  5.73439E+00  7.19816E+00 -2.06144E-01
  -1.49385E+00 -3.97846E-02 -1.81088E-01  3.20811E+00  3.03430E+00 -3.13869E+00 -1.04186E+00 -4.71384E+00 -2.89575E+00 -1.79075E+00
   8.99171E+00  1.62210E+00  8.02547E+00  6.64884E+00 -2.30313E+00 -7.31946E+00  1.15002E+00  3.63533E+00 -4.98654E-01 -2.50310E+00
  -5.95650E+00 -5.59836E+00  6.80699E-01  1.90724E+00 -2.44903E+00  5.89668E-01 -6.61624E+00 -6.44598E+00 -4.63813E+00  5.47755E+00
  -6.72844E+00  4.84245E+00 -2.20941E+00 -7.64116E+00  1.99747E+00 -3.05890E+00 -1.69906E+00 -1.35367E+00 -5.18865E+00  2.97014E+00
  -2.40276E+00 -4.46593E+00 -2.29462E+00 -4.50421E+00 -2.65621E+00 -6.98683E+00 -1.23527E+00  2.58961E+00 -3.10926E+00 -2.24729E+00
  -3.86159E+00 -3.99300E+00 -4.02113E+00 -1.99818E-01 -1.11228E+00 -3.18635E+00  4.45497E+00 -5.48369E+00  7.32404E-01 -6.35816E+00
  -2.80126E+00  1.49195E+00 -3.62001E+00  6.34901E+00  7.77953E+00 -3.48936E+00 -6.42299E+00 -3.14271E+00 -2.04572E+00  3.69800E+00
  -6.90013E+00 -3.14926E+00 -5.72773E+00 -3.46810E+00 -5.94842E+00 -4.21361E+00 -2.17428E+00 -5.20488E+00
 NY points of the fit to the data follow
   3.26759E+00  3.25074E+00  3.25992E+00  3.31215E+00  3.38493E+00  3.43651E+00  3.44343E+00  3.38816E+00  3.22986E+00  2.96192E+00
   2.66189E+00  2.45484E+00  2.43341E+00  2.60212E+00  2.87298E+00  3.14900E+00  3.39118E+00  3.59959E+00  3.82469E+00  4.07975E+00
   4.22950E+00  4.21035E+00  4.13550E+00  4.04739E+00  3.89467E+00  3.66085E+00  3.41251E+00  3.24762E+00  3.28499E+00  3.63891E+00
   4.35445E+00  5.30630E+00  6.22765E+00  6.79526E+00  6.78775E+00  6.19526E+00  5.22550E+00  4.18830E+00  3.41591E+00  3.05317E+00
   3.07871E+00  3.37129E+00  3.81153E+00  4.31142E+00  4.75268E+00  5.10191E+00  5.35802E+00  5.47699E+00  5.42484E+00  5.20524E+00
   4.84905E+00  4.40439E+00  3.94963E+00  3.55149E+00  3.24793E+00  3.03994E+00  2.91811E+00  2.86937E+00  2.88510E+00  2.95586E+00
   3.06543E+00  3.16963E+00  3.23354E+00  3.25382E+00  3.24233E+00  3.21747E+00  3.21611E+00  3.26208E+00  3.33799E+00  3.42525E+00
   3.53013E+00  3.66207E+00  3.82112E+00  3.99861E+00  4.16419E+00  4.26719E+00  4.26293E+00  4.15858E+00  3.98308E+00  3.78427E+00
   3.66655E+00  3.70403E+00  3.91441E+00  4.25611E+00  4.62866E+00  4.92901E+00  5.10190E+00  5.09098E+00  4.84392E+00  4.40046E+00
   3.87184E+00  3.36263E+00  2.98234E+00  2.90339E+00  3.20223E+00  3.83656E+00  4.84427E+00  6.27339E+00  8.02896E+00  9.92118E+00
   1.17652E+01  1.33791E+01  1.45381E+01  1.49846E+01  1.45348E+01  1.32234E+01  1.13480E+01  9.33792E+00  7.54088E+00  6.09399E+00
   4.94664E+00  3.98374E+00  3.22408E+00  2.80957E+00  2.67804E+00  2.64123E+00  2.69787E+00  3.01801E+00  3.82083E+00  5.08218E+00
   6.77305E+00  8.90914E+00  1.14667E+01  1.43454E+01  1.73815E+01  2.03316E+01  2.27863E+01  2.41852E+01  2.40485E+01  2.22713E+01
   1.92503E+01  1.57198E+01  1.23870E+01  9.60429E+00  7.36433E+00  5.52112E+00  4.04262E+00  3.10487E+00  2.72879E+00  2.55189E+00
   2.42403E+00  2.31561E+00  2.21908E+00  2.13246E+00  2.05657E+00  1.98935E+00  1.92440E+00  1.85324E+00  1.76982E+00  1.67759E+00
   1.58836E+00  1.50812E+00  1.41799E+00  1.28985E+00  1.12289E+00  9.22072E-01  7.03600E-01  4.74847E-01  2.20940E-01 -5.65829E-02
  -3.38502E-01 -5.89829E-01 -7.61684E-01 -8.16248E-01 -7.64410E-01 -6.88070E-01 -7.10688E-01 -9.34833E-01 -1.37854E+00 -1.93882E+00
  -2.49513E+00 -2.99288E+00 -3.46062E+00 -3.92593E+00 -4.34339E+00 -4.66610E+00 -4.83916E+00 -4.84833E+00 -4.73456E+00 -4.54138E+00
  -4.31247E+00 -4.09964E+00 -3.90678E+00 -3.67734E+00 -3.35686E+00 -2.94394E+00 -2.48232E+00 -2.03461E+00 -1.58082E+00 -1.05610E+00
  -5.04375E-01 -3.19808E-02  2.81239E-01  4.41189E-01  5.60659E-01  7.97547E-01  1.27767E+00  2.00531E+00  2.90659E+00  3.89602E+00
   4.87105E+00  5.62328E+00  6.03595E+00  5.97356E+00  5.25971E+00  3.83213E+00  1.82899E+00 -4.57758E-01 -2.61117E+00 -4.23473E+00
  -4.93359E+00 -4.44958E+00 -2.84195E+00 -5.34095E-01  1.90417E+00  4.04677E+00  5.61177E+00  6.36928E+00  6.23769E+00  5.30531E+00
   3.82878E+00  2.22615E+00  1.05999E+00  6.16536E-01  9.22897E-01  1.87804E+00  3.24348E+00  4.68683E+00  5.90979E+00  6.69709E+00
   7.07455E+00  7.18849E+00  7.18814E+00  7.12075E+00  7.03845E+00  7.11317E+00  7.49031E+00  8.16177E+00  9.01309E+00  9.83713E+00
   1.03615E+01  1.03790E+01  9.87110E+00  9.04338E+00  8.25366E+00  7.79819E+00  7.77884E+00  8.17461E+00  8.95588E+00  1.00148E+01
   1.13238E+01  1.33091E+01  1.67797E+01  2.15897E+01  2.75440E+01  3.47468E+01  4.32082E+01  5.26835E+01  6.27339E+01  7.26924E+01
   8.13154E+01  8.66951E+01  8.69520E+01  8.13296E+01  7.08695E+01  5.80260E+01  4.54534E+01  3.47121E+01  2.60166E+01  1.88624E+01
   1.30051E+01  8.96903E+00  7.14664E+00  6.33069E+00  5.82091E+00  5.45578E+00  5.15412E+00  4.85146E+00  4.53511E+00  4.20741E+00
   3.87882E+00  3.56451E+00  3.27759E+00  3.02326E+00  2.80875E+00  2.63997E+00  2.51304E+00  2.41876E+00  2.35049E+00  2.30421E+00
   2.27869E+00  2.27274E+00  2.28444E+00  2.31522E+00  2.36658E+00  2.43853E+00  2.53133E+00  2.64428E+00  2.77542E+00  2.92146E+00
   3.07908E+00  3.24494E+00  3.41543E+00  3.58663E+00  3.75497E+00  3.91638E+00  4.06759E+00  4.20585E+00  4.32965E+00  4.43823E+00
   4.53206E+00  4.61229E+00  4.68134E+00  4.74250E+00  4.80055E+00  4.86131E+00  4.93259E+00  5.02627E+00  5.16013E+00  5.32898E+00
   5.51665E+00  5.71701E+00  5.92107E+00  6.11142E+00  6.26462E+00  6.35431E+00  6.37020E+00  6.31057E+00  6.17341E+00  5.99359E+00
   5.84804E+00  5.82559E+00  5.98895E+00  6.35164E+00  6.88455E+00  7.53040E+00  8.21737E+00  8.87291E+00  9.43494E+00  9.84578E+00
   1.01073E+01  1.02794E+01  1.04144E+01  1.05349E+01  1.06419E+01  1.07368E+01  1.08485E+01  1.09942E+01  1.11537E+01  1.13123E+01
   1.14610E+01  1.15920E+01  1.16985E+01  1.17740E+01  1.18130E+01  1.18104E+01  1.17623E+01  1.16658E+01  1.15194E+01  1.13230E+01
   1.10779E+01  1.07865E+01  1.04525E+01  1.00809E+01  9.67733E+00  9.24818E+00  8.80030E+00  8.34053E+00  7.87594E+00  7.41319E+00
   6.95885E+00  6.51871E+00  6.09825E+00  5.70208E+00  5.33449E+00  4.99896E+00  4.69864E+00  4.43595E+00  4.21307E+00  4.03165E+00
   3.89327E+00  3.79912E+00  3.75036E+00  3.74775E+00  3.79204E+00  3.88358E+00  4.02264E+00  4.20887E+00  4.44158E+00  4.71912E+00
   5.03926E+00  5.39860E+00  5.79285E+00  6.21626E+00  6.66201E+00  7.12181E+00  7.58647E+00  8.04560E+00  8.48834E+00  8.90319E+00
   9.27885E+00  9.60426E+00  9.86951E+00  1.00659E+01  1.01865E+01  1.02265E+01  1.01833E+01  1.00568E+01  9.84948E+00  9.56577E+00
   9.21247E+00  8.79778E+00  8.33144E+00  7.82381E+00  7.28584E+00  6.72822E+00  6.16131E+00  5.59447E+00  5.03618E+00  4.49352E+00
   3.97244E+00  3.47730E+00  3.01136E+00  2.57645E+00  2.17360E+00  1.80272E+00  1.46322E+00  1.15369E+00  8.72533E-01  6.17675E-01
   3.87140E-01  1.78697E-01 -9.65331E-03 -1.80067E-01 -3.34367E-01 -4.74427E-01 -6.01727E-01 -7.17808E-01 -8.23857E-01 -9.21148E-01
  -1.01059E+00 -1.09318E+00 -1.16956E+00 -1.24051E+00 -1.30651E+00 -1.36823E+00 -1.42601E+00 -1.48033E+00 -1.53143E+00 -1.57972E+00
  -1.62537E+00 -1.66875E+00 -1.70995E+00 -1.74924E+00 -1.78668E+00 -1.82253E+00 -1.85684E+00 -1.88983E+00 -1.92150E+00 -1.95202E+00
  -1.98139E+00 -2.00979E+00 -2.03721E+00 -2.06383E+00 -2.08956E+00 -2.11456E+00 -2.13879E+00 -2.16241E+00 -2.18537E+00 -2.20780E+00
  -2.22961E+00 -2.25095E+00 -2.27174E+00 -2.29213E+00 -2.31204E+00 -2.33160E+00 -2.35069E+00 -2.36945E+00 -2.38781E+00 -2.40590E+00
  -2.42363E+00 -2.44110E+00 -2.45822E+00 -2.47510E+00 -2.49168E+00 -2.50807E+00 -2.52416E+00 -2.54006E+00 -2.55566E+00 -2.57110E+00
  -2.58629E+00 -2.60133E+00 -2.61610E+00 -2.63071E+00 -2.64507E+00 -2.65929E+00 -2.67327E+00 -2.68710E+00
 NY background values follow
     1.408E+00    1.399E+00    1.390E+00    1.381E+00    1.372E+00    1.363E+00    1.354E+00    1.346E+00    1.337E+00    1.328E+00
     1.319E+00    1.310E+00    1.301E+00    1.292E+00    1.283E+00    1.274E+00    1.265E+00    1.256E+00    1.248E+00    1.239E+00
     1.230E+00    1.221E+00    1.212E+00    1.203E+00    1.194E+00    1.185E+00    1.176E+00    1.167E+00    1.158E+00    1.149E+00
     1.141E+00    1.132E+00    1.123E+00    1.114E+00    1.105E+00    1.096E+00    1.087E+00    1.078E+00    1.069E+00    1.060E+00
     1.051E+00    1.042E+00    1.034E+00    1.025E+00    1.016E+00    1.007E+00    9.979E-01    9.890E-01    9.801E-01    9.712E-01
     9.623E-01    9.534E-01    9.444E-01    9.355E-01    9.266E-01    9.177E-01    9.088E-01    8.999E-01    8.910E-01    8.820E-01
     8.731E-01    8.642E-01    8.553E-01    8.464E-01    8.375E-01    8.286E-01    8.196E-01    8.107E-01    8.018E-01    7.929E-01
     7.840E-01    7.751E-01    7.661E-01    7.572E-01    7.483E-01    7.394E-01    7.305E-01    7.216E-01    7.127E-01    7.037E-01
     6.948E-01    6.859E-01    6.770E-01    6.681E-01    6.592E-01    6.503E-01    6.413E-01    6.324E-01    6.235E-01    6.146E-01
     6.057E-01    5.968E-01    5.879E-01    5.789E-01    5.700E-01    5.611E-01    5.522E-01    5.433E-01    5.344E-01    5.255E-01
     5.165E-01    5.076E-01    4.987E-01    4.898E-01    4.809E-01    4.720E-01    4.630E-01    4.541E-01    4.452E-01    4.363E-01
     4.274E-01    4.185E-01    4.096E-01    4.006E-01    3.917E-01    3.828E-01    3.739E-01    3.650E-01    3.561E-01    3.471E-01
     3.382E-01    3.293E-01    3.204E-01    3.115E-01    3.026E-01    2.937E-01    2.847E-01    2.758E-01    2.669E-01    2.580E-01
     2.491E-01    2.402E-01    2.312E-01    2.223E-01    2.134E-01    2.045E-01    1.956E-01    1.867E-01    1.778E-01    1.688E-01
     1.599E-01    1.510E-01    1.421E-01    1.332E-01    1.243E-01    1.153E-01    1.064E-01    9.751E-02    8.860E-02    7.968E-02
     7.077E-02    6.185E-02    5.294E-02    4.402E-02    3.510E-02    2.619E-02    1.727E-02    8.356E-03   -5.596E-04   -9.476E-03
    -1.839E-02   -2.731E-02   -3.622E-02   -4.514E-02   -5.406E-02   -6.297E-02   -7.189E-02   -8.080E-02   -8.972E-02   -9.864E-02
    -1.076E-01   -1.165E-01   -1.254E-01   -1.343E-01   -1.432E-01   -1.521E-01   -1.610E-01   -1.700E-01   -1.789E-01   -1.878E-01
    -1.967E-01   -2.056E-01   -2.145E-01   -2.235E-01   -2.324E-01   -2.413E-01   -2.502E-01   -2.591E-01   -2.680E-01   -2.770E-01
    -2.859E-01   -2.948E-01   -3.037E-01   -3.126E-01   -3.215E-01   -3.305E-01   -3.394E-01   -3.483E-01   -3.572E-01   -3.661E-01
    -3.750E-01   -3.840E-01   -3.929E-01   -4.018E-01   -4.107E-01   -4.196E-01   -4.286E-01   -4.375E-01   -4.464E-01   -4.553E-01
    -4.642E-01   -4.731E-01   -4.821E-01   -4.910E-01   -4.999E-01   -5.088E-01   -5.177E-01   -5.266E-01   -5.356E-01   -5.445E-01
    -5.534E-01   -5.623E-01   -5.712E-01   -5.801E-01   -5.891E-01   -5.980E-01   -6.069E-01   -6.158E-01   -6.247E-01   -6.337E-01
    -6.426E-01   -6.515E-01   -6.604E-01   -6.693E-01   -6.782E-01   -6.872E-01   -6.961E-01   -7.050E-01   -7.139E-01   -7.228E-01
    -7.317E-01   -7.407E-01   -7.496E-01   -7.585E-01   -7.674E-01   -7.763E-01   -7.853E-01   -7.942E-01   -8.031E-01   -8.120E-01
    -8.209E-01   -8.299E-01   -8.388E-01   -8.477E-01   -8.566E-01   -8.655E-01   -8.744E-01   -8.834E-01   -8.923E-01   -9.012E-01
    -9.101E-01   -9.190E-01   -9.280E-01   -9.369E-01   -9.458E-01   -9.547E-01   -9.636E-01   -9.726E-01   -9.815E-01   -9.904E-01
    -9.993E-01   -1.008E+00   -1.017E+00   -1.026E+00   -1.035E+00   -1.044E+00   -1.053E+00   -1.062E+00   -1.071E+00   -1.080E+00
    -1.089E+00   -1.097E+00   -1.106E+00   -1.115E+00   -1.124E+00   -1.133E+00   -1.142E+00   -1.151E+00   -1.160E+00   -1.169E+00
    -1.178E+00   -1.187E+00   -1.196E+00   -1.204E+00   -1.213E+00   -1.222E+00   -1.231E+00   -1.240E+00   -1.249E+00   -1.258E+00
    -1.267E+00   -1.276E+00   -1.285E+00   -1.294E+00   -1.303E+00   -1.312E+00   -1.320E+00   -1.329E+00   -1.338E+00   -1.347E+00
    -1.356E+00   -1.365E+00   -1.374E+00   -1.383E+00   -1.392E+00   -1.401E+00   -1.410E+00   -1.419E+00   -1.427E+00   -1.436E+00
    -1.445E+00   -1.454E+00   -1.463E+00   -1.472E+00   -1.481E+00   -1.490E+00   -1.499E+00   -1.508E+00   -1.517E+00   -1.526E+00
    -1.535E+00   -1.543E+00   -1.552E+00   -1.561E+00   -1.570E+00   -1.579E+00   -1.588E+00   -1.597E+00   -1.606E+00   -1.615E+00
    -1.624E+00   -1.633E+00   -1.642E+00   -1.650E+00   -1.659E+00   -1.668E+00   -1.677E+00   -1.686E+00   -1.695E+00   -1.704E+00
    -1.713E+00   -1.722E+00   -1.731E+00   -1.740E+00   -1.749E+00   -1.758E+00   -1.766E+00   -1.775E+00   -1.784E+00   -1.793E+00
    -1.802E+00   -1.811E+00   -1.820E+00   -1.829E+00   -1.838E+00   -1.847E+00   -1.856E+00   -1.865E+00   -1.874E+00   -1.882E+00
    -1.891E+00   -1.900E+00   -1.909E+00   -1.918E+00   -1.927E+00   -1.936E+00   -1.945E+00   -1.954E+00   -1.963E+00   -1.972E+00
    -1.981E+00   -1.989E+00   -1.998E+00   -2.007E+00   -2.016E+00   -2.025E+00   -2.034E+00   -2.043E+00   -2.052E+00   -2.061E+00
    -2.070E+00   -2.079E+00   -2.088E+00   -2.097E+00   -2.105E+00   -2.114E+00   -2.123E+00   -2.132E+00   -2.141E+00   -2.150E+00
    -2.159E+00   -2.168E+00   -2.177E+00   -2.186E+00   -2.195E+00   -2.204E+00   -2.213E+00   -2.221E+00   -2.230E+00   -2.239E+00
    -2.248E+00   -2.257E+00   -2.266E+00   -2.275E+00   -2.284E+00   -2.293E+00   -2.302E+00   -2.311E+00   -2.320E+00   -2.329E+00
    -2.337E+00   -2.346E+00   -2.355E+00   -2.364E+00   -2.373E+00   -2.382E+00   -2.391E+00   -2.400E+00   -2.409E+00   -2.418E+00
    -2.427E+00   -2.436E+00   -2.445E+00   -2.453E+00   -2.462E+00   -2.471E+00   -2.480E+00   -2.489E+00   -2.498E+00   -2.507E+00
    -2.516E+00   -2.525E+00   -2.534E+00   -2.543E+00   -2.552E+00   -2.560E+00   -2.569E+00   -2.578E+00   -2.587E+00   -2.596E+00
    -2.605E+00   -2.614E+00   -2.623E+00   -2.632E+00   -2.641E+00   -2.650E+00   -2.659E+00   -2.668E+00   -2.676E+00   -2.685E+00
    -2.694E+00   -2.703E+00   -2.712E+00   -2.721E+00   -2.730E+00   -2.739E+00   -2.748E+00   -2.757E+00   -2.766E+00   -2.775E+00
    -2.784E+00   -2.792E+00   -2.801E+00   -2.810E+00   -2.819E+00   -2.828E+00   -2.837E+00   -2.846E+00   -2.855E+00   -2.864E+00
    -2.873E+00   -2.882E+00   -2.891E+00   -2.900E+00   -2.908E+00   -2.917E+00   -2.926E+00   -2.935E+00   -2.944E+00   -2.953E+00
    -2.962E+00   -2.971E+00   -2.980E+00   -2.989E+00   -2.998E+00   -3.007E+00   -3.015E+00   -3.024E+00
 Ala      Conc. = 1.53E+02
