 LCModel (Version 6.3-1L) Copyright: S.W. Provencher.          Ref.: Magn. Reson. Med. 30:672-679 (1993).                
 Slice#1 Row#8 Col#1  PD_24_press_2_raw_act
 36 lines in following concentration table = NCONC+1
    Conc.  %SD /Cr+PCr  Metabolite                                         
  231.916  96%   2.366 Ala                                                 
    2.358 999% 2.4E-02 Asp                                                 
    0.000 999%   0.000 Cr                                                  
   98.028  85%   1.000 PCr                                                 
    2.522 583% 2.6E-02 GABA                                                
    3.364 438% 3.4E-02 Glc                                                 
  614.227  73%   6.266 Gln                                                 
    0.000 999%   0.000 Glu                                                 
    0.000 999%   0.000 GPC                                                 
    0.000 999%   0.000 PCh                                                 
   92.220 138%   0.941 GSH                                                 
  286.280 143%   2.920 Ins                                                 
   95.308 229%   0.972 Lac                                                 
    0.000 999%   0.000 NAA                                                 
    0.000 999%   0.000 NAAG                                                
    1.974 248% 2.0E-02 Scyllo                                              
    4.691 524% 4.8E-02 Tau                                                 
    0.000 999%   0.000 -CrCH2                                              
    0.000 999%   0.000 GPC+PCh                                             
    0.000 999%   0.000 NAA+NAAG                                            
   98.028  85%   1.000 Cr+PCr                                              
  614.227  73%   6.266 Glu+Gln                                             
 9.71E+03  16%  99.053 Lip13a                                              
    0.000 999%   0.000 Lip13b                                              
 2.59E+03  16%  26.447 Lip09                                               
 6.46E+03   6%  65.905 MM09                                                
 1.46E+03  16%  14.858 Lip20                                               
 9.45E+03   7%  96.380 MM20                                                
 1.93E+03   7%  19.725 MM12                                                
 5.84E+03   6%  59.581+MM14                                                
 2.93E+03   7%  29.880 MM17                                                
 9.71E+03  16%  99.053 Lip13a+Lip13b                                       
 1.75E+04   8% 178.359 MM14+Lip13a+Lip13b+MM12                             
 9.05E+03   5%  92.352 MM09+Lip09                                          
 1.09E+04   6% 111.238 MM20+Lip20                                          
   6 lines in following misc. output table
  FWHM = 0.061 ppm    S/N =   7                                            
  Data shift =-0.031 ppm                                                   
  Ph: 106 deg     -59.1 deg/ppm                                            
  alphaB,S = 5.4E-01,   2.4E+01                                            
   14 spline knots.   Ns = 6(1)                                            
   2 inflections.     1 extrema                                            
  498 points on ppm-axis = NY
      4.000000     3.992357     3.984714     3.977070     3.969427     3.961784     3.954141     3.946497     3.938854     3.931211
      3.923568     3.915925     3.908281     3.900638     3.892995     3.885352     3.877708     3.870065     3.862422     3.854779
      3.847136     3.839492     3.831849     3.824206     3.816563     3.808919     3.801276     3.793633     3.785990     3.778347
      3.770703     3.763060     3.755417     3.747774     3.740130     3.732487     3.724844     3.717201     3.709558     3.701914
      3.694271     3.686628     3.678985     3.671341     3.663698     3.656055     3.648412     3.640769     3.633125     3.625482
      3.617839     3.610196     3.602552     3.594909     3.587266     3.579623     3.571980     3.564336     3.556693     3.549050
      3.541407     3.533763     3.526120     3.518477     3.510834     3.503191     3.495547     3.487904     3.480261     3.472618
      3.464974     3.457331     3.449688     3.442045     3.434402     3.426758     3.419115     3.411472     3.403829     3.396185
      3.388542     3.380899     3.373256     3.365613     3.357969     3.350326     3.342683     3.335040     3.327396     3.319753
      3.312110     3.304467     3.296824     3.289180     3.281537     3.273894     3.266251     3.258607     3.250964     3.243321
      3.235678     3.228034     3.220391     3.212748     3.205105     3.197462     3.189818     3.182175     3.174532     3.166889
      3.159245     3.151602     3.143959     3.136316     3.128673     3.121029     3.113386     3.105743     3.098100     3.090456
      3.082813     3.075170     3.067527     3.059884     3.052240     3.044597     3.036954     3.029311     3.021667     3.014024
      3.006381     2.998738     2.991095     2.983451     2.975808     2.968165     2.960522     2.952878     2.945235     2.937592
      2.929949     2.922306     2.914662     2.907019     2.899376     2.891733     2.884089     2.876446     2.868803     2.861160
      2.853517     2.845873     2.838230     2.830587     2.822944     2.815300     2.807657     2.800014     2.792371     2.784728
      2.777084     2.769441     2.761798     2.754155     2.746511     2.738868     2.731225     2.723582     2.715939     2.708295
      2.700652     2.693009     2.685366     2.677722     2.670079     2.662436     2.654793     2.647150     2.639506     2.631863
      2.624220     2.616577     2.608933     2.601290     2.593647     2.586004     2.578361     2.570717     2.563074     2.555431
      2.547788     2.540144     2.532501     2.524858     2.517215     2.509572     2.501928     2.494285     2.486642     2.478999
      2.471355     2.463712     2.456069     2.448426     2.440783     2.433139     2.425496     2.417853     2.410210     2.402566
      2.394923     2.387280     2.379637     2.371994     2.364350     2.356707     2.349064     2.341421     2.333777     2.326134
      2.318491     2.310848     2.303205     2.295561     2.287918     2.280275     2.272632     2.264988     2.257345     2.249702
      2.242059     2.234416     2.226772     2.219129     2.211486     2.203843     2.196199     2.188556     2.180913     2.173270
      2.165627     2.157983     2.150340     2.142697     2.135054     2.127410     2.119767     2.112124     2.104481     2.096838
      2.089194     2.081551     2.073908     2.066265     2.058621     2.050978     2.043335     2.035692     2.028049     2.020405
      2.012762     2.005119     1.997476     1.989833     1.982190     1.974546     1.966903     1.959260     1.951617     1.943974
      1.936331     1.928688     1.921045     1.913402     1.905759     1.898115     1.890472     1.882829     1.875186     1.867543
      1.859900     1.852257     1.844614     1.836971     1.829327     1.821684     1.814041     1.806398     1.798755     1.791112
      1.783469     1.775826     1.768183     1.760540     1.752896     1.745253     1.737610     1.729967     1.722324     1.714681
      1.707038     1.699395     1.691752     1.684108     1.676465     1.668822     1.661179     1.653536     1.645893     1.638250
      1.630607     1.622964     1.615321     1.607677     1.600034     1.592391     1.584748     1.577105     1.569462     1.561819
      1.554176     1.546533     1.538890     1.531246     1.523603     1.515960     1.508317     1.500674     1.493031     1.485388
      1.477745     1.470102     1.462458     1.454815     1.447172     1.439529     1.431886     1.424243     1.416600     1.408957
      1.401314     1.393671     1.386027     1.378384     1.370741     1.363098     1.355455     1.347812     1.340169     1.332526
      1.324883     1.317240     1.309596     1.301953     1.294310     1.286667     1.279024     1.271381     1.263738     1.256095
      1.248452     1.240808     1.233165     1.225522     1.217879     1.210236     1.202593     1.194950     1.187307     1.179664
      1.172021     1.164377     1.156734     1.149091     1.141448     1.133805     1.126162     1.118519     1.110876     1.103233
      1.095590     1.087946     1.080303     1.072660     1.065017     1.057374     1.049731     1.042088     1.034445     1.026802
      1.019158     1.011515     1.003872     0.996229     0.988586     0.980943     0.973300     0.965657     0.958014     0.950371
      0.942727     0.935084     0.927441     0.919798     0.912155     0.904512     0.896869     0.889226     0.881583     0.873940
      0.866296     0.858653     0.851010     0.843367     0.835724     0.828081     0.820438     0.812795     0.805152     0.797508
      0.789865     0.782222     0.774579     0.766936     0.759293     0.751650     0.744007     0.736364     0.728721     0.721077
      0.713434     0.705791     0.698148     0.690505     0.682862     0.675219     0.667576     0.659933     0.652290     0.644646
      0.637003     0.629360     0.621717     0.614074     0.606431     0.598788     0.591145     0.583502     0.575858     0.568215
      0.560572     0.552929     0.545286     0.537643     0.530000     0.522357     0.514714     0.507071     0.499427     0.491784
      0.484141     0.476498     0.468855     0.461212     0.453569     0.445925     0.438282     0.430639     0.422996     0.415353
      0.407710     0.400067     0.392424     0.384780     0.377137     0.369494     0.361851     0.354208     0.346565     0.338922
      0.331278     0.323635     0.315992     0.308349     0.300706     0.293063     0.285420     0.277777     0.270133     0.262490
      0.254847     0.247204     0.239561     0.231918     0.224275     0.216631     0.208988     0.201345
 NY phased data points follow
   1.28305E+02  1.25992E+02  1.25932E+02  1.27152E+02  1.22740E+02  1.18594E+02  1.16074E+02  1.21539E+02  1.17852E+02  1.21491E+02
   1.23257E+02  1.15065E+02  1.12192E+02  1.09826E+02  1.08918E+02  1.06536E+02  1.03284E+02  1.05336E+02  1.01462E+02  1.04050E+02
   1.00259E+02  1.00503E+02  1.02067E+02  1.00604E+02  9.16619E+01  9.35544E+01  9.64980E+01  9.55090E+01  9.44189E+01  9.14052E+01
   9.67542E+01  9.40776E+01  8.87301E+01  8.99471E+01  8.70851E+01  8.63375E+01  8.86027E+01  8.41818E+01  8.39031E+01  8.33403E+01
   8.27342E+01  8.60998E+01  8.17625E+01  7.95201E+01  7.85896E+01  7.84269E+01  8.02972E+01  7.79434E+01  7.87825E+01  7.39626E+01
   7.43867E+01  7.29863E+01  7.57365E+01  7.30869E+01  6.94398E+01  7.14704E+01  7.37873E+01  7.07008E+01  7.04635E+01  6.24777E+01
   7.38453E+01  6.68942E+01  6.46679E+01  6.83666E+01  6.48586E+01  6.11797E+01  6.09074E+01  6.38739E+01  6.16851E+01  6.73274E+01
   6.06486E+01  6.12104E+01  5.83866E+01  5.47180E+01  5.78167E+01  5.52388E+01  5.47574E+01  5.21702E+01  5.07563E+01  4.84824E+01
   5.03745E+01  5.60267E+01  5.32530E+01  4.71136E+01  5.44255E+01  4.82778E+01  4.79861E+01  5.00190E+01  4.63575E+01  4.04493E+01
   4.76788E+01  4.03586E+01  3.36231E+01  3.63184E+01  3.28242E+01  3.39757E+01  3.71572E+01  3.15710E+01  3.83809E+01  3.08767E+01
   3.24655E+01  3.67638E+01  3.06182E+01  3.10591E+01  3.65864E+01  2.89718E+01  2.84223E+01  2.89341E+01  2.13727E+01  2.68378E+01
   2.60961E+01  2.56440E+01  2.33464E+01  2.70306E+01  2.83516E+01  2.95547E+01  3.14338E+01  2.35731E+01  2.18727E+01  2.09738E+01
   2.03823E+01  1.84802E+01  1.98609E+01  2.11109E+01  1.80006E+01  2.48037E+01  2.50496E+01  2.53480E+01  2.29324E+01  2.52970E+01
   2.57343E+01  1.77262E+01  2.03904E+01  1.14331E+01  1.64901E+01  1.48431E+01  1.65116E+01  1.66121E+01  1.71369E+01  1.97910E+01
   1.68033E+01  1.29055E+01  1.70937E+01  1.21358E+01  1.63299E+01  1.19419E+01  1.28702E+01  1.10513E+01  1.39807E+01  6.67890E+00
   8.68075E+00  5.16286E+00  1.26674E+01  7.41283E+00  3.98699E+00  6.82967E+00  3.45156E+00  2.88102E+00  3.58555E+00  1.61806E+00
   4.27865E+00  3.01447E+00  5.42426E-01 -9.19975E-01 -3.84914E+00 -5.03764E+00 -3.09764E+00 -3.37567E-01 -2.64615E+00 -8.87716E+00
  -8.01026E+00 -8.79402E+00 -8.69770E+00 -1.77914E+01 -8.84394E+00 -1.54634E+01 -1.52084E+01 -1.55545E+01 -1.91037E+01 -1.61009E+01
  -1.61500E+01 -1.81192E+01 -1.00878E+01 -1.41374E+01 -1.03114E+01 -1.31215E+01 -1.33511E+01 -9.63941E+00 -1.01070E+01 -9.59929E+00
  -1.41687E+01 -7.40874E+00 -7.97997E+00 -1.23493E+01 -1.09848E+01 -1.45739E+01 -8.54419E+00 -1.62912E+01 -1.02642E+01 -1.08165E+01
  -1.06298E+01 -9.67676E+00 -9.83436E+00 -8.93212E+00 -5.33102E+00 -7.73720E+00 -1.17322E+01 -9.84307E+00 -1.14575E+01 -9.45309E+00
  -1.68127E+01 -1.37515E+01 -1.13011E+01 -1.22130E+01 -6.58779E+00 -4.39666E+00 -7.64250E+00 -7.52704E+00 -1.15682E+00 -5.57180E+00
  -1.61475E+00 -7.92742E+00 -5.41351E+00 -9.02897E+00 -5.47955E+00 -3.20292E+00 -2.20226E-01 -1.68327E+00  1.29038E-01 -4.39344E+00
  -6.37710E+00 -2.68912E+00 -3.17217E+00 -2.54078E+00 -7.81226E+00 -9.86747E+00 -4.33293E+00 -4.52601E+00 -6.75598E+00 -6.76927E+00
  -3.60084E+00 -1.26055E+01 -7.22860E+00 -1.22151E+01 -9.92030E+00 -1.67249E+01 -1.52384E+01 -1.78347E+01 -1.85334E+01 -2.61963E+01
  -2.65356E+01 -2.82236E+01 -3.12089E+01 -3.22787E+01 -4.13031E+01 -4.49801E+01 -3.94303E+01 -3.57067E+01 -3.48836E+01 -3.31493E+01
  -3.15112E+01 -2.34063E+01 -2.90219E+01 -3.07179E+01 -3.04575E+01 -3.45496E+01 -3.57888E+01 -4.03592E+01 -4.03771E+01 -3.64947E+01
  -3.46095E+01 -3.42397E+01 -2.78617E+01 -3.24300E+01 -2.90942E+01 -3.32445E+01 -3.18939E+01 -2.95733E+01 -2.43487E+01 -3.06880E+01
  -3.08918E+01 -3.15340E+01 -3.19942E+01 -3.59296E+01 -2.82900E+01 -3.05140E+01 -3.46755E+01 -3.34241E+01 -3.39328E+01 -3.67561E+01
  -3.57652E+01 -3.35815E+01 -3.32044E+01 -3.31697E+01 -3.27910E+01 -3.13634E+01 -3.23959E+01 -3.03802E+01 -3.29143E+01 -4.08408E+01
  -3.44076E+01 -3.65045E+01 -3.26310E+01 -3.21433E+01 -2.94298E+01 -2.64091E+01 -2.79136E+01 -2.01530E+01 -1.88827E+01 -1.78590E+01
  -1.22932E+01 -6.72778E+00 -6.41417E-01  9.91240E+00  1.37507E+01  2.39852E+01  2.10582E+01  3.18125E+01  3.77465E+01  4.14367E+01
   4.01777E+01  4.69022E+01  4.82797E+01  4.50449E+01  4.66720E+01  4.54492E+01  4.74962E+01  4.43705E+01  3.63669E+01  3.59266E+01
   3.29364E+01  2.69886E+01  2.54775E+01  2.17621E+01  2.12664E+01  1.14268E+01  1.20997E+01  8.42523E+00  5.32430E+00  3.82541E+00
   1.84165E+00 -2.81291E+00 -4.77664E+00 -6.39213E+00 -6.24679E+00 -5.21826E+00 -5.76499E-01 -9.53205E+00 -7.93680E+00 -9.32612E+00
  -1.35242E+01 -1.29804E+01 -1.61604E+01 -1.19077E+01 -1.57862E+01 -1.87690E+01 -1.55890E+01 -1.85415E+01 -1.52234E+01 -1.75492E+01
  -1.82213E+01 -2.15723E+01 -2.16542E+01 -2.34155E+01 -2.16341E+01 -1.65166E+01 -2.41766E+01 -1.87719E+01 -2.10235E+01 -2.19563E+01
  -2.23520E+01 -2.08798E+01 -2.31148E+01 -2.16603E+01 -2.30486E+01 -2.24043E+01 -2.41352E+01 -2.00883E+01 -2.22571E+01 -2.13277E+01
  -2.07604E+01 -2.19136E+01 -2.30176E+01 -1.57172E+01 -2.23858E+01 -2.29617E+01 -1.67806E+01 -1.77613E+01 -2.12873E+01 -2.35521E+01
  -2.31110E+01 -2.07905E+01 -1.99889E+01 -1.84826E+01 -2.43513E+01 -2.39130E+01 -2.16991E+01 -2.24523E+01 -1.98466E+01 -1.91774E+01
  -2.04942E+01 -1.91767E+01 -1.53231E+01 -1.71584E+01 -1.84177E+01 -1.89848E+01 -1.45184E+01 -2.00563E+01 -2.08121E+01 -1.81209E+01
  -1.36725E+01 -2.03960E+01 -1.71406E+01 -2.01297E+01 -1.64187E+01 -1.97913E+01 -2.10591E+01 -1.91636E+01 -2.15151E+01 -1.83063E+01
  -2.07974E+01 -1.68186E+01 -1.67518E+01 -2.12564E+01 -2.26227E+01 -1.11034E+01 -1.94893E+01 -2.28218E+01 -1.91564E+01 -1.81792E+01
  -1.47440E+01 -1.63139E+01 -2.14794E+01 -1.44416E+01 -1.46298E+01 -1.70865E+01 -1.72823E+01 -1.91884E+01 -1.68002E+01 -1.74905E+01
  -1.66055E+01 -1.76419E+01 -2.12373E+01 -1.47781E+01 -1.53229E+01 -1.58591E+01 -1.77287E+01 -2.09706E+01 -1.71391E+01 -1.72839E+01
  -1.35237E+01 -1.71504E+01 -1.47257E+01 -1.85810E+01 -1.53208E+01 -1.91912E+01 -1.33236E+01 -1.08418E+01 -2.30142E+01 -1.71051E+01
  -1.90840E+01 -1.57830E+01 -1.42892E+01 -1.64916E+01 -1.57250E+01 -1.67559E+01 -2.05064E+01 -1.63746E+01 -1.74302E+01 -1.28895E+01
  -1.37385E+01 -2.03330E+01 -1.32892E+01 -1.68366E+01 -1.83627E+01 -1.34731E+01 -1.40635E+01 -1.59293E+01 -1.70015E+01 -1.41878E+01
  -1.58591E+01 -1.17817E+01 -1.00213E+01 -7.53643E+00 -1.02547E+01 -8.29872E+00 -1.01606E+01 -1.50982E+01 -1.60924E+01 -1.02988E+01
  -1.16512E+01 -1.61965E+01 -1.36067E+01 -1.09782E+01 -1.39852E+01 -8.42400E+00 -9.69280E+00 -1.13573E+01
 NY points of the fit to the data follow
   1.22002E+02  1.20906E+02  1.19877E+02  1.18934E+02  1.18153E+02  1.17513E+02  1.16945E+02  1.16377E+02  1.15721E+02  1.14922E+02
   1.13967E+02  1.12861E+02  1.11613E+02  1.10247E+02  1.08808E+02  1.07371E+02  1.06086E+02  1.05111E+02  1.04312E+02  1.03570E+02
   1.02872E+02  1.02173E+02  1.01389E+02  1.00453E+02  9.93704E+01  9.82388E+01  9.71732E+01  9.62957E+01  9.56510E+01  9.51866E+01
   9.48121E+01  9.44029E+01  9.38632E+01  9.31245E+01  9.19869E+01  9.04152E+01  8.86162E+01  8.68489E+01  8.53319E+01  8.40241E+01
   8.30456E+01  8.23888E+01  8.18626E+01  8.13997E+01  8.09664E+01  8.04960E+01  7.99099E+01  7.92025E+01  7.83197E+01  7.72428E+01
   7.60199E+01  7.46957E+01  7.33207E+01  7.19600E+01  7.07247E+01  6.97655E+01  6.91024E+01  6.85756E+01  6.80290E+01  6.74041E+01
   6.66841E+01  6.58637E+01  6.49562E+01  6.39899E+01  6.30033E+01  6.20194E+01  6.10628E+01  6.01947E+01  5.94365E+01  5.87578E+01
   5.81145E+01  5.74447E+01  5.67208E+01  5.59361E+01  5.51009E+01  5.42397E+01  5.33688E+01  5.25018E+01  5.16412E+01  5.08029E+01
   5.00109E+01  4.92421E+01  4.84693E+01  4.76749E+01  4.68506E+01  4.60020E+01  4.51514E+01  4.43287E+01  4.35579E+01  4.28554E+01
   4.22276E+01  4.16723E+01  4.11781E+01  4.07222E+01  4.02632E+01  3.97380E+01  3.91272E+01  3.84491E+01  3.77421E+01  3.70343E+01
   3.63474E+01  3.57030E+01  3.51179E+01  3.45920E+01  3.41257E+01  3.36941E+01  3.32652E+01  3.28302E+01  3.23882E+01  3.19390E+01
   3.14787E+01  3.10031E+01  3.05139E+01  3.00194E+01  2.95234E+01  2.90191E+01  2.85057E+01  2.79838E+01  2.74586E+01  2.69400E+01
   2.64454E+01  2.60168E+01  2.57291E+01  2.55942E+01  2.55392E+01  2.54345E+01  2.51504E+01  2.46256E+01  2.38573E+01  2.28700E+01
   2.16794E+01  2.03094E+01  1.88137E+01  1.72965E+01  1.59859E+01  1.50599E+01  1.42798E+01  1.35387E+01  1.28461E+01  1.22082E+01
   1.16280E+01  1.11091E+01  1.06083E+01  1.00488E+01  9.41282E+00  8.70985E+00  7.95823E+00  7.20235E+00  6.47050E+00  5.78115E+00
   5.13526E+00  4.50774E+00  3.89234E+00  3.28909E+00  2.69858E+00  2.12022E+00  1.55483E+00  1.00228E+00  4.56637E-01 -8.51897E-02
  -6.24518E-01 -1.16262E+00 -1.70088E+00 -2.23740E+00 -2.76408E+00 -3.27883E+00 -3.78303E+00 -4.27718E+00 -4.76094E+00 -5.23378E+00
  -5.69645E+00 -6.15062E+00 -6.59846E+00 -7.04146E+00 -7.47930E+00 -7.90922E+00 -8.32907E+00 -8.73710E+00 -9.13191E+00 -9.51187E+00
  -9.87609E+00 -1.02245E+01 -1.05591E+01 -1.08796E+01 -1.11792E+01 -1.14480E+01 -1.16785E+01 -1.18702E+01 -1.20366E+01 -1.22118E+01
  -1.24322E+01 -1.27287E+01 -1.31203E+01 -1.36002E+01 -1.41082E+01 -1.45534E+01 -1.48344E+01 -1.48573E+01 -1.45718E+01 -1.40108E+01
  -1.32721E+01 -1.25131E+01 -1.19109E+01 -1.15818E+01 -1.16752E+01 -1.23020E+01 -1.33588E+01 -1.45769E+01 -1.56543E+01 -1.62824E+01
  -1.63100E+01 -1.58255E+01 -1.49759E+01 -1.38088E+01 -1.24814E+01 -1.12142E+01 -1.01799E+01 -9.58208E+00 -9.56050E+00 -9.76369E+00
  -9.83890E+00 -9.82308E+00 -9.76894E+00 -9.67638E+00 -9.55182E+00 -9.40812E+00 -9.26162E+00 -9.12765E+00 -9.01181E+00 -8.90834E+00
  -8.81688E+00 -8.76285E+00 -8.75324E+00 -8.74789E+00 -8.67300E+00 -8.45206E+00 -8.06341E+00 -7.55862E+00 -7.07387E+00 -6.77136E+00
  -6.76052E+00 -7.05377E+00 -7.62151E+00 -8.49881E+00 -9.70590E+00 -1.09583E+01 -1.20101E+01 -1.28133E+01 -1.33156E+01 -1.35182E+01
  -1.36492E+01 -1.40111E+01 -1.46116E+01 -1.54513E+01 -1.65465E+01 -1.78499E+01 -1.92860E+01 -2.07948E+01 -2.22775E+01 -2.36293E+01
  -2.48391E+01 -2.59364E+01 -2.69365E+01 -2.78602E+01 -2.87426E+01 -2.96071E+01 -3.04449E+01 -3.12772E+01 -3.20763E+01 -3.28204E+01
  -3.35060E+01 -3.41324E+01 -3.46979E+01 -3.51994E+01 -3.56375E+01 -3.60139E+01 -3.63291E+01 -3.65851E+01 -3.67833E+01 -3.69251E+01
  -3.70119E+01 -3.70452E+01 -3.70271E+01 -3.69591E+01 -3.68415E+01 -3.66754E+01 -3.64624E+01 -3.62038E+01 -3.59001E+01 -3.55517E+01
  -3.51588E+01 -3.47204E+01 -3.42346E+01 -3.36981E+01 -3.31071E+01 -3.24563E+01 -3.17391E+01 -3.09470E+01 -3.00697E+01 -2.90952E+01
  -2.80092E+01 -2.67949E+01 -2.54336E+01 -2.39044E+01 -2.21850E+01 -2.02522E+01 -1.80835E+01 -1.56582E+01 -1.29591E+01 -9.97508E+00
  -6.70259E+00 -3.14857E+00  6.67791E-01  4.71326E+00  8.93961E+00  1.32830E+01  1.76649E+01  2.19944E+01  2.61721E+01  3.00946E+01
   3.36627E+01  3.67929E+01  3.94090E+01  4.13595E+01  4.24495E+01  4.25244E+01  4.15345E+01  3.95672E+01  3.67812E+01  3.33665E+01
   2.95969E+01  2.57986E+01  2.22501E+01  1.91279E+01  1.65141E+01  1.43075E+01  1.20749E+01  9.71358E+00  7.32097E+00  4.93067E+00
   2.55921E+00  2.24371E-01 -1.93851E+00 -3.58901E+00 -4.76791E+00 -5.77046E+00 -6.73889E+00 -7.72287E+00 -8.72989E+00 -9.74796E+00
  -1.07280E+01 -1.16072E+01 -1.23402E+01 -1.29170E+01 -1.33493E+01 -1.36874E+01 -1.41217E+01 -1.47455E+01 -1.55208E+01 -1.64233E+01
  -1.74300E+01 -1.85117E+01 -1.95750E+01 -2.04505E+01 -2.11494E+01 -2.17341E+01 -2.22197E+01 -2.26093E+01 -2.29041E+01 -2.31050E+01
  -2.32136E+01 -2.32323E+01 -2.31644E+01 -2.30140E+01 -2.27866E+01 -2.24884E+01 -2.21268E+01 -2.17101E+01 -2.12475E+01 -2.07492E+01
  -2.02259E+01 -1.96887E+01 -1.91490E+01 -1.86182E+01 -1.81071E+01 -1.76264E+01 -1.71854E+01 -1.67927E+01 -1.64554E+01 -1.61788E+01
  -1.59669E+01 -1.58217E+01 -1.57434E+01 -1.57305E+01 -1.57798E+01 -1.58862E+01 -1.60438E+01 -1.62449E+01 -1.64815E+01 -1.67446E+01
  -1.70250E+01 -1.73137E+01 -1.76018E+01 -1.78811E+01 -1.81443E+01 -1.83851E+01 -1.85984E+01 -1.87806E+01 -1.89294E+01 -1.90442E+01
  -1.91257E+01 -1.91759E+01 -1.91982E+01 -1.91971E+01 -1.91780E+01 -1.91469E+01 -1.91101E+01 -1.90744E+01 -1.90460E+01 -1.90312E+01
  -1.90354E+01 -1.90631E+01 -1.91178E+01 -1.92021E+01 -1.93170E+01 -1.94624E+01 -1.96369E+01 -1.98379E+01 -2.00618E+01 -2.03041E+01
  -2.05596E+01 -2.08227E+01 -2.10874E+01 -2.13478E+01 -2.15981E+01 -2.18331E+01 -2.20477E+01 -2.22379E+01 -2.24002E+01 -2.25317E+01
  -2.26306E+01 -2.26955E+01 -2.27262E+01 -2.27226E+01 -2.26855E+01 -2.26161E+01 -2.25158E+01 -2.23866E+01 -2.22304E+01 -2.20494E+01
  -2.18458E+01 -2.16218E+01 -2.13797E+01 -2.11214E+01 -2.08488E+01 -2.05637E+01 -2.02677E+01 -1.99622E+01 -1.96486E+01 -1.93281E+01
  -1.90017E+01 -1.86705E+01 -1.83351E+01 -1.79965E+01 -1.76551E+01 -1.73117E+01 -1.69666E+01 -1.66204E+01 -1.62733E+01 -1.59258E+01
  -1.55780E+01 -1.52302E+01 -1.48826E+01 -1.45354E+01 -1.41886E+01 -1.38425E+01 -1.34971E+01 -1.31524E+01 -1.28085E+01 -1.24656E+01
  -1.21235E+01 -1.17824E+01 -1.14421E+01 -1.11029E+01 -1.07645E+01 -1.04270E+01 -1.00905E+01 -9.75477E+00 -9.41991E+00 -9.08584E+00
  -8.75253E+00 -8.41994E+00 -8.08802E+00 -7.75672E+00 -7.42599E+00 -7.09577E+00 -6.76600E+00 -6.43663E+00
 NY background values follow
     1.162E+02    1.152E+02    1.142E+02    1.133E+02    1.123E+02    1.113E+02    1.103E+02    1.093E+02    1.083E+02    1.073E+02
     1.063E+02    1.054E+02    1.044E+02    1.034E+02    1.024E+02    1.014E+02    1.005E+02    9.948E+01    9.851E+01    9.753E+01
     9.656E+01    9.559E+01    9.462E+01    9.365E+01    9.268E+01    9.172E+01    9.075E+01    8.979E+01    8.883E+01    8.787E+01
     8.691E+01    8.595E+01    8.500E+01    8.404E+01    8.309E+01    8.214E+01    8.119E+01    8.025E+01    7.930E+01    7.836E+01
     7.742E+01    7.648E+01    7.554E+01    7.460E+01    7.367E+01    7.274E+01    7.181E+01    7.088E+01    6.996E+01    6.904E+01
     6.811E+01    6.720E+01    6.628E+01    6.537E+01    6.445E+01    6.354E+01    6.264E+01    6.173E+01    6.083E+01    5.993E+01
     5.904E+01    5.814E+01    5.725E+01    5.637E+01    5.548E+01    5.460E+01    5.372E+01    5.284E+01    5.197E+01    5.110E+01
     5.023E+01    4.937E+01    4.851E+01    4.765E+01    4.680E+01    4.595E+01    4.510E+01    4.425E+01    4.341E+01    4.258E+01
     4.174E+01    4.091E+01    4.009E+01    3.927E+01    3.845E+01    3.763E+01    3.682E+01    3.601E+01    3.521E+01    3.441E+01
     3.362E+01    3.283E+01    3.204E+01    3.126E+01    3.048E+01    2.970E+01    2.893E+01    2.816E+01    2.740E+01    2.664E+01
     2.589E+01    2.514E+01    2.439E+01    2.365E+01    2.291E+01    2.217E+01    2.144E+01    2.071E+01    1.999E+01    1.927E+01
     1.855E+01    1.784E+01    1.713E+01    1.643E+01    1.573E+01    1.503E+01    1.434E+01    1.365E+01    1.296E+01    1.228E+01
     1.161E+01    1.093E+01    1.026E+01    9.594E+00    8.931E+00    8.272E+00    7.617E+00    6.965E+00    6.317E+00    5.672E+00
     5.031E+00    4.394E+00    3.760E+00    3.130E+00    2.504E+00    1.881E+00    1.262E+00    6.463E-01    3.420E-02   -5.744E-01
    -1.180E+00   -1.781E+00   -2.380E+00   -2.974E+00   -3.566E+00   -4.154E+00   -4.739E+00   -5.320E+00   -5.899E+00   -6.474E+00
    -7.046E+00   -7.614E+00   -8.180E+00   -8.742E+00   -9.301E+00   -9.857E+00   -1.041E+01   -1.096E+01   -1.151E+01   -1.205E+01
    -1.259E+01   -1.313E+01   -1.367E+01   -1.420E+01   -1.473E+01   -1.525E+01   -1.578E+01   -1.630E+01   -1.682E+01   -1.733E+01
    -1.785E+01   -1.836E+01   -1.887E+01   -1.937E+01   -1.987E+01   -2.037E+01   -2.087E+01   -2.137E+01   -2.186E+01   -2.235E+01
    -2.284E+01   -2.332E+01   -2.380E+01   -2.428E+01   -2.476E+01   -2.524E+01   -2.571E+01   -2.618E+01   -2.665E+01   -2.711E+01
    -2.757E+01   -2.803E+01   -2.849E+01   -2.895E+01   -2.940E+01   -2.985E+01   -3.029E+01   -3.073E+01   -3.117E+01   -3.161E+01
    -3.204E+01   -3.247E+01   -3.290E+01   -3.333E+01   -3.375E+01   -3.417E+01   -3.458E+01   -3.499E+01   -3.540E+01   -3.581E+01
    -3.621E+01   -3.661E+01   -3.700E+01   -3.739E+01   -3.778E+01   -3.817E+01   -3.855E+01   -3.893E+01   -3.930E+01   -3.967E+01
    -4.004E+01   -4.040E+01   -4.076E+01   -4.111E+01   -4.147E+01   -4.181E+01   -4.216E+01   -4.250E+01   -4.283E+01   -4.317E+01
    -4.350E+01   -4.382E+01   -4.414E+01   -4.445E+01   -4.477E+01   -4.507E+01   -4.537E+01   -4.567E+01   -4.596E+01   -4.625E+01
    -4.653E+01   -4.681E+01   -4.708E+01   -4.735E+01   -4.762E+01   -4.787E+01   -4.813E+01   -4.837E+01   -4.861E+01   -4.885E+01
    -4.908E+01   -4.931E+01   -4.952E+01   -4.974E+01   -4.994E+01   -5.015E+01   -5.034E+01   -5.053E+01   -5.071E+01   -5.089E+01
    -5.106E+01   -5.123E+01   -5.138E+01   -5.154E+01   -5.168E+01   -5.182E+01   -5.195E+01   -5.207E+01   -5.219E+01   -5.230E+01
    -5.241E+01   -5.250E+01   -5.259E+01   -5.268E+01   -5.275E+01   -5.282E+01   -5.288E+01   -5.294E+01   -5.299E+01   -5.303E+01
    -5.306E+01   -5.309E+01   -5.312E+01   -5.313E+01   -5.315E+01   -5.315E+01   -5.315E+01   -5.314E+01   -5.313E+01   -5.311E+01
    -5.309E+01   -5.306E+01   -5.302E+01   -5.299E+01   -5.294E+01   -5.289E+01   -5.284E+01   -5.278E+01   -5.271E+01   -5.264E+01
    -5.257E+01   -5.249E+01   -5.240E+01   -5.232E+01   -5.223E+01   -5.213E+01   -5.203E+01   -5.192E+01   -5.182E+01   -5.170E+01
    -5.159E+01   -5.147E+01   -5.134E+01   -5.122E+01   -5.109E+01   -5.095E+01   -5.082E+01   -5.067E+01   -5.053E+01   -5.038E+01
    -5.023E+01   -5.008E+01   -4.993E+01   -4.977E+01   -4.960E+01   -4.944E+01   -4.927E+01   -4.910E+01   -4.892E+01   -4.874E+01
    -4.856E+01   -4.838E+01   -4.819E+01   -4.800E+01   -4.781E+01   -4.761E+01   -4.741E+01   -4.721E+01   -4.700E+01   -4.679E+01
    -4.658E+01   -4.636E+01   -4.614E+01   -4.592E+01   -4.570E+01   -4.547E+01   -4.524E+01   -4.501E+01   -4.477E+01   -4.453E+01
    -4.429E+01   -4.404E+01   -4.379E+01   -4.354E+01   -4.329E+01   -4.303E+01   -4.277E+01   -4.250E+01   -4.224E+01   -4.197E+01
    -4.169E+01   -4.142E+01   -4.114E+01   -4.086E+01   -4.057E+01   -4.029E+01   -4.000E+01   -3.970E+01   -3.941E+01   -3.911E+01
    -3.881E+01   -3.851E+01   -3.820E+01   -3.789E+01   -3.758E+01   -3.727E+01   -3.695E+01   -3.664E+01   -3.632E+01   -3.600E+01
    -3.567E+01   -3.535E+01   -3.502E+01   -3.469E+01   -3.436E+01   -3.403E+01   -3.369E+01   -3.336E+01   -3.302E+01   -3.268E+01
    -3.234E+01   -3.199E+01   -3.165E+01   -3.131E+01   -3.096E+01   -3.061E+01   -3.026E+01   -2.991E+01   -2.956E+01   -2.921E+01
    -2.885E+01   -2.850E+01   -2.814E+01   -2.778E+01   -2.743E+01   -2.707E+01   -2.671E+01   -2.635E+01   -2.599E+01   -2.563E+01
    -2.526E+01   -2.490E+01   -2.454E+01   -2.418E+01   -2.381E+01   -2.345E+01   -2.309E+01   -2.272E+01   -2.236E+01   -2.200E+01
    -2.163E+01   -2.127E+01   -2.091E+01   -2.055E+01   -2.019E+01   -1.983E+01   -1.947E+01   -1.911E+01   -1.875E+01   -1.839E+01
    -1.803E+01   -1.768E+01   -1.732E+01   -1.697E+01   -1.662E+01   -1.626E+01   -1.591E+01   -1.557E+01   -1.522E+01   -1.487E+01
    -1.453E+01   -1.419E+01   -1.385E+01   -1.351E+01   -1.317E+01   -1.284E+01   -1.250E+01   -1.217E+01   -1.184E+01   -1.152E+01
    -1.119E+01   -1.087E+01   -1.055E+01   -1.024E+01   -9.923E+00   -9.610E+00   -9.301E+00   -8.993E+00   -8.688E+00   -8.385E+00
    -8.084E+00   -7.784E+00   -7.487E+00   -7.192E+00   -6.898E+00   -6.607E+00   -6.316E+00   -6.028E+00   -5.741E+00   -5.456E+00
    -5.172E+00   -4.890E+00   -4.609E+00   -4.329E+00   -4.050E+00   -3.773E+00   -3.497E+00   -3.222E+00   -2.948E+00   -2.675E+00
    -2.402E+00   -2.131E+00   -1.860E+00   -1.590E+00   -1.321E+00   -1.053E+00   -7.847E-01   -5.172E-01   -2.502E-01    1.642E-02
     2.827E-01    5.487E-01    8.145E-01    1.080E+00    1.345E+00    1.611E+00    1.876E+00    2.142E+00
 Ala      Conc. = 2.32E+02
