 LCModel (Version 6.3-1L) Copyright: S.W. Provencher.          Ref.: Magn. Reson. Med. 30:672-679 (1993).                
 Slice#3 Row#11 Col#12  PD_24_press_2_raw_act
 36 lines in following concentration table = NCONC+1
    Conc.  %SD /Cr+PCr  Metabolite                                         
 8.07E+03   9%   0.000 Ala                                                 
    0.000 999%   0.000 Asp                                                 
    0.000 999%   0.000 Cr                                                  
    0.000 999%   0.000 PCr                                                 
    0.000 999%   0.000 GABA                                                
 3.80E-03 999%   0.000 Glc                                                 
    0.000 999%   0.000 Gln                                                 
    0.000 999%   0.000 Glu                                                 
    0.000 999%   0.000 GPC                                                 
    0.000 999%   0.000 PCh                                                 
  220.652  40%   0.000 GSH                                                 
  153.733 139%   0.000 Ins                                                 
 4.64E+03  15%   0.000 Lac                                                 
    0.000 999%   0.000 NAA                                                 
    0.000 999%   0.000 NAAG                                                
 2.97E-03 999%   0.000 Scyllo                                              
    0.000 999%   0.000 Tau                                                 
    0.000 999%   0.000 -CrCH2                                              
    0.000 999%   0.000 GPC+PCh                                             
    0.000 999%   0.000 NAA+NAAG                                            
    0.000 999%   0.000 Cr+PCr                                              
    0.000 999%   0.000 Glu+Gln                                             
    0.000 999%   0.000 Lip13a                                              
    0.000 999%   0.000 Lip13b                                              
    0.000 999%   0.000 Lip09                                               
 2.80E+03   4%   0.000 MM09                                                
    0.000 999%   0.000 Lip20                                               
 4.19E+03   4%   0.000 MM20                                                
  838.570   4%   0.000 MM12                                                
 2.10E+03   4%   0.000 MM14                                                
 1.05E+03   4%   0.000 MM17                                                
    0.000 999%   0.000 Lip13a+Lip13b                                       
 2.94E+03   4%   0.000 MM14+Lip13a+Lip13b+MM12                             
 2.80E+03   4%   0.000 MM09+Lip09                                          
 4.19E+03   4%   0.000 MM20+Lip20                                          
   6 lines in following misc. output table
  FWHM = 0.168 ppm    S/N =   8                                            
  Data shift = 0.161 ppm                                                   
  Ph:  55 deg       0.6 deg/ppm                                            
  alphaB,S = 3.3E+00,   3.9E+02                                            
    7 spline knots.   Ns = 9(2)                                            
  (13) 2 infls.   ( 3) 1 extrs.                                            
  498 points on ppm-axis = NY
      4.000000     3.992357     3.984714     3.977070     3.969427     3.961784     3.954141     3.946497     3.938854     3.931211
      3.923568     3.915925     3.908281     3.900638     3.892995     3.885352     3.877708     3.870065     3.862422     3.854779
      3.847136     3.839492     3.831849     3.824206     3.816563     3.808919     3.801276     3.793633     3.785990     3.778347
      3.770703     3.763060     3.755417     3.747774     3.740130     3.732487     3.724844     3.717201     3.709558     3.701914
      3.694271     3.686628     3.678985     3.671341     3.663698     3.656055     3.648412     3.640769     3.633125     3.625482
      3.617839     3.610196     3.602552     3.594909     3.587266     3.579623     3.571980     3.564336     3.556693     3.549050
      3.541407     3.533763     3.526120     3.518477     3.510834     3.503191     3.495547     3.487904     3.480261     3.472618
      3.464974     3.457331     3.449688     3.442045     3.434402     3.426758     3.419115     3.411472     3.403829     3.396185
      3.388542     3.380899     3.373256     3.365613     3.357969     3.350326     3.342683     3.335040     3.327396     3.319753
      3.312110     3.304467     3.296824     3.289180     3.281537     3.273894     3.266251     3.258607     3.250964     3.243321
      3.235678     3.228034     3.220391     3.212748     3.205105     3.197462     3.189818     3.182175     3.174532     3.166889
      3.159245     3.151602     3.143959     3.136316     3.128673     3.121029     3.113386     3.105743     3.098100     3.090456
      3.082813     3.075170     3.067527     3.059884     3.052240     3.044597     3.036954     3.029311     3.021667     3.014024
      3.006381     2.998738     2.991095     2.983451     2.975808     2.968165     2.960522     2.952878     2.945235     2.937592
      2.929949     2.922306     2.914662     2.907019     2.899376     2.891733     2.884089     2.876446     2.868803     2.861160
      2.853517     2.845873     2.838230     2.830587     2.822944     2.815300     2.807657     2.800014     2.792371     2.784728
      2.777084     2.769441     2.761798     2.754155     2.746511     2.738868     2.731225     2.723582     2.715939     2.708295
      2.700652     2.693009     2.685366     2.677722     2.670079     2.662436     2.654793     2.647150     2.639506     2.631863
      2.624220     2.616577     2.608933     2.601290     2.593647     2.586004     2.578361     2.570717     2.563074     2.555431
      2.547788     2.540144     2.532501     2.524858     2.517215     2.509572     2.501928     2.494285     2.486642     2.478999
      2.471355     2.463712     2.456069     2.448426     2.440783     2.433139     2.425496     2.417853     2.410210     2.402566
      2.394923     2.387280     2.379637     2.371994     2.364350     2.356707     2.349064     2.341421     2.333777     2.326134
      2.318491     2.310848     2.303205     2.295561     2.287918     2.280275     2.272632     2.264988     2.257345     2.249702
      2.242059     2.234416     2.226772     2.219129     2.211486     2.203843     2.196199     2.188556     2.180913     2.173270
      2.165627     2.157983     2.150340     2.142697     2.135054     2.127410     2.119767     2.112124     2.104481     2.096838
      2.089194     2.081551     2.073908     2.066265     2.058621     2.050978     2.043335     2.035692     2.028049     2.020405
      2.012762     2.005119     1.997476     1.989833     1.982190     1.974546     1.966903     1.959260     1.951617     1.943974
      1.936331     1.928688     1.921045     1.913402     1.905759     1.898115     1.890472     1.882829     1.875186     1.867543
      1.859900     1.852257     1.844614     1.836971     1.829327     1.821684     1.814041     1.806398     1.798755     1.791112
      1.783469     1.775826     1.768183     1.760540     1.752896     1.745253     1.737610     1.729967     1.722324     1.714681
      1.707038     1.699395     1.691752     1.684108     1.676465     1.668822     1.661179     1.653536     1.645893     1.638250
      1.630607     1.622964     1.615321     1.607677     1.600034     1.592391     1.584748     1.577105     1.569462     1.561819
      1.554176     1.546533     1.538890     1.531246     1.523603     1.515960     1.508317     1.500674     1.493031     1.485388
      1.477745     1.470102     1.462458     1.454815     1.447172     1.439529     1.431886     1.424243     1.416600     1.408957
      1.401314     1.393671     1.386027     1.378384     1.370741     1.363098     1.355455     1.347812     1.340169     1.332526
      1.324883     1.317240     1.309596     1.301953     1.294310     1.286667     1.279024     1.271381     1.263738     1.256095
      1.248452     1.240808     1.233165     1.225522     1.217879     1.210236     1.202593     1.194950     1.187307     1.179664
      1.172021     1.164377     1.156734     1.149091     1.141448     1.133805     1.126162     1.118519     1.110876     1.103233
      1.095590     1.087946     1.080303     1.072660     1.065017     1.057374     1.049731     1.042088     1.034445     1.026802
      1.019158     1.011515     1.003872     0.996229     0.988586     0.980943     0.973300     0.965657     0.958014     0.950371
      0.942727     0.935084     0.927441     0.919798     0.912155     0.904512     0.896869     0.889226     0.881583     0.873940
      0.866296     0.858653     0.851010     0.843367     0.835724     0.828081     0.820438     0.812795     0.805152     0.797508
      0.789865     0.782222     0.774579     0.766936     0.759293     0.751650     0.744007     0.736364     0.728721     0.721077
      0.713434     0.705791     0.698148     0.690505     0.682862     0.675219     0.667576     0.659933     0.652290     0.644646
      0.637003     0.629360     0.621717     0.614074     0.606431     0.598788     0.591145     0.583502     0.575858     0.568215
      0.560572     0.552929     0.545286     0.537643     0.530000     0.522357     0.514714     0.507071     0.499427     0.491784
      0.484141     0.476498     0.468855     0.461212     0.453569     0.445925     0.438282     0.430639     0.422996     0.415353
      0.407710     0.400067     0.392424     0.384780     0.377137     0.369494     0.361851     0.354208     0.346565     0.338922
      0.331278     0.323635     0.315992     0.308349     0.300706     0.293063     0.285420     0.277777     0.270133     0.262490
      0.254847     0.247204     0.239561     0.231918     0.224275     0.216631     0.208988     0.201345
 NY phased data points follow
   1.08331E+00  8.90797E-01 -1.00999E+00  9.82346E-01  8.48776E-01  1.23972E+00  3.66160E-01 -2.10088E+00 -2.24348E-02  6.90840E-01
   2.58084E+00  4.57221E-01  7.02491E-01  2.75523E+00 -9.20982E-01  1.55562E+00  1.54316E-01  1.04619E-01  1.37426E+00  1.62907E+00
  -1.57643E+00  6.31548E-01  2.50823E-01  9.51141E-01 -4.40060E-01 -7.56036E-01  1.88707E+00  1.41692E+00 -3.80711E-01  1.43364E+00
   1.74248E-01  6.18989E-01 -4.34663E-01 -5.91992E-01 -9.91532E-01  4.73815E-01  2.51783E-01  5.10392E-01 -1.86891E+00  4.91874E-01
   2.09742E+00  1.59506E+00 -3.04134E+00  6.43285E-02 -1.53146E+00  1.64951E+00 -2.42180E-01 -9.42328E-01 -2.43998E+00  5.53696E-01
  -1.48941E+00 -1.53485E+00 -2.31639E+00 -1.43954E+00 -4.75771E-01 -2.31372E+00  5.04894E-01 -2.06591E-02  1.71864E+00 -1.55043E+00
   1.54319E-01 -2.85088E-01 -5.33585E-01 -5.19016E-01  3.67078E-01  1.94803E+00 -9.61478E-01 -2.49317E-02 -1.02762E+00  1.30959E+00
  -1.70525E+00  1.40700E+00  1.25174E+00  7.85059E-01 -2.72889E+00  2.44937E+00 -1.55443E-01  3.84292E-01  6.58682E-01  8.08690E-01
  -4.42062E-01  3.59762E-01  7.32374E-02 -2.97400E+00 -1.78813E+00 -2.63156E-01 -1.69122E+00 -9.66622E-03 -8.01045E-01 -9.45540E-01
  -2.82777E-01 -1.73530E+00 -3.87223E-01 -1.42382E+00 -1.56664E+00 -8.71759E-02 -2.36504E+00 -6.52959E-01  8.23284E-01 -6.09930E-01
  -2.21310E+00 -2.14257E+00  3.43001E-01 -9.47945E-02  1.20003E-01  3.08438E-01  2.50967E-01 -2.50987E+00 -3.42265E+00 -3.00696E+00
  -3.38018E+00 -1.90639E+00 -4.21620E+00  1.48128E+00 -8.81156E-01 -4.01550E+00 -2.16086E+00 -8.28838E-01 -7.70441E-01  1.26123E+00
  -7.43857E-01 -1.22232E+00 -1.84650E+00  9.27045E-01 -3.48631E+00  1.85297E-01 -2.36694E+00 -6.15395E-02  1.92784E-01 -2.69110E+00
  -2.23531E+00 -2.18853E+00 -1.50619E+00 -9.21766E-01 -1.96764E+00 -2.62456E+00 -1.79907E+00  1.59192E+00 -1.79721E+00 -4.23715E-01
  -3.07766E-01 -2.52245E+00 -2.24281E+00 -8.58148E-01 -2.07269E+00 -3.88016E-01  6.82906E-01 -1.69761E+00 -1.49432E+00 -1.58089E+00
  -1.86530E+00 -2.35050E+00 -1.09193E+00 -5.04295E+00 -2.66121E+00 -3.11327E+00 -3.54378E+00 -2.32432E+00 -1.99279E+00 -9.74556E-01
  -5.69751E+00 -3.02937E+00 -1.97413E+00 -1.75127E+00 -2.72940E+00 -1.37470E+00 -1.38481E+00 -6.34161E-01  3.85828E-02 -5.36219E-01
  -1.83846E+00 -3.58821E+00 -3.35954E+00 -2.35842E+00 -2.11657E+00 -2.93259E+00 -4.36872E+00 -1.19377E+00 -4.65217E+00 -2.33047E+00
  -2.61152E+00 -1.10172E+00 -3.90693E+00 -1.11058E+00 -3.54323E+00 -2.37434E+00 -5.26924E+00 -3.77349E-01 -4.63937E+00 -1.61283E+00
  -7.70629E-01 -8.10538E-01 -1.11038E+00 -7.61385E-01 -9.79053E-01 -2.33990E+00 -2.60431E+00 -1.91176E+00 -2.56818E+00  7.88385E-01
   1.22848E+00  1.33399E-01 -1.19432E+00 -7.40961E-02 -1.58683E+00 -2.43965E+00  3.42901E-01 -3.38013E+00 -1.44320E+00 -6.05366E-01
  -1.66750E+00 -2.29362E+00 -1.84202E+00  2.92013E-01 -1.38173E-01 -8.27375E-01 -1.09398E-01 -3.80668E+00 -1.21442E+00 -1.85141E+00
   3.37983E-01 -1.15450E+00 -3.01280E+00 -1.06957E+00 -1.24682E-01 -1.26514E+00 -8.63699E-01 -2.44285E+00 -2.48123E+00 -4.46875E+00
   5.52210E-01  7.53995E-02  1.20691E-03 -2.47146E-01  6.16903E-01  1.32110E+00  3.03619E+00  5.86426E-01 -1.90012E+00 -1.41958E+00
  -4.46952E+00 -4.93179E+00 -3.35506E+00 -4.22427E+00 -2.02037E+00 -8.78372E-01 -9.32900E-01 -4.21600E-01 -6.66793E-01 -2.13394E+00
  -4.82081E+00 -3.21660E+00 -3.94558E+00 -3.23527E+00 -4.25679E+00 -3.81505E+00 -6.64524E+00 -3.78354E+00 -6.64127E+00 -5.27139E+00
  -5.84385E+00 -5.52083E+00 -5.21642E+00 -1.32991E+00 -3.81409E+00 -2.36329E+00 -3.47765E+00 -3.21952E-01 -2.31836E+00 -1.00874E+00
  -5.60679E-01  6.33446E-01 -5.35768E-01 -1.12400E+00 -4.66703E-01 -2.80742E+00 -4.29400E+00 -2.99016E+00 -1.52920E+00 -2.20681E+00
  -3.11818E+00 -6.48706E+00 -4.45435E+00 -5.84223E+00 -5.90083E+00 -5.42645E+00 -6.75741E+00 -7.33913E+00 -6.00390E+00 -5.09873E+00
  -7.44159E+00 -5.96244E+00 -6.70036E+00 -7.46393E+00 -5.78116E+00 -6.24132E+00 -5.34084E+00 -5.02638E+00 -4.68588E+00 -3.52906E+00
  -5.72708E+00 -2.89455E+00 -2.22298E+00 -1.04090E-01  4.16485E+00  3.55716E+00  5.71347E+00  7.03872E+00  1.04526E+01  1.31645E+01
   1.60190E+01  1.64784E+01  1.90186E+01  2.13189E+01  2.44496E+01  2.60619E+01  2.64315E+01  2.91712E+01  3.02731E+01  3.02683E+01
   3.11824E+01  3.30865E+01  3.29023E+01  3.27960E+01  3.33064E+01  3.03352E+01  3.00153E+01  3.08336E+01  3.06043E+01  2.83461E+01
   2.72457E+01  2.94396E+01  2.65345E+01  2.67182E+01  2.54146E+01  2.46374E+01  2.32428E+01  2.40726E+01  2.17047E+01  2.22352E+01
   1.98667E+01  1.98348E+01  1.97071E+01  2.04750E+01  1.95457E+01  1.92178E+01  1.72823E+01  1.70225E+01  1.60613E+01  1.62251E+01
   1.59733E+01  1.51728E+01  1.33803E+01  1.50011E+01  1.49577E+01  1.35457E+01  1.28285E+01  1.31890E+01  1.12164E+01  1.14769E+01
   1.33933E+01  1.14145E+01  1.00139E+01  1.05614E+01  1.08080E+01  9.97562E+00  8.86199E+00  9.96087E+00  1.12605E+01  7.39003E+00
   1.08583E+01  1.02908E+01  9.59360E+00  1.03072E+01  8.46440E+00  7.06295E+00  7.93857E+00  9.77380E+00  7.98971E+00  8.55051E+00
   8.42003E+00  6.95999E+00  7.68663E+00  7.47760E+00  6.92038E+00  9.08991E+00  6.03635E+00  5.00551E+00  6.56516E+00  7.16152E+00
   6.25842E+00  7.48179E+00  7.30832E+00  5.57214E+00  7.17284E+00  5.91505E+00  6.31478E+00  7.15162E+00  4.90841E+00  7.03690E+00
   4.73069E+00  6.24539E+00  3.17431E+00  6.23043E+00  4.94730E+00  4.04367E+00  3.87320E+00  3.56451E+00  3.29751E+00  3.19898E+00
   5.02939E+00  4.90942E+00  4.16560E+00  4.19558E+00  1.79050E+00  4.42603E+00  4.48647E+00  5.78430E+00  3.91385E+00  2.75586E+00
   5.28777E+00  5.75186E+00  5.16385E+00  4.30017E+00  4.13099E+00  4.30758E+00  7.21964E+00  2.83932E+00  5.65331E+00  2.50563E+00
   4.14615E+00  3.07342E+00  5.16890E+00  4.19219E+00  4.61577E+00  2.49019E+00  1.50718E+00  2.37823E+00  4.14248E+00  3.20626E+00
   3.61562E+00  4.12255E+00  5.76881E+00  6.29952E-01  2.48777E+00  2.84489E+00  2.42922E+00  4.68780E+00  1.21469E+00  2.94904E+00
   3.79149E+00  2.19437E+00  2.40837E+00  3.22886E+00  1.61946E+00  4.20672E+00  5.21916E+00  3.03646E+00  2.99986E+00  3.49238E+00
   3.63763E+00  3.22915E+00  3.28501E+00  2.49895E+00  2.85117E+00  1.74058E+00  3.92058E+00  4.31328E+00  2.44283E+00  1.21315E+00
   2.60119E+00  3.34562E+00  2.73656E+00  2.43057E+00 -2.89217E-01  3.99406E+00  1.39598E+00  2.28478E+00  3.16128E+00  2.62207E+00
   1.80376E+00  1.27867E+00  2.88945E+00 -1.79846E-01  2.95932E+00  4.52244E+00  2.29514E+00  3.75294E+00  4.43016E+00  2.53593E+00
   7.49436E-01  2.91574E+00  1.37996E+00  1.14381E+00  9.35667E-01  2.52114E+00  2.06721E+00  3.64113E-02
 NY points of the fit to the data follow
  -1.04046E-01  7.18533E-01 -3.03984E-01  4.35068E-01 -2.17986E-01  6.56803E-01  2.28028E-01  1.20558E+00  6.37534E-01  1.35875E+00
   5.98962E-01  1.03022E+00  1.95990E-01  7.05235E-01 -3.11722E-01  5.17385E-01 -3.54428E-01  6.58769E-01 -1.21703E-01  9.19203E-01
   1.10631E-01  1.19383E+00  2.49367E-01  1.15461E+00  2.00724E-01  9.46266E-01  9.41635E-02  6.92361E-01  2.87790E-02  5.58414E-01
   1.83451E-01  5.94938E-01  4.33105E-01  6.39663E-01  6.25235E-01  5.90913E-01  6.84701E-01  4.19961E-01  6.11069E-01  1.40169E-01
   3.38394E-01 -1.63407E-01  1.08337E-01 -4.12205E-01 -3.67708E-02 -4.79791E-01  9.86757E-02 -1.41889E-01  2.11408E-01 -1.13527E-01
   1.11289E-01 -2.66112E-01 -1.14745E-01 -5.68012E-01 -6.05681E-01 -7.76235E-01 -6.68458E-01 -7.19565E-01 -5.71449E-01 -5.42185E-01
  -3.71281E-01 -3.12247E-01 -2.77323E-01 -3.01552E-01 -2.93628E-01 -3.32439E-01 -3.31494E-01 -3.74824E-01 -3.73687E-01 -4.10521E-01
  -4.03040E-01 -4.44728E-01 -4.43958E-01 -4.91811E-01 -4.95800E-01 -5.45922E-01 -5.51342E-01 -6.02485E-01 -6.06152E-01 -6.58361E-01
  -6.63621E-01 -7.12187E-01 -7.14397E-01 -7.58971E-01 -7.58842E-01 -8.02394E-01 -8.01491E-01 -8.42141E-01 -8.38414E-01 -8.72805E-01
  -8.65173E-01 -8.91854E-01 -8.81309E-01 -9.00129E-01 -8.84628E-01 -8.97225E-01 -8.79179E-01 -8.86043E-01 -8.65446E-01 -8.65772E-01
  -8.41958E-01 -8.35633E-01 -8.11539E-01 -8.00946E-01 -7.76750E-01 -7.61827E-01 -7.36673E-01 -7.14532E-01 -6.90789E-01 -6.68115E-01
  -6.48228E-01 -6.25327E-01 -6.06560E-01 -5.80396E-01 -5.58885E-01 -5.18231E-01 -4.79047E-01 -4.46461E-01 -4.17684E-01 -4.02546E-01
  -3.91754E-01 -3.91667E-01 -3.77032E-01 -3.91115E-01 -3.58086E-01 -3.96486E-01 -3.53767E-01 -4.21350E-01 -3.67697E-01 -4.65159E-01
  -3.98256E-01 -5.26982E-01 -4.53700E-01 -6.14818E-01 -5.39400E-01 -7.28164E-01 -6.51126E-01 -8.59844E-01 -7.79101E-01 -9.97642E-01
  -9.19764E-01 -1.14405E+00 -1.08308E+00 -1.30994E+00 -1.27240E+00 -1.49340E+00 -1.47829E+00 -1.68354E+00 -1.68843E+00 -1.87606E+00
  -1.89989E+00 -2.07173E+00 -2.11809E+00 -2.26947E+00 -2.32943E+00 -2.44614E+00 -2.49853E+00 -2.60323E+00 -2.67521E+00 -2.77391E+00
  -2.86610E+00 -2.95422E+00 -3.04484E+00 -3.11851E+00 -3.19279E+00 -3.25962E+00 -3.32644E+00 -3.39537E+00 -3.46170E+00 -3.53045E+00
  -3.59514E+00 -3.65866E+00 -3.71139E+00 -3.76011E+00 -3.79728E+00 -3.83431E+00 -3.86802E+00 -3.89959E+00 -3.93325E+00 -3.96443E+00
  -4.01258E+00 -4.02883E+00 -4.07307E+00 -4.07199E+00 -4.11390E+00 -4.09753E+00 -4.13795E+00 -4.10539E+00 -4.14251E+00 -4.09703E+00
  -4.13096E+00 -4.07545E+00 -4.10650E+00 -4.04438E+00 -4.07059E+00 -3.99885E+00 -4.01180E+00 -3.93338E+00 -3.92976E+00 -3.84586E+00
  -3.82501E+00 -3.74036E+00 -3.70654E+00 -3.62352E+00 -3.57748E+00 -3.49531E+00 -3.43373E+00 -3.35463E+00 -3.28340E+00 -3.20553E+00
  -3.12679E+00 -3.04924E+00 -2.95663E+00 -2.87694E+00 -2.78238E+00 -2.69460E+00 -2.59427E+00 -2.49810E+00 -2.39191E+00 -2.28660E+00
  -2.17806E+00 -2.06634E+00 -1.95559E+00 -1.84303E+00 -1.73214E+00 -1.62027E+00 -1.51084E+00 -1.39893E+00 -1.27718E+00 -1.16423E+00
  -1.03250E+00 -9.21664E-01 -7.81381E-01 -6.76001E-01 -5.31374E-01 -4.41077E-01 -3.03237E-01 -2.33491E-01 -1.06584E-01 -5.61886E-02
   5.68616E-02  9.10048E-02  1.91467E-01  2.10303E-01  2.93503E-01  2.92745E-01  3.49920E-01  3.25284E-01  3.48766E-01  3.01466E-01
   2.93716E-01  2.26786E-01  1.90352E-01  9.84452E-02  2.35237E-02 -8.78347E-02 -1.89768E-01 -3.13398E-01 -4.33609E-01 -5.57033E-01
  -6.81085E-01 -8.19500E-01 -9.64362E-01 -1.11710E+00 -1.27663E+00 -1.43857E+00 -1.60932E+00 -1.77051E+00 -1.93100E+00 -2.08515E+00
  -2.23753E+00 -2.38441E+00 -2.52709E+00 -2.66524E+00 -2.79931E+00 -2.92850E+00 -3.05176E+00 -3.16776E+00 -3.27652E+00 -3.37691E+00
  -3.46909E+00 -3.55188E+00 -3.62550E+00 -3.68877E+00 -3.74179E+00 -3.78337E+00 -3.81339E+00 -3.83048E+00 -3.83414E+00 -3.82271E+00
  -3.79507E+00 -3.74889E+00 -3.68198E+00 -3.59081E+00 -3.47162E+00 -3.31906E+00 -3.12691E+00 -2.88691E+00 -2.58927E+00 -2.22159E+00
  -1.76906E+00 -1.21330E+00 -5.31925E-01  3.03093E-01  1.32783E+00  2.59193E+00  4.17146E+00  6.20564E+00  8.98731E+00  1.24793E+01
   1.48662E+01  1.81521E+01  1.98523E+01  2.27675E+01  2.35799E+01  2.57579E+01  2.52369E+01  2.79837E+01  2.75056E+01  3.01898E+01
   2.93276E+01  3.15056E+01  3.01469E+01  3.18028E+01  2.99593E+01  3.08087E+01  2.87737E+01  2.89838E+01  2.74855E+01  2.79694E+01
   2.66398E+01  2.66504E+01  2.58983E+01  2.54800E+01  2.51134E+01  2.39258E+01  2.35485E+01  2.27140E+01  2.25802E+01  2.17220E+01
   2.15577E+01  2.08107E+01  2.05970E+01  2.01868E+01  1.95494E+01  1.89882E+01  1.81185E+01  1.77201E+01  1.73094E+01  1.78378E+01
   1.66816E+01  1.71537E+01  1.58051E+01  1.61495E+01  1.44057E+01  1.41376E+01  1.18697E+01  1.23455E+01  1.10408E+01  1.16222E+01
   1.07393E+01  1.13067E+01  1.07293E+01  1.12209E+01  1.07234E+01  1.08337E+01  1.04817E+01  1.04125E+01  1.05530E+01  1.10383E+01
   1.08370E+01  1.07628E+01  1.03948E+01  9.77657E+00  9.19412E+00  7.92024E+00  7.17434E+00  6.72281E+00  6.41862E+00  6.20709E+00
   6.06182E+00  5.96787E+00  5.91569E+00  5.89871E+00  5.91178E+00  5.95051E+00  6.01081E+00  6.08874E+00  6.18051E+00  6.28241E+00
   6.39074E+00  6.50181E+00  6.61195E+00  6.71765E+00  6.81563E+00  6.90294E+00  6.97686E+00  7.03498E+00  7.07526E+00  7.09609E+00
   7.09634E+00  7.07530E+00  7.03270E+00  6.96861E+00  6.88352E+00  6.77831E+00  6.65420E+00  6.51270E+00  6.35549E+00  6.18441E+00
   6.00146E+00  5.80870E+00  5.60827E+00  5.40223E+00  5.19258E+00  4.98118E+00  4.76985E+00  4.56021E+00  4.35380E+00  4.15190E+00
   3.95562E+00  3.76590E+00  3.58357E+00  3.40926E+00  3.24347E+00  3.08653E+00  2.93864E+00  2.79991E+00  2.67038E+00  2.55000E+00
   2.43862E+00  2.33606E+00  2.24205E+00  2.15633E+00  2.07863E+00  2.00864E+00  1.94604E+00  1.89046E+00  1.84157E+00  1.79906E+00
   1.76261E+00  1.73191E+00  1.70663E+00  1.68647E+00  1.67114E+00  1.66039E+00  1.65396E+00  1.65160E+00  1.65305E+00  1.65809E+00
   1.66652E+00  1.67815E+00  1.69279E+00  1.71026E+00  1.73036E+00  1.75296E+00  1.77790E+00  1.80507E+00  1.83431E+00  1.86550E+00
   1.89850E+00  1.93321E+00  1.96955E+00  2.00741E+00  2.04669E+00  2.08730E+00  2.12913E+00  2.17214E+00  2.21625E+00  2.26139E+00
   2.30748E+00  2.35445E+00  2.40224E+00  2.45081E+00  2.50011E+00  2.55007E+00  2.60065E+00  2.65178E+00  2.70344E+00  2.75559E+00
   2.80819E+00  2.86120E+00  2.91457E+00  2.96827E+00  3.02229E+00  3.07658E+00  3.13114E+00  3.18591E+00  3.24088E+00  3.29604E+00
   3.35137E+00  3.40687E+00  3.46253E+00  3.51834E+00  3.57432E+00  3.63049E+00  3.68690E+00  3.74364E+00
 NY background values follow
    -3.361E-01   -3.577E-01   -3.791E-01   -4.001E-01   -4.209E-01   -4.415E-01   -4.618E-01   -4.818E-01   -5.017E-01   -5.213E-01
    -5.406E-01   -5.598E-01   -5.788E-01   -5.975E-01   -6.161E-01   -6.345E-01   -6.527E-01   -6.707E-01   -6.886E-01   -7.063E-01
    -7.238E-01   -7.412E-01   -7.585E-01   -7.756E-01   -7.927E-01   -8.096E-01   -8.264E-01   -8.431E-01   -8.597E-01   -8.762E-01
    -8.926E-01   -9.090E-01   -9.253E-01   -9.416E-01   -9.577E-01   -9.739E-01   -9.900E-01   -1.006E+00   -1.022E+00   -1.038E+00
    -1.054E+00   -1.070E+00   -1.086E+00   -1.102E+00   -1.118E+00   -1.134E+00   -1.151E+00   -1.167E+00   -1.183E+00   -1.199E+00
    -1.215E+00   -1.232E+00   -1.248E+00   -1.265E+00   -1.281E+00   -1.298E+00   -1.315E+00   -1.332E+00   -1.349E+00   -1.366E+00
    -1.383E+00   -1.401E+00   -1.418E+00   -1.436E+00   -1.454E+00   -1.472E+00   -1.490E+00   -1.509E+00   -1.527E+00   -1.546E+00
    -1.565E+00   -1.584E+00   -1.604E+00   -1.623E+00   -1.643E+00   -1.663E+00   -1.684E+00   -1.704E+00   -1.725E+00   -1.746E+00
    -1.768E+00   -1.789E+00   -1.811E+00   -1.834E+00   -1.856E+00   -1.879E+00   -1.902E+00   -1.926E+00   -1.950E+00   -1.974E+00
    -1.998E+00   -2.023E+00   -2.048E+00   -2.074E+00   -2.100E+00   -2.126E+00   -2.153E+00   -2.180E+00   -2.207E+00   -2.235E+00
    -2.264E+00   -2.292E+00   -2.321E+00   -2.351E+00   -2.381E+00   -2.411E+00   -2.442E+00   -2.474E+00   -2.506E+00   -2.538E+00
    -2.571E+00   -2.604E+00   -2.638E+00   -2.672E+00   -2.707E+00   -2.742E+00   -2.778E+00   -2.814E+00   -2.851E+00   -2.889E+00
    -2.927E+00   -2.965E+00   -3.005E+00   -3.044E+00   -3.085E+00   -3.125E+00   -3.167E+00   -3.209E+00   -3.252E+00   -3.295E+00
    -3.338E+00   -3.383E+00   -3.427E+00   -3.472E+00   -3.518E+00   -3.564E+00   -3.611E+00   -3.658E+00   -3.706E+00   -3.754E+00
    -3.802E+00   -3.851E+00   -3.900E+00   -3.950E+00   -3.999E+00   -4.050E+00   -4.100E+00   -4.151E+00   -4.203E+00   -4.254E+00
    -4.306E+00   -4.359E+00   -4.411E+00   -4.464E+00   -4.517E+00   -4.570E+00   -4.624E+00   -4.678E+00   -4.732E+00   -4.786E+00
    -4.840E+00   -4.895E+00   -4.949E+00   -5.004E+00   -5.059E+00   -5.114E+00   -5.170E+00   -5.225E+00   -5.281E+00   -5.336E+00
    -5.392E+00   -5.448E+00   -5.503E+00   -5.559E+00   -5.615E+00   -5.671E+00   -5.727E+00   -5.782E+00   -5.838E+00   -5.894E+00
    -5.950E+00   -6.006E+00   -6.061E+00   -6.117E+00   -6.172E+00   -6.228E+00   -6.283E+00   -6.338E+00   -6.393E+00   -6.448E+00
    -6.503E+00   -6.557E+00   -6.612E+00   -6.666E+00   -6.720E+00   -6.774E+00   -6.827E+00   -6.881E+00   -6.934E+00   -6.987E+00
    -7.039E+00   -7.091E+00   -7.143E+00   -7.195E+00   -7.246E+00   -7.297E+00   -7.348E+00   -7.398E+00   -7.448E+00   -7.498E+00
    -7.547E+00   -7.596E+00   -7.645E+00   -7.693E+00   -7.740E+00   -7.787E+00   -7.834E+00   -7.880E+00   -7.926E+00   -7.971E+00
    -8.016E+00   -8.060E+00   -8.104E+00   -8.147E+00   -8.190E+00   -8.232E+00   -8.273E+00   -8.314E+00   -8.355E+00   -8.394E+00
    -8.433E+00   -8.472E+00   -8.510E+00   -8.547E+00   -8.584E+00   -8.619E+00   -8.655E+00   -8.689E+00   -8.723E+00   -8.756E+00
    -8.788E+00   -8.820E+00   -8.851E+00   -8.881E+00   -8.910E+00   -8.939E+00   -8.966E+00   -8.993E+00   -9.019E+00   -9.045E+00
    -9.069E+00   -9.093E+00   -9.116E+00   -9.137E+00   -9.159E+00   -9.179E+00   -9.198E+00   -9.217E+00   -9.235E+00   -9.252E+00
    -9.268E+00   -9.283E+00   -9.298E+00   -9.312E+00   -9.325E+00   -9.337E+00   -9.348E+00   -9.359E+00   -9.368E+00   -9.377E+00
    -9.385E+00   -9.393E+00   -9.399E+00   -9.405E+00   -9.410E+00   -9.414E+00   -9.418E+00   -9.420E+00   -9.422E+00   -9.423E+00
    -9.424E+00   -9.423E+00   -9.422E+00   -9.420E+00   -9.417E+00   -9.414E+00   -9.410E+00   -9.405E+00   -9.399E+00   -9.392E+00
    -9.385E+00   -9.377E+00   -9.368E+00   -9.359E+00   -9.349E+00   -9.338E+00   -9.326E+00   -9.314E+00   -9.300E+00   -9.287E+00
    -9.272E+00   -9.257E+00   -9.241E+00   -9.224E+00   -9.206E+00   -9.188E+00   -9.169E+00   -9.149E+00   -9.129E+00   -9.108E+00
    -9.086E+00   -9.064E+00   -9.041E+00   -9.017E+00   -8.992E+00   -8.967E+00   -8.941E+00   -8.914E+00   -8.887E+00   -8.859E+00
    -8.830E+00   -8.801E+00   -8.771E+00   -8.740E+00   -8.709E+00   -8.677E+00   -8.644E+00   -8.610E+00   -8.576E+00   -8.542E+00
    -8.506E+00   -8.470E+00   -8.433E+00   -8.396E+00   -8.358E+00   -8.319E+00   -8.280E+00   -8.240E+00   -8.199E+00   -8.158E+00
    -8.116E+00   -8.074E+00   -8.031E+00   -7.987E+00   -7.942E+00   -7.897E+00   -7.852E+00   -7.805E+00   -7.758E+00   -7.711E+00
    -7.663E+00   -7.614E+00   -7.564E+00   -7.514E+00   -7.464E+00   -7.413E+00   -7.361E+00   -7.308E+00   -7.255E+00   -7.202E+00
    -7.148E+00   -7.093E+00   -7.037E+00   -6.981E+00   -6.925E+00   -6.868E+00   -6.810E+00   -6.752E+00   -6.693E+00   -6.633E+00
    -6.573E+00   -6.513E+00   -6.451E+00   -6.390E+00   -6.327E+00   -6.265E+00   -6.201E+00   -6.137E+00   -6.073E+00   -6.008E+00
    -5.942E+00   -5.876E+00   -5.810E+00   -5.743E+00   -5.675E+00   -5.607E+00   -5.539E+00   -5.470E+00   -5.401E+00   -5.331E+00
    -5.261E+00   -5.190E+00   -5.119E+00   -5.048E+00   -4.976E+00   -4.904E+00   -4.831E+00   -4.759E+00   -4.685E+00   -4.612E+00
    -4.538E+00   -4.463E+00   -4.389E+00   -4.314E+00   -4.238E+00   -4.163E+00   -4.087E+00   -4.011E+00   -3.934E+00   -3.857E+00
    -3.781E+00   -3.703E+00   -3.626E+00   -3.548E+00   -3.470E+00   -3.392E+00   -3.314E+00   -3.235E+00   -3.156E+00   -3.077E+00
    -2.998E+00   -2.919E+00   -2.839E+00   -2.760E+00   -2.680E+00   -2.600E+00   -2.520E+00   -2.440E+00   -2.359E+00   -2.279E+00
    -2.199E+00   -2.118E+00   -2.037E+00   -1.957E+00   -1.876E+00   -1.795E+00   -1.714E+00   -1.633E+00   -1.552E+00   -1.471E+00
    -1.391E+00   -1.310E+00   -1.229E+00   -1.148E+00   -1.067E+00   -9.858E-01   -9.049E-01   -8.241E-01   -7.434E-01   -6.627E-01
    -5.821E-01   -5.015E-01   -4.211E-01   -3.407E-01   -2.605E-01   -1.803E-01   -1.003E-01   -2.041E-02    5.933E-02    1.389E-01
     2.184E-01    2.977E-01    3.768E-01    4.557E-01    5.344E-01    6.130E-01    6.913E-01    7.694E-01    8.473E-01    9.250E-01
     1.002E+00    1.080E+00    1.157E+00    1.233E+00    1.310E+00    1.386E+00    1.462E+00    1.537E+00    1.612E+00    1.687E+00
     1.762E+00    1.836E+00    1.910E+00    1.984E+00    2.057E+00    2.130E+00    2.202E+00    2.274E+00    2.346E+00    2.417E+00
     2.488E+00    2.559E+00    2.629E+00    2.698E+00    2.768E+00    2.836E+00    2.905E+00    2.972E+00
 Ala      Conc. = 8.07E+03
