 LCModel (Version 6.3-1L) Copyright: S.W. Provencher.          Ref.: Magn. Reson. Med. 30:672-679 (1993).                
 Slice#1 Row#11 Col#5  PD_24_press_2_raw_act
 36 lines in following concentration table = NCONC+1
    Conc.  %SD /Cr+PCr  Metabolite                                         
    0.000 999%   0.000 Ala                                                 
   18.352 322% 8.1E-02 Asp                                                 
  227.234  15%   1.000 Cr                                                  
    0.000 999%   0.000 PCr                                                 
   24.047 150%   0.106 GABA                                                
   27.790 130%   0.122 Glc                                                 
  220.562  72%   0.971 Gln                                                 
  456.625  39%   2.009 Glu                                                 
   70.956  19%   0.312 GPC                                                 
    0.000 999%   0.000 PCh                                                 
  135.258  36%   0.595 GSH                                                 
  633.341  29%   2.787 Ins                                                 
    0.000 999%   0.000 Lac                                                 
  483.672  12%   2.129 NAA                                                 
   46.896 135%   0.206 NAAG                                                
   22.744  47%   0.100 Scyllo                                              
   47.976 123%   0.211 Tau                                                 
   80.982  69%   0.356 -CrCH2                                              
   70.956  19%   0.312 GPC+PCh                                             
  530.569  10%   2.335 NAA+NAAG                                            
  227.234  15%   1.000 Cr+PCr                                              
  677.187  38%   2.980 Glu+Gln                                             
  888.045  40%   3.908 Lip13a                                              
  176.624  59%   0.777 Lip13b                                              
    0.000 999%   0.000 Lip09                                               
  700.278  21%   3.082 MM09                                                
  267.606  46%   1.178 Lip20                                               
 1.59E+03  16%   6.996 MM20                                                
  258.454  38%   1.137 MM12                                                
  973.009  18%   4.282 MM14                                                
    0.000 999%   0.000 MM17                                                
 1.06E+03  28%   4.685 Lip13a+Lip13b                                       
 2.30E+03  15%  10.105 MM14+Lip13a+Lip13b+MM12                             
  700.278  21%   3.082 MM09+Lip09                                          
 1.86E+03  14%   8.173 MM20+Lip20                                          
   6 lines in following misc. output table
  FWHM = 0.061 ppm    S/N =   5                                            
  Data shift = 0.023 ppm                                                   
  Ph: -28 deg      -0.8 deg/ppm                                            
  alphaB,S = 5.2E-01,   8.1E+01                                            
   14 spline knots.   Ns = 7(1)                                            
  ( 9) 2 infls.   ( 7) 1 extrs.                                            
  498 points on ppm-axis = NY
      4.000000     3.992357     3.984714     3.977070     3.969427     3.961784     3.954141     3.946497     3.938854     3.931211
      3.923568     3.915925     3.908281     3.900638     3.892995     3.885352     3.877708     3.870065     3.862422     3.854779
      3.847136     3.839492     3.831849     3.824206     3.816563     3.808919     3.801276     3.793633     3.785990     3.778347
      3.770703     3.763060     3.755417     3.747774     3.740130     3.732487     3.724844     3.717201     3.709558     3.701914
      3.694271     3.686628     3.678985     3.671341     3.663698     3.656055     3.648412     3.640769     3.633125     3.625482
      3.617839     3.610196     3.602552     3.594909     3.587266     3.579623     3.571980     3.564336     3.556693     3.549050
      3.541407     3.533763     3.526120     3.518477     3.510834     3.503191     3.495547     3.487904     3.480261     3.472618
      3.464974     3.457331     3.449688     3.442045     3.434402     3.426758     3.419115     3.411472     3.403829     3.396185
      3.388542     3.380899     3.373256     3.365613     3.357969     3.350326     3.342683     3.335040     3.327396     3.319753
      3.312110     3.304467     3.296824     3.289180     3.281537     3.273894     3.266251     3.258607     3.250964     3.243321
      3.235678     3.228034     3.220391     3.212748     3.205105     3.197462     3.189818     3.182175     3.174532     3.166889
      3.159245     3.151602     3.143959     3.136316     3.128673     3.121029     3.113386     3.105743     3.098100     3.090456
      3.082813     3.075170     3.067527     3.059884     3.052240     3.044597     3.036954     3.029311     3.021667     3.014024
      3.006381     2.998738     2.991095     2.983451     2.975808     2.968165     2.960522     2.952878     2.945235     2.937592
      2.929949     2.922306     2.914662     2.907019     2.899376     2.891733     2.884089     2.876446     2.868803     2.861160
      2.853517     2.845873     2.838230     2.830587     2.822944     2.815300     2.807657     2.800014     2.792371     2.784728
      2.777084     2.769441     2.761798     2.754155     2.746511     2.738868     2.731225     2.723582     2.715939     2.708295
      2.700652     2.693009     2.685366     2.677722     2.670079     2.662436     2.654793     2.647150     2.639506     2.631863
      2.624220     2.616577     2.608933     2.601290     2.593647     2.586004     2.578361     2.570717     2.563074     2.555431
      2.547788     2.540144     2.532501     2.524858     2.517215     2.509572     2.501928     2.494285     2.486642     2.478999
      2.471355     2.463712     2.456069     2.448426     2.440783     2.433139     2.425496     2.417853     2.410210     2.402566
      2.394923     2.387280     2.379637     2.371994     2.364350     2.356707     2.349064     2.341421     2.333777     2.326134
      2.318491     2.310848     2.303205     2.295561     2.287918     2.280275     2.272632     2.264988     2.257345     2.249702
      2.242059     2.234416     2.226772     2.219129     2.211486     2.203843     2.196199     2.188556     2.180913     2.173270
      2.165627     2.157983     2.150340     2.142697     2.135054     2.127410     2.119767     2.112124     2.104481     2.096838
      2.089194     2.081551     2.073908     2.066265     2.058621     2.050978     2.043335     2.035692     2.028049     2.020405
      2.012762     2.005119     1.997476     1.989833     1.982190     1.974546     1.966903     1.959260     1.951617     1.943974
      1.936331     1.928688     1.921045     1.913402     1.905759     1.898115     1.890472     1.882829     1.875186     1.867543
      1.859900     1.852257     1.844614     1.836971     1.829327     1.821684     1.814041     1.806398     1.798755     1.791112
      1.783469     1.775826     1.768183     1.760540     1.752896     1.745253     1.737610     1.729967     1.722324     1.714681
      1.707038     1.699395     1.691752     1.684108     1.676465     1.668822     1.661179     1.653536     1.645893     1.638250
      1.630607     1.622964     1.615321     1.607677     1.600034     1.592391     1.584748     1.577105     1.569462     1.561819
      1.554176     1.546533     1.538890     1.531246     1.523603     1.515960     1.508317     1.500674     1.493031     1.485388
      1.477745     1.470102     1.462458     1.454815     1.447172     1.439529     1.431886     1.424243     1.416600     1.408957
      1.401314     1.393671     1.386027     1.378384     1.370741     1.363098     1.355455     1.347812     1.340169     1.332526
      1.324883     1.317240     1.309596     1.301953     1.294310     1.286667     1.279024     1.271381     1.263738     1.256095
      1.248452     1.240808     1.233165     1.225522     1.217879     1.210236     1.202593     1.194950     1.187307     1.179664
      1.172021     1.164377     1.156734     1.149091     1.141448     1.133805     1.126162     1.118519     1.110876     1.103233
      1.095590     1.087946     1.080303     1.072660     1.065017     1.057374     1.049731     1.042088     1.034445     1.026802
      1.019158     1.011515     1.003872     0.996229     0.988586     0.980943     0.973300     0.965657     0.958014     0.950371
      0.942727     0.935084     0.927441     0.919798     0.912155     0.904512     0.896869     0.889226     0.881583     0.873940
      0.866296     0.858653     0.851010     0.843367     0.835724     0.828081     0.820438     0.812795     0.805152     0.797508
      0.789865     0.782222     0.774579     0.766936     0.759293     0.751650     0.744007     0.736364     0.728721     0.721077
      0.713434     0.705791     0.698148     0.690505     0.682862     0.675219     0.667576     0.659933     0.652290     0.644646
      0.637003     0.629360     0.621717     0.614074     0.606431     0.598788     0.591145     0.583502     0.575858     0.568215
      0.560572     0.552929     0.545286     0.537643     0.530000     0.522357     0.514714     0.507071     0.499427     0.491784
      0.484141     0.476498     0.468855     0.461212     0.453569     0.445925     0.438282     0.430639     0.422996     0.415353
      0.407710     0.400067     0.392424     0.384780     0.377137     0.369494     0.361851     0.354208     0.346565     0.338922
      0.331278     0.323635     0.315992     0.308349     0.300706     0.293063     0.285420     0.277777     0.270133     0.262490
      0.254847     0.247204     0.239561     0.231918     0.224275     0.216631     0.208988     0.201345
 NY phased data points follow
  -8.32378E+01 -7.57287E+01 -7.73241E+01 -7.78983E+01 -7.60465E+01 -7.57442E+01 -7.47102E+01 -7.21677E+01 -6.77303E+01 -6.87158E+01
  -6.85365E+01 -6.81954E+01 -6.95518E+01 -6.05152E+01 -6.52915E+01 -6.27023E+01 -6.85523E+01 -6.62298E+01 -6.59041E+01 -6.51479E+01
  -7.03191E+01 -6.36213E+01 -6.34389E+01 -6.00717E+01 -6.39925E+01 -6.11391E+01 -6.18435E+01 -5.75864E+01 -6.02872E+01 -5.79883E+01
  -6.08472E+01 -5.28922E+01 -5.47596E+01 -5.24631E+01 -5.58109E+01 -5.27451E+01 -5.54993E+01 -5.49129E+01 -5.56246E+01 -5.00992E+01
  -5.18990E+01 -5.22195E+01 -5.00985E+01 -4.86357E+01 -4.98787E+01 -4.33674E+01 -5.13571E+01 -4.90970E+01 -4.75180E+01 -4.57947E+01
  -4.85692E+01 -4.41374E+01 -4.78904E+01 -4.45447E+01 -4.94740E+01 -4.53117E+01 -4.55122E+01 -4.23688E+01 -4.41568E+01 -4.25194E+01
  -4.66501E+01 -4.20194E+01 -4.50223E+01 -4.82847E+01 -4.47008E+01 -4.19145E+01 -4.36186E+01 -4.30887E+01 -4.56737E+01 -4.03602E+01
  -4.27726E+01 -3.95396E+01 -4.41582E+01 -3.95828E+01 -3.98287E+01 -3.93455E+01 -3.87410E+01 -3.94950E+01 -3.99943E+01 -3.70512E+01
  -3.75260E+01 -3.97770E+01 -3.79947E+01 -4.00328E+01 -3.91365E+01 -3.68811E+01 -3.61369E+01 -3.55189E+01 -3.59694E+01 -3.62334E+01
  -3.31345E+01 -3.21536E+01 -3.48792E+01 -3.48105E+01 -3.54945E+01 -3.64103E+01 -3.51428E+01 -3.27001E+01 -3.51317E+01 -3.40918E+01
  -3.00091E+01 -2.81260E+01 -2.91804E+01 -2.67600E+01 -3.06446E+01 -2.67004E+01 -2.98133E+01 -3.28624E+01 -2.87947E+01 -3.29172E+01
  -3.22804E+01 -3.32703E+01 -3.08734E+01 -3.33925E+01 -3.13910E+01 -3.27141E+01 -3.12857E+01 -2.96770E+01 -3.28833E+01 -3.02509E+01
  -3.20331E+01 -2.84759E+01 -3.14604E+01 -2.62147E+01 -2.85561E+01 -2.04287E+01 -2.23485E+01 -2.08861E+01 -2.31785E+01 -1.91461E+01
  -2.53987E+01 -2.32174E+01 -2.59587E+01 -2.52724E+01 -2.70071E+01 -2.85084E+01 -2.67098E+01 -2.80603E+01 -2.79980E+01 -2.56026E+01
  -2.89380E+01 -2.78834E+01 -2.75445E+01 -2.75136E+01 -2.47072E+01 -2.88565E+01 -2.60438E+01 -2.77988E+01 -2.50799E+01 -2.47376E+01
  -2.69067E+01 -2.33692E+01 -2.64483E+01 -2.52697E+01 -2.85868E+01 -2.37843E+01 -2.78216E+01 -2.57207E+01 -2.41952E+01 -2.67221E+01
  -2.47260E+01 -2.55038E+01 -2.79855E+01 -2.43782E+01 -2.51364E+01 -2.11081E+01 -2.73393E+01 -2.46120E+01 -2.49709E+01 -2.86659E+01
  -2.91483E+01 -2.30552E+01 -2.82778E+01 -2.81331E+01 -3.20758E+01 -3.02829E+01 -3.14748E+01 -2.74656E+01 -2.63197E+01 -2.36714E+01
  -2.55250E+01 -2.75047E+01 -2.72520E+01 -2.78881E+01 -2.55558E+01 -2.50464E+01 -2.62279E+01 -2.45714E+01 -2.15668E+01 -2.19487E+01
  -2.55163E+01 -2.47338E+01 -2.40375E+01 -2.25559E+01 -2.43155E+01 -2.36720E+01 -2.51690E+01 -2.23555E+01 -2.40228E+01 -2.05003E+01
  -2.52595E+01 -2.38129E+01 -2.24391E+01 -2.01310E+01 -2.09303E+01 -1.97470E+01 -2.10656E+01 -2.29173E+01 -1.98051E+01 -2.03707E+01
  -2.21838E+01 -2.22314E+01 -2.05350E+01 -1.74731E+01 -1.79571E+01 -1.89401E+01 -1.70754E+01 -1.75827E+01 -1.70499E+01 -1.90810E+01
  -2.03163E+01 -1.92754E+01 -1.97951E+01 -2.05584E+01 -1.99369E+01 -1.58717E+01 -2.13514E+01 -1.76833E+01 -1.66229E+01 -1.87823E+01
  -1.65214E+01 -1.36312E+01 -1.57981E+01 -1.30373E+01 -1.90155E+01 -1.39151E+01 -1.55221E+01 -1.76228E+01 -1.83470E+01 -1.68459E+01
  -1.50329E+01 -1.63997E+01 -1.75876E+01 -1.73856E+01 -1.90938E+01 -1.48183E+01 -1.76199E+01 -1.47858E+01 -1.52093E+01 -1.26214E+01
  -1.41276E+01 -1.10177E+01 -1.53797E+01 -9.74752E+00 -1.08296E+01 -8.79933E+00 -6.22725E+00 -8.39048E+00 -2.83127E+00  1.91974E+00
   2.78886E+00 -4.00048E-01 -3.11839E+00 -7.40032E+00 -1.37763E+01 -1.44154E+01 -1.41059E+01 -1.35085E+01 -1.68285E+01 -1.67740E+01
  -2.13193E+01 -2.16065E+01 -1.80355E+01 -1.86924E+01 -1.87297E+01 -1.65502E+01 -1.84756E+01 -1.78507E+01 -1.84001E+01 -1.72524E+01
  -2.07823E+01 -1.74877E+01 -1.86134E+01 -1.87001E+01 -1.98716E+01 -2.08408E+01 -2.02390E+01 -1.98746E+01 -1.96327E+01 -2.16382E+01
  -2.27149E+01 -2.37315E+01 -2.56244E+01 -2.29725E+01 -2.36728E+01 -2.62523E+01 -2.62649E+01 -2.16760E+01 -2.99746E+01 -2.55438E+01
  -2.67776E+01 -2.90538E+01 -2.86624E+01 -2.30239E+01 -2.89141E+01 -2.51663E+01 -2.66843E+01 -2.58171E+01 -2.30722E+01 -1.98454E+01
  -2.31702E+01 -2.21216E+01 -2.27682E+01 -2.21833E+01 -1.82559E+01 -1.77662E+01 -1.97305E+01 -1.88715E+01 -2.07038E+01 -1.36801E+01
  -1.81787E+01 -1.66275E+01 -1.81473E+01 -1.54792E+01 -1.80372E+01 -1.70683E+01 -1.55082E+01 -1.91671E+01 -1.58706E+01 -1.29651E+01
  -1.46009E+01 -1.49878E+01 -1.31306E+01 -1.38684E+01 -1.24267E+01 -1.26204E+01 -1.77309E+01 -1.32736E+01 -1.78441E+01 -1.34335E+01
  -1.98925E+01 -1.45565E+01 -1.57327E+01 -1.51723E+01 -1.14650E+01 -1.15611E+01 -1.79829E+01 -1.40338E+01 -1.36336E+01 -1.47587E+01
  -1.54369E+01 -1.36570E+01 -9.17828E+00 -1.24949E+01 -1.00452E+01 -1.11006E+01 -1.13875E+01 -1.29947E+01 -8.42607E+00 -1.34669E+01
  -1.68835E+01 -1.27757E+01 -1.18434E+01 -1.48335E+01 -1.55542E+01 -1.17785E+01 -1.32838E+01 -1.30854E+01 -1.52427E+01 -1.51976E+01
  -1.51868E+01 -1.51028E+01 -1.19855E+01 -1.18136E+01 -1.00531E+01 -1.31010E+01 -1.31759E+01 -1.23172E+01 -1.10292E+01 -1.21980E+01
  -1.48356E+01 -1.24031E+01 -1.17758E+01 -9.85470E+00 -1.09617E+01 -9.79382E+00 -1.45418E+01 -1.25240E+01 -1.35601E+01 -1.15419E+01
  -1.31297E+01 -1.14361E+01 -1.13641E+01 -1.23360E+01 -1.43826E+01 -1.39494E+01 -1.42317E+01 -8.66956E+00 -1.27785E+01 -1.15645E+01
  -1.09229E+01 -8.30636E+00 -8.72562E+00 -1.19074E+01 -1.10897E+01 -1.17765E+01 -1.06141E+01 -1.05356E+01 -1.32783E+01 -1.03811E+01
  -1.43740E+01 -1.28361E+01 -9.90346E+00 -9.80593E+00 -1.23006E+01 -8.63161E+00 -1.29784E+01 -9.89677E+00 -9.29881E+00 -8.79846E+00
  -1.01360E+01 -1.26747E+01 -1.09238E+01 -1.30870E+01 -1.16660E+01 -1.18692E+01 -1.14366E+01 -1.09684E+01 -1.29894E+01 -8.66465E+00
  -1.03559E+01 -8.06933E+00 -9.01097E+00 -9.98157E+00 -1.44324E+01 -1.00786E+01 -1.27905E+01 -1.42460E+01 -1.32686E+01 -1.01527E+01
  -1.22373E+01 -1.31010E+01 -1.25345E+01 -9.31871E+00 -1.08251E+01 -9.10627E+00 -1.29822E+01 -1.13772E+01 -1.03661E+01 -6.57923E+00
  -1.31016E+01 -9.29150E+00 -1.37212E+01 -1.21408E+01 -1.19465E+01 -9.68721E+00 -1.09251E+01 -1.13555E+01 -8.67322E+00 -1.01431E+01
  -1.09334E+01 -1.12509E+01 -1.09999E+01 -1.05013E+01 -1.02602E+01 -8.96964E+00 -1.05538E+01 -1.09437E+01 -8.71585E+00 -1.10512E+01
  -1.17129E+01 -1.18163E+01 -1.22155E+01 -1.13583E+01 -1.09603E+01 -1.27655E+01 -9.25518E+00 -9.77669E+00 -1.20649E+01 -1.09126E+01
  -1.07420E+01 -1.07142E+01 -1.02009E+01 -1.17728E+01 -9.43621E+00 -6.79941E+00 -8.73344E+00 -9.79888E+00 -1.02355E+01 -8.08015E+00
  -8.42325E+00 -7.06987E+00 -1.00434E+01 -9.79606E+00 -8.99937E+00 -8.78116E+00 -9.32585E+00 -7.96043E+00
 NY points of the fit to the data follow
  -7.59696E+01 -7.56489E+01 -7.53074E+01 -7.49628E+01 -7.45021E+01 -7.38195E+01 -7.29733E+01 -7.19504E+01 -7.07038E+01 -6.92834E+01
  -6.78688E+01 -6.66725E+01 -6.58427E+01 -6.54411E+01 -6.54012E+01 -6.55046E+01 -6.55157E+01 -6.53808E+01 -6.51835E+01 -6.49397E+01
  -6.45799E+01 -6.41056E+01 -6.36138E+01 -6.30587E+01 -6.24080E+01 -6.16537E+01 -6.07329E+01 -5.96169E+01 -5.83538E+01 -5.70849E+01
  -5.59479E+01 -5.50842E+01 -5.46202E+01 -5.45486E+01 -5.47332E+01 -5.50077E+01 -5.52631E+01 -5.54391E+01 -5.54390E+01 -5.51172E+01
  -5.44128E+01 -5.33912E+01 -5.21604E+01 -5.08276E+01 -4.95002E+01 -4.83412E+01 -4.75241E+01 -4.71699E+01 -4.72747E+01 -4.77001E+01
  -4.82402E+01 -4.86454E+01 -4.87443E+01 -4.85581E+01 -4.81676E+01 -4.75983E+01 -4.68652E+01 -4.60761E+01 -4.53753E+01 -4.48424E+01
  -4.44939E+01 -4.43144E+01 -4.42379E+01 -4.41698E+01 -4.40012E+01 -4.36876E+01 -4.32596E+01 -4.27582E+01 -4.22114E+01 -4.16579E+01
  -4.11404E+01 -4.06929E+01 -4.03250E+01 -4.00350E+01 -3.98157E+01 -3.96400E+01 -3.94758E+01 -3.93105E+01 -3.91383E+01 -3.89432E+01
  -3.86992E+01 -3.84415E+01 -3.81999E+01 -3.79911E+01 -3.78266E+01 -3.77129E+01 -3.76362E+01 -3.75577E+01 -3.74342E+01 -3.72298E+01
  -3.69438E+01 -3.65984E+01 -3.62439E+01 -3.59388E+01 -3.56951E+01 -3.54269E+01 -3.49212E+01 -3.41726E+01 -3.32146E+01 -3.20359E+01
  -3.06967E+01 -2.94083E+01 -2.84566E+01 -2.80300E+01 -2.81622E+01 -2.87645E+01 -2.96255E+01 -3.04432E+01 -3.10311E+01 -3.14262E+01
  -3.17218E+01 -3.18911E+01 -3.18503E+01 -3.16952E+01 -3.15178E+01 -3.13371E+01 -3.11570E+01 -3.09723E+01 -3.07702E+01 -3.05121E+01
  -3.00308E+01 -2.91823E+01 -2.80587E+01 -2.67014E+01 -2.51605E+01 -2.36092E+01 -2.23380E+01 -2.16006E+01 -2.15170E+01 -2.20604E+01
  -2.30539E+01 -2.41978E+01 -2.52194E+01 -2.60517E+01 -2.67826E+01 -2.74048E+01 -2.77732E+01 -2.78351E+01 -2.77135E+01 -2.74808E+01
  -2.72106E+01 -2.69686E+01 -2.67829E+01 -2.66589E+01 -2.65981E+01 -2.65835E+01 -2.65912E+01 -2.66090E+01 -2.66310E+01 -2.66482E+01
  -2.66540E+01 -2.66401E+01 -2.66098E+01 -2.65673E+01 -2.65258E+01 -2.64892E+01 -2.64596E+01 -2.64393E+01 -2.64203E+01 -2.64018E+01
  -2.63719E+01 -2.63130E+01 -2.62236E+01 -2.61234E+01 -2.60400E+01 -2.59943E+01 -2.59902E+01 -2.60110E+01 -2.60335E+01 -2.60533E+01
  -2.60758E+01 -2.60932E+01 -2.61061E+01 -2.61092E+01 -2.60957E+01 -2.60576E+01 -2.59869E+01 -2.58871E+01 -2.57777E+01 -2.56800E+01
  -2.56079E+01 -2.55455E+01 -2.54600E+01 -2.53271E+01 -2.51374E+01 -2.48901E+01 -2.45769E+01 -2.41974E+01 -2.37767E+01 -2.33716E+01
  -2.30610E+01 -2.29101E+01 -2.29107E+01 -2.30075E+01 -2.31405E+01 -2.32473E+01 -2.32598E+01 -2.31171E+01 -2.28042E+01 -2.23488E+01
  -2.18137E+01 -2.12910E+01 -2.08846E+01 -2.07153E+01 -2.08049E+01 -2.11038E+01 -2.15681E+01 -2.21030E+01 -2.25444E+01 -2.27034E+01
  -2.24938E+01 -2.19515E+01 -2.11495E+01 -2.02243E+01 -1.93873E+01 -1.88639E+01 -1.87753E+01 -1.90827E+01 -1.96700E+01 -2.04053E+01
  -2.10539E+01 -2.13966E+01 -2.13625E+01 -2.09835E+01 -2.03504E+01 -1.95836E+01 -1.88502E+01 -1.83043E+01 -1.79787E+01 -1.78201E+01
  -1.77340E+01 -1.76576E+01 -1.75626E+01 -1.74034E+01 -1.71533E+01 -1.68504E+01 -1.65903E+01 -1.64186E+01 -1.63312E+01 -1.63145E+01
  -1.63701E+01 -1.64456E+01 -1.64411E+01 -1.63073E+01 -1.60670E+01 -1.57695E+01 -1.54408E+01 -1.51201E+01 -1.48386E+01 -1.45483E+01
  -1.42101E+01 -1.38178E+01 -1.33216E+01 -1.23492E+01 -1.07322E+01 -8.74798E+00 -6.50315E+00 -4.07813E+00 -1.81540E+00 -2.99123E-01
   2.31642E-02 -9.86755E-01 -3.21367E+00 -6.25259E+00 -9.39203E+00 -1.20167E+01 -1.40639E+01 -1.57881E+01 -1.72348E+01 -1.81721E+01
  -1.86525E+01 -1.89775E+01 -1.92313E+01 -1.94391E+01 -1.96296E+01 -1.98274E+01 -2.00376E+01 -2.02614E+01 -2.04931E+01 -2.07210E+01
  -2.09359E+01 -2.11349E+01 -2.13146E+01 -2.14716E+01 -2.16080E+01 -2.17294E+01 -2.18400E+01 -2.19417E+01 -2.20346E+01 -2.21189E+01
  -2.21958E+01 -2.22646E+01 -2.23257E+01 -2.23800E+01 -2.24278E+01 -2.24690E+01 -2.25032E+01 -2.25297E+01 -2.25474E+01 -2.25558E+01
  -2.25544E+01 -2.25422E+01 -2.25187E+01 -2.24839E+01 -2.24370E+01 -2.23769E+01 -2.23020E+01 -2.22105E+01 -2.21008E+01 -2.19706E+01
  -2.18179E+01 -2.16409E+01 -2.14378E+01 -2.12072E+01 -2.09481E+01 -2.06601E+01 -2.03435E+01 -1.99992E+01 -1.96293E+01 -1.92369E+01
  -1.88258E+01 -1.84010E+01 -1.79682E+01 -1.75339E+01 -1.71050E+01 -1.66888E+01 -1.62925E+01 -1.59228E+01 -1.55862E+01 -1.52879E+01
  -1.50321E+01 -1.48215E+01 -1.46571E+01 -1.45386E+01 -1.44639E+01 -1.44292E+01 -1.44296E+01 -1.44586E+01 -1.45088E+01 -1.45719E+01
  -1.46387E+01 -1.46993E+01 -1.47428E+01 -1.47581E+01 -1.47335E+01 -1.46581E+01 -1.45226E+01 -1.43211E+01 -1.40531E+01 -1.37252E+01
  -1.33525E+01 -1.29581E+01 -1.25716E+01 -1.22252E+01 -1.19493E+01 -1.17676E+01 -1.16930E+01 -1.17259E+01 -1.18543E+01 -1.20568E+01
  -1.23067E+01 -1.25768E+01 -1.28437E+01 -1.30901E+01 -1.33057E+01 -1.34870E+01 -1.36354E+01 -1.37552E+01 -1.38520E+01 -1.39309E+01
  -1.39960E+01 -1.40499E+01 -1.40938E+01 -1.41280E+01 -1.41518E+01 -1.41641E+01 -1.41636E+01 -1.41489E+01 -1.41189E+01 -1.40723E+01
  -1.40084E+01 -1.39263E+01 -1.38257E+01 -1.37063E+01 -1.35683E+01 -1.34120E+01 -1.32383E+01 -1.30481E+01 -1.28430E+01 -1.26248E+01
  -1.23959E+01 -1.21591E+01 -1.19173E+01 -1.16742E+01 -1.14334E+01 -1.11988E+01 -1.09746E+01 -1.07646E+01 -1.05726E+01 -1.04020E+01
  -1.02558E+01 -1.01363E+01 -1.00453E+01 -9.98350E+00 -9.95106E+00 -9.94726E+00 -9.97061E+00 -1.00190E+01 -1.00896E+01 -1.01792E+01
  -1.02844E+01 -1.04016E+01 -1.05270E+01 -1.06571E+01 -1.07887E+01 -1.09187E+01 -1.10446E+01 -1.11642E+01 -1.12757E+01 -1.13779E+01
  -1.14700E+01 -1.15514E+01 -1.16219E+01 -1.16817E+01 -1.17310E+01 -1.17703E+01 -1.18003E+01 -1.18215E+01 -1.18348E+01 -1.18407E+01
  -1.18402E+01 -1.18337E+01 -1.18220E+01 -1.18057E+01 -1.17853E+01 -1.17613E+01 -1.17341E+01 -1.17043E+01 -1.16720E+01 -1.16377E+01
  -1.16016E+01 -1.15640E+01 -1.15250E+01 -1.14850E+01 -1.14439E+01 -1.14021E+01 -1.13596E+01 -1.13165E+01 -1.12730E+01 -1.12291E+01
  -1.11850E+01 -1.11406E+01 -1.10962E+01 -1.10516E+01 -1.10070E+01 -1.09623E+01 -1.09177E+01 -1.08730E+01 -1.08284E+01 -1.07838E+01
  -1.07392E+01 -1.06946E+01 -1.06501E+01 -1.06056E+01 -1.05611E+01 -1.05167E+01 -1.04723E+01 -1.04278E+01 -1.03834E+01 -1.03390E+01
  -1.02945E+01 -1.02500E+01 -1.02054E+01 -1.01608E+01 -1.01161E+01 -1.00713E+01 -1.00263E+01 -9.98128E+00 -9.93606E+00 -9.89068E+00
  -9.84512E+00 -9.79935E+00 -9.75335E+00 -9.70709E+00 -9.66057E+00 -9.61378E+00 -9.56667E+00 -9.51923E+00 -9.47143E+00 -9.42326E+00
  -9.37469E+00 -9.32572E+00 -9.27629E+00 -9.22639E+00 -9.17599E+00 -9.12508E+00 -9.07363E+00 -9.02161E+00
 NY background values follow
    -7.721E+01   -7.665E+01   -7.608E+01   -7.552E+01   -7.495E+01   -7.438E+01   -7.382E+01   -7.325E+01   -7.269E+01   -7.212E+01
    -7.156E+01   -7.099E+01   -7.043E+01   -6.987E+01   -6.931E+01   -6.875E+01   -6.819E+01   -6.764E+01   -6.708E+01   -6.653E+01
    -6.598E+01   -6.543E+01   -6.488E+01   -6.434E+01   -6.380E+01   -6.326E+01   -6.272E+01   -6.219E+01   -6.166E+01   -6.113E+01
    -6.060E+01   -6.008E+01   -5.956E+01   -5.905E+01   -5.854E+01   -5.803E+01   -5.753E+01   -5.703E+01   -5.653E+01   -5.604E+01
    -5.555E+01   -5.507E+01   -5.459E+01   -5.412E+01   -5.365E+01   -5.319E+01   -5.273E+01   -5.228E+01   -5.183E+01   -5.139E+01
    -5.095E+01   -5.052E+01   -5.009E+01   -4.967E+01   -4.925E+01   -4.884E+01   -4.843E+01   -4.803E+01   -4.763E+01   -4.724E+01
    -4.685E+01   -4.647E+01   -4.609E+01   -4.571E+01   -4.535E+01   -4.498E+01   -4.462E+01   -4.427E+01   -4.392E+01   -4.357E+01
    -4.323E+01   -4.289E+01   -4.256E+01   -4.224E+01   -4.191E+01   -4.160E+01   -4.128E+01   -4.097E+01   -4.067E+01   -4.037E+01
    -4.007E+01   -3.978E+01   -3.950E+01   -3.921E+01   -3.893E+01   -3.866E+01   -3.839E+01   -3.813E+01   -3.786E+01   -3.761E+01
    -3.735E+01   -3.711E+01   -3.686E+01   -3.662E+01   -3.639E+01   -3.615E+01   -3.592E+01   -3.570E+01   -3.548E+01   -3.526E+01
    -3.505E+01   -3.484E+01   -3.463E+01   -3.443E+01   -3.423E+01   -3.403E+01   -3.384E+01   -3.365E+01   -3.347E+01   -3.328E+01
    -3.310E+01   -3.293E+01   -3.275E+01   -3.258E+01   -3.241E+01   -3.225E+01   -3.209E+01   -3.193E+01   -3.177E+01   -3.161E+01
    -3.146E+01   -3.131E+01   -3.117E+01   -3.102E+01   -3.088E+01   -3.074E+01   -3.060E+01   -3.046E+01   -3.033E+01   -3.020E+01
    -3.007E+01   -2.994E+01   -2.981E+01   -2.969E+01   -2.957E+01   -2.945E+01   -2.933E+01   -2.921E+01   -2.909E+01   -2.898E+01
    -2.886E+01   -2.875E+01   -2.864E+01   -2.853E+01   -2.842E+01   -2.832E+01   -2.821E+01   -2.811E+01   -2.800E+01   -2.790E+01
    -2.780E+01   -2.770E+01   -2.760E+01   -2.750E+01   -2.740E+01   -2.730E+01   -2.721E+01   -2.711E+01   -2.701E+01   -2.692E+01
    -2.682E+01   -2.673E+01   -2.664E+01   -2.655E+01   -2.645E+01   -2.636E+01   -2.627E+01   -2.618E+01   -2.609E+01   -2.599E+01
    -2.590E+01   -2.581E+01   -2.572E+01   -2.563E+01   -2.554E+01   -2.545E+01   -2.536E+01   -2.526E+01   -2.517E+01   -2.508E+01
    -2.499E+01   -2.489E+01   -2.480E+01   -2.471E+01   -2.461E+01   -2.452E+01   -2.443E+01   -2.433E+01   -2.424E+01   -2.414E+01
    -2.405E+01   -2.396E+01   -2.387E+01   -2.377E+01   -2.368E+01   -2.359E+01   -2.350E+01   -2.341E+01   -2.332E+01   -2.324E+01
    -2.315E+01   -2.307E+01   -2.298E+01   -2.290E+01   -2.282E+01   -2.274E+01   -2.267E+01   -2.259E+01   -2.252E+01   -2.244E+01
    -2.237E+01   -2.231E+01   -2.224E+01   -2.218E+01   -2.212E+01   -2.206E+01   -2.200E+01   -2.195E+01   -2.190E+01   -2.185E+01
    -2.180E+01   -2.176E+01   -2.172E+01   -2.169E+01   -2.165E+01   -2.162E+01   -2.160E+01   -2.157E+01   -2.155E+01   -2.154E+01
    -2.152E+01   -2.151E+01   -2.150E+01   -2.150E+01   -2.150E+01   -2.150E+01   -2.150E+01   -2.151E+01   -2.152E+01   -2.153E+01
    -2.154E+01   -2.156E+01   -2.158E+01   -2.160E+01   -2.162E+01   -2.164E+01   -2.167E+01   -2.169E+01   -2.172E+01   -2.175E+01
    -2.179E+01   -2.182E+01   -2.186E+01   -2.189E+01   -2.193E+01   -2.197E+01   -2.201E+01   -2.205E+01   -2.209E+01   -2.213E+01
    -2.218E+01   -2.222E+01   -2.226E+01   -2.231E+01   -2.235E+01   -2.240E+01   -2.244E+01   -2.249E+01   -2.254E+01   -2.258E+01
    -2.263E+01   -2.267E+01   -2.272E+01   -2.276E+01   -2.281E+01   -2.285E+01   -2.289E+01   -2.294E+01   -2.298E+01   -2.302E+01
    -2.306E+01   -2.310E+01   -2.314E+01   -2.318E+01   -2.321E+01   -2.325E+01   -2.328E+01   -2.331E+01   -2.334E+01   -2.337E+01
    -2.340E+01   -2.342E+01   -2.345E+01   -2.347E+01   -2.349E+01   -2.351E+01   -2.352E+01   -2.354E+01   -2.355E+01   -2.356E+01
    -2.356E+01   -2.357E+01   -2.357E+01   -2.357E+01   -2.356E+01   -2.356E+01   -2.355E+01   -2.353E+01   -2.352E+01   -2.350E+01
    -2.348E+01   -2.345E+01   -2.343E+01   -2.339E+01   -2.336E+01   -2.332E+01   -2.328E+01   -2.323E+01   -2.318E+01   -2.313E+01
    -2.307E+01   -2.301E+01   -2.295E+01   -2.288E+01   -2.281E+01   -2.274E+01   -2.266E+01   -2.259E+01   -2.251E+01   -2.242E+01
    -2.234E+01   -2.225E+01   -2.216E+01   -2.207E+01   -2.197E+01   -2.187E+01   -2.177E+01   -2.167E+01   -2.157E+01   -2.147E+01
    -2.136E+01   -2.126E+01   -2.115E+01   -2.104E+01   -2.093E+01   -2.082E+01   -2.071E+01   -2.059E+01   -2.048E+01   -2.036E+01
    -2.025E+01   -2.013E+01   -2.002E+01   -1.990E+01   -1.979E+01   -1.967E+01   -1.955E+01   -1.944E+01   -1.932E+01   -1.921E+01
    -1.909E+01   -1.898E+01   -1.887E+01   -1.875E+01   -1.864E+01   -1.853E+01   -1.842E+01   -1.831E+01   -1.820E+01   -1.809E+01
    -1.798E+01   -1.788E+01   -1.777E+01   -1.766E+01   -1.756E+01   -1.745E+01   -1.735E+01   -1.725E+01   -1.714E+01   -1.704E+01
    -1.694E+01   -1.684E+01   -1.674E+01   -1.664E+01   -1.654E+01   -1.644E+01   -1.635E+01   -1.625E+01   -1.615E+01   -1.606E+01
    -1.597E+01   -1.587E+01   -1.578E+01   -1.569E+01   -1.559E+01   -1.550E+01   -1.541E+01   -1.532E+01   -1.523E+01   -1.514E+01
    -1.506E+01   -1.497E+01   -1.488E+01   -1.479E+01   -1.471E+01   -1.462E+01   -1.454E+01   -1.446E+01   -1.437E+01   -1.429E+01
    -1.421E+01   -1.413E+01   -1.405E+01   -1.397E+01   -1.389E+01   -1.381E+01   -1.373E+01   -1.365E+01   -1.358E+01   -1.350E+01
    -1.343E+01   -1.335E+01   -1.328E+01   -1.320E+01   -1.313E+01   -1.306E+01   -1.299E+01   -1.291E+01   -1.284E+01   -1.277E+01
    -1.270E+01   -1.264E+01   -1.257E+01   -1.250E+01   -1.243E+01   -1.237E+01   -1.230E+01   -1.224E+01   -1.217E+01   -1.211E+01
    -1.204E+01   -1.198E+01   -1.192E+01   -1.186E+01   -1.180E+01   -1.174E+01   -1.168E+01   -1.162E+01   -1.156E+01   -1.150E+01
    -1.145E+01   -1.139E+01   -1.133E+01   -1.128E+01   -1.122E+01   -1.117E+01   -1.111E+01   -1.106E+01   -1.101E+01   -1.096E+01
    -1.090E+01   -1.085E+01   -1.080E+01   -1.075E+01   -1.070E+01   -1.065E+01   -1.060E+01   -1.055E+01   -1.050E+01   -1.045E+01
    -1.040E+01   -1.035E+01   -1.031E+01   -1.026E+01   -1.021E+01   -1.016E+01   -1.011E+01   -1.006E+01   -1.001E+01   -9.966E+00
    -9.917E+00   -9.869E+00   -9.820E+00   -9.771E+00   -9.722E+00   -9.673E+00   -9.624E+00   -9.574E+00   -9.524E+00   -9.474E+00
    -9.423E+00   -9.372E+00   -9.321E+00   -9.270E+00   -9.218E+00   -9.165E+00   -9.112E+00   -9.059E+00
 Asp      Conc. = 1.84E+01
