 LCModel (Version 6.3-1L) Copyright: S.W. Provencher.          Ref.: Magn. Reson. Med. 30:672-679 (1993).                
 Slice#1 Row#12 Col#11  PD_24_press_2_raw_act
 36 lines in following concentration table = NCONC+1
    Conc.  %SD /Cr+PCr  Metabolite                                         
    0.000 999%   0.000 Ala                                                 
   16.653  77%   1.748 Asp                                                 
    0.000 999%   0.000 Cr                                                  
    9.526 199%   1.000 PCr                                                 
   11.249  69%   1.181 GABA                                                
    9.976  77%   1.047 Glc                                                 
  741.957  24%  77.884 Gln                                                 
 1.40E+03  15% 146.854 Glu                                                 
    0.000 999%   0.000 GPC                                                 
    0.000 999%   0.000 PCh                                                 
    0.000 999%   0.000 GSH                                                 
  180.838  44%  18.983 Ins                                                 
    0.000 999%   0.000 Lac                                                 
   42.860 189%   4.499 NAA                                                 
  302.190  26%  31.721 NAAG                                                
    4.606  55%   0.483 Scyllo                                              
   19.507  65%   2.048 Tau                                                 
    0.000 999%   0.000 -CrCH2                                              
    0.000 999%   0.000 GPC+PCh                                             
  345.051   6%  36.220 NAA+NAAG                                            
    9.526 199%   1.000 Cr+PCr                                              
 2.14E+03  14% 224.738 Glu+Gln                                             
    0.000 999%   0.000 Lip13a                                              
   10.561 196%   1.109 Lip13b                                              
    0.000 999%   0.000 Lip09                                               
 8.00E-02 999% 8.4E-03 MM09                                                
    6.229 176%   0.654 Lip20                                               
    0.173 999% 1.8E-02 MM20                                                
 2.40E-02 999% 2.5E-03 MM12                                                
    0.000 999%   0.000 MM14                                                
    0.162 778% 1.7E-02 MM17                                                
   10.561 196%   1.109 Lip13a+Lip13b                                       
   10.585 195%   1.111 MM14+Lip13a+Lip13b+MM12                             
 8.00E-02 999% 8.4E-03 MM09+Lip09                                          
    6.402 179%   0.672 MM20+Lip20                                          
   6 lines in following misc. output table
  FWHM = 0.168 ppm    S/N =   3                                            
  Data shift = 0.183 ppm                                                   
  Ph: -61 deg      59.7 deg/ppm                                            
  alphaB,S = 8.5E+01,   2.0E+02                                            
   14 spline knots.   Ns = 8(2)                                            
  (13) 2 infls.   (13) 1 extrs.                                            
  498 points on ppm-axis = NY
      4.000000     3.992357     3.984714     3.977070     3.969427     3.961784     3.954141     3.946497     3.938854     3.931211
      3.923568     3.915925     3.908281     3.900638     3.892995     3.885352     3.877708     3.870065     3.862422     3.854779
      3.847136     3.839492     3.831849     3.824206     3.816563     3.808919     3.801276     3.793633     3.785990     3.778347
      3.770703     3.763060     3.755417     3.747774     3.740130     3.732487     3.724844     3.717201     3.709558     3.701914
      3.694271     3.686628     3.678985     3.671341     3.663698     3.656055     3.648412     3.640769     3.633125     3.625482
      3.617839     3.610196     3.602552     3.594909     3.587266     3.579623     3.571980     3.564336     3.556693     3.549050
      3.541407     3.533763     3.526120     3.518477     3.510834     3.503191     3.495547     3.487904     3.480261     3.472618
      3.464974     3.457331     3.449688     3.442045     3.434402     3.426758     3.419115     3.411472     3.403829     3.396185
      3.388542     3.380899     3.373256     3.365613     3.357969     3.350326     3.342683     3.335040     3.327396     3.319753
      3.312110     3.304467     3.296824     3.289180     3.281537     3.273894     3.266251     3.258607     3.250964     3.243321
      3.235678     3.228034     3.220391     3.212748     3.205105     3.197462     3.189818     3.182175     3.174532     3.166889
      3.159245     3.151602     3.143959     3.136316     3.128673     3.121029     3.113386     3.105743     3.098100     3.090456
      3.082813     3.075170     3.067527     3.059884     3.052240     3.044597     3.036954     3.029311     3.021667     3.014024
      3.006381     2.998738     2.991095     2.983451     2.975808     2.968165     2.960522     2.952878     2.945235     2.937592
      2.929949     2.922306     2.914662     2.907019     2.899376     2.891733     2.884089     2.876446     2.868803     2.861160
      2.853517     2.845873     2.838230     2.830587     2.822944     2.815300     2.807657     2.800014     2.792371     2.784728
      2.777084     2.769441     2.761798     2.754155     2.746511     2.738868     2.731225     2.723582     2.715939     2.708295
      2.700652     2.693009     2.685366     2.677722     2.670079     2.662436     2.654793     2.647150     2.639506     2.631863
      2.624220     2.616577     2.608933     2.601290     2.593647     2.586004     2.578361     2.570717     2.563074     2.555431
      2.547788     2.540144     2.532501     2.524858     2.517215     2.509572     2.501928     2.494285     2.486642     2.478999
      2.471355     2.463712     2.456069     2.448426     2.440783     2.433139     2.425496     2.417853     2.410210     2.402566
      2.394923     2.387280     2.379637     2.371994     2.364350     2.356707     2.349064     2.341421     2.333777     2.326134
      2.318491     2.310848     2.303205     2.295561     2.287918     2.280275     2.272632     2.264988     2.257345     2.249702
      2.242059     2.234416     2.226772     2.219129     2.211486     2.203843     2.196199     2.188556     2.180913     2.173270
      2.165627     2.157983     2.150340     2.142697     2.135054     2.127410     2.119767     2.112124     2.104481     2.096838
      2.089194     2.081551     2.073908     2.066265     2.058621     2.050978     2.043335     2.035692     2.028049     2.020405
      2.012762     2.005119     1.997476     1.989833     1.982190     1.974546     1.966903     1.959260     1.951617     1.943974
      1.936331     1.928688     1.921045     1.913402     1.905759     1.898115     1.890472     1.882829     1.875186     1.867543
      1.859900     1.852257     1.844614     1.836971     1.829327     1.821684     1.814041     1.806398     1.798755     1.791112
      1.783469     1.775826     1.768183     1.760540     1.752896     1.745253     1.737610     1.729967     1.722324     1.714681
      1.707038     1.699395     1.691752     1.684108     1.676465     1.668822     1.661179     1.653536     1.645893     1.638250
      1.630607     1.622964     1.615321     1.607677     1.600034     1.592391     1.584748     1.577105     1.569462     1.561819
      1.554176     1.546533     1.538890     1.531246     1.523603     1.515960     1.508317     1.500674     1.493031     1.485388
      1.477745     1.470102     1.462458     1.454815     1.447172     1.439529     1.431886     1.424243     1.416600     1.408957
      1.401314     1.393671     1.386027     1.378384     1.370741     1.363098     1.355455     1.347812     1.340169     1.332526
      1.324883     1.317240     1.309596     1.301953     1.294310     1.286667     1.279024     1.271381     1.263738     1.256095
      1.248452     1.240808     1.233165     1.225522     1.217879     1.210236     1.202593     1.194950     1.187307     1.179664
      1.172021     1.164377     1.156734     1.149091     1.141448     1.133805     1.126162     1.118519     1.110876     1.103233
      1.095590     1.087946     1.080303     1.072660     1.065017     1.057374     1.049731     1.042088     1.034445     1.026802
      1.019158     1.011515     1.003872     0.996229     0.988586     0.980943     0.973300     0.965657     0.958014     0.950371
      0.942727     0.935084     0.927441     0.919798     0.912155     0.904512     0.896869     0.889226     0.881583     0.873940
      0.866296     0.858653     0.851010     0.843367     0.835724     0.828081     0.820438     0.812795     0.805152     0.797508
      0.789865     0.782222     0.774579     0.766936     0.759293     0.751650     0.744007     0.736364     0.728721     0.721077
      0.713434     0.705791     0.698148     0.690505     0.682862     0.675219     0.667576     0.659933     0.652290     0.644646
      0.637003     0.629360     0.621717     0.614074     0.606431     0.598788     0.591145     0.583502     0.575858     0.568215
      0.560572     0.552929     0.545286     0.537643     0.530000     0.522357     0.514714     0.507071     0.499427     0.491784
      0.484141     0.476498     0.468855     0.461212     0.453569     0.445925     0.438282     0.430639     0.422996     0.415353
      0.407710     0.400067     0.392424     0.384780     0.377137     0.369494     0.361851     0.354208     0.346565     0.338922
      0.331278     0.323635     0.315992     0.308349     0.300706     0.293063     0.285420     0.277777     0.270133     0.262490
      0.254847     0.247204     0.239561     0.231918     0.224275     0.216631     0.208988     0.201345
 NY phased data points follow
   2.14318E-01  1.41939E+00  1.71675E+00  3.22676E-01  4.84677E-01 -6.78001E-02  1.32187E+00  1.12097E+00  3.69178E-01 -1.03340E+00
   1.02214E+00  1.32236E+00  3.46046E-01  6.55848E-01  2.32027E-01  4.73825E-01  2.11406E+00  4.23271E-01 -2.36154E-01  1.15674E+00
   1.16631E+00  6.27691E-01  2.07470E-01  5.08597E-01  2.48390E+00  5.43625E-01 -1.00365E+00  9.61265E-01  5.81234E-01 -3.40470E-01
  -3.93277E-02  1.54184E-01  1.29414E+00  9.19584E-01  1.07841E+00  1.56852E+00  1.58370E+00  1.22988E+00  9.22391E-01  9.93495E-01
   1.18497E+00  7.01842E-01  4.07353E-01  1.15367E+00  1.20125E+00 -2.02365E-01  2.88817E-01  1.01962E+00  8.81368E-01  1.10958E+00
  -5.35255E-01  1.73363E+00  3.41502E-01  1.06727E+00  7.85360E-01  6.16808E-01  6.32280E-01 -1.12804E+00 -1.08245E-01  6.89797E-01
   5.90794E-01  1.93272E+00  1.03891E+00 -5.51750E-01  3.28839E-01  7.57693E-01  6.63337E-02  1.39618E+00 -1.44251E-01  7.80130E-01
   2.35417E-01 -4.95485E-02  3.25624E-01  7.57859E-01  7.48240E-01  1.84027E-01  4.31593E-01  7.97982E-01 -7.22845E-01  6.60852E-01
   2.67760E+00 -6.66293E-02 -2.38352E-01 -1.53757E-01  1.45223E+00  3.57505E-01  1.22220E+00  1.97291E+00  1.62741E-02  2.80313E-01
   1.71019E+00  5.03514E-01  9.66715E-01  9.86374E-01 -8.67902E-01 -3.26280E-01  1.76867E-01  9.18946E-02  2.48987E-01  5.49478E-01
   5.31479E-01  5.19478E-01  3.28697E-01  9.25903E-01  1.00028E-01  1.86481E-01 -4.02019E-02 -1.88663E-01 -3.58139E-01  4.31246E-01
   1.58449E+00  1.26817E+00  9.10166E-01  1.11288E-01  5.61295E-01 -2.26746E-02  1.16922E+00  1.22350E+00  1.69754E+00  2.73984E+00
   7.47091E-01  7.04699E-01 -1.30280E-01  1.14964E+00  1.94852E+00  9.53478E-01  9.68770E-01  1.51889E+00  1.41645E-01 -1.97369E-01
  -5.34085E-01  1.60402E+00  1.57623E+00  1.44127E+00  2.05316E+00  1.27288E+00  1.14914E+00  9.50522E-01  8.57237E-01  1.28667E+00
   1.91160E+00  2.11121E-01  6.74381E-01  1.22514E+00  4.07112E-01  8.76091E-02  8.35284E-01  1.20056E+00  1.44619E+00  1.26540E+00
   9.69315E-01  1.43107E+00  1.30144E+00  1.12499E+00  1.19005E+00  1.11848E+00  1.13910E+00  9.79874E-01  7.50169E-01  7.86857E-01
   6.24904E-01  1.27980E+00  1.07840E+00  1.84582E+00  8.81600E-01  1.16121E+00  1.86500E+00  1.88786E+00  1.17107E+00  1.11652E+00
   6.98061E-01  1.47139E+00  7.18670E-01  1.12760E+00  1.28558E+00  1.38847E+00  8.99525E-01  3.51127E-01  1.07144E+00  1.18784E+00
   1.15284E+00  1.12775E+00  9.85552E-01  5.83764E-01  1.41701E+00  1.38481E+00  4.93180E-01  1.85516E+00  1.28279E+00  4.51951E-01
   5.55185E-01  1.34106E+00  8.02798E-01  9.39362E-01  1.06831E+00  1.60900E+00  4.00628E-01  1.12763E+00  2.84027E+00  7.48710E-02
   1.17720E+00  8.54339E-01 -5.36953E-01  1.65231E+00  1.02498E+00  2.75592E+00  1.28376E+00  8.02488E-01  3.94017E-01  1.31237E+00
   1.13756E+00  1.09205E+00  1.12192E+00  5.07267E-01  8.45905E-01 -1.20791E-01  1.78624E+00  1.11529E+00  5.63855E-01  1.32765E+00
   5.85630E-01  5.45224E-01  1.30849E+00  1.01275E+00  2.51193E+00  1.56810E+00  1.10147E+00  9.38539E-02  1.48181E+00  2.30594E+00
   1.14363E+00  1.31524E+00  2.07308E+00  3.19889E+00  2.83136E+00  2.89511E+00  2.14141E+00  2.51680E+00  1.23722E+00  1.70900E+00
   1.73659E+00  3.74066E+00  2.50231E+00  2.73671E+00  3.16736E+00  3.99398E+00  2.41478E+00  2.76723E+00  3.23671E+00  4.86207E+00
   4.05074E+00  3.51745E+00  4.42401E+00  4.49749E+00  5.26351E+00  5.84239E+00  5.18366E+00  5.36409E+00  5.73837E+00  5.71663E+00
   5.04077E+00  4.93453E+00  4.50351E+00  4.65633E+00  4.20243E+00  5.19608E+00  4.70287E+00  3.62753E+00  3.83523E+00  3.95546E+00
   4.63172E+00  3.69305E+00  3.39671E+00  2.16966E+00  2.42327E+00  2.19776E+00  1.72733E+00  2.87312E+00  2.28221E+00  1.60873E+00
   2.71918E+00  2.32702E+00  1.36498E+00  5.67449E-01  2.64308E+00  2.53254E+00  1.73168E+00  2.71029E+00  2.58767E+00  2.53939E+00
   2.62131E+00  1.54621E+00  3.22592E+00  2.63392E+00  2.98755E+00  3.80458E+00  2.36710E+00  3.01515E+00  4.02270E+00  2.16333E+00
   2.66840E+00  2.21538E+00  2.31506E+00  2.40396E+00  1.56281E+00  2.90216E+00  1.77785E+00  1.79748E+00  9.98186E-01  1.25861E+00
   1.36133E+00  3.43535E+00  2.14000E+00  9.16879E-01  2.84527E+00  8.16020E-01  2.01497E+00  7.59641E-01  5.15390E-01 -4.54845E-01
   1.04330E+00  1.29894E-01  5.67576E-01 -1.00014E+00 -7.61131E-01  8.79704E-01  1.31833E-01  4.22113E-01  3.03564E-02  3.47084E-01
   1.37332E+00  1.57648E-01 -9.81174E-02  4.23183E-01  2.95301E-01  3.81653E-01 -8.59488E-01  9.03269E-02  6.89734E-02 -9.33499E-01
  -7.93977E-01  4.28269E-01  5.41767E-01 -7.29054E-01 -1.01375E+00 -4.46379E-01  3.47137E-02  4.39846E-01 -1.07681E+00  1.04706E+00
  -7.21127E-01  1.48282E-01  2.35007E-01  5.11639E-01 -5.01249E-01  6.31310E-02 -5.19572E-01  1.29043E+00  5.21961E-01  8.10791E-02
  -1.39429E-01  7.09082E-01  4.10892E-01  1.46727E+00 -8.31946E-01  8.04088E-01  1.93798E+00  3.12589E+00  4.60028E-01 -6.04147E-01
  -7.91384E-01  6.71317E-01  1.30281E+00  9.75225E-01  8.97346E-02  4.62159E-01  3.99634E-01  3.33841E-01  1.07184E+00  9.53514E-01
   6.85102E-02 -7.13435E-01  4.87471E-01  2.66062E-01  2.58093E-01  1.70574E-01  8.68617E-01 -1.30033E-01  2.82585E-01  3.03307E-01
   1.03966E-01  4.65866E-01  1.05370E+00  6.68410E-01  5.05213E-02 -3.81040E-01  1.03729E+00 -2.83438E-01  7.68208E-01 -1.85021E-01
   3.98307E-01  3.66764E-01  1.99272E-01 -5.43889E-01 -1.90181E+00 -8.31236E-01  1.54632E-01 -7.72126E-01 -7.34421E-01  1.19390E-01
  -6.70915E-01 -5.63416E-01 -1.27496E+00 -8.39820E-02  4.70052E-01  5.97664E-01  3.71200E-01  3.46792E-02 -4.89482E-01 -1.05572E+00
   2.57174E-01  1.08671E+00 -2.67245E-01 -5.92201E-01  6.31842E-01  1.83393E-02  1.51294E-01 -7.53956E-01  1.64315E-01  8.13597E-02
   6.22321E-01 -8.38974E-01 -9.72459E-02  9.56799E-02 -7.70422E-01  1.69413E-01  1.18127E+00 -2.12384E-01 -8.23163E-01 -2.22519E-01
  -1.78440E-01 -7.67637E-01  5.82486E-01  8.01298E-01 -7.40435E-01  2.93997E-01  3.33914E-01  2.09997E-01 -6.41226E-01 -2.98809E-02
   1.51573E-01  3.31538E-01 -1.74011E+00 -1.03942E+00 -2.28805E-01  4.54717E-03 -1.93220E+00  3.20645E-01  1.66471E-01  2.02417E-01
  -3.99845E-01 -2.08865E+00 -4.21437E-01 -1.38204E-01 -5.10673E-01 -8.91908E-01 -7.40788E-02  6.07006E-01 -2.27032E-01  5.66882E-01
   2.34457E-01 -1.21907E+00 -1.39670E-01 -7.33043E-01 -1.19614E+00 -7.29231E-01 -1.18016E+00 -9.98827E-01 -4.42135E-01 -4.83859E-01
   3.49933E-01 -2.83757E-02 -8.97367E-01 -7.32557E-02  3.04474E-01 -2.02216E+00 -8.48017E-01  6.08216E-01 -4.29997E-01 -3.71321E-01
   1.19365E-01  1.30851E+00  2.66409E-01  4.63576E-01  6.20725E-01 -3.87393E-01 -9.83169E-01 -6.64216E-01
 NY points of the fit to the data follow
   5.94335E-01  6.08524E-01  6.15854E-01  6.45628E-01  6.66239E-01  7.10439E-01  7.45264E-01  8.04682E-01  8.48619E-01  8.98557E-01
   9.07501E-01  9.21625E-01  9.40344E-01  9.49729E-01  1.00643E+00  1.07149E+00  1.15641E+00  1.18259E+00  1.26162E+00  1.20393E+00
   1.29989E+00  1.15867E+00  1.31794E+00  1.12073E+00  1.32002E+00  1.02613E+00  1.25596E+00  8.93424E-01  1.17392E+00  7.93648E-01
   1.13211E+00  7.70237E-01  1.13354E+00  7.60164E-01  1.10994E+00  7.17703E-01  1.03927E+00  6.32590E-01  9.14969E-01  5.27413E-01
   7.63810E-01  4.18240E-01  6.15917E-01  3.58158E-01  5.07987E-01  3.20491E-01  3.75942E-01  2.34325E-01  2.51789E-01  2.04292E-01
   2.22687E-01  2.95987E-01  3.00891E-01  3.40663E-01  2.81178E-01  2.58339E-01  1.77384E-01  1.42287E-01  1.13204E-01  1.48475E-01
   1.48308E-01  1.97843E-01  2.03418E-01  2.54746E-01  2.62575E-01  3.14745E-01  3.29420E-01  3.84273E-01  3.88486E-01  4.22481E-01
   4.12491E-01  4.30735E-01  4.17355E-01  4.27007E-01  4.18181E-01  4.21198E-01  4.20443E-01  4.14647E-01  4.24636E-01  4.15103E-01
   4.34651E-01  4.15291E-01  4.40928E-01  4.10759E-01  4.43044E-01  4.06904E-01  4.47552E-01  4.08846E-01  4.56415E-01  4.20484E-01
   4.71072E-01  4.42441E-01  4.96567E-01  4.73665E-01  5.28978E-01  5.14386E-01  5.67661E-01  5.59876E-01  6.08979E-01  6.07429E-01
   6.50412E-01  6.54424E-01  6.90815E-01  7.00401E-01  7.30408E-01  7.46373E-01  7.69661E-01  7.83081E-01  8.01561E-01  8.19738E-01
   8.42675E-01  8.66526E-01  8.88546E-01  9.15158E-01  9.34140E-01  9.60874E-01  9.75441E-01  9.98561E-01  1.00549E+00  1.02589E+00
   1.02291E+00  1.04132E+00  1.03134E+00  1.04842E+00  1.03442E+00  1.05281E+00  1.03602E+00  1.05503E+00  1.03649E+00  1.05486E+00
   1.03466E+00  1.05084E+00  1.02868E+00  1.04162E+00  1.01930E+00  1.02846E+00  1.00665E+00  1.01039E+00  9.87889E-01  9.87599E-01
   9.69734E-01  9.68522E-01  9.57651E-01  9.55925E-01  9.47015E-01  9.45645E-01  9.41002E-01  9.42369E-01  9.33814E-01  9.35171E-01
   9.21342E-01  9.22010E-01  9.00408E-01  8.98628E-01  8.69284E-01  8.72963E-01  8.43044E-01  8.51557E-01  8.21526E-01  8.31107E-01
   8.00711E-01  8.15486E-01  7.85662E-01  8.06170E-01  7.78129E-01  8.00830E-01  7.72636E-01  7.97225E-01  7.78455E-01  8.06794E-01
   8.01208E-01  8.32670E-01  8.42776E-01  8.74352E-01  8.97545E-01  9.28583E-01  9.72914E-01  9.92677E-01  1.03852E+00  1.04836E+00
   1.06664E+00  1.07531E+00  1.06927E+00  1.09388E+00  1.07993E+00  1.15788E+00  1.14665E+00  1.27650E+00  1.26733E+00  1.45953E+00
   1.42030E+00  1.62850E+00  1.54202E+00  1.66016E+00  1.47088E+00  1.57353E+00  1.31881E+00  1.45149E+00  1.19333E+00  1.44006E+00
   1.24419E+00  1.51101E+00  1.38166E+00  1.63798E+00  1.58215E+00  1.69775E+00  1.63542E+00  1.58640E+00  1.58143E+00  1.34721E+00
   1.38907E+00  1.03764E+00  1.15696E+00  7.70703E-01  9.83869E-01  6.38515E-01  9.75592E-01  6.70136E-01  1.09273E+00  7.93404E-01
   1.23663E+00  9.44603E-01  1.35798E+00  1.08979E+00  1.42617E+00  1.26792E+00  1.43936E+00  1.36738E+00  1.41539E+00  1.40934E+00
   1.27590E+00  1.46534E+00  1.27774E+00  1.59767E+00  1.37244E+00  1.79747E+00  1.60547E+00  1.96382E+00  1.76093E+00  2.08612E+00
   2.00458E+00  2.23088E+00  2.15454E+00  2.35781E+00  2.49171E+00  2.72318E+00  3.01056E+00  3.24277E+00  3.63616E+00  3.80382E+00
   4.20075E+00  4.28046E+00  4.66895E+00  4.69703E+00  5.04239E+00  5.01693E+00  5.28218E+00  5.25608E+00  5.45340E+00  5.43424E+00
   5.52018E+00  5.49323E+00  5.38074E+00  5.27013E+00  5.04584E+00  4.87674E+00  4.52039E+00  4.30623E+00  3.90503E+00  3.64928E+00
   3.23536E+00  2.96884E+00  2.59012E+00  2.35855E+00  2.06681E+00  1.91798E+00  1.85070E+00  1.74996E+00  1.69209E+00  1.59988E+00
   1.58846E+00  1.53351E+00  1.53169E+00  1.49124E+00  1.50031E+00  1.44635E+00  1.45612E+00  1.40389E+00  1.40806E+00  1.35307E+00
   1.34949E+00  1.29180E+00  1.28248E+00  1.23655E+00  1.23226E+00  1.19793E+00  1.19393E+00  1.16461E+00  1.15720E+00  1.13244E+00
   1.11882E+00  1.09679E+00  1.07991E+00  1.06240E+00  1.04566E+00  1.03069E+00  1.01434E+00  1.00131E+00  9.84124E-01  9.71889E-01
   9.54323E-01  9.41113E-01  9.25250E-01  9.13000E-01  8.98442E-01  8.86634E-01  8.73045E-01  8.61274E-01  8.48176E-01  8.34988E-01
   8.21567E-01  8.08136E-01  7.94730E-01  7.81595E-01  7.68450E-01  7.55555E-01  7.42706E-01  7.30048E-01  7.17459E-01  7.05006E-01
   6.92642E-01  6.80367E-01  6.68198E-01  6.56099E-01  6.44058E-01  6.32048E-01  6.20060E-01  6.08068E-01  5.96067E-01  5.84040E-01
   5.72009E-01  5.60006E-01  5.48140E-01  5.36578E-01  5.25608E-01  5.15627E-01  5.07160E-01  5.00815E-01  4.97217E-01  4.96894E-01
   5.00137E-01  5.06861E-01  5.16502E-01  5.27994E-01  5.39846E-01  5.50328E-01  5.57721E-01  5.60607E-01  5.58093E-01  5.49953E-01
   5.36626E-01  5.19091E-01  4.98662E-01  4.76744E-01  4.54615E-01  4.33285E-01  4.13417E-01  3.95344E-01  3.79122E-01  3.64620E-01
   3.51601E-01  3.39795E-01  3.28945E-01  3.18828E-01  3.09272E-01  3.00145E-01  2.91354E-01  2.82835E-01  2.74542E-01  2.66443E-01
   2.58517E-01  2.50748E-01  2.43125E-01  2.35638E-01  2.28282E-01  2.21049E-01  2.13935E-01  2.06938E-01  2.00053E-01  1.93279E-01
   1.86614E-01  1.80055E-01  1.73600E-01  1.67249E-01  1.61001E-01  1.54854E-01  1.48806E-01  1.42856E-01  1.37004E-01  1.31249E-01
   1.25588E-01  1.20021E-01  1.14546E-01  1.09163E-01  1.03869E-01  9.86651E-02  9.35484E-02  8.85202E-02  8.35773E-02  7.87222E-02
   7.39521E-02  6.92696E-02  6.46723E-02  6.01625E-02  5.57386E-02  5.14026E-02  4.71540E-02  4.29940E-02  3.89228E-02  3.49405E-02
   3.10480E-02  2.72447E-02  2.35327E-02  1.99102E-02  1.63791E-02  1.29369E-02  9.58653E-03  6.32542E-03  3.15612E-03  7.58756E-05
  -2.91363E-03 -5.81382E-03 -8.62413E-03 -1.13444E-02 -1.39761E-02 -1.65169E-02 -1.89716E-02 -2.13347E-02 -2.36134E-02 -2.57997E-02
  -2.79037E-02 -2.99150E-02 -3.18463E-02 -3.36846E-02 -3.54442E-02 -3.71109E-02 -3.87006E-02 -4.01987E-02 -4.16209E-02 -4.29527E-02
  -4.42092E-02 -4.53776E-02 -4.64714E-02 -4.74803E-02 -4.84152E-02 -4.92675E-02 -5.00470E-02 -5.07473E-02 -5.13766E-02 -5.19304E-02
  -5.24147E-02 -5.28275E-02 -5.31733E-02 -5.34515E-02 -5.36659E-02 -5.38176E-02 -5.39086E-02 -5.39413E-02 -5.39182E-02 -5.38428E-02
  -5.37172E-02 -5.35455E-02 -5.33302E-02 -5.30762E-02 -5.27871E-02 -5.24685E-02 -5.21250E-02 -5.17617E-02 -5.13852E-02 -5.10015E-02
  -5.06198E-02 -5.02472E-02 -4.98940E-02 -4.95698E-02 -4.92868E-02 -4.90579E-02 -4.88988E-02 -4.88258E-02 -4.88587E-02 -4.90189E-02
  -4.93332E-02 -4.98307E-02 -5.05482E-02 -5.15260E-02 -5.28143E-02 -5.44721E-02 -5.65741E-02 -5.92114E-02
 NY background values follow
    -1.374E-01   -1.197E-01   -1.022E-01   -8.469E-02   -6.731E-02   -5.001E-02   -3.281E-02   -1.570E-02    1.312E-03    1.823E-02
     3.505E-02    5.178E-02    6.841E-02    8.494E-02    1.014E-01    1.177E-01    1.339E-01    1.501E-01    1.661E-01    1.820E-01
     1.979E-01    2.136E-01    2.292E-01    2.448E-01    2.602E-01    2.755E-01    2.907E-01    3.058E-01    3.208E-01    3.357E-01
     3.505E-01    3.651E-01    3.797E-01    3.942E-01    4.085E-01    4.228E-01    4.369E-01    4.509E-01    4.648E-01    4.786E-01
     4.923E-01    5.059E-01    5.193E-01    5.327E-01    5.459E-01    5.590E-01    5.720E-01    5.849E-01    5.977E-01    6.104E-01
     6.229E-01    6.353E-01    6.477E-01    6.598E-01    6.719E-01    6.839E-01    6.957E-01    7.075E-01    7.191E-01    7.306E-01
     7.419E-01    7.532E-01    7.643E-01    7.754E-01    7.863E-01    7.970E-01    8.077E-01    8.182E-01    8.286E-01    8.389E-01
     8.491E-01    8.592E-01    8.691E-01    8.789E-01    8.886E-01    8.982E-01    9.076E-01    9.170E-01    9.262E-01    9.352E-01
     9.442E-01    9.530E-01    9.618E-01    9.704E-01    9.788E-01    9.872E-01    9.954E-01    1.004E+00    1.011E+00    1.019E+00
     1.027E+00    1.035E+00    1.042E+00    1.050E+00    1.057E+00    1.064E+00    1.071E+00    1.078E+00    1.085E+00    1.091E+00
     1.098E+00    1.104E+00    1.110E+00    1.117E+00    1.123E+00    1.128E+00    1.134E+00    1.140E+00    1.145E+00    1.151E+00
     1.156E+00    1.161E+00    1.166E+00    1.171E+00    1.176E+00    1.181E+00    1.185E+00    1.190E+00    1.194E+00    1.198E+00
     1.202E+00    1.206E+00    1.210E+00    1.214E+00    1.218E+00    1.221E+00    1.224E+00    1.228E+00    1.231E+00    1.234E+00
     1.237E+00    1.240E+00    1.242E+00    1.245E+00    1.247E+00    1.250E+00    1.252E+00    1.254E+00    1.256E+00    1.258E+00
     1.260E+00    1.261E+00    1.263E+00    1.264E+00    1.265E+00    1.267E+00    1.268E+00    1.269E+00    1.270E+00    1.270E+00
     1.271E+00    1.271E+00    1.272E+00    1.272E+00    1.272E+00    1.272E+00    1.272E+00    1.272E+00    1.272E+00    1.272E+00
     1.271E+00    1.271E+00    1.270E+00    1.269E+00    1.269E+00    1.268E+00    1.267E+00    1.265E+00    1.264E+00    1.263E+00
     1.261E+00    1.260E+00    1.258E+00    1.256E+00    1.254E+00    1.252E+00    1.250E+00    1.248E+00    1.246E+00    1.244E+00
     1.241E+00    1.239E+00    1.236E+00    1.233E+00    1.231E+00    1.228E+00    1.225E+00    1.222E+00    1.219E+00    1.215E+00
     1.212E+00    1.209E+00    1.205E+00    1.201E+00    1.198E+00    1.194E+00    1.190E+00    1.186E+00    1.182E+00    1.178E+00
     1.174E+00    1.170E+00    1.165E+00    1.161E+00    1.156E+00    1.152E+00    1.147E+00    1.142E+00    1.138E+00    1.133E+00
     1.128E+00    1.123E+00    1.118E+00    1.113E+00    1.107E+00    1.102E+00    1.097E+00    1.091E+00    1.086E+00    1.080E+00
     1.074E+00    1.069E+00    1.063E+00    1.057E+00    1.051E+00    1.045E+00    1.039E+00    1.033E+00    1.027E+00    1.021E+00
     1.015E+00    1.008E+00    1.002E+00    9.954E-01    9.889E-01    9.824E-01    9.758E-01    9.691E-01    9.624E-01    9.557E-01
     9.489E-01    9.420E-01    9.351E-01    9.282E-01    9.212E-01    9.142E-01    9.071E-01    9.000E-01    8.928E-01    8.856E-01
     8.784E-01    8.711E-01    8.637E-01    8.564E-01    8.490E-01    8.415E-01    8.341E-01    8.265E-01    8.190E-01    8.114E-01
     8.038E-01    7.962E-01    7.885E-01    7.808E-01    7.731E-01    7.653E-01    7.575E-01    7.497E-01    7.419E-01    7.340E-01
     7.261E-01    7.182E-01    7.103E-01    7.023E-01    6.944E-01    6.864E-01    6.784E-01    6.703E-01    6.623E-01    6.543E-01
     6.462E-01    6.381E-01    6.300E-01    6.219E-01    6.138E-01    6.056E-01    5.975E-01    5.894E-01    5.812E-01    5.730E-01
     5.649E-01    5.567E-01    5.485E-01    5.403E-01    5.322E-01    5.240E-01    5.158E-01    5.076E-01    4.995E-01    4.913E-01
     4.831E-01    4.749E-01    4.668E-01    4.586E-01    4.505E-01    4.423E-01    4.342E-01    4.261E-01    4.180E-01    4.099E-01
     4.018E-01    3.937E-01    3.856E-01    3.776E-01    3.695E-01    3.615E-01    3.535E-01    3.455E-01    3.376E-01    3.296E-01
     3.217E-01    3.138E-01    3.060E-01    2.981E-01    2.903E-01    2.825E-01    2.747E-01    2.670E-01    2.592E-01    2.515E-01
     2.439E-01    2.362E-01    2.286E-01    2.211E-01    2.135E-01    2.060E-01    1.986E-01    1.911E-01    1.837E-01    1.764E-01
     1.690E-01    1.618E-01    1.545E-01    1.473E-01    1.401E-01    1.330E-01    1.259E-01    1.189E-01    1.119E-01    1.049E-01
     9.804E-02    9.118E-02    8.437E-02    7.761E-02    7.089E-02    6.423E-02    5.761E-02    5.105E-02    4.453E-02    3.807E-02
     3.167E-02    2.531E-02    1.901E-02    1.277E-02    6.579E-03    4.469E-04   -5.628E-03   -1.164E-02   -1.760E-02   -2.350E-02
    -2.934E-02   -3.512E-02   -4.083E-02   -4.649E-02   -5.208E-02   -5.760E-02   -6.307E-02   -6.847E-02   -7.380E-02   -7.907E-02
    -8.427E-02   -8.940E-02   -9.446E-02   -9.946E-02   -1.044E-01   -1.092E-01   -1.140E-01   -1.187E-01   -1.234E-01   -1.280E-01
    -1.325E-01   -1.369E-01   -1.412E-01   -1.455E-01   -1.497E-01   -1.538E-01   -1.579E-01   -1.619E-01   -1.657E-01   -1.696E-01
    -1.733E-01   -1.770E-01   -1.805E-01   -1.840E-01   -1.875E-01   -1.908E-01   -1.940E-01   -1.972E-01   -2.003E-01   -2.033E-01
    -2.062E-01   -2.091E-01   -2.118E-01   -2.145E-01   -2.171E-01   -2.196E-01   -2.220E-01   -2.243E-01   -2.266E-01   -2.287E-01
    -2.308E-01   -2.328E-01   -2.347E-01   -2.365E-01   -2.382E-01   -2.398E-01   -2.413E-01   -2.428E-01   -2.441E-01   -2.454E-01
    -2.465E-01   -2.476E-01   -2.486E-01   -2.495E-01   -2.503E-01   -2.510E-01   -2.516E-01   -2.521E-01   -2.525E-01   -2.528E-01
    -2.530E-01   -2.532E-01   -2.532E-01   -2.532E-01   -2.530E-01   -2.528E-01   -2.524E-01   -2.520E-01   -2.514E-01   -2.508E-01
    -2.501E-01   -2.492E-01   -2.483E-01   -2.473E-01   -2.462E-01   -2.449E-01   -2.436E-01   -2.422E-01   -2.407E-01   -2.391E-01
    -2.374E-01   -2.355E-01   -2.336E-01   -2.316E-01   -2.295E-01   -2.273E-01   -2.250E-01   -2.226E-01   -2.201E-01   -2.175E-01
    -2.147E-01   -2.119E-01   -2.090E-01   -2.060E-01   -2.029E-01   -1.997E-01   -1.964E-01   -1.930E-01   -1.895E-01   -1.859E-01
    -1.822E-01   -1.784E-01   -1.744E-01   -1.704E-01   -1.663E-01   -1.621E-01   -1.578E-01   -1.534E-01   -1.489E-01   -1.443E-01
    -1.396E-01   -1.348E-01   -1.299E-01   -1.249E-01   -1.198E-01   -1.146E-01   -1.093E-01   -1.038E-01
 Asp      Conc. = 1.67E+01
