 LCModel (Version 6.3-1L) Copyright: S.W. Provencher.          Ref.: Magn. Reson. Med. 30:672-679 (1993).                
 Slice#1 Row#12 Col#1  PD_24_press_2_raw_act
 36 lines in following concentration table = NCONC+1
    Conc.  %SD /Cr+PCr  Metabolite                                         
 6.12E+03   9%   0.000 Ala                                                 
    0.000 999%   0.000 Asp                                                 
    0.000 999%   0.000 Cr                                                  
    0.000 999%   0.000 PCr                                                 
    0.450 999%   0.000 GABA                                                
    0.693 999%   0.000 Glc                                                 
 1.64E+03  27%   0.000 Gln                                                 
    0.000 999%   0.000 Glu                                                 
    4.989 358%   0.000 GPC                                                 
    0.000 999%   0.000 PCh                                                 
   75.268 100%   0.000 GSH                                                 
   56.770 364%   0.000 Ins                                                 
 2.39E+03  26%   0.000 Lac                                                 
    0.000 999%   0.000 NAA                                                 
    0.000 999%   0.000 NAAG                                                
    0.685 359%   0.000 Scyllo                                              
    1.390 880%   0.000 Tau                                                 
   13.374 286%   0.000 -CrCH2                                              
    4.989 358%   0.000 GPC+PCh                                             
    0.000 999%   0.000 NAA+NAAG                                            
    0.000 999%   0.000 Cr+PCr                                              
 1.64E+03  27%   0.000 Glu+Gln                                             
    0.000 999%   0.000 Lip13a                                              
    0.000 999%   0.000 Lip13b                                              
    0.000 999%   0.000 Lip09                                               
 2.41E+03   8%   0.000 MM09                                                
   25.462 351%   0.000 Lip20                                               
 3.33E+03   8%   0.000 MM20                                                
  716.319  10%   0.000 MM12                                                
 2.87E+03   5%   0.000+MM14                                                
 1.59E+03   8%   0.000+MM17                                                
    0.000 999%   0.000 Lip13a+Lip13b                                       
 3.59E+03   5%   0.000 MM14+Lip13a+Lip13b+MM12                             
 2.41E+03   8%   0.000 MM09+Lip09                                          
 3.35E+03   8%   0.000 MM20+Lip20                                          
   6 lines in following misc. output table
  FWHM = 0.168 ppm    S/N =  13                                            
  Data shift = 0.076 ppm                                                   
  Ph: 139 deg      67.6 deg/ppm                                            
  alphaB,S = 6.6E-01,   4.1E+02                                            
    8 spline knots.   Ns = 9(2)                                            
  (14) 4 infls.   ( 3) 1 extrs.                                            
  498 points on ppm-axis = NY
      4.000000     3.992357     3.984714     3.977070     3.969427     3.961784     3.954141     3.946497     3.938854     3.931211
      3.923568     3.915925     3.908281     3.900638     3.892995     3.885352     3.877708     3.870065     3.862422     3.854779
      3.847136     3.839492     3.831849     3.824206     3.816563     3.808919     3.801276     3.793633     3.785990     3.778347
      3.770703     3.763060     3.755417     3.747774     3.740130     3.732487     3.724844     3.717201     3.709558     3.701914
      3.694271     3.686628     3.678985     3.671341     3.663698     3.656055     3.648412     3.640769     3.633125     3.625482
      3.617839     3.610196     3.602552     3.594909     3.587266     3.579623     3.571980     3.564336     3.556693     3.549050
      3.541407     3.533763     3.526120     3.518477     3.510834     3.503191     3.495547     3.487904     3.480261     3.472618
      3.464974     3.457331     3.449688     3.442045     3.434402     3.426758     3.419115     3.411472     3.403829     3.396185
      3.388542     3.380899     3.373256     3.365613     3.357969     3.350326     3.342683     3.335040     3.327396     3.319753
      3.312110     3.304467     3.296824     3.289180     3.281537     3.273894     3.266251     3.258607     3.250964     3.243321
      3.235678     3.228034     3.220391     3.212748     3.205105     3.197462     3.189818     3.182175     3.174532     3.166889
      3.159245     3.151602     3.143959     3.136316     3.128673     3.121029     3.113386     3.105743     3.098100     3.090456
      3.082813     3.075170     3.067527     3.059884     3.052240     3.044597     3.036954     3.029311     3.021667     3.014024
      3.006381     2.998738     2.991095     2.983451     2.975808     2.968165     2.960522     2.952878     2.945235     2.937592
      2.929949     2.922306     2.914662     2.907019     2.899376     2.891733     2.884089     2.876446     2.868803     2.861160
      2.853517     2.845873     2.838230     2.830587     2.822944     2.815300     2.807657     2.800014     2.792371     2.784728
      2.777084     2.769441     2.761798     2.754155     2.746511     2.738868     2.731225     2.723582     2.715939     2.708295
      2.700652     2.693009     2.685366     2.677722     2.670079     2.662436     2.654793     2.647150     2.639506     2.631863
      2.624220     2.616577     2.608933     2.601290     2.593647     2.586004     2.578361     2.570717     2.563074     2.555431
      2.547788     2.540144     2.532501     2.524858     2.517215     2.509572     2.501928     2.494285     2.486642     2.478999
      2.471355     2.463712     2.456069     2.448426     2.440783     2.433139     2.425496     2.417853     2.410210     2.402566
      2.394923     2.387280     2.379637     2.371994     2.364350     2.356707     2.349064     2.341421     2.333777     2.326134
      2.318491     2.310848     2.303205     2.295561     2.287918     2.280275     2.272632     2.264988     2.257345     2.249702
      2.242059     2.234416     2.226772     2.219129     2.211486     2.203843     2.196199     2.188556     2.180913     2.173270
      2.165627     2.157983     2.150340     2.142697     2.135054     2.127410     2.119767     2.112124     2.104481     2.096838
      2.089194     2.081551     2.073908     2.066265     2.058621     2.050978     2.043335     2.035692     2.028049     2.020405
      2.012762     2.005119     1.997476     1.989833     1.982190     1.974546     1.966903     1.959260     1.951617     1.943974
      1.936331     1.928688     1.921045     1.913402     1.905759     1.898115     1.890472     1.882829     1.875186     1.867543
      1.859900     1.852257     1.844614     1.836971     1.829327     1.821684     1.814041     1.806398     1.798755     1.791112
      1.783469     1.775826     1.768183     1.760540     1.752896     1.745253     1.737610     1.729967     1.722324     1.714681
      1.707038     1.699395     1.691752     1.684108     1.676465     1.668822     1.661179     1.653536     1.645893     1.638250
      1.630607     1.622964     1.615321     1.607677     1.600034     1.592391     1.584748     1.577105     1.569462     1.561819
      1.554176     1.546533     1.538890     1.531246     1.523603     1.515960     1.508317     1.500674     1.493031     1.485388
      1.477745     1.470102     1.462458     1.454815     1.447172     1.439529     1.431886     1.424243     1.416600     1.408957
      1.401314     1.393671     1.386027     1.378384     1.370741     1.363098     1.355455     1.347812     1.340169     1.332526
      1.324883     1.317240     1.309596     1.301953     1.294310     1.286667     1.279024     1.271381     1.263738     1.256095
      1.248452     1.240808     1.233165     1.225522     1.217879     1.210236     1.202593     1.194950     1.187307     1.179664
      1.172021     1.164377     1.156734     1.149091     1.141448     1.133805     1.126162     1.118519     1.110876     1.103233
      1.095590     1.087946     1.080303     1.072660     1.065017     1.057374     1.049731     1.042088     1.034445     1.026802
      1.019158     1.011515     1.003872     0.996229     0.988586     0.980943     0.973300     0.965657     0.958014     0.950371
      0.942727     0.935084     0.927441     0.919798     0.912155     0.904512     0.896869     0.889226     0.881583     0.873940
      0.866296     0.858653     0.851010     0.843367     0.835724     0.828081     0.820438     0.812795     0.805152     0.797508
      0.789865     0.782222     0.774579     0.766936     0.759293     0.751650     0.744007     0.736364     0.728721     0.721077
      0.713434     0.705791     0.698148     0.690505     0.682862     0.675219     0.667576     0.659933     0.652290     0.644646
      0.637003     0.629360     0.621717     0.614074     0.606431     0.598788     0.591145     0.583502     0.575858     0.568215
      0.560572     0.552929     0.545286     0.537643     0.530000     0.522357     0.514714     0.507071     0.499427     0.491784
      0.484141     0.476498     0.468855     0.461212     0.453569     0.445925     0.438282     0.430639     0.422996     0.415353
      0.407710     0.400067     0.392424     0.384780     0.377137     0.369494     0.361851     0.354208     0.346565     0.338922
      0.331278     0.323635     0.315992     0.308349     0.300706     0.293063     0.285420     0.277777     0.270133     0.262490
      0.254847     0.247204     0.239561     0.231918     0.224275     0.216631     0.208988     0.201345
 NY phased data points follow
   3.82442E+00  1.20187E+00  5.14367E+00  5.29711E+00  4.86297E+00  2.62495E+00  4.93416E+00  7.52366E-01  4.69939E+00  2.07169E+00
   3.11824E+00  2.01057E+00  3.73623E+00  1.22173E+00  3.01823E+00  2.06877E+00  4.66067E+00  1.48897E+00  2.01209E+00  2.40932E+00
   3.71249E+00  1.76669E+00  4.10842E+00  3.43850E+00  4.17555E+00  1.33404E+00  2.18342E+00  2.70565E+00  2.67438E+00  1.94055E+00
   4.22817E+00  1.45233E+00  3.68182E+00  1.06079E+00  3.01625E+00  1.77849E+00  2.52988E+00  1.08898E+00  3.52383E+00  2.14619E+00
   3.14579E+00  2.50527E+00  1.89044E+00  1.53837E+00  2.45130E+00  1.42502E+00  7.69820E-01  6.73926E-01  7.77561E-01 -1.09018E-01
   1.71272E+00 -1.15992E-01  2.63479E-01 -5.12710E-01  3.51189E-02  2.28030E+00  3.37287E-01 -5.33160E-01  2.02249E-01  3.49676E-01
   8.79734E-01  5.17543E-01 -4.53685E-01  2.09208E+00  1.30041E+00 -2.56255E-01  4.41692E-01 -1.84096E-01  1.44949E-01 -6.18824E-01
   1.70968E+00 -7.76476E-01  2.59525E-01  4.60202E-01  1.46808E+00  1.21748E+00 -5.86089E-01  1.51947E-01  1.01685E+00  4.45788E-01
   6.89350E-01 -9.31812E-01 -1.12598E+00 -2.59566E+00  4.42816E-01 -3.32314E-01  1.55515E+00 -3.30413E-01 -7.21144E-01  1.20805E+00
  -2.45570E-01  7.58927E-01  4.06687E-01 -6.86033E-01 -1.17575E+00  2.80754E-01 -3.81300E-01 -3.63526E-01  9.56347E-02 -2.18685E-01
   2.93893E-01 -1.09363E+00 -1.17520E+00 -1.53555E+00 -2.38762E+00 -9.50999E-01 -2.01426E+00 -1.37768E+00 -1.12094E+00 -1.28266E+00
  -1.25821E+00 -1.41056E+00 -3.81970E-01 -2.68547E+00 -1.14445E+00 -2.10736E+00 -1.61062E+00 -4.64821E-01 -1.76490E+00 -1.02819E+00
  -2.10324E-01 -1.08087E+00 -1.25720E+00 -8.72100E-01 -1.51425E+00 -1.89391E+00 -3.06690E+00 -3.18504E+00 -2.95693E+00 -7.15730E-01
  -3.10101E+00 -2.12260E+00 -1.69119E+00 -3.52916E+00  1.70229E-01 -5.31748E-01 -8.47821E-01 -1.76481E+00 -2.53721E+00 -8.11703E-01
  -8.32304E-01 -8.77192E-01 -8.96788E-01 -4.32242E+00 -3.65865E+00 -1.66503E+00 -3.71144E+00 -1.98111E+00 -2.40193E+00 -2.82191E+00
  -4.52591E-02 -2.48727E+00 -1.54221E+00 -2.86252E+00 -2.08893E+00 -2.91534E+00 -2.31746E+00 -4.57866E+00 -3.41343E+00 -3.58095E+00
  -4.09325E+00 -4.93809E+00 -3.06385E+00 -2.07271E+00 -3.43398E+00 -4.71072E+00 -5.70325E+00 -4.10180E+00 -3.72716E+00 -3.95872E+00
  -5.51285E+00 -5.18852E+00 -3.14010E+00 -5.09938E+00 -3.66643E+00 -4.70072E+00 -6.29361E+00 -3.91541E+00 -5.49593E+00 -6.77357E+00
  -7.09469E+00 -6.55118E+00 -5.63927E+00 -8.55814E+00 -3.84806E+00 -7.20166E+00 -5.45863E+00 -6.96345E+00 -6.32191E+00 -6.18905E+00
  -8.69980E+00 -7.26076E+00 -7.92514E+00 -5.82375E+00 -6.98121E+00 -6.43029E+00 -8.13904E+00 -6.63555E+00 -6.01204E+00 -6.64575E+00
  -7.63642E+00 -8.10980E+00 -6.57121E+00 -7.72568E+00 -6.19976E+00 -6.64397E+00 -7.50541E+00 -7.13308E+00 -5.35369E+00 -6.63292E+00
  -4.91051E+00 -6.60006E+00 -6.44829E+00 -5.60319E+00 -6.70505E+00 -4.77512E+00 -4.03727E+00 -4.67258E+00 -3.61565E+00 -4.27626E+00
  -3.61913E+00 -2.15936E+00 -3.17570E+00 -4.03651E+00 -3.07350E+00 -3.12127E+00 -3.60394E+00 -2.21883E+00 -2.81096E+00 -2.48504E+00
  -3.30832E+00 -1.73927E+00 -2.85362E+00 -9.99335E-01 -8.48944E-01 -1.29402E+00 -7.86244E-01 -1.29991E+00 -1.29644E+00 -9.72285E-01
  -4.25169E-01  2.45463E+00 -1.05658E+00  8.37793E-01  1.09674E+00  5.57710E-01 -2.34461E+00 -1.21733E+00 -3.38070E+00 -2.56825E+00
  -3.02367E+00 -3.62549E+00 -4.08988E+00 -3.40573E+00 -4.44860E+00 -2.05641E+00 -3.63774E+00 -4.55443E+00 -6.40740E+00 -4.15158E+00
  -3.37933E+00 -2.17856E+00 -3.89702E+00 -4.56253E+00 -4.01396E+00 -4.57711E+00 -4.76582E+00 -6.25655E+00 -6.32941E+00 -4.66040E+00
  -7.27761E+00 -5.14962E+00 -6.82978E+00 -7.18897E+00 -7.56375E+00 -7.87602E+00 -8.02062E+00 -7.92644E+00 -7.69853E+00 -9.52281E+00
  -8.72640E+00 -1.13674E+01 -8.82162E+00 -8.16567E+00 -1.03686E+01 -9.80421E+00 -9.18923E+00 -9.26581E+00 -9.35112E+00 -1.02999E+01
  -8.85579E+00 -7.57294E+00 -7.87215E+00 -6.06317E+00 -6.82366E+00 -7.05650E+00 -4.55501E+00 -2.35128E+00 -7.93776E-01  1.65217E+00
   3.51232E+00  5.40781E+00  8.46388E+00  9.66642E+00  1.24813E+01  1.40365E+01  1.73848E+01  2.09235E+01  2.21375E+01  2.29271E+01
   2.39050E+01  2.56067E+01  2.50941E+01  2.62369E+01  2.68047E+01  2.75731E+01  2.69299E+01  2.44332E+01  2.50082E+01  2.63458E+01
   2.44328E+01  2.15070E+01  2.16272E+01  2.09747E+01  1.85341E+01  1.83532E+01  1.49345E+01  1.59687E+01  1.31921E+01  1.30410E+01
   1.14445E+01  1.13250E+01  1.01642E+01  8.91045E+00  9.66086E+00  8.96329E+00  8.60836E+00  9.08958E+00  7.11709E+00  6.40641E+00
   6.38746E+00  5.71602E+00  5.10917E+00  6.23229E+00  4.93846E+00  4.61208E+00  2.76682E+00  3.06585E+00  4.29365E+00  1.93524E+00
   2.55605E-01  1.66113E+00  2.31570E+00  2.21733E+00  4.19059E-01  8.40386E-01  4.32795E-01  4.86811E-01 -9.97248E-01  7.87958E-01
  -1.61913E-01  1.26214E+00 -1.47304E-01  1.33976E-01  1.26735E+00 -1.19432E-01  5.13108E-01  2.02620E+00  1.21834E+00  6.07605E-01
  -1.31100E-01 -1.01033E+00  1.15113E+00  1.85559E+00  1.11242E+00  3.20382E+00  1.04907E+00  8.53687E-01  6.55139E-01  1.82196E+00
   1.72624E-01  1.60093E+00 -5.68880E-01  1.00434E+00 -3.31959E-01 -1.48123E+00 -3.39681E-01  7.98790E-01  1.71047E+00  1.10805E-01
  -3.34193E-01  2.52136E+00  3.56813E-01  1.84594E+00 -7.51685E-01 -1.19003E+00 -4.05230E-01  2.01540E+00  1.69611E+00 -1.42456E-01
   2.49598E-01  1.19741E-01  1.54130E+00  1.21260E+00 -1.88306E-01  3.24468E-01  2.21143E-03  1.09317E+00  6.87954E-02  7.60381E-02
  -1.12227E+00 -8.96794E-01 -9.61415E-01 -2.67645E-01 -1.63403E+00 -9.54152E-01 -1.11154E+00 -7.08353E-01 -1.98798E+00  5.45941E-01
  -7.50684E-01  6.45799E-01 -1.67908E+00  1.44315E+00 -1.47938E+00 -7.70024E-01 -1.93624E+00 -7.74751E-01 -1.37750E+00 -1.06164E+00
  -2.99318E+00 -3.07092E-01 -1.46249E+00 -1.14471E+00 -1.01349E+00 -1.60667E+00 -6.76529E-01 -1.96667E+00 -6.73820E-01  8.13571E-01
  -2.91062E-01 -5.28552E-01  7.12185E-01  6.42170E-01 -1.33868E+00 -7.12382E-01 -6.09083E-01  1.21801E+00 -1.88056E-01 -6.45770E-01
  -7.46476E-03  4.38662E-01 -1.60274E+00 -1.05458E+00 -6.18741E-01  7.04189E-01  6.95050E-01 -1.67611E+00 -5.42279E-01 -1.46614E+00
  -1.40585E-01 -2.22062E+00 -9.52668E-01 -1.04052E+00 -4.24234E+00 -3.60884E+00  3.64157E-01 -2.17760E+00 -3.50152E-01 -1.42427E+00
  -1.02837E+00 -1.01190E+00  6.53832E-01 -8.13492E-01 -2.51196E-01 -1.16173E+00 -5.79718E-01  4.82230E-01  2.32978E-01  4.32049E-01
  -6.73008E-01 -1.30516E+00 -5.80467E-01 -1.46453E+00 -8.87148E-01 -1.25230E+00 -1.07025E+00 -3.52197E-01 -1.98580E+00 -1.10148E+00
  -9.11352E-01 -6.59100E-01 -1.66663E+00 -5.30021E-01 -1.37636E+00 -7.27661E-01 -8.13652E-01 -3.88867E-02
 NY points of the fit to the data follow
   3.00058E+00  3.35253E+00  2.80619E+00  3.17141E+00  2.83438E+00  3.30704E+00  3.19486E+00  3.88408E+00  3.58944E+00  4.01144E+00
   3.45328E+00  3.72355E+00  3.04390E+00  3.25979E+00  2.43307E+00  3.09773E+00  2.47991E+00  3.23231E+00  2.65684E+00  3.31473E+00
   2.71927E+00  3.32971E+00  2.72004E+00  3.10905E+00  2.58424E+00  2.78580E+00  2.42871E+00  2.43514E+00  2.32209E+00  2.24650E+00
   2.44066E+00  2.24074E+00  2.65332E+00  2.25048E+00  2.75964E+00  2.12059E+00  2.67316E+00  1.87925E+00  2.47111E+00  1.62102E+00
   2.21923E+00  1.44620E+00  2.02726E+00  1.28722E+00  1.83692E+00  1.21143E+00  1.75892E+00  1.29503E+00  1.65472E+00  1.23051E+00
   1.45392E+00  1.04575E+00  1.13409E+00  7.46847E-01  7.42923E-01  6.17714E-01  6.81251E-01  6.18888E-01  6.70288E-01  6.39242E-01
   6.48195E-01  6.11803E-01  5.64782E-01  4.98023E-01  4.46323E-01  3.79961E-01  3.30437E-01  2.67214E-01  2.21987E-01  1.61644E-01
   1.19113E-01  5.79079E-02  1.54639E-02 -4.61380E-02 -8.78443E-02 -1.48592E-01 -1.88687E-01 -2.48378E-01 -2.85955E-01 -3.44685E-01
  -3.80965E-01 -4.36936E-01 -4.70316E-01 -5.21916E-01 -5.46492E-01 -5.83719E-01 -6.09127E-01 -6.37476E-01 -6.64457E-01 -6.83409E-01
  -7.10599E-01 -7.18087E-01 -7.46846E-01 -7.43800E-01 -7.74103E-01 -7.61869E-01 -7.94242E-01 -7.74514E-01 -8.07220E-01 -7.79983E-01
  -8.12228E-01 -7.80343E-01 -8.12175E-01 -7.78088E-01 -8.07403E-01 -7.72503E-01 -7.94917E-01 -7.57988E-01 -7.72859E-01 -7.35123E-01
  -7.42894E-01 -7.04657E-01 -7.05186E-01 -6.66357E-01 -6.58195E-01 -6.13686E-01 -6.01421E-01 -5.69311E-01 -5.61748E-01 -5.44423E-01
  -5.46311E-01 -5.38592E-01 -5.46811E-01 -5.48232E-01 -5.62462E-01 -5.79026E-01 -6.09434E-01 -6.47591E-01 -6.95141E-01 -7.53536E-01
  -8.17142E-01 -8.96774E-01 -9.77789E-01 -1.07883E+00 -1.17624E+00 -1.29539E+00 -1.40581E+00 -1.53691E+00 -1.65487E+00 -1.79440E+00
  -1.91811E+00 -2.06514E+00 -2.19447E+00 -2.34669E+00 -2.47877E+00 -2.63074E+00 -2.76128E+00 -2.90818E+00 -3.03506E+00 -3.17478E+00
  -3.29724E+00 -3.43147E+00 -3.54815E+00 -3.67366E+00 -3.78220E+00 -3.89381E+00 -3.99449E+00 -4.10091E+00 -4.19716E+00 -4.29913E+00
  -4.39118E+00 -4.48547E+00 -4.57157E+00 -4.65676E+00 -4.73659E+00 -4.81613E+00 -4.89175E+00 -4.96971E+00 -5.04029E+00 -5.11655E+00
  -5.17999E+00 -5.24975E+00 -5.30493E+00 -5.36722E+00 -5.41497E+00 -5.47610E+00 -5.52989E+00 -5.63033E+00 -5.69530E+00 -5.86250E+00
  -5.96035E+00 -6.13729E+00 -6.24408E+00 -6.40720E+00 -6.44362E+00 -6.51085E+00 -6.49373E+00 -6.52913E+00 -6.43606E+00 -6.46267E+00
  -6.37068E+00 -6.43823E+00 -6.45658E+00 -6.76840E+00 -6.73931E+00 -6.97414E+00 -6.88446E+00 -7.06347E+00 -6.93377E+00 -7.10139E+00
  -6.93561E+00 -7.07822E+00 -6.88418E+00 -7.00266E+00 -6.79548E+00 -6.87196E+00 -6.66465E+00 -6.69646E+00 -6.46860E+00 -6.40197E+00
  -6.12918E+00 -5.94893E+00 -5.63972E+00 -5.37017E+00 -5.07315E+00 -4.78042E+00 -4.52343E+00 -4.25154E+00 -4.08271E+00 -3.97346E+00
  -3.81966E+00 -3.71643E+00 -3.51341E+00 -3.35965E+00 -3.04575E+00 -2.91484E+00 -2.71426E+00 -2.62887E+00 -2.50076E+00 -2.41507E+00
  -2.36202E+00 -2.27398E+00 -2.35349E+00 -2.29863E+00 -2.36948E+00 -2.16596E+00 -2.24607E+00 -1.91524E+00 -2.01551E+00 -1.59903E+00
  -1.77719E+00 -1.31006E+00 -1.60610E+00 -1.12291E+00 -1.49963E+00 -1.02049E+00 -1.43572E+00 -9.74398E-01 -1.41417E+00 -9.95945E-01
  -1.47400E+00 -1.13537E+00 -1.67266E+00 -1.44956E+00 -2.02449E+00 -1.88644E+00 -2.47654E+00 -2.41444E+00 -3.01361E+00 -3.07593E+00
  -3.65544E+00 -3.75864E+00 -4.27044E+00 -4.39806E+00 -4.81843E+00 -4.98505E+00 -5.40572E+00 -5.59571E+00 -5.99302E+00 -6.20842E+00
  -6.57151E+00 -6.78889E+00 -7.10750E+00 -7.30931E+00 -7.55639E+00 -7.72642E+00 -7.91609E+00 -8.05551E+00 -8.19034E+00 -8.30256E+00
  -8.39166E+00 -8.46238E+00 -8.50608E+00 -8.51816E+00 -8.49457E+00 -8.42996E+00 -8.31926E+00 -8.15444E+00 -7.92798E+00 -7.63094E+00
  -7.25364E+00 -6.78593E+00 -6.21747E+00 -5.53852E+00 -4.74016E+00 -3.81552E+00 -2.75982E+00 -1.57122E+00 -2.51094E-01  1.19634E+00
   2.76309E+00  4.43990E+00  6.21581E+00  8.08288E+00  1.00367E+01  1.20870E+01  1.42662E+01  1.66672E+01  1.95088E+01  2.26641E+01
   2.42886E+01  2.64033E+01  2.67770E+01  2.79380E+01  2.72027E+01  2.74054E+01  2.53693E+01  2.61622E+01  2.43726E+01  2.50071E+01
   2.29445E+01  2.29741E+01  2.06594E+01  2.04209E+01  1.80896E+01  1.74552E+01  1.53353E+01  1.44395E+01  1.30781E+01  1.23998E+01
   1.13659E+01  1.05021E+01  1.01163E+01  9.16507E+00  9.28287E+00  8.01999E+00  8.21450E+00  7.29468E+00  7.52767E+00  6.65065E+00
   6.70116E+00  5.93076E+00  5.84764E+00  5.49161E+00  5.01010E+00  4.66980E+00  3.96605E+00  3.87473E+00  3.21772E+00  3.55916E+00
   2.43616E+00  2.93075E+00  1.81474E+00  2.31702E+00  1.05189E+00  1.39587E+00  4.09967E-02  7.66549E-01 -2.04757E-02  6.84044E-01
   1.65226E-01  7.92208E-01  4.73257E-01  1.01910E+00  7.41778E-01  1.01024E+00  8.34972E-01  9.64099E-01  9.59223E-01  1.13907E+00
   9.94251E-01  9.86475E-01  8.18737E-01  5.90947E-01  3.86079E-01  3.72200E-03 -1.58301E-01 -2.08711E-01 -2.02716E-01 -1.59420E-01
  -8.87753E-02  3.89637E-03  1.14008E-01  2.38569E-01  3.73951E-01  5.17418E-01  6.65289E-01  8.14723E-01  9.62037E-01  1.10449E+00
   1.23860E+00  1.36190E+00  1.47129E+00  1.56486E+00  1.64023E+00  1.69630E+00  1.73152E+00  1.74561E+00  1.73788E+00  1.70894E+00
   1.65898E+00  1.58943E+00  1.50116E+00  1.39617E+00  1.27582E+00  1.14253E+00  9.97982E-01  8.44760E-01  6.84579E-01  5.19970E-01
   3.52520E-01  1.84586E-01  1.75074E-02 -1.46685E-01 -3.07026E-01 -4.61870E-01 -6.10624E-01 -7.51986E-01 -8.85728E-01 -1.01091E+00
  -1.12766E+00 -1.23533E+00 -1.33429E+00 -1.42409E+00 -1.50530E+00 -1.57769E+00 -1.64196E+00 -1.69797E+00 -1.74650E+00 -1.78745E+00
  -1.82165E+00 -1.84905E+00 -1.87051E+00 -1.88594E+00 -1.89619E+00 -1.90115E+00 -1.90165E+00 -1.89760E+00 -1.88977E+00 -1.87801E+00
  -1.86307E+00 -1.84478E+00 -1.82386E+00 -1.80012E+00 -1.77424E+00 -1.74598E+00 -1.71599E+00 -1.68402E+00 -1.65070E+00 -1.61576E+00
  -1.57980E+00 -1.54251E+00 -1.50448E+00 -1.46538E+00 -1.42581E+00 -1.38542E+00 -1.34476E+00 -1.30347E+00 -1.26211E+00 -1.22030E+00
  -1.17861E+00 -1.13662E+00 -1.09489E+00 -1.05300E+00 -1.01150E+00 -9.69970E-01 -9.28958E-01 -8.88021E-01 -8.47695E-01 -8.07539E-01
  -7.68095E-01 -7.28917E-01 -6.90531E-01 -6.52481E-01 -6.15288E-01 -5.78502E-01 -5.42645E-01 -5.07259E-01 -4.72854E-01 -4.38961E-01
  -4.06093E-01 -3.73786E-01 -3.42549E-01 -3.11907E-01 -2.82355E-01 -2.53415E-01 -2.25583E-01 -1.98377E-01 -1.72285E-01 -1.46807E-01
  -1.22416E-01 -9.86012E-02 -7.58265E-02 -5.35545E-02 -3.22175E-02 -1.12321E-02  9.02469E-03  2.92166E-02
 NY background values follow
     2.401E+00    2.351E+00    2.301E+00    2.251E+00    2.202E+00    2.152E+00    2.103E+00    2.053E+00    2.004E+00    1.955E+00
     1.906E+00    1.857E+00    1.808E+00    1.759E+00    1.710E+00    1.662E+00    1.613E+00    1.564E+00    1.516E+00    1.467E+00
     1.419E+00    1.371E+00    1.322E+00    1.274E+00    1.226E+00    1.178E+00    1.130E+00    1.082E+00    1.033E+00    9.854E-01
     9.374E-01    8.895E-01    8.415E-01    7.936E-01    7.457E-01    6.978E-01    6.499E-01    6.021E-01    5.542E-01    5.064E-01
     4.586E-01    4.108E-01    3.629E-01    3.151E-01    2.673E-01    2.194E-01    1.716E-01    1.237E-01    7.588E-02    2.799E-02
    -1.991E-02   -6.784E-02   -1.158E-01   -1.638E-01   -2.118E-01   -2.598E-01   -3.079E-01   -3.560E-01   -4.041E-01   -4.523E-01
    -5.005E-01   -5.488E-01   -5.971E-01   -6.455E-01   -6.939E-01   -7.424E-01   -7.910E-01   -8.396E-01   -8.882E-01   -9.370E-01
    -9.858E-01   -1.035E+00   -1.084E+00   -1.133E+00   -1.182E+00   -1.231E+00   -1.280E+00   -1.329E+00   -1.379E+00   -1.428E+00
    -1.478E+00   -1.528E+00   -1.578E+00   -1.627E+00   -1.678E+00   -1.728E+00   -1.778E+00   -1.828E+00   -1.879E+00   -1.929E+00
    -1.980E+00   -2.031E+00   -2.082E+00   -2.133E+00   -2.184E+00   -2.235E+00   -2.287E+00   -2.338E+00   -2.390E+00   -2.442E+00
    -2.494E+00   -2.546E+00   -2.598E+00   -2.651E+00   -2.703E+00   -2.756E+00   -2.809E+00   -2.862E+00   -2.915E+00   -2.968E+00
    -3.022E+00   -3.076E+00   -3.130E+00   -3.184E+00   -3.238E+00   -3.293E+00   -3.347E+00   -3.402E+00   -3.457E+00   -3.513E+00
    -3.568E+00   -3.624E+00   -3.680E+00   -3.736E+00   -3.792E+00   -3.848E+00   -3.905E+00   -3.962E+00   -4.019E+00   -4.077E+00
    -4.135E+00   -4.192E+00   -4.251E+00   -4.309E+00   -4.368E+00   -4.426E+00   -4.486E+00   -4.545E+00   -4.605E+00   -4.665E+00
    -4.725E+00   -4.785E+00   -4.846E+00   -4.907E+00   -4.968E+00   -5.030E+00   -5.092E+00   -5.154E+00   -5.216E+00   -5.279E+00
    -5.342E+00   -5.405E+00   -5.469E+00   -5.532E+00   -5.597E+00   -5.661E+00   -5.726E+00   -5.791E+00   -5.857E+00   -5.922E+00
    -5.988E+00   -6.055E+00   -6.122E+00   -6.189E+00   -6.256E+00   -6.324E+00   -6.392E+00   -6.461E+00   -6.529E+00   -6.599E+00
    -6.668E+00   -6.738E+00   -6.808E+00   -6.879E+00   -6.950E+00   -7.021E+00   -7.093E+00   -7.165E+00   -7.238E+00   -7.310E+00
    -7.384E+00   -7.457E+00   -7.531E+00   -7.606E+00   -7.681E+00   -7.756E+00   -7.832E+00   -7.908E+00   -7.984E+00   -8.061E+00
    -8.138E+00   -8.216E+00   -8.294E+00   -8.373E+00   -8.452E+00   -8.531E+00   -8.611E+00   -8.691E+00   -8.772E+00   -8.853E+00
    -8.935E+00   -9.017E+00   -9.099E+00   -9.182E+00   -9.265E+00   -9.348E+00   -9.432E+00   -9.516E+00   -9.600E+00   -9.685E+00
    -9.769E+00   -9.854E+00   -9.938E+00   -1.002E+01   -1.011E+01   -1.019E+01   -1.028E+01   -1.036E+01   -1.045E+01   -1.053E+01
    -1.062E+01   -1.070E+01   -1.079E+01   -1.087E+01   -1.095E+01   -1.104E+01   -1.112E+01   -1.120E+01   -1.129E+01   -1.137E+01
    -1.145E+01   -1.153E+01   -1.161E+01   -1.169E+01   -1.177E+01   -1.185E+01   -1.193E+01   -1.201E+01   -1.209E+01   -1.217E+01
    -1.224E+01   -1.232E+01   -1.239E+01   -1.247E+01   -1.254E+01   -1.261E+01   -1.269E+01   -1.276E+01   -1.283E+01   -1.290E+01
    -1.296E+01   -1.303E+01   -1.310E+01   -1.316E+01   -1.323E+01   -1.329E+01   -1.335E+01   -1.341E+01   -1.347E+01   -1.353E+01
    -1.359E+01   -1.364E+01   -1.370E+01   -1.375E+01   -1.380E+01   -1.385E+01   -1.390E+01   -1.395E+01   -1.400E+01   -1.404E+01
    -1.409E+01   -1.413E+01   -1.417E+01   -1.421E+01   -1.424E+01   -1.428E+01   -1.431E+01   -1.435E+01   -1.438E+01   -1.441E+01
    -1.443E+01   -1.446E+01   -1.448E+01   -1.450E+01   -1.452E+01   -1.454E+01   -1.456E+01   -1.457E+01   -1.458E+01   -1.459E+01
    -1.460E+01   -1.460E+01   -1.461E+01   -1.461E+01   -1.461E+01   -1.460E+01   -1.460E+01   -1.459E+01   -1.458E+01   -1.457E+01
    -1.455E+01   -1.454E+01   -1.452E+01   -1.450E+01   -1.447E+01   -1.445E+01   -1.442E+01   -1.439E+01   -1.436E+01   -1.433E+01
    -1.429E+01   -1.425E+01   -1.421E+01   -1.417E+01   -1.413E+01   -1.408E+01   -1.404E+01   -1.399E+01   -1.394E+01   -1.388E+01
    -1.383E+01   -1.377E+01   -1.371E+01   -1.365E+01   -1.359E+01   -1.353E+01   -1.347E+01   -1.340E+01   -1.333E+01   -1.326E+01
    -1.319E+01   -1.312E+01   -1.305E+01   -1.297E+01   -1.290E+01   -1.282E+01   -1.274E+01   -1.266E+01   -1.258E+01   -1.250E+01
    -1.242E+01   -1.233E+01   -1.225E+01   -1.216E+01   -1.207E+01   -1.198E+01   -1.189E+01   -1.180E+01   -1.171E+01   -1.162E+01
    -1.152E+01   -1.143E+01   -1.133E+01   -1.124E+01   -1.114E+01   -1.104E+01   -1.094E+01   -1.084E+01   -1.074E+01   -1.064E+01
    -1.054E+01   -1.044E+01   -1.033E+01   -1.023E+01   -1.013E+01   -1.002E+01   -9.916E+00   -9.811E+00   -9.705E+00   -9.599E+00
    -9.492E+00   -9.385E+00   -9.278E+00   -9.170E+00   -9.062E+00   -8.954E+00   -8.846E+00   -8.737E+00   -8.628E+00   -8.520E+00
    -8.411E+00   -8.302E+00   -8.193E+00   -8.083E+00   -7.974E+00   -7.865E+00   -7.756E+00   -7.647E+00   -7.539E+00   -7.430E+00
    -7.322E+00   -7.213E+00   -7.105E+00   -6.997E+00   -6.890E+00   -6.782E+00   -6.676E+00   -6.569E+00   -6.463E+00   -6.357E+00
    -6.252E+00   -6.147E+00   -6.042E+00   -5.938E+00   -5.835E+00   -5.731E+00   -5.629E+00   -5.527E+00   -5.425E+00   -5.324E+00
    -5.223E+00   -5.123E+00   -5.023E+00   -4.924E+00   -4.826E+00   -4.728E+00   -4.631E+00   -4.534E+00   -4.438E+00   -4.342E+00
    -4.248E+00   -4.153E+00   -4.060E+00   -3.967E+00   -3.875E+00   -3.783E+00   -3.692E+00   -3.602E+00   -3.513E+00   -3.424E+00
    -3.336E+00   -3.249E+00   -3.162E+00   -3.076E+00   -2.991E+00   -2.907E+00   -2.824E+00   -2.741E+00   -2.660E+00   -2.579E+00
    -2.499E+00   -2.419E+00   -2.341E+00   -2.264E+00   -2.187E+00   -2.111E+00   -2.036E+00   -1.962E+00   -1.890E+00   -1.817E+00
    -1.746E+00   -1.676E+00   -1.607E+00   -1.539E+00   -1.472E+00   -1.405E+00   -1.340E+00   -1.276E+00   -1.213E+00   -1.151E+00
    -1.090E+00   -1.030E+00   -9.710E-01   -9.131E-01   -8.564E-01   -8.008E-01   -7.463E-01   -6.929E-01   -6.406E-01   -5.896E-01
    -5.396E-01   -4.908E-01   -4.433E-01   -3.969E-01   -3.517E-01   -3.077E-01   -2.649E-01   -2.234E-01   -1.831E-01   -1.440E-01
    -1.063E-01   -6.975E-02   -3.454E-02   -6.178E-04    3.200E-02    6.329E-02    9.326E-02    1.219E-01    1.492E-01    1.751E-01
     1.997E-01    2.228E-01    2.446E-01    2.650E-01    2.840E-01    3.015E-01    3.176E-01    3.323E-01
 Ala      Conc. = 6.12E+03
