 LCModel (Version 6.3-1L) Copyright: S.W. Provencher.          Ref.: Magn. Reson. Med. 30:672-679 (1993).                
 Slice#3 Row#9 Col#10  PD_24_press_2_raw_act
 36 lines in following concentration table = NCONC+1
    Conc.  %SD /Cr+PCr  Metabolite                                         
  196.472  56%   0.115 Ala                                                 
    0.000 999%   0.000 Asp                                                 
  246.053 116%   0.143 Cr                                                  
 1.47E+03  20%   0.857 PCr                                                 
    0.000 999%   0.000 GABA                                                
    0.000 999%   0.000 Glc                                                 
 1.08E+03  21%   0.631 Gln                                                 
 1.66E+03  15%   0.968 Glu                                                 
  512.166   4%   0.299 GPC                                                 
    0.000 999%   0.000 PCh                                                 
  348.403  20%   0.203 GSH                                                 
 1.17E+03  22%   0.683 Ins                                                 
    0.000 999%   0.000 Lac                                                 
 2.30E+03   3%   1.341 NAA                                                 
    0.000 999%   0.000 NAAG                                                
   95.508  28% 5.6E-02 Scyllo                                              
    0.000 999%   0.000 Tau                                                 
  697.648  16%   0.407 -CrCH2                                              
  512.166   4%   0.299 GPC+PCh                                             
 2.30E+03   3%   1.341 NAA+NAAG                                            
 1.72E+03   3%   1.000 Cr+PCr                                              
 2.74E+03  13%   1.599 Glu+Gln                                             
 3.53E+03  16%   2.056 Lip13a                                              
    0.000 999%   0.000 Lip13b                                              
    0.000 999%   0.000 Lip09                                               
 1.40E+03  14%   0.818 MM09                                                
  667.391  45%   0.389 Lip20                                               
 3.66E+03  11%   2.132 MM20                                                
  509.152  35%   0.297 MM12                                                
    0.000 999%   0.000 MM14                                                
 1.20E+03  21%   0.699 MM17                                                
 3.53E+03  16%   2.056 Lip13a+Lip13b                                       
 4.04E+03  13%   2.353 MM14+Lip13a+Lip13b+MM12                             
 1.40E+03  14%   0.818 MM09+Lip09                                          
 4.32E+03   9%   2.521 MM20+Lip20                                          
   6 lines in following misc. output table
  FWHM = 0.061 ppm    S/N =  13                                            
  Data shift = 0.023 ppm                                                   
  Ph: -12 deg      -1.5 deg/ppm                                            
  alphaB,S = 7.4E-01,   2.0E+02                                            
   14 spline knots.   Ns = 7(1)                                            
  (13) 2 infls.   ( 7) 1 extrs.                                            
  498 points on ppm-axis = NY
      4.000000     3.992357     3.984714     3.977070     3.969427     3.961784     3.954141     3.946497     3.938854     3.931211
      3.923568     3.915925     3.908281     3.900638     3.892995     3.885352     3.877708     3.870065     3.862422     3.854779
      3.847136     3.839492     3.831849     3.824206     3.816563     3.808919     3.801276     3.793633     3.785990     3.778347
      3.770703     3.763060     3.755417     3.747774     3.740130     3.732487     3.724844     3.717201     3.709558     3.701914
      3.694271     3.686628     3.678985     3.671341     3.663698     3.656055     3.648412     3.640769     3.633125     3.625482
      3.617839     3.610196     3.602552     3.594909     3.587266     3.579623     3.571980     3.564336     3.556693     3.549050
      3.541407     3.533763     3.526120     3.518477     3.510834     3.503191     3.495547     3.487904     3.480261     3.472618
      3.464974     3.457331     3.449688     3.442045     3.434402     3.426758     3.419115     3.411472     3.403829     3.396185
      3.388542     3.380899     3.373256     3.365613     3.357969     3.350326     3.342683     3.335040     3.327396     3.319753
      3.312110     3.304467     3.296824     3.289180     3.281537     3.273894     3.266251     3.258607     3.250964     3.243321
      3.235678     3.228034     3.220391     3.212748     3.205105     3.197462     3.189818     3.182175     3.174532     3.166889
      3.159245     3.151602     3.143959     3.136316     3.128673     3.121029     3.113386     3.105743     3.098100     3.090456
      3.082813     3.075170     3.067527     3.059884     3.052240     3.044597     3.036954     3.029311     3.021667     3.014024
      3.006381     2.998738     2.991095     2.983451     2.975808     2.968165     2.960522     2.952878     2.945235     2.937592
      2.929949     2.922306     2.914662     2.907019     2.899376     2.891733     2.884089     2.876446     2.868803     2.861160
      2.853517     2.845873     2.838230     2.830587     2.822944     2.815300     2.807657     2.800014     2.792371     2.784728
      2.777084     2.769441     2.761798     2.754155     2.746511     2.738868     2.731225     2.723582     2.715939     2.708295
      2.700652     2.693009     2.685366     2.677722     2.670079     2.662436     2.654793     2.647150     2.639506     2.631863
      2.624220     2.616577     2.608933     2.601290     2.593647     2.586004     2.578361     2.570717     2.563074     2.555431
      2.547788     2.540144     2.532501     2.524858     2.517215     2.509572     2.501928     2.494285     2.486642     2.478999
      2.471355     2.463712     2.456069     2.448426     2.440783     2.433139     2.425496     2.417853     2.410210     2.402566
      2.394923     2.387280     2.379637     2.371994     2.364350     2.356707     2.349064     2.341421     2.333777     2.326134
      2.318491     2.310848     2.303205     2.295561     2.287918     2.280275     2.272632     2.264988     2.257345     2.249702
      2.242059     2.234416     2.226772     2.219129     2.211486     2.203843     2.196199     2.188556     2.180913     2.173270
      2.165627     2.157983     2.150340     2.142697     2.135054     2.127410     2.119767     2.112124     2.104481     2.096838
      2.089194     2.081551     2.073908     2.066265     2.058621     2.050978     2.043335     2.035692     2.028049     2.020405
      2.012762     2.005119     1.997476     1.989833     1.982190     1.974546     1.966903     1.959260     1.951617     1.943974
      1.936331     1.928688     1.921045     1.913402     1.905759     1.898115     1.890472     1.882829     1.875186     1.867543
      1.859900     1.852257     1.844614     1.836971     1.829327     1.821684     1.814041     1.806398     1.798755     1.791112
      1.783469     1.775826     1.768183     1.760540     1.752896     1.745253     1.737610     1.729967     1.722324     1.714681
      1.707038     1.699395     1.691752     1.684108     1.676465     1.668822     1.661179     1.653536     1.645893     1.638250
      1.630607     1.622964     1.615321     1.607677     1.600034     1.592391     1.584748     1.577105     1.569462     1.561819
      1.554176     1.546533     1.538890     1.531246     1.523603     1.515960     1.508317     1.500674     1.493031     1.485388
      1.477745     1.470102     1.462458     1.454815     1.447172     1.439529     1.431886     1.424243     1.416600     1.408957
      1.401314     1.393671     1.386027     1.378384     1.370741     1.363098     1.355455     1.347812     1.340169     1.332526
      1.324883     1.317240     1.309596     1.301953     1.294310     1.286667     1.279024     1.271381     1.263738     1.256095
      1.248452     1.240808     1.233165     1.225522     1.217879     1.210236     1.202593     1.194950     1.187307     1.179664
      1.172021     1.164377     1.156734     1.149091     1.141448     1.133805     1.126162     1.118519     1.110876     1.103233
      1.095590     1.087946     1.080303     1.072660     1.065017     1.057374     1.049731     1.042088     1.034445     1.026802
      1.019158     1.011515     1.003872     0.996229     0.988586     0.980943     0.973300     0.965657     0.958014     0.950371
      0.942727     0.935084     0.927441     0.919798     0.912155     0.904512     0.896869     0.889226     0.881583     0.873940
      0.866296     0.858653     0.851010     0.843367     0.835724     0.828081     0.820438     0.812795     0.805152     0.797508
      0.789865     0.782222     0.774579     0.766936     0.759293     0.751650     0.744007     0.736364     0.728721     0.721077
      0.713434     0.705791     0.698148     0.690505     0.682862     0.675219     0.667576     0.659933     0.652290     0.644646
      0.637003     0.629360     0.621717     0.614074     0.606431     0.598788     0.591145     0.583502     0.575858     0.568215
      0.560572     0.552929     0.545286     0.537643     0.530000     0.522357     0.514714     0.507071     0.499427     0.491784
      0.484141     0.476498     0.468855     0.461212     0.453569     0.445925     0.438282     0.430639     0.422996     0.415353
      0.407710     0.400067     0.392424     0.384780     0.377137     0.369494     0.361851     0.354208     0.346565     0.338922
      0.331278     0.323635     0.315992     0.308349     0.300706     0.293063     0.285420     0.277777     0.270133     0.262490
      0.254847     0.247204     0.239561     0.231918     0.224275     0.216631     0.208988     0.201345
 NY phased data points follow
   2.91568E+01  2.50492E+01  2.59571E+01  2.83445E+01  2.69857E+01  3.30114E+01  3.48120E+01  4.20530E+01  4.19545E+01  4.25522E+01
   4.15133E+01  4.50115E+01  3.89876E+01  4.00354E+01  3.09042E+01  3.22535E+01  2.55026E+01  2.88755E+01  2.71928E+01  2.66226E+01
   2.61550E+01  2.42889E+01  2.23906E+01  2.59886E+01  2.31584E+01  2.30526E+01  2.29530E+01  2.69576E+01  2.15247E+01  2.71182E+01
   2.87842E+01  2.98040E+01  2.76422E+01  2.62227E+01  2.12042E+01  2.30040E+01  2.12855E+01  2.37640E+01  2.43902E+01  2.57163E+01
   2.07830E+01  2.21438E+01  2.10951E+01  2.57160E+01  2.53823E+01  2.98243E+01  2.92809E+01  3.17049E+01  2.59091E+01  2.76153E+01
   2.27582E+01  2.09085E+01  2.27576E+01  2.11294E+01  1.94747E+01  2.16606E+01  1.98952E+01  2.44693E+01  1.98443E+01  1.79037E+01
   1.66404E+01  1.69201E+01  1.42691E+01  1.50685E+01  1.01149E+01  1.23029E+01  9.66368E+00  1.19289E+01  9.14522E+00  1.35893E+01
   1.01953E+01  1.58646E+01  1.47289E+01  1.34848E+01  1.07127E+01  1.57830E+01  1.22466E+01  1.39662E+01  9.99356E+00  1.50311E+01
   1.22645E+01  1.61564E+01  1.27217E+01  1.35341E+01  1.30674E+01  1.48074E+01  1.33440E+01  1.44891E+01  1.36993E+01  1.77759E+01
   1.42811E+01  1.57633E+01  1.54943E+01  1.50156E+01  1.50247E+01  1.84013E+01  1.93887E+01  2.13973E+01  3.02115E+01  3.55735E+01
   4.03571E+01  4.86271E+01  4.90888E+01  5.11719E+01  5.12941E+01  4.08710E+01  3.41632E+01  3.25420E+01  2.60095E+01  2.31169E+01
   1.61294E+01  1.83818E+01  1.34238E+01  1.58309E+01  1.09626E+01  1.45437E+01  1.13844E+01  8.13978E+00  8.98362E+00  1.32746E+01
   1.26415E+01  1.87181E+01  2.24636E+01  3.37974E+01  4.45224E+01  5.73180E+01  6.03852E+01  6.30285E+01  5.94746E+01  5.11466E+01
   4.11263E+01  3.75379E+01  2.48180E+01  2.36459E+01  2.00423E+01  1.64307E+01  1.05281E+01  1.46069E+01  1.04649E+01  1.41922E+01
   1.03129E+01  1.39134E+01  6.69304E+00  7.29712E+00  9.65024E+00  7.66265E+00  9.07059E+00  9.80175E+00  6.43254E+00  4.08818E+00
   2.76748E+00  7.67217E+00  4.02568E+00  7.03060E+00  3.88111E+00  4.94454E+00  7.48088E+00  7.20015E+00  5.94216E+00  4.68101E+00
   5.88732E+00  2.91936E+00  1.56239E-01  6.30133E+00  3.25067E+00  3.82833E+00  5.38796E-02 -3.78921E+00 -4.08344E-01 -2.10263E+00
  -5.35089E+00 -4.04422E+00 -7.20848E+00 -8.81400E+00 -1.25995E+01 -1.17600E+01 -9.60878E+00 -8.85806E+00 -7.94662E+00 -3.26840E+00
  -8.49965E+00 -3.48984E+00 -6.31585E+00 -6.09954E+00 -4.99486E+00 -3.94323E+00 -8.29435E+00 -4.68147E+00 -4.05916E+00 -6.95193E+00
   8.99606E-01  4.04495E+00  1.16378E+00  3.79222E+00  2.32214E+00  9.45245E-01 -5.28098E-01 -2.30293E-01  4.75880E-01 -1.70479E+00
  -1.14884E+00  1.89469E+00  4.00317E+00  4.48839E+00  4.67824E+00  4.35361E+00  2.60350E+00  1.22044E+00  2.04729E+00 -2.49096E+00
   3.29089E+00  9.08370E-01  1.06323E+01  1.22810E+01  1.46549E+01  1.59102E+01  1.65758E+01  1.71428E+01  1.22104E+01  8.30888E+00
   4.39096E+00  1.83841E+00  4.05445E+00  3.93233E+00  2.40993E+00  1.01383E+01  7.99006E+00  1.05978E+01  9.09578E+00  1.48479E+01
   1.49676E+01  8.93682E+00  9.80408E+00  1.26471E+01  9.09714E+00  1.18349E+01  1.48073E+01  9.34466E+00  9.14192E+00  1.10763E+01
   7.81367E+00  5.35636E+00  5.67501E+00  8.37765E+00  1.10682E+01  1.21317E+01  1.48031E+01  1.47709E+01  1.32880E+01  1.61133E+01
   1.53852E+01  1.83463E+01  1.76221E+01  2.31600E+01  2.85653E+01  3.37259E+01  4.39664E+01  5.40688E+01  6.78761E+01  8.46914E+01
   8.92716E+01  8.67255E+01  7.08343E+01  6.04702E+01  4.75716E+01  3.59235E+01  2.73163E+01  2.12822E+01  1.50389E+01  1.15959E+01
   1.16180E+01  1.35946E+01  8.96017E+00  6.26504E+00  7.40145E+00  6.52930E+00  4.43314E+00  3.51378E+00  7.67719E+00  4.24272E+00
   7.47105E+00  3.14334E+00  4.97925E+00  7.45657E+00  5.61926E+00  5.13585E+00  2.34447E+00  1.96344E+00  9.80923E-01  5.44398E+00
   3.82922E-01  8.20719E+00  9.69898E+00  7.10246E+00  3.39151E+00  4.28603E+00  5.20134E+00  7.46437E+00  3.13598E-01  8.03100E+00
   7.55893E+00  6.34239E+00  7.11553E+00  8.37309E+00  8.38956E+00  8.09614E+00  7.15637E+00  7.52701E+00  9.92517E+00  1.01883E+01
   1.17171E+01  1.14463E+01  9.99669E+00  6.24033E+00  9.09188E+00  8.66571E+00  9.74837E+00  1.02725E+01  6.10441E+00  7.33168E+00
   5.70089E+00  8.54325E+00  2.74391E+00  2.85204E+00  5.59926E+00  2.55135E+00 -2.29563E+00  6.16433E-01  2.00780E+00 -4.59338E-01
   1.13105E+00  5.49805E+00  8.61916E-01  3.74714E+00  1.15728E+00  4.05314E+00  4.02334E+00  3.13551E+00  5.06001E+00  1.17127E+01
   1.08899E+01  7.60673E+00  8.49528E+00  1.30799E+01  1.21325E+01  1.40392E+01  1.48487E+01  1.19870E+01  1.56026E+01  1.13265E+01
   1.42979E+01  1.47910E+01  1.12266E+01  1.53077E+01  1.42646E+01  1.17414E+01  1.43656E+01  1.20255E+01  1.33685E+01  1.28104E+01
   1.26315E+01  1.07720E+01  1.30382E+01  1.45844E+01  1.35153E+01  1.40287E+01  1.16873E+01  1.08761E+01  1.03910E+01  1.12647E+01
   1.16427E+01  1.34482E+01  1.26509E+01  1.23310E+01  1.28285E+01  8.08845E+00  1.11019E+01  8.46354E+00  1.07663E+01  8.94967E+00
   1.09538E+01  6.70612E+00  1.09353E+01  6.10235E+00  4.48004E+00  1.04067E+01  8.89651E+00  8.70587E+00  5.95012E+00  5.27381E+00
   4.56266E+00  9.00913E+00  5.25577E+00  8.27223E+00  7.56085E+00  8.41809E+00  4.12681E+00  7.55531E+00  7.56386E+00  5.99227E+00
   4.21097E+00  8.21756E+00  1.02437E+01  9.66514E+00  1.15774E+01  1.30629E+01  9.49802E+00  1.15147E+01  8.91188E+00  1.10475E+01
   9.25503E+00  7.40880E+00  8.26986E+00  5.42279E+00  8.47031E+00  7.35962E+00  8.33690E+00  4.73563E+00  6.64177E+00  2.09383E+00
   3.53239E+00  4.51976E+00  4.80928E+00  4.73273E+00  4.91310E+00  6.64414E+00  7.47214E+00  1.13896E+00  4.77241E+00  3.34380E+00
   3.40273E+00  7.32149E-01 -7.47046E-01 -1.82902E-01  3.97013E+00  6.23672E-01  7.54295E-01  3.58268E+00 -2.94849E+00  6.00417E+00
   1.13705E-01  2.00802E+00  1.58471E+00  9.07879E-01  2.21343E+00  2.50065E+00  2.32554E-01 -6.87121E-01  8.16751E-01  2.86186E+00
   1.30969E+00  1.87257E+00  1.47762E+00  4.23020E+00  1.83294E+00  4.53690E+00  1.09438E+00  1.64071E+00  2.50374E-01  1.49074E+00
   2.05737E+00  3.34807E-01 -6.68766E-01  3.85921E-01  9.14660E-02 -1.34503E+00 -1.09838E+00  2.00399E+00  1.62496E+00 -5.70600E-01
  -1.37885E+00  3.93974E+00  1.01106E+00  9.19528E-01 -2.33653E-01  4.87019E+00 -5.68621E-01  2.76872E+00  2.84362E+00  1.10768E+00
  -3.66251E-01  3.14867E-01  1.10556E-01  1.28951E+00  2.37255E+00  1.04356E+00 -2.28929E-01  1.43763E+00  2.90020E-01  1.00143E+00
   1.60871E+00  9.95522E-01  2.14267E-01 -2.59517E+00  3.78347E+00  1.07227E+00  7.39634E-01 -8.47000E-01
 NY points of the fit to the data follow
   2.48801E+01  2.47314E+01  2.52760E+01  2.67466E+01  2.90343E+01  3.21140E+01  3.57075E+01  3.93507E+01  4.24039E+01  4.41803E+01
   4.42592E+01  4.26900E+01  4.00086E+01  3.69271E+01  3.39756E+01  3.13975E+01  2.91537E+01  2.71996E+01  2.57060E+01  2.48062E+01
   2.41998E+01  2.36542E+01  2.30249E+01  2.25160E+01  2.22905E+01  2.24661E+01  2.32328E+01  2.46661E+01  2.65891E+01  2.84881E+01
   2.98425E+01  3.03159E+01  2.97998E+01  2.84937E+01  2.67213E+01  2.48328E+01  2.31622E+01  2.17356E+01  2.06673E+01  2.02661E+01
   2.05634E+01  2.13859E+01  2.25508E+01  2.39511E+01  2.54214E+01  2.66286E+01  2.72855E+01  2.71750E+01  2.61937E+01  2.45681E+01
   2.26834E+01  2.09138E+01  1.95453E+01  1.85894E+01  1.79434E+01  1.76155E+01  1.76581E+01  1.79670E+01  1.82798E+01  1.83819E+01
   1.81753E+01  1.76605E+01  1.69481E+01  1.62003E+01  1.55998E+01  1.52679E+01  1.51678E+01  1.52101E+01  1.53565E+01  1.55519E+01
   1.57250E+01  1.58089E+01  1.57462E+01  1.55357E+01  1.52204E+01  1.48604E+01  1.45192E+01  1.42216E+01  1.39815E+01  1.38338E+01
   1.39024E+01  1.41475E+01  1.44753E+01  1.48432E+01  1.51714E+01  1.53244E+01  1.51781E+01  1.47119E+01  1.40385E+01  1.33778E+01
   1.29024E+01  1.26415E+01  1.25332E+01  1.24959E+01  1.25684E+01  1.33294E+01  1.60444E+01  2.06382E+01  2.66855E+01  3.39893E+01
   4.18507E+01  4.88033E+01  5.30305E+01  5.32806E+01  4.95724E+01  4.32636E+01  3.61947E+01  2.96812E+01  2.41934E+01  1.95266E+01
   1.53486E+01  1.20417E+01  1.04956E+01  1.00389E+01  9.87969E+00  9.83714E+00  9.87348E+00  1.00073E+01  1.03303E+01  1.12367E+01
   1.40901E+01  1.93959E+01  2.65274E+01  3.51883E+01  4.47505E+01  5.37357E+01  6.00559E+01  6.19457E+01  5.89230E+01  5.21783E+01
   4.38804E+01  3.58226E+01  2.87814E+01  2.26487E+01  1.69955E+01  1.20771E+01  9.24748E+00  8.38938E+00  8.23853E+00  8.35041E+00
   8.50360E+00  8.56811E+00  8.53049E+00  8.40399E+00  8.17787E+00  7.88270E+00  7.55151E+00  7.18908E+00  6.81743E+00  6.46075E+00
   6.14503E+00  5.89288E+00  5.69126E+00  5.52395E+00  5.31727E+00  5.03758E+00  4.69416E+00  4.29737E+00  3.91049E+00  3.55659E+00
   3.27872E+00  3.15273E+00  3.17845E+00  3.24161E+00  3.17862E+00  2.89334E+00  2.40609E+00  1.82714E+00  1.27535E+00  7.50062E-01
   1.54414E-01 -4.60677E-01 -1.04605E+00 -1.55039E+00 -1.90565E+00 -2.10077E+00 -2.12268E+00 -2.01473E+00 -1.90138E+00 -1.88874E+00
  -2.01514E+00 -2.17695E+00 -2.21756E+00 -2.08463E+00 -1.77911E+00 -1.31541E+00 -6.58103E-01  2.79796E-01  1.36496E+00  2.32908E+00
   2.91129E+00  2.98463E+00  2.69037E+00  2.26847E+00  1.94799E+00  1.85294E+00  2.01350E+00  2.59440E+00  3.62365E+00  4.92981E+00
   6.26572E+00  7.28373E+00  7.61409E+00  7.06981E+00  5.71727E+00  3.69921E+00  1.29968E+00 -1.00662E+00 -2.59000E+00 -2.89307E+00
  -1.80143E+00  2.74479E-01  2.92227E+00  5.81099E+00  8.39996E+00  1.00247E+01  1.01684E+01  8.77367E+00  6.25212E+00  3.29556E+00
   7.49486E-01 -8.31724E-01 -1.22129E+00 -3.93095E-01  1.37956E+00  3.67763E+00  5.96666E+00  7.70139E+00  8.71320E+00  9.17221E+00
   9.37137E+00  9.42730E+00  9.42401E+00  9.66613E+00  1.03415E+01  1.12640E+01  1.21543E+01  1.27387E+01  1.28236E+01  1.23967E+01
   1.15777E+01  1.06996E+01  1.02081E+01  1.02989E+01  1.08353E+01  1.16629E+01  1.26778E+01  1.37215E+01  1.46853E+01  1.55786E+01
   1.64111E+01  1.71499E+01  1.80616E+01  2.08122E+01  2.69644E+01  3.56223E+01  4.64029E+01  5.88783E+01  7.14698E+01  8.12986E+01
   8.54279E+01  8.25076E+01  7.36503E+01  6.18124E+01  4.99252E+01  3.95433E+01  3.08198E+01  2.30019E+01  1.58312E+01  1.09357E+01
   9.06259E+00  8.16432E+00  7.57035E+00  7.16064E+00  6.84049E+00  6.50450E+00  6.14495E+00  5.76441E+00  5.37387E+00  4.99345E+00
   4.64061E+00  4.31645E+00  4.03263E+00  3.80774E+00  3.64360E+00  3.52880E+00  3.45811E+00  3.43262E+00  3.45645E+00  3.52879E+00
   3.64549E+00  3.81060E+00  4.02795E+00  4.29655E+00  4.61386E+00  4.97495E+00  5.37448E+00  5.80425E+00  6.25436E+00  6.71369E+00
   7.17028E+00  7.61003E+00  8.01964E+00  8.38543E+00  8.69502E+00  8.93690E+00  9.10304E+00  9.18798E+00  9.19040E+00  9.11134E+00
   8.95546E+00  8.72958E+00  8.44434E+00  8.11232E+00  7.74826E+00  7.36735E+00  6.98652E+00  6.62375E+00  6.30187E+00  6.05619E+00
   5.93556E+00  5.89215E+00  5.85482E+00  5.78806E+00  5.63229E+00  5.30404E+00  4.73922E+00  3.94866E+00  3.10721E+00  2.44985E+00
   2.11368E+00  2.16224E+00  2.59469E+00  3.34561E+00  4.29568E+00  5.31820E+00  6.30380E+00  7.10097E+00  7.67174E+00  8.10735E+00
   8.49314E+00  8.86905E+00  9.22268E+00  9.53435E+00  9.87718E+00  1.03066E+01  1.07817E+01  1.12746E+01  1.17697E+01  1.22548E+01
   1.27197E+01  1.31547E+01  1.35516E+01  1.39027E+01  1.42013E+01  1.44414E+01  1.46187E+01  1.47295E+01  1.47722E+01  1.47460E+01
   1.46522E+01  1.44926E+01  1.42708E+01  1.39913E+01  1.36601E+01  1.32833E+01  1.28684E+01  1.24224E+01  1.19534E+01  1.14687E+01
   1.09766E+01  1.04839E+01  9.99773E+00  9.52422E+00  9.06949E+00  8.63852E+00  8.23625E+00  7.86629E+00  7.53221E+00  7.23650E+00
   6.98179E+00  6.76967E+00  6.60184E+00  6.47888E+00  6.40160E+00  6.36985E+00  6.38372E+00  6.44222E+00  6.54429E+00  6.68762E+00
   6.86982E+00  7.08720E+00  7.33585E+00  7.61034E+00  7.90486E+00  8.21214E+00  8.52483E+00  8.83444E+00  9.13270E+00  9.41051E+00
   9.65946E+00  9.87105E+00  1.00382E+01  1.01545E+01  1.02151E+01  1.02166E+01  1.01574E+01  1.00374E+01  9.85872E+00  9.62474E+00
   9.34068E+00  9.01235E+00  8.64703E+00  8.25208E+00  7.83575E+00  7.40558E+00  6.96930E+00  6.53345E+00  6.10441E+00  5.68719E+00
   5.28641E+00  4.90512E+00  4.54596E+00  4.21012E+00  3.89866E+00  3.61146E+00  3.34842E+00  3.10839E+00  2.89042E+00  2.69284E+00
   2.51447E+00  2.35353E+00  2.20879E+00  2.07840E+00  1.96117E+00  1.85549E+00  1.76046E+00  1.67473E+00  1.59757E+00  1.52774E+00
   1.46468E+00  1.40743E+00  1.35570E+00  1.30868E+00  1.26611E+00  1.22724E+00  1.19194E+00  1.15966E+00  1.13041E+00  1.10366E+00
   1.07939E+00  1.05709E+00  1.03686E+00  1.01832E+00  1.00162E+00  9.86337E-01  9.72563E-01  9.59904E-01  9.48569E-01  9.38255E-01
   9.29155E-01  9.20885E-01  9.13603E-01  9.06991E-01  9.01308E-01  8.96275E-01  8.92087E-01  8.88385E-01  8.85369E-01  8.82772E-01
   8.80878E-01  8.79405E-01  8.78548E-01  8.77973E-01  8.77918E-01  8.78148E-01  8.78940E-01  8.80000E-01  8.81518E-01  8.83187E-01
   8.85277E-01  8.87567E-01  8.90319E-01  8.93228E-01  8.96492E-01  8.99836E-01  9.03553E-01  9.07419E-01  9.11674E-01  9.16009E-01
   9.20635E-01  9.25313E-01  9.30343E-01  9.35492E-01  9.40982E-01  9.46508E-01  9.52312E-01  9.58182E-01
 NY background values follow
     2.058E+01    2.046E+01    2.033E+01    2.021E+01    2.008E+01    1.996E+01    1.983E+01    1.971E+01    1.958E+01    1.946E+01
     1.933E+01    1.921E+01    1.908E+01    1.895E+01    1.883E+01    1.870E+01    1.858E+01    1.845E+01    1.833E+01    1.820E+01
     1.808E+01    1.795E+01    1.783E+01    1.770E+01    1.758E+01    1.745E+01    1.733E+01    1.720E+01    1.708E+01    1.695E+01
     1.683E+01    1.670E+01    1.658E+01    1.646E+01    1.633E+01    1.621E+01    1.608E+01    1.596E+01    1.584E+01    1.571E+01
     1.559E+01    1.546E+01    1.534E+01    1.522E+01    1.510E+01    1.497E+01    1.485E+01    1.473E+01    1.460E+01    1.448E+01
     1.436E+01    1.424E+01    1.412E+01    1.399E+01    1.387E+01    1.375E+01    1.363E+01    1.351E+01    1.339E+01    1.327E+01
     1.314E+01    1.302E+01    1.290E+01    1.278E+01    1.266E+01    1.254E+01    1.242E+01    1.230E+01    1.218E+01    1.207E+01
     1.195E+01    1.183E+01    1.171E+01    1.159E+01    1.147E+01    1.135E+01    1.124E+01    1.112E+01    1.100E+01    1.088E+01
     1.077E+01    1.065E+01    1.053E+01    1.042E+01    1.030E+01    1.019E+01    1.007E+01    9.956E+00    9.840E+00    9.726E+00
     9.611E+00    9.496E+00    9.382E+00    9.268E+00    9.155E+00    9.041E+00    8.928E+00    8.815E+00    8.703E+00    8.590E+00
     8.478E+00    8.367E+00    8.255E+00    8.144E+00    8.033E+00    7.923E+00    7.812E+00    7.703E+00    7.593E+00    7.484E+00
     7.375E+00    7.266E+00    7.158E+00    7.051E+00    6.943E+00    6.836E+00    6.729E+00    6.623E+00    6.517E+00    6.412E+00
     6.306E+00    6.202E+00    6.097E+00    5.993E+00    5.890E+00    5.787E+00    5.684E+00    5.582E+00    5.480E+00    5.379E+00
     5.278E+00    5.177E+00    5.077E+00    4.978E+00    4.879E+00    4.780E+00    4.682E+00    4.585E+00    4.488E+00    4.391E+00
     4.295E+00    4.200E+00    4.105E+00    4.010E+00    3.917E+00    3.824E+00    3.731E+00    3.640E+00    3.549E+00    3.459E+00
     3.369E+00    3.280E+00    3.192E+00    3.105E+00    3.018E+00    2.933E+00    2.848E+00    2.764E+00    2.681E+00    2.599E+00
     2.518E+00    2.437E+00    2.358E+00    2.279E+00    2.202E+00    2.126E+00    2.050E+00    1.976E+00    1.902E+00    1.830E+00
     1.759E+00    1.689E+00    1.620E+00    1.552E+00    1.486E+00    1.420E+00    1.356E+00    1.293E+00    1.231E+00    1.171E+00
     1.111E+00    1.053E+00    9.967E-01    9.413E-01    8.872E-01    8.343E-01    7.826E-01    7.321E-01    6.828E-01    6.346E-01
     5.875E-01    5.415E-01    4.966E-01    4.527E-01    4.099E-01    3.681E-01    3.273E-01    2.874E-01    2.485E-01    2.106E-01
     1.735E-01    1.373E-01    1.019E-01    6.739E-02    3.368E-02    7.582E-04   -3.139E-02   -6.280E-02   -9.349E-02   -1.235E-01
    -1.528E-01   -1.814E-01   -2.094E-01   -2.369E-01   -2.637E-01   -2.899E-01   -3.156E-01   -3.408E-01   -3.655E-01   -3.897E-01
    -4.134E-01   -4.367E-01   -4.596E-01   -4.821E-01   -5.043E-01   -5.261E-01   -5.475E-01   -5.687E-01   -5.895E-01   -6.101E-01
    -6.303E-01   -6.503E-01   -6.699E-01   -6.893E-01   -7.083E-01   -7.271E-01   -7.455E-01   -7.637E-01   -7.815E-01   -7.990E-01
    -8.163E-01   -8.332E-01   -8.499E-01   -8.662E-01   -8.823E-01   -8.980E-01   -9.135E-01   -9.287E-01   -9.435E-01   -9.581E-01
    -9.724E-01   -9.864E-01   -1.000E+00   -1.013E+00   -1.027E+00   -1.039E+00   -1.052E+00   -1.064E+00   -1.076E+00   -1.088E+00
    -1.099E+00   -1.110E+00   -1.121E+00   -1.131E+00   -1.141E+00   -1.151E+00   -1.161E+00   -1.170E+00   -1.179E+00   -1.188E+00
    -1.197E+00   -1.205E+00   -1.213E+00   -1.220E+00   -1.227E+00   -1.234E+00   -1.241E+00   -1.248E+00   -1.254E+00   -1.260E+00
    -1.266E+00   -1.271E+00   -1.276E+00   -1.281E+00   -1.285E+00   -1.290E+00   -1.294E+00   -1.298E+00   -1.301E+00   -1.305E+00
    -1.308E+00   -1.310E+00   -1.313E+00   -1.315E+00   -1.317E+00   -1.319E+00   -1.321E+00   -1.322E+00   -1.323E+00   -1.324E+00
    -1.325E+00   -1.325E+00   -1.326E+00   -1.326E+00   -1.325E+00   -1.325E+00   -1.324E+00   -1.323E+00   -1.322E+00   -1.321E+00
    -1.319E+00   -1.318E+00   -1.316E+00   -1.314E+00   -1.311E+00   -1.309E+00   -1.306E+00   -1.303E+00   -1.300E+00   -1.297E+00
    -1.293E+00   -1.289E+00   -1.286E+00   -1.281E+00   -1.277E+00   -1.273E+00   -1.268E+00   -1.264E+00   -1.259E+00   -1.254E+00
    -1.248E+00   -1.243E+00   -1.238E+00   -1.232E+00   -1.226E+00   -1.220E+00   -1.214E+00   -1.208E+00   -1.201E+00   -1.195E+00
    -1.188E+00   -1.181E+00   -1.175E+00   -1.168E+00   -1.160E+00   -1.153E+00   -1.146E+00   -1.138E+00   -1.131E+00   -1.123E+00
    -1.115E+00   -1.108E+00   -1.100E+00   -1.092E+00   -1.083E+00   -1.075E+00   -1.067E+00   -1.059E+00   -1.050E+00   -1.042E+00
    -1.033E+00   -1.024E+00   -1.015E+00   -1.007E+00   -9.978E-01   -9.889E-01   -9.799E-01   -9.709E-01   -9.617E-01   -9.526E-01
    -9.433E-01   -9.340E-01   -9.246E-01   -9.152E-01   -9.057E-01   -8.962E-01   -8.866E-01   -8.769E-01   -8.672E-01   -8.574E-01
    -8.475E-01   -8.376E-01   -8.277E-01   -8.176E-01   -8.075E-01   -7.974E-01   -7.872E-01   -7.769E-01   -7.666E-01   -7.562E-01
    -7.458E-01   -7.353E-01   -7.248E-01   -7.142E-01   -7.035E-01   -6.928E-01   -6.820E-01   -6.712E-01   -6.603E-01   -6.494E-01
    -6.384E-01   -6.273E-01   -6.162E-01   -6.051E-01   -5.939E-01   -5.826E-01   -5.713E-01   -5.599E-01   -5.485E-01   -5.370E-01
    -5.255E-01   -5.139E-01   -5.023E-01   -4.906E-01   -4.789E-01   -4.672E-01   -4.554E-01   -4.436E-01   -4.317E-01   -4.198E-01
    -4.079E-01   -3.959E-01   -3.839E-01   -3.719E-01   -3.598E-01   -3.477E-01   -3.356E-01   -3.235E-01   -3.114E-01   -2.992E-01
    -2.870E-01   -2.748E-01   -2.626E-01   -2.503E-01   -2.381E-01   -2.258E-01   -2.136E-01   -2.013E-01   -1.890E-01   -1.768E-01
    -1.645E-01   -1.522E-01   -1.399E-01   -1.276E-01   -1.153E-01   -1.031E-01   -9.080E-02   -7.854E-02   -6.629E-02   -5.406E-02
    -4.183E-02   -2.962E-02   -1.743E-02   -5.249E-03    6.911E-03    1.905E-02    3.118E-02    4.329E-02    5.539E-02    6.747E-02
     7.953E-02    9.158E-02    1.036E-01    1.156E-01    1.276E-01    1.396E-01    1.516E-01    1.636E-01    1.755E-01    1.874E-01
     1.994E-01    2.113E-01    2.232E-01    2.351E-01    2.469E-01    2.588E-01    2.706E-01    2.825E-01    2.943E-01    3.061E-01
     3.179E-01    3.297E-01    3.415E-01    3.533E-01    3.651E-01    3.768E-01    3.886E-01    4.003E-01    4.120E-01    4.238E-01
     4.355E-01    4.472E-01    4.589E-01    4.706E-01    4.823E-01    4.940E-01    5.056E-01    5.173E-01
 Ala      Conc. = 1.96E+02
