 LCModel (Version 6.3-1L) Copyright: S.W. Provencher.          Ref.: Magn. Reson. Med. 30:672-679 (1993).                
 Slice#3 Row#12 Col#7  PD_24_press_2_raw_act
 36 lines in following concentration table = NCONC+1
    Conc.  %SD /Cr+PCr  Metabolite                                         
   47.895 100%   0.481 Ala                                                 
   10.488  59%   0.105 Asp                                                 
   81.082  96%   0.815 Cr                                                  
   18.401 426%   0.185 PCr                                                 
    6.333  59% 6.4E-02 GABA                                                
    6.258  60% 6.3E-02 Glc                                                 
    0.000 999%   0.000 Gln                                                 
    0.000 999%   0.000 Glu                                                 
   34.359  25%   0.345 GPC                                                 
    0.000 999%   0.000 PCh                                                 
   31.159  97%   0.313 GSH                                                 
  180.788  52%   1.817 Ins                                                 
   98.090  57%   0.986 Lac                                                 
    0.000 999%   0.000 NAA                                                 
    8.051 270% 8.1E-02 NAAG                                                
    2.160  58% 2.2E-02 Scyllo                                              
   10.177  61%   0.102 Tau                                                 
    7.942 100% 8.0E-02 -CrCH2                                              
   34.359  25%   0.345 GPC+PCh                                             
    8.051 270% 8.1E-02 NAA+NAAG                                            
   99.482  22%   1.000 Cr+PCr                                              
    0.000 999%   0.000 Glu+Gln                                             
  776.820  17%   7.809 Lip13a                                              
    0.000 999%   0.000 Lip13b                                              
  206.283  17%   2.074 Lip09                                               
    0.000 999%   0.000 MM09                                                
  116.326  17%   1.169 Lip20                                               
    0.000 999%   0.000 MM20                                                
    0.000 999%   0.000 MM12                                                
 1.17E-02 999% 1.2E-04 MM14                                                
    0.000 999%   0.000 MM17                                                
  776.820  17%   7.809 Lip13a+Lip13b                                       
  776.832  17%   7.809 MM14+Lip13a+Lip13b+MM12                             
  206.283  17%   2.074 MM09+Lip09                                          
  116.326  17%   1.169 MM20+Lip20                                          
   6 lines in following misc. output table
  FWHM = 0.061 ppm    S/N =   1                                            
  Data shift = 0.000 ppm                                                   
  Ph: -97 deg      25.1 deg/ppm                                            
  alphaB,S = 8.5E+01,   2.6E+01                                            
   14 spline knots.   Ns = 6(1)                                            
   2 inflections.     1 extrema                                            
  498 points on ppm-axis = NY
      4.000000     3.992357     3.984714     3.977070     3.969427     3.961784     3.954141     3.946497     3.938854     3.931211
      3.923568     3.915925     3.908281     3.900638     3.892995     3.885352     3.877708     3.870065     3.862422     3.854779
      3.847136     3.839492     3.831849     3.824206     3.816563     3.808919     3.801276     3.793633     3.785990     3.778347
      3.770703     3.763060     3.755417     3.747774     3.740130     3.732487     3.724844     3.717201     3.709558     3.701914
      3.694271     3.686628     3.678985     3.671341     3.663698     3.656055     3.648412     3.640769     3.633125     3.625482
      3.617839     3.610196     3.602552     3.594909     3.587266     3.579623     3.571980     3.564336     3.556693     3.549050
      3.541407     3.533763     3.526120     3.518477     3.510834     3.503191     3.495547     3.487904     3.480261     3.472618
      3.464974     3.457331     3.449688     3.442045     3.434402     3.426758     3.419115     3.411472     3.403829     3.396185
      3.388542     3.380899     3.373256     3.365613     3.357969     3.350326     3.342683     3.335040     3.327396     3.319753
      3.312110     3.304467     3.296824     3.289180     3.281537     3.273894     3.266251     3.258607     3.250964     3.243321
      3.235678     3.228034     3.220391     3.212748     3.205105     3.197462     3.189818     3.182175     3.174532     3.166889
      3.159245     3.151602     3.143959     3.136316     3.128673     3.121029     3.113386     3.105743     3.098100     3.090456
      3.082813     3.075170     3.067527     3.059884     3.052240     3.044597     3.036954     3.029311     3.021667     3.014024
      3.006381     2.998738     2.991095     2.983451     2.975808     2.968165     2.960522     2.952878     2.945235     2.937592
      2.929949     2.922306     2.914662     2.907019     2.899376     2.891733     2.884089     2.876446     2.868803     2.861160
      2.853517     2.845873     2.838230     2.830587     2.822944     2.815300     2.807657     2.800014     2.792371     2.784728
      2.777084     2.769441     2.761798     2.754155     2.746511     2.738868     2.731225     2.723582     2.715939     2.708295
      2.700652     2.693009     2.685366     2.677722     2.670079     2.662436     2.654793     2.647150     2.639506     2.631863
      2.624220     2.616577     2.608933     2.601290     2.593647     2.586004     2.578361     2.570717     2.563074     2.555431
      2.547788     2.540144     2.532501     2.524858     2.517215     2.509572     2.501928     2.494285     2.486642     2.478999
      2.471355     2.463712     2.456069     2.448426     2.440783     2.433139     2.425496     2.417853     2.410210     2.402566
      2.394923     2.387280     2.379637     2.371994     2.364350     2.356707     2.349064     2.341421     2.333777     2.326134
      2.318491     2.310848     2.303205     2.295561     2.287918     2.280275     2.272632     2.264988     2.257345     2.249702
      2.242059     2.234416     2.226772     2.219129     2.211486     2.203843     2.196199     2.188556     2.180913     2.173270
      2.165627     2.157983     2.150340     2.142697     2.135054     2.127410     2.119767     2.112124     2.104481     2.096838
      2.089194     2.081551     2.073908     2.066265     2.058621     2.050978     2.043335     2.035692     2.028049     2.020405
      2.012762     2.005119     1.997476     1.989833     1.982190     1.974546     1.966903     1.959260     1.951617     1.943974
      1.936331     1.928688     1.921045     1.913402     1.905759     1.898115     1.890472     1.882829     1.875186     1.867543
      1.859900     1.852257     1.844614     1.836971     1.829327     1.821684     1.814041     1.806398     1.798755     1.791112
      1.783469     1.775826     1.768183     1.760540     1.752896     1.745253     1.737610     1.729967     1.722324     1.714681
      1.707038     1.699395     1.691752     1.684108     1.676465     1.668822     1.661179     1.653536     1.645893     1.638250
      1.630607     1.622964     1.615321     1.607677     1.600034     1.592391     1.584748     1.577105     1.569462     1.561819
      1.554176     1.546533     1.538890     1.531246     1.523603     1.515960     1.508317     1.500674     1.493031     1.485388
      1.477745     1.470102     1.462458     1.454815     1.447172     1.439529     1.431886     1.424243     1.416600     1.408957
      1.401314     1.393671     1.386027     1.378384     1.370741     1.363098     1.355455     1.347812     1.340169     1.332526
      1.324883     1.317240     1.309596     1.301953     1.294310     1.286667     1.279024     1.271381     1.263738     1.256095
      1.248452     1.240808     1.233165     1.225522     1.217879     1.210236     1.202593     1.194950     1.187307     1.179664
      1.172021     1.164377     1.156734     1.149091     1.141448     1.133805     1.126162     1.118519     1.110876     1.103233
      1.095590     1.087946     1.080303     1.072660     1.065017     1.057374     1.049731     1.042088     1.034445     1.026802
      1.019158     1.011515     1.003872     0.996229     0.988586     0.980943     0.973300     0.965657     0.958014     0.950371
      0.942727     0.935084     0.927441     0.919798     0.912155     0.904512     0.896869     0.889226     0.881583     0.873940
      0.866296     0.858653     0.851010     0.843367     0.835724     0.828081     0.820438     0.812795     0.805152     0.797508
      0.789865     0.782222     0.774579     0.766936     0.759293     0.751650     0.744007     0.736364     0.728721     0.721077
      0.713434     0.705791     0.698148     0.690505     0.682862     0.675219     0.667576     0.659933     0.652290     0.644646
      0.637003     0.629360     0.621717     0.614074     0.606431     0.598788     0.591145     0.583502     0.575858     0.568215
      0.560572     0.552929     0.545286     0.537643     0.530000     0.522357     0.514714     0.507071     0.499427     0.491784
      0.484141     0.476498     0.468855     0.461212     0.453569     0.445925     0.438282     0.430639     0.422996     0.415353
      0.407710     0.400067     0.392424     0.384780     0.377137     0.369494     0.361851     0.354208     0.346565     0.338922
      0.331278     0.323635     0.315992     0.308349     0.300706     0.293063     0.285420     0.277777     0.270133     0.262490
      0.254847     0.247204     0.239561     0.231918     0.224275     0.216631     0.208988     0.201345
 NY phased data points follow
  -1.32473E+00  2.93190E-01  1.72129E+00  7.04027E-01 -2.62541E+00  2.34644E+00 -8.90264E-01  1.99666E+00  2.41826E+00  1.74463E+00
   1.92414E+00  1.22725E+00  5.16852E+00  7.71415E-01  1.30343E+00  2.31721E+00  2.36337E+00  1.33292E+00  2.51562E+00  5.24619E-01
   2.79259E-01 -2.73286E+00  9.70395E-01 -4.21531E-01 -4.06769E-01  1.24975E+00  2.76527E+00 -1.72326E-01 -1.04328E+00 -5.62179E-01
   2.21562E+00 -3.32708E-01 -4.97265E-01  1.36331E+00  1.75394E+00  6.55006E-01 -9.22772E-01  3.55913E-01 -1.80365E+00  3.75110E-02
   9.87855E-01 -1.02695E+00  1.62948E-01 -2.84420E+00  1.34723E+00  1.51089E+00  9.70782E-01  1.40835E+00  1.28077E+00  1.53412E+00
   2.28419E-01  2.78726E+00  7.74553E-01 -8.56601E-01 -2.06996E+00 -1.43425E+00 -1.30840E+00 -1.70433E+00  8.31376E-01  3.96348E-01
   2.74123E+00 -5.47858E-01  1.99665E+00 -2.27430E+00 -7.34951E-01  1.81741E+00 -1.36486E+00 -2.81221E+00 -8.38871E-01  1.98645E+00
  -6.50438E-01 -1.63561E+00 -1.44149E+00 -1.29956E-01 -1.53938E+00  1.07579E-03  5.04247E-01  1.31132E+00  6.32109E-01 -3.58687E-01
   7.20582E-01 -2.09899E-01  2.86781E-01 -4.38430E-01  1.15595E+00 -6.87511E-01  1.10604E+00 -2.52797E-01  1.71690E+00 -4.00887E-01
   2.08540E-01 -3.53950E+00 -8.33347E-01 -1.74460E+00 -1.13313E+00  1.18137E+00  1.45072E+00 -1.01969E+00 -1.42706E+00 -1.55672E+00
   1.07939E+00  9.76060E-01  3.14746E+00  3.51314E+00  1.21672E+00  4.33289E+00  3.26852E+00  6.85587E-01  1.10176E+00  7.38710E-01
  -7.44950E-01  2.48814E+00  1.12047E+00 -2.54735E+00 -1.23667E+00  1.29103E+00 -2.16942E+00  6.67845E-01 -6.77394E-01 -5.73051E-01
   1.68918E-01  1.10034E+00  3.56189E+00 -6.85932E-01 -3.94167E-01  3.00761E+00  1.70864E+00  2.14193E+00  3.32022E+00  1.36646E+00
   1.29354E+00  2.39562E+00  2.20497E+00  1.33040E+00  1.85175E-01  5.23709E-01 -1.48599E+00  6.94378E-01 -8.78739E-01 -6.55387E-01
  -2.35924E+00 -7.32847E-01  2.89731E+00 -2.06388E+00 -1.08503E+00  5.91136E-01  6.46817E-01  5.98993E-01  2.69791E+00 -7.32100E-01
   2.72439E-01 -1.59953E-01  2.81851E-01 -5.93357E-01  7.92060E-01 -2.43141E+00  1.51567E+00 -1.64382E+00 -1.50935E+00  5.16528E-01
   1.59955E+00  8.82378E-02 -5.04740E-01  7.05303E-01  7.00062E-01  1.91538E+00 -1.69449E+00  1.78800E+00  1.75328E+00  1.79309E+00
   3.28559E+00  2.66879E+00 -9.80884E-01 -2.32979E+00 -3.34360E+00  8.50351E-01 -8.14366E-01  3.26220E+00  1.43494E+00 -1.21581E+00
  -4.13096E-01 -1.17084E+00  1.07061E-01  3.45744E+00 -8.45108E-01 -5.74615E-01  2.83470E-01 -8.09877E-01  1.90746E+00  1.91829E+00
   3.15454E+00 -3.21248E-01 -1.51087E+00  9.78370E-01  7.75242E-01  1.75229E-01 -7.09221E-01 -8.09419E-01 -1.18448E+00  1.88191E+00
   1.12220E+00  1.67014E+00 -6.89958E-01 -2.33811E+00 -2.45163E+00 -1.46587E+00 -1.39524E-01  1.07019E+00 -1.04866E+00 -9.43905E-01
   1.07159E-02 -1.26545E-03  2.50850E+00 -4.63551E-01  1.33247E-01 -2.84638E-01  1.03636E+00  5.65619E-01 -1.64793E-02  3.23989E-01
   1.04227E+00 -2.21595E+00 -1.60804E-01  1.22779E+00 -9.30031E-01  7.40064E-01  6.38019E-01  9.20535E-01  8.49057E-01 -1.06973E-02
   5.93485E-01  8.83030E-02  2.75444E-01 -4.12558E-01 -1.77129E-02  1.41336E-01 -1.27368E-01 -3.09797E-01  1.44260E+00 -1.99079E-01
  -8.51612E-01  1.16354E+00  1.49246E-02  1.78591E-01  1.04463E+00 -1.26425E+00 -9.36520E-01 -1.59399E-01  2.01483E+00 -6.26215E-01
  -1.62967E+00  8.65565E-01 -7.84505E-01  5.17476E-01  2.99337E-01  1.84987E+00  1.06994E+00  1.78279E+00  1.35053E+00  2.44559E+00
  -2.90463E+00 -2.26462E+00  1.73070E+00 -2.98565E+00 -6.03854E-01 -2.90479E-01 -7.48028E-02 -1.98124E+00  4.88910E-01 -1.68148E+00
  -1.95029E+00 -1.93510E+00 -2.73577E+00 -5.09003E-01 -1.58348E+00  1.09968E+00 -5.87610E-01  3.51142E+00  1.22383E+00 -2.49698E+00
  -1.72683E+00 -2.42908E-01  1.05693E+00 -3.19530E+00 -1.18542E+00 -1.41264E+00 -1.20866E+00 -2.03542E+00 -1.10021E-01 -3.77253E+00
  -6.06067E-01 -8.02828E-01  4.21495E-01 -3.44345E+00 -1.90345E+00 -1.92751E+00 -2.28663E+00  8.27083E-01 -3.67290E+00  1.32859E-01
  -1.59719E+00 -2.87655E+00 -1.62485E+00  4.83061E-01  5.45713E-01 -1.69447E+00 -2.52034E+00 -4.63429E-01 -1.21587E+00 -2.73415E-01
  -3.62656E+00 -1.43661E+00 -2.91484E-01 -4.14952E-01 -2.27266E+00 -6.11278E+00  3.16050E-01  1.83339E+00 -7.30333E-01  8.06931E-01
   1.06449E+00 -6.26233E-01 -6.80696E-01  1.21478E+00  1.91181E+00  2.79899E-01 -6.94373E-01 -1.04107E+00  1.84956E+00  1.76337E+00
   3.73187E+00  1.35556E+00 -8.71058E-02  2.65167E+00  1.28799E+00  3.04274E-01  4.65592E+00  1.57365E+00  2.24458E+00  4.03359E+00
   4.40361E+00  6.57726E+00  6.17790E+00  4.05153E+00  5.28407E+00  1.37119E+00  4.12332E+00  4.61569E+00  6.80908E+00  5.33038E+00
   3.58802E+00  3.90333E+00  1.90953E+00  2.64095E+00  1.14958E+00  3.35150E+00  1.59167E+00  3.34603E+00  3.43770E+00  4.97837E-01
   1.05109E+00  8.52653E-01  2.92868E+00  3.24130E+00  3.32341E+00  2.27986E+00  2.70219E+00  8.78018E-01  3.92548E+00  2.18299E+00
   9.69448E-01  7.92044E-01 -3.83657E-01  1.69505E+00  2.30762E-01  2.62324E+00  2.23154E+00 -4.70519E-01 -1.28101E-01  1.33833E+00
  -7.11597E-01  2.35105E+00  4.28709E+00  2.44175E+00  2.80588E+00  1.97991E+00  1.26270E+00  6.75577E-01  8.55272E-01  3.33925E+00
   2.22039E+00  1.89005E+00 -4.31902E-01  4.92517E-01  3.77833E+00  4.18708E+00  1.75711E+00  1.49418E+00 -2.61994E+00  5.44198E-01
  -1.59682E-01 -1.30744E+00 -2.16308E+00 -1.16739E+00  1.29932E+00 -8.35995E-01 -1.07905E+00 -1.55304E+00  2.20768E+00  2.22496E+00
   2.89490E-01 -1.52650E-01  4.58802E-01  2.45197E+00 -1.44069E+00  2.03646E+00 -2.21162E+00  3.04599E+00  2.63605E+00  1.27816E+00
   1.95055E+00  1.62872E+00 -2.48454E-01  9.21895E-01 -1.30662E+00 -4.23236E-01  3.88477E+00  1.03054E+00  1.10246E+00 -3.13500E-01
  -2.92218E-01  1.15353E+00 -2.38544E-01 -7.06224E-01  1.01948E+00 -1.24735E-01 -4.51790E-02  2.68965E+00 -2.33386E+00  1.65345E+00
  -5.25409E-01 -4.78234E-01 -1.66894E+00  2.46342E+00  1.49707E+00  1.45924E+00  6.47672E-01 -7.72036E-01  2.34546E+00  2.99229E+00
  -4.66678E-01 -2.49973E-01  1.48247E-02 -2.94082E-01 -2.33587E+00  2.26507E-01  2.37907E+00  4.78139E-01  1.35848E+00 -7.61430E-01
  -5.52704E-01  1.86033E+00  6.46177E-01  2.83421E+00 -1.02361E+00 -9.74142E-02  1.56071E+00 -7.22102E-01 -5.16640E-01  2.72389E-01
   3.31596E-01  1.17374E-01  6.50831E-01 -2.50367E-01 -8.09917E-01  2.48621E+00  1.87296E+00  3.33965E+00  7.26034E-01 -1.48821E+00
  -1.74635E+00  3.02107E+00  1.88564E+00  2.96840E+00 -3.66864E-01  3.57657E+00 -8.38438E-01 -2.61956E-02 -2.78153E+00 -7.09262E-01
   2.42194E+00 -1.63688E+00  1.63140E+00  9.39601E-01 -1.31396E+00 -6.03216E-01  2.29275E+00  9.60935E-01
 NY points of the fit to the data follow
   1.40994E-01  2.29657E-02 -5.15723E-02 -7.58651E-02 -2.50855E-02  1.05260E-01  2.79833E-01  4.87202E-01  7.67348E-01  1.11940E+00
   1.48543E+00  1.78354E+00  1.93278E+00  1.90705E+00  1.73271E+00  1.43642E+00  1.04673E+00  6.11009E-01  2.12731E-01  2.60571E-04
  -5.09670E-02 -6.39218E-02 -6.84529E-02 -6.47202E-02 -4.07910E-02 -1.09706E-02  1.70409E-02  7.36714E-02  1.72724E-01  2.95198E-01
   4.13317E-01  5.01656E-01  5.53389E-01  5.75109E-01  5.56530E-01  4.89526E-01  3.87325E-01  2.84943E-01  2.26177E-01  1.72646E-01
   9.74181E-02  3.97068E-02  2.79391E-02  5.96925E-02  1.57095E-01  3.57421E-01  6.47936E-01  9.37860E-01  1.12405E+00  1.15451E+00
   1.04961E+00  8.46971E-01  5.64269E-01  2.38484E-01 -5.14820E-02 -2.08852E-01 -2.01210E-01 -9.41332E-02  4.71580E-02  1.87693E-01
   3.00181E-01  3.61419E-01  3.61365E-01  3.08761E-01  2.21719E-01  1.15658E-01  1.28056E-02 -5.13433E-02 -5.61359E-02 -4.75252E-03
   8.61480E-02  1.81087E-01  2.56671E-01  2.97962E-01  3.03570E-01  2.85234E-01  2.49276E-01  2.01380E-01  1.42136E-01  8.40055E-02
   4.78017E-02  1.97662E-02 -9.91705E-03 -4.03051E-02 -7.50653E-02 -1.27773E-01 -2.05170E-01 -2.99922E-01 -3.92778E-01 -4.62702E-01
  -4.93020E-01 -4.81257E-01 -4.31085E-01 -3.41824E-01 -2.24946E-01 -1.15816E-01 -1.35676E-02  1.34590E-01  2.99345E-01  5.30856E-01
   9.27345E-01  1.48104E+00  2.08909E+00  2.59570E+00  2.86549E+00  2.86437E+00  2.61865E+00  2.15478E+00  1.50487E+00  7.51204E-01
   1.20049E-01 -1.38235E-01 -1.95555E-01 -2.13854E-01 -2.20209E-01 -2.23054E-01 -2.23509E-01 -2.24182E-01 -2.23696E-01 -2.15631E-01
  -1.74877E-01 -4.01233E-02  1.60217E-01  4.38044E-01  8.77949E-01  1.48033E+00  2.14414E+00  2.71659E+00  3.04740E+00  3.08857E+00
   2.87791E+00  2.44803E+00  1.82575E+00  1.07531E+00  3.87066E-01  2.59973E-02 -1.03310E-01 -1.76717E-01 -2.20833E-01 -2.35062E-01
  -2.18995E-01 -1.71602E-01 -1.02031E-01 -3.75349E-02  6.06926E-03  2.42677E-02  1.64845E-02 -6.76459E-03 -3.30331E-02 -5.58471E-02
  -6.96622E-02 -8.08136E-02 -9.14510E-02 -1.00742E-01 -1.07207E-01 -1.10762E-01 -1.11994E-01 -1.11107E-01 -1.10187E-01 -1.10479E-01
  -1.11990E-01 -1.14503E-01 -1.19560E-01 -1.27617E-01 -1.35236E-01 -1.39431E-01 -1.39790E-01 -1.37922E-01 -1.36598E-01 -1.35659E-01
  -1.34462E-01 -1.33369E-01 -1.34354E-01 -1.39337E-01 -1.48353E-01 -1.59136E-01 -1.70913E-01 -1.84059E-01 -1.97997E-01 -2.12464E-01
  -2.25972E-01 -2.36303E-01 -2.43367E-01 -2.48292E-01 -2.50861E-01 -2.49713E-01 -2.42836E-01 -2.28128E-01 -2.04083E-01 -1.71691E-01
  -1.37484E-01 -1.11184E-01 -9.89515E-02 -1.04434E-01 -1.30874E-01 -1.76750E-01 -2.33655E-01 -2.86173E-01 -3.16259E-01 -3.13827E-01
  -2.83534E-01 -2.39021E-01 -1.90167E-01 -1.42427E-01 -1.03347E-01 -8.39620E-02 -8.70477E-02 -9.48865E-02 -9.76194E-02 -9.64460E-02
  -9.30772E-02 -8.88645E-02 -8.49679E-02 -8.18629E-02 -7.96628E-02 -7.78236E-02 -7.49871E-02 -6.96845E-02 -6.07710E-02 -4.77631E-02
  -3.05131E-02 -9.08017E-03  1.46526E-02  3.76402E-02  5.70797E-02  6.88458E-02  7.12502E-02  6.58264E-02  5.08923E-02  2.64092E-02
  -1.41738E-03 -2.10502E-02 -2.19294E-02 -3.00720E-03  3.35295E-02  8.35162E-02  1.36657E-01  1.79257E-01  1.96350E-01  1.77171E-01
   1.28062E-01  6.82432E-02  1.37317E-02 -2.22846E-02 -2.86458E-02  2.45239E-03  6.43677E-02  1.31323E-01  1.86936E-01  2.28778E-01
   2.59599E-01  2.75503E-01  2.81029E-01  2.94619E-01  3.27824E-01  3.72898E-01  4.14824E-01  4.39877E-01  4.43910E-01  4.28044E-01
   3.92213E-01  3.38236E-01  2.71702E-01  2.10213E-01  1.75257E-01  1.56466E-01  1.39857E-01  1.22168E-01  1.02914E-01  8.29249E-02
   6.39248E-02  4.74152E-02  3.42119E-02  2.43068E-02  1.73402E-02  1.23665E-02  8.26741E-03  3.35973E-03 -3.72232E-03 -1.22548E-02
  -2.12650E-02 -3.02839E-02 -3.84318E-02 -4.47155E-02 -4.84042E-02 -4.96790E-02 -4.93125E-02 -4.78705E-02 -4.56116E-02 -4.30168E-02
  -4.03843E-02 -3.77204E-02 -3.51879E-02 -3.27438E-02 -2.99440E-02 -2.68382E-02 -2.36291E-02 -2.02266E-02 -1.66116E-02 -1.27490E-02
  -8.18867E-03 -2.69834E-03  3.56902E-03  1.05997E-02  1.84162E-02  2.70416E-02  3.64143E-02  4.64314E-02  5.72313E-02  6.90107E-02
   8.19142E-02  9.61254E-02  1.11844E-01  1.29321E-01  1.48855E-01  1.70845E-01  1.95831E-01  2.24602E-01  2.58339E-01  2.99091E-01
   3.51246E-01  4.22641E-01  5.03970E-01  5.89920E-01  6.91995E-01  7.95955E-01  8.68263E-01  8.78341E-01  8.11000E-01  6.92475E-01
   5.64312E-01  4.39784E-01  3.53263E-01  3.57836E-01  5.04742E-01  8.17367E-01  1.21522E+00  1.59879E+00  1.95032E+00  2.26652E+00
   2.54192E+00  2.77509E+00  2.95589E+00  3.11635E+00  3.34492E+00  3.60962E+00  3.82614E+00  3.91375E+00  3.82009E+00  3.57672E+00
   3.25636E+00  2.89208E+00  2.55541E+00  2.34608E+00  2.35634E+00  2.64828E+00  3.10934E+00  3.50448E+00  3.77847E+00  3.92476E+00
   3.92553E+00  3.75451E+00  3.41910E+00  3.05641E+00  2.78296E+00  2.56088E+00  2.36477E+00  2.18597E+00  2.02112E+00  1.86882E+00
   1.72848E+00  1.59978E+00  1.48246E+00  1.37623E+00  1.28073E+00  1.19560E+00  1.12038E+00  1.05459E+00  9.97698E-01  9.49158E-01
   9.08458E-01  8.75129E-01  8.48724E-01  8.28819E-01  8.15008E-01  8.06928E-01  8.04249E-01  8.06675E-01  8.13901E-01  8.25610E-01
   8.41459E-01  8.61094E-01  8.84133E-01  9.10154E-01  9.38667E-01  9.69124E-01  1.00092E+00  1.03340E+00  1.06590E+00  1.09769E+00
   1.12803E+00  1.15617E+00  1.18139E+00  1.20304E+00  1.22050E+00  1.23327E+00  1.24091E+00  1.24314E+00  1.23977E+00  1.23079E+00
   1.21631E+00  1.19655E+00  1.17184E+00  1.14262E+00  1.10943E+00  1.07286E+00  1.03352E+00  9.92061E-01  9.49093E-01  9.05230E-01
   8.61042E-01  8.17054E-01  7.73715E-01  7.31409E-01  6.90445E-01  6.51084E-01  6.13514E-01  5.77872E-01  5.44224E-01  5.12595E-01
   4.82973E-01  4.55326E-01  4.29593E-01  4.05695E-01  3.83526E-01  3.62984E-01  3.43962E-01  3.26364E-01  3.10084E-01  2.95022E-01
   2.81071E-01  2.68142E-01  2.56151E-01  2.45030E-01  2.34703E-01  2.25102E-01  2.16157E-01  2.07820E-01  2.00041E-01  1.92784E-01
   1.85999E-01  1.79648E-01  1.73690E-01  1.68102E-01  1.62859E-01  1.57938E-01  1.53309E-01  1.48950E-01  1.44838E-01  1.40965E-01
   1.37314E-01  1.33873E-01  1.30619E-01  1.27540E-01  1.24625E-01  1.21873E-01  1.19270E-01  1.16809E-01  1.14471E-01  1.12254E-01
   1.10151E-01  1.08164E-01  1.06281E-01  1.04495E-01  1.02794E-01  1.01180E-01  9.96495E-02  9.82033E-02  9.68301E-02  9.55255E-02
   9.42812E-02  9.31024E-02  9.19857E-02  9.09318E-02  8.99286E-02  8.89747E-02  8.80652E-02  8.72069E-02  8.63954E-02  8.56295E-02
   8.48984E-02  8.42032E-02  8.35418E-02  8.29207E-02  8.23334E-02  8.17780E-02  8.12449E-02  8.07385E-02
 NY background values follow
    -4.385E-01   -4.377E-01   -4.368E-01   -4.360E-01   -4.352E-01   -4.344E-01   -4.335E-01   -4.327E-01   -4.319E-01   -4.311E-01
    -4.303E-01   -4.294E-01   -4.286E-01   -4.278E-01   -4.270E-01   -4.261E-01   -4.253E-01   -4.245E-01   -4.237E-01   -4.228E-01
    -4.220E-01   -4.212E-01   -4.204E-01   -4.195E-01   -4.187E-01   -4.179E-01   -4.171E-01   -4.162E-01   -4.154E-01   -4.146E-01
    -4.138E-01   -4.129E-01   -4.121E-01   -4.113E-01   -4.105E-01   -4.096E-01   -4.088E-01   -4.080E-01   -4.072E-01   -4.063E-01
    -4.055E-01   -4.047E-01   -4.039E-01   -4.030E-01   -4.022E-01   -4.014E-01   -4.005E-01   -3.997E-01   -3.989E-01   -3.981E-01
    -3.972E-01   -3.964E-01   -3.956E-01   -3.948E-01   -3.939E-01   -3.931E-01   -3.923E-01   -3.915E-01   -3.906E-01   -3.898E-01
    -3.890E-01   -3.881E-01   -3.873E-01   -3.865E-01   -3.857E-01   -3.848E-01   -3.840E-01   -3.832E-01   -3.824E-01   -3.815E-01
    -3.807E-01   -3.799E-01   -3.790E-01   -3.782E-01   -3.774E-01   -3.766E-01   -3.757E-01   -3.749E-01   -3.741E-01   -3.732E-01
    -3.724E-01   -3.716E-01   -3.708E-01   -3.699E-01   -3.691E-01   -3.683E-01   -3.675E-01   -3.666E-01   -3.658E-01   -3.650E-01
    -3.641E-01   -3.633E-01   -3.625E-01   -3.616E-01   -3.608E-01   -3.600E-01   -3.592E-01   -3.583E-01   -3.575E-01   -3.567E-01
    -3.558E-01   -3.550E-01   -3.542E-01   -3.534E-01   -3.525E-01   -3.517E-01   -3.509E-01   -3.500E-01   -3.492E-01   -3.484E-01
    -3.476E-01   -3.467E-01   -3.459E-01   -3.451E-01   -3.442E-01   -3.434E-01   -3.426E-01   -3.417E-01   -3.409E-01   -3.401E-01
    -3.393E-01   -3.384E-01   -3.376E-01   -3.368E-01   -3.359E-01   -3.351E-01   -3.343E-01   -3.334E-01   -3.326E-01   -3.318E-01
    -3.309E-01   -3.301E-01   -3.293E-01   -3.285E-01   -3.276E-01   -3.268E-01   -3.260E-01   -3.251E-01   -3.243E-01   -3.235E-01
    -3.226E-01   -3.218E-01   -3.210E-01   -3.201E-01   -3.193E-01   -3.185E-01   -3.177E-01   -3.168E-01   -3.160E-01   -3.152E-01
    -3.143E-01   -3.135E-01   -3.127E-01   -3.118E-01   -3.110E-01   -3.102E-01   -3.093E-01   -3.085E-01   -3.077E-01   -3.068E-01
    -3.060E-01   -3.052E-01   -3.043E-01   -3.035E-01   -3.027E-01   -3.019E-01   -3.010E-01   -3.002E-01   -2.994E-01   -2.985E-01
    -2.977E-01   -2.969E-01   -2.960E-01   -2.952E-01   -2.944E-01   -2.935E-01   -2.927E-01   -2.919E-01   -2.910E-01   -2.902E-01
    -2.894E-01   -2.885E-01   -2.877E-01   -2.869E-01   -2.860E-01   -2.852E-01   -2.844E-01   -2.835E-01   -2.827E-01   -2.819E-01
    -2.810E-01   -2.802E-01   -2.794E-01   -2.785E-01   -2.777E-01   -2.769E-01   -2.760E-01   -2.752E-01   -2.744E-01   -2.735E-01
    -2.727E-01   -2.719E-01   -2.710E-01   -2.702E-01   -2.694E-01   -2.685E-01   -2.677E-01   -2.669E-01   -2.660E-01   -2.652E-01
    -2.644E-01   -2.635E-01   -2.627E-01   -2.619E-01   -2.611E-01   -2.602E-01   -2.594E-01   -2.586E-01   -2.577E-01   -2.569E-01
    -2.561E-01   -2.552E-01   -2.544E-01   -2.535E-01   -2.527E-01   -2.519E-01   -2.510E-01   -2.502E-01   -2.494E-01   -2.485E-01
    -2.477E-01   -2.469E-01   -2.460E-01   -2.452E-01   -2.444E-01   -2.435E-01   -2.427E-01   -2.419E-01   -2.410E-01   -2.402E-01
    -2.394E-01   -2.385E-01   -2.377E-01   -2.369E-01   -2.360E-01   -2.352E-01   -2.344E-01   -2.335E-01   -2.327E-01   -2.319E-01
    -2.310E-01   -2.302E-01   -2.294E-01   -2.285E-01   -2.277E-01   -2.269E-01   -2.260E-01   -2.252E-01   -2.244E-01   -2.235E-01
    -2.227E-01   -2.219E-01   -2.210E-01   -2.202E-01   -2.194E-01   -2.185E-01   -2.177E-01   -2.169E-01   -2.160E-01   -2.152E-01
    -2.144E-01   -2.135E-01   -2.127E-01   -2.119E-01   -2.110E-01   -2.102E-01   -2.094E-01   -2.085E-01   -2.077E-01   -2.069E-01
    -2.060E-01   -2.052E-01   -2.044E-01   -2.035E-01   -2.027E-01   -2.018E-01   -2.010E-01   -2.002E-01   -1.993E-01   -1.985E-01
    -1.977E-01   -1.968E-01   -1.960E-01   -1.952E-01   -1.943E-01   -1.935E-01   -1.927E-01   -1.918E-01   -1.910E-01   -1.902E-01
    -1.893E-01   -1.885E-01   -1.877E-01   -1.868E-01   -1.860E-01   -1.852E-01   -1.843E-01   -1.835E-01   -1.827E-01   -1.818E-01
    -1.810E-01   -1.802E-01   -1.793E-01   -1.785E-01   -1.777E-01   -1.768E-01   -1.760E-01   -1.752E-01   -1.743E-01   -1.735E-01
    -1.727E-01   -1.718E-01   -1.710E-01   -1.701E-01   -1.693E-01   -1.685E-01   -1.676E-01   -1.668E-01   -1.660E-01   -1.651E-01
    -1.643E-01   -1.635E-01   -1.626E-01   -1.618E-01   -1.610E-01   -1.601E-01   -1.593E-01   -1.585E-01   -1.576E-01   -1.568E-01
    -1.560E-01   -1.551E-01   -1.543E-01   -1.535E-01   -1.526E-01   -1.518E-01   -1.510E-01   -1.501E-01   -1.493E-01   -1.485E-01
    -1.476E-01   -1.468E-01   -1.460E-01   -1.451E-01   -1.443E-01   -1.435E-01   -1.426E-01   -1.418E-01   -1.410E-01   -1.401E-01
    -1.393E-01   -1.385E-01   -1.376E-01   -1.368E-01   -1.360E-01   -1.351E-01   -1.343E-01   -1.335E-01   -1.326E-01   -1.318E-01
    -1.310E-01   -1.301E-01   -1.293E-01   -1.285E-01   -1.276E-01   -1.268E-01   -1.260E-01   -1.251E-01   -1.243E-01   -1.235E-01
    -1.226E-01   -1.218E-01   -1.210E-01   -1.201E-01   -1.193E-01   -1.185E-01   -1.176E-01   -1.168E-01   -1.160E-01   -1.151E-01
    -1.143E-01   -1.135E-01   -1.126E-01   -1.118E-01   -1.110E-01   -1.101E-01   -1.093E-01   -1.085E-01   -1.076E-01   -1.068E-01
    -1.060E-01   -1.051E-01   -1.043E-01   -1.035E-01   -1.026E-01   -1.018E-01   -1.010E-01   -1.001E-01   -9.929E-02   -9.846E-02
    -9.763E-02   -9.679E-02   -9.596E-02   -9.513E-02   -9.430E-02   -9.346E-02   -9.263E-02   -9.180E-02   -9.097E-02   -9.013E-02
    -8.930E-02   -8.847E-02   -8.764E-02   -8.681E-02   -8.597E-02   -8.514E-02   -8.431E-02   -8.348E-02   -8.264E-02   -8.181E-02
    -8.098E-02   -8.015E-02   -7.932E-02   -7.848E-02   -7.765E-02   -7.682E-02   -7.599E-02   -7.516E-02   -7.433E-02   -7.349E-02
    -7.266E-02   -7.183E-02   -7.100E-02   -7.017E-02   -6.934E-02   -6.851E-02   -6.767E-02   -6.684E-02   -6.601E-02   -6.518E-02
    -6.435E-02   -6.352E-02   -6.269E-02   -6.186E-02   -6.102E-02   -6.019E-02   -5.936E-02   -5.853E-02   -5.770E-02   -5.687E-02
    -5.604E-02   -5.521E-02   -5.438E-02   -5.355E-02   -5.272E-02   -5.189E-02   -5.106E-02   -5.023E-02   -4.939E-02   -4.856E-02
    -4.773E-02   -4.690E-02   -4.607E-02   -4.524E-02   -4.441E-02   -4.358E-02   -4.275E-02   -4.192E-02   -4.109E-02   -4.026E-02
    -3.943E-02   -3.860E-02   -3.777E-02   -3.694E-02   -3.611E-02   -3.528E-02   -3.446E-02   -3.363E-02   -3.280E-02   -3.197E-02
    -3.114E-02   -3.031E-02   -2.948E-02   -2.865E-02   -2.782E-02   -2.699E-02   -2.616E-02   -2.533E-02
 Ala      Conc. = 4.79E+01
