 LCModel (Version 6.3-1L) Copyright: S.W. Provencher.          Ref.: Magn. Reson. Med. 30:672-679 (1993).                
 Slice#1 Row#3 Col#7  PD_24_press_2_raw_act
 36 lines in following concentration table = NCONC+1
    Conc.  %SD /Cr+PCr  Metabolite                                         
    0.000 999%   0.000 Ala                                                 
  126.674 312% 6.4E-02 Asp                                                 
 1.99E+03  11%   1.000 Cr                                                  
    0.000 999%   0.000 PCr                                                 
  253.493  96%   0.128 GABA                                                
  192.380 126% 9.7E-02 Glc                                                 
 9.19E+03  25%   4.624 Gln                                                 
    0.000 999%   0.000 Glu                                                 
  149.193 227% 7.5E-02 GPC                                                 
  539.378  64%   0.271 PCh                                                 
  882.521  44%   0.444 GSH                                                 
 5.65E+03  17%   2.842 Ins                                                 
 3.78E+03  48%   1.902 Lac                                                 
 3.14E+03  28%   1.579 NAA                                                 
  801.737 113%   0.403 NAAG                                                
   59.532 117% 3.0E-02 Scyllo                                              
  242.238 156%   0.122 Tau                                                 
    0.000 999%   0.000 -CrCH2                                              
  688.571  13%   0.346 GPC+PCh                                             
 3.94E+03   8%   1.983 NAA+NAAG                                            
 1.99E+03  11%   1.000 Cr+PCr                                              
 9.19E+03  25%   4.624 Glu+Gln                                             
 1.24E+03  84%   0.623 Lip13a                                              
    0.000 999%   0.000 Lip13b                                              
  295.481 134%   0.149 Lip09                                               
 1.11E+03  40%   0.559 MM09                                                
  297.215  93%   0.149 Lip20                                               
 1.89E+03  42%   0.949 MM20                                                
  342.159  60%   0.172 MM12                                                
  923.744  64%   0.465 MM14                                                
    0.000 999%   0.000 MM17                                                
 1.24E+03  84%   0.623 Lip13a+Lip13b                                       
 2.50E+03  47%   1.260 MM14+Lip13a+Lip13b+MM12                             
 1.41E+03  25%   0.707 MM09+Lip09                                          
 2.18E+03  35%   1.099 MM20+Lip20                                          
   6 lines in following misc. output table
  FWHM = 0.153 ppm    S/N =   3                                            
  Data shift = 0.015 ppm                                                   
  Ph:  33 deg      23.5 deg/ppm                                            
  alphaB,S = 8.5E+01,   4.1E+02                                            
   14 spline knots.   Ns = 8(2)                                            
   2 inflections.     1 extrema                                            
  498 points on ppm-axis = NY
      4.000000     3.992357     3.984714     3.977070     3.969427     3.961784     3.954141     3.946497     3.938854     3.931211
      3.923568     3.915925     3.908281     3.900638     3.892995     3.885352     3.877708     3.870065     3.862422     3.854779
      3.847136     3.839492     3.831849     3.824206     3.816563     3.808919     3.801276     3.793633     3.785990     3.778347
      3.770703     3.763060     3.755417     3.747774     3.740130     3.732487     3.724844     3.717201     3.709558     3.701914
      3.694271     3.686628     3.678985     3.671341     3.663698     3.656055     3.648412     3.640769     3.633125     3.625482
      3.617839     3.610196     3.602552     3.594909     3.587266     3.579623     3.571980     3.564336     3.556693     3.549050
      3.541407     3.533763     3.526120     3.518477     3.510834     3.503191     3.495547     3.487904     3.480261     3.472618
      3.464974     3.457331     3.449688     3.442045     3.434402     3.426758     3.419115     3.411472     3.403829     3.396185
      3.388542     3.380899     3.373256     3.365613     3.357969     3.350326     3.342683     3.335040     3.327396     3.319753
      3.312110     3.304467     3.296824     3.289180     3.281537     3.273894     3.266251     3.258607     3.250964     3.243321
      3.235678     3.228034     3.220391     3.212748     3.205105     3.197462     3.189818     3.182175     3.174532     3.166889
      3.159245     3.151602     3.143959     3.136316     3.128673     3.121029     3.113386     3.105743     3.098100     3.090456
      3.082813     3.075170     3.067527     3.059884     3.052240     3.044597     3.036954     3.029311     3.021667     3.014024
      3.006381     2.998738     2.991095     2.983451     2.975808     2.968165     2.960522     2.952878     2.945235     2.937592
      2.929949     2.922306     2.914662     2.907019     2.899376     2.891733     2.884089     2.876446     2.868803     2.861160
      2.853517     2.845873     2.838230     2.830587     2.822944     2.815300     2.807657     2.800014     2.792371     2.784728
      2.777084     2.769441     2.761798     2.754155     2.746511     2.738868     2.731225     2.723582     2.715939     2.708295
      2.700652     2.693009     2.685366     2.677722     2.670079     2.662436     2.654793     2.647150     2.639506     2.631863
      2.624220     2.616577     2.608933     2.601290     2.593647     2.586004     2.578361     2.570717     2.563074     2.555431
      2.547788     2.540144     2.532501     2.524858     2.517215     2.509572     2.501928     2.494285     2.486642     2.478999
      2.471355     2.463712     2.456069     2.448426     2.440783     2.433139     2.425496     2.417853     2.410210     2.402566
      2.394923     2.387280     2.379637     2.371994     2.364350     2.356707     2.349064     2.341421     2.333777     2.326134
      2.318491     2.310848     2.303205     2.295561     2.287918     2.280275     2.272632     2.264988     2.257345     2.249702
      2.242059     2.234416     2.226772     2.219129     2.211486     2.203843     2.196199     2.188556     2.180913     2.173270
      2.165627     2.157983     2.150340     2.142697     2.135054     2.127410     2.119767     2.112124     2.104481     2.096838
      2.089194     2.081551     2.073908     2.066265     2.058621     2.050978     2.043335     2.035692     2.028049     2.020405
      2.012762     2.005119     1.997476     1.989833     1.982190     1.974546     1.966903     1.959260     1.951617     1.943974
      1.936331     1.928688     1.921045     1.913402     1.905759     1.898115     1.890472     1.882829     1.875186     1.867543
      1.859900     1.852257     1.844614     1.836971     1.829327     1.821684     1.814041     1.806398     1.798755     1.791112
      1.783469     1.775826     1.768183     1.760540     1.752896     1.745253     1.737610     1.729967     1.722324     1.714681
      1.707038     1.699395     1.691752     1.684108     1.676465     1.668822     1.661179     1.653536     1.645893     1.638250
      1.630607     1.622964     1.615321     1.607677     1.600034     1.592391     1.584748     1.577105     1.569462     1.561819
      1.554176     1.546533     1.538890     1.531246     1.523603     1.515960     1.508317     1.500674     1.493031     1.485388
      1.477745     1.470102     1.462458     1.454815     1.447172     1.439529     1.431886     1.424243     1.416600     1.408957
      1.401314     1.393671     1.386027     1.378384     1.370741     1.363098     1.355455     1.347812     1.340169     1.332526
      1.324883     1.317240     1.309596     1.301953     1.294310     1.286667     1.279024     1.271381     1.263738     1.256095
      1.248452     1.240808     1.233165     1.225522     1.217879     1.210236     1.202593     1.194950     1.187307     1.179664
      1.172021     1.164377     1.156734     1.149091     1.141448     1.133805     1.126162     1.118519     1.110876     1.103233
      1.095590     1.087946     1.080303     1.072660     1.065017     1.057374     1.049731     1.042088     1.034445     1.026802
      1.019158     1.011515     1.003872     0.996229     0.988586     0.980943     0.973300     0.965657     0.958014     0.950371
      0.942727     0.935084     0.927441     0.919798     0.912155     0.904512     0.896869     0.889226     0.881583     0.873940
      0.866296     0.858653     0.851010     0.843367     0.835724     0.828081     0.820438     0.812795     0.805152     0.797508
      0.789865     0.782222     0.774579     0.766936     0.759293     0.751650     0.744007     0.736364     0.728721     0.721077
      0.713434     0.705791     0.698148     0.690505     0.682862     0.675219     0.667576     0.659933     0.652290     0.644646
      0.637003     0.629360     0.621717     0.614074     0.606431     0.598788     0.591145     0.583502     0.575858     0.568215
      0.560572     0.552929     0.545286     0.537643     0.530000     0.522357     0.514714     0.507071     0.499427     0.491784
      0.484141     0.476498     0.468855     0.461212     0.453569     0.445925     0.438282     0.430639     0.422996     0.415353
      0.407710     0.400067     0.392424     0.384780     0.377137     0.369494     0.361851     0.354208     0.346565     0.338922
      0.331278     0.323635     0.315992     0.308349     0.300706     0.293063     0.285420     0.277777     0.270133     0.262490
      0.254847     0.247204     0.239561     0.231918     0.224275     0.216631     0.208988     0.201345
 NY phased data points follow
   6.88642E+01  4.29059E+01  4.73803E+01  1.15215E+01  1.97845E+01  3.40524E+01  6.03675E+01  4.88741E+01  5.17045E+01  2.30396E+01
   3.94692E+01  2.32627E+01  6.03818E+01  3.02080E+01  4.43042E+01  1.28786E+01  4.93650E+01  3.65635E+01  3.99310E+01  3.46152E+01
   5.12178E+01  3.04807E+01  2.97913E+01  1.09697E+01  3.42053E+01  1.71237E+01  2.57788E+01  1.91341E+01  2.13318E+01  2.58106E+01
   3.73263E+01  2.14762E+01  4.41873E+01  1.30677E+01  4.30028E+01  1.38151E+01  3.25242E+01  4.28170E+01  2.77121E+01  3.26253E+01
   4.29878E+01  2.15739E+01  2.78622E+01  7.65993E+00  2.27613E+01  1.47861E+01  2.33400E+01  7.30031E+00  1.62253E+01  3.67960E+01
   4.38936E+01  2.98043E+01  2.33711E+01  1.08787E+01  1.69206E+01  2.18137E+01  4.23275E+01  1.67917E+01  3.47352E+01  2.12229E+01
   3.22120E+01  2.64573E+01  4.62246E+01  2.95075E+01  1.43041E+01  1.13828E+01  3.79139E+01  1.27080E+01  2.25129E+01 -1.88411E+00
   8.90399E+00  1.03363E+01  1.90671E+01  1.38354E+01  1.37263E+01  6.46641E-01  3.36674E+01 -2.13792E+00  2.83989E+01  1.17600E+01
  -2.42433E+00  1.76214E+01  1.24255E+01  1.97047E+01  6.68172E+00  7.15531E+00  7.18743E+00 -2.82241E+00  1.96244E+01  3.91652E+00
   2.11311E+01  1.08586E+01  2.02428E+01  1.39996E+01  2.48509E+01  1.20010E+01  1.52178E+01  5.83991E+00  3.33322E+01  1.91287E+01
   1.62031E+01  2.00256E+01  3.65292E+01  3.78617E+01  2.65557E+01  3.38915E+01  2.64099E+01  2.89814E+01  2.63356E+01  1.86194E+01
   2.56619E+01  9.00518E+00  3.98205E+01  3.33918E+01  2.96432E+01  1.48907E+01  1.89661E+01  1.96670E+01 -3.22824E+00  1.33036E+01
   7.03326E+00  1.68895E+01  2.68112E+01  1.90636E+01  1.48447E+01  1.78338E+01  1.87989E+01  1.52854E+01  4.47639E+01  3.07329E+01
   3.37356E+01  2.28779E+01  3.45433E+01  1.37605E+01  1.57213E+01  1.09935E+01  2.66708E+01  1.21635E+01  2.38662E+01  1.52248E+01
   2.02412E+01  1.65669E+01  1.87060E+01  1.63491E+01  2.99450E+00 -4.79436E-01 -2.67885E+00 -3.49717E+00 -2.57678E+00  7.87468E+00
   7.60386E+00  1.48093E+01  5.14418E+00  4.30657E+00  8.55771E+00  1.62718E+01  6.20680E+00  7.37393E+00  5.78197E+00 -1.69069E+01
   4.46166E+00  7.67090E+00  4.88784E-01 -4.18484E+00  9.99504E+00 -4.51106E+00 -1.13816E+01 -1.59793E+01 -1.13861E+01 -3.34343E+00
   5.74070E+00 -1.19114E+01 -5.30489E+00 -1.84880E+01  4.07613E+00 -1.92474E+01 -1.47665E+00 -1.41646E+01 -1.09110E+01 -1.06188E+01
  -1.22528E+01 -7.16347E+00  2.24350E+00 -1.62145E+01 -8.08505E+00 -9.45064E+00  3.08427E+00  1.84853E+00  1.80342E+01 -7.00194E+00
  -8.09312E+00 -2.35290E+00  4.33160E-01 -5.69452E+00  1.19548E+01 -1.94131E+01 -7.63471E+00 -3.11743E+01 -1.36757E+01 -2.02394E+01
  -1.37919E+01 -8.46429E+00  5.61539E+00 -1.23152E+01 -2.33282E+00  1.41795E+00 -2.92490E-01 -1.08529E+01 -1.05313E+01 -9.95431E+00
   9.70151E+00 -3.65880E+00  1.77195E+01  1.86693E+00  9.82815E+00  7.47465E+00  2.33342E+00  3.58957E+00  9.65168E+00  2.41831E+01
   1.01146E+01  1.00859E+01  9.74715E+00  9.20512E+00  4.27223E+00  1.97271E+00  2.34507E+01  3.10007E+00  2.36380E+01  1.31181E+01
   4.21771E+00  5.76743E+00  1.56274E+00  3.89665E+00 -4.05014E+00  1.28334E+01  1.88600E+01  1.71403E+01  2.04947E+01  1.14628E+01
   9.47395E+00  6.35917E+00  2.15476E+01  8.28528E+00  2.61335E+01  1.14017E+01  1.98865E+01  9.84132E+00  1.03733E+01  3.06494E+01
   2.11356E+01  1.95647E+01  3.42633E+01  2.23262E+01  4.75926E+01  3.64604E+01  5.24227E+01  5.86473E+01  6.09804E+01  5.78007E+01
   6.26505E+01  6.06911E+01  6.05021E+01  4.92325E+01  5.04729E+01  3.58370E+01  5.13318E+01  2.42992E+01  3.53167E+01  2.60626E+01
   3.46801E+01  1.33894E+01 -1.27590E+00 -6.43363E-01  8.11987E+00  2.57884E+00  1.12464E+01  1.08899E+00  1.77707E+01  8.22104E-01
   1.60357E+01  4.81289E+00  1.57520E+01  2.49742E+00  4.81853E+00  2.25240E+00  1.76795E+00 -1.62597E+01  7.14708E+00 -1.31473E+01
  -2.12318E+01 -2.77945E+01 -2.30383E+01 -2.30345E+01 -2.57703E+01 -2.09108E+01 -6.98623E+00 -2.84398E+00 -1.73944E+01 -1.12729E+01
  -2.44356E+01 -2.19999E+01 -1.35471E+01 -9.76625E+00 -7.59746E+00 -2.72168E+01 -9.71272E+00 -8.24138E+00 -7.46220E+00 -6.59993E+00
   1.19073E+01 -1.15778E+01 -5.18471E-01 -1.34160E+01  1.30540E+01  1.95095E+00 -1.95229E+00 -1.33744E-01  4.69871E-01  1.68816E+00
   5.50266E+00  5.29796E+00  8.06878E+00  5.04216E+00  1.19937E+01  1.15071E+01  9.86758E+00  4.51232E+00  5.32876E+00 -1.49914E+01
   9.48191E+00  9.01739E+00  1.54119E+00  3.99596E-01  7.70295E+00  2.56824E+01  1.68325E+01  1.13748E+01  8.54696E+00  7.06082E+00
   9.63843E+00  9.34838E+00  7.78222E-02  1.25564E+01 -1.69648E+00  1.90721E+01 -1.20849E+01  3.81790E+00  1.43740E+01  6.42917E+00
   6.13878E+00  1.19068E-01  2.26868E+01  8.92126E+00 -8.12732E+00 -2.01218E+00 -3.82557E+00 -7.99649E+00  9.05932E+00  1.03695E+01
   2.31324E+01 -6.46297E+00  5.73566E+00  8.98678E+00  1.45083E+01  3.13293E+00  1.03699E+01  1.78903E+01  4.10250E+00  1.73877E+00
   8.45442E+00 -5.85200E+00 -2.36283E-01 -4.70311E+00  1.24747E+01  1.48293E+01 -6.09335E+00 -5.72347E+00 -1.87826E+00 -3.62620E+00
  -9.69202E+00 -4.46218E+00 -1.29162E+00 -3.66913E+00  4.96451E+00 -6.75301E+00  3.11736E+00 -1.34218E+01 -6.26470E-01  1.62039E+01
   8.68505E+00 -2.62933E+01  1.02364E+01 -2.23750E+01 -2.78950E+00 -2.04564E+01 -3.41150E+00 -2.13542E+00 -8.70053E+00 -1.73740E+01
   7.06804E+00 -8.21356E+00 -1.09615E+01  1.15535E+01 -4.90882E+00  1.27085E+01  1.04123E+01  1.35620E+00  1.55141E+01 -1.64500E-01
  -2.70709E+00 -9.18721E+00  1.32676E+00 -2.57471E+00  1.45728E+01 -2.62545E+00 -4.75902E+00 -3.57230E+00  1.51447E+00 -1.03677E-01
  -2.12479E+01 -1.13916E+01  7.41498E+00 -5.46579E+00  1.70182E+00 -6.93732E+00  1.06664E+01 -7.06229E+00 -5.30826E+00 -3.57970E+00
  -2.07278E+01 -1.83650E+01 -6.80115E+00 -5.91773E-01 -1.74667E+01 -9.34772E+00 -2.88992E+01 -8.35825E+00 -6.73057E+00 -1.53683E+01
  -2.23036E+01 -1.04883E+01 -1.54181E+01 -2.48111E+01 -1.54446E+01 -1.58342E+01 -1.21655E+01 -9.34665E+00 -1.57793E+01 -2.26038E+01
  -4.00118E+00  4.09516E+00 -2.77468E+01 -1.64705E+01 -9.94246E+00 -2.66771E+01 -1.62160E+01 -1.69988E+01 -1.23421E+00 -9.24114E+00
  -7.13635E-01 -1.36056E+01 -6.46836E+00 -1.69271E+01 -6.85333E+00 -1.71002E+01 -2.15315E+01 -2.37343E+01 -9.79323E+00 -4.38774E+00
  -7.33068E+00 -4.52562E+00 -1.32905E+01 -8.79882E+00 -1.75319E+00 -9.35876E+00 -1.24628E+01 -1.70248E+01 -1.51200E+01 -1.15182E+01
  -5.81347E+00 -1.21122E+01 -1.30745E+01 -1.39210E+01 -7.27326E+00 -3.13804E+00  2.27941E+00  1.07563E+00 -1.69104E+01 -1.44324E+01
  -1.10923E+01  2.98553E+00 -8.39395E+00 -9.64711E+00 -2.35092E+00 -2.11754E+01 -1.23822E+01 -8.45471E+00
 NY points of the fit to the data follow
   3.56186E+01  3.50532E+01  3.60442E+01  3.45650E+01  3.60674E+01  3.36874E+01  3.59460E+01  3.28775E+01  3.59669E+01  3.24955E+01
   3.62133E+01  3.21928E+01  3.63087E+01  3.19247E+01  3.63657E+01  3.14811E+01  3.65570E+01  3.15336E+01  3.63331E+01  3.13047E+01
   3.53833E+01  3.05002E+01  3.36519E+01  2.93002E+01  3.17490E+01  2.81858E+01  3.01127E+01  2.74581E+01  2.89348E+01  2.72525E+01
   2.85081E+01  2.81953E+01  2.97151E+01  2.98279E+01  3.07258E+01  3.09528E+01  3.10587E+01  3.13251E+01  3.07079E+01  3.10497E+01
   2.99884E+01  3.04419E+01  2.91524E+01  2.97443E+01  2.85131E+01  2.90636E+01  2.80181E+01  2.80265E+01  2.74211E+01  2.70330E+01
   2.70685E+01  2.62368E+01  2.66862E+01  2.56444E+01  2.57528E+01  2.43581E+01  2.43341E+01  2.27375E+01  2.27065E+01  2.11142E+01
   2.12878E+01  1.97134E+01  2.01125E+01  1.86369E+01  1.93072E+01  1.80585E+01  1.90904E+01  1.82088E+01  1.95222E+01  1.85288E+01
   1.95630E+01  1.81952E+01  1.89024E+01  1.72338E+01  1.77041E+01  1.58948E+01  1.62559E+01  1.44641E+01  1.48061E+01  1.31346E+01
   1.35908E+01  1.19117E+01  1.23045E+01  1.05122E+01  1.07845E+01  9.07387E+00  9.57388E+00  8.94626E+00  1.02049E+01  1.01772E+01
   1.21064E+01  1.22541E+01  1.47625E+01  1.48254E+01  1.76955E+01  1.76348E+01  2.08012E+01  2.05647E+01  2.39351E+01  2.33417E+01
   2.67653E+01  2.55924E+01  2.88903E+01  2.69441E+01  2.99056E+01  2.70713E+01  2.95274E+01  2.57835E+01  2.76277E+01  2.33554E+01
   2.48425E+01  2.12385E+01  2.31920E+01  1.98262E+01  2.22561E+01  1.89253E+01  2.18248E+01  1.85813E+01  2.19476E+01  1.88418E+01
   2.28748E+01  1.99981E+01  2.49742E+01  2.23007E+01  2.81675E+01  2.44597E+01  3.06134E+01  2.57468E+01  3.18447E+01  2.58609E+01
   3.15181E+01  2.46618E+01  2.95514E+01  2.22337E+01  2.61250E+01  1.88276E+01  2.16144E+01  1.47837E+01  1.64499E+01  1.05058E+01
   1.12030E+01  6.49458E+00  6.50495E+00  3.20132E+00  2.81619E+00  9.43358E-01  6.14052E-01  1.14400E-01  2.90156E-01 -1.22416E-01
  -1.50427E-02 -3.89676E-01 -3.92191E-01 -7.45740E-01 -8.95869E-01 -1.30254E+00 -1.58665E+00 -1.97162E+00 -2.33786E+00 -2.65428E+00
  -3.08202E+00 -3.28933E+00 -3.72911E+00 -3.86885E+00 -4.34889E+00 -4.47099E+00 -4.96326E+00 -5.07026E+00 -5.52544E+00 -5.64179E+00
  -6.05286E+00 -6.20662E+00 -6.45558E+00 -6.61785E+00 -6.61271E+00 -6.75220E+00 -6.42049E+00 -6.58900E+00 -6.08180E+00 -6.41659E+00
  -5.83557E+00 -6.61067E+00 -5.88833E+00 -6.95565E+00 -5.97405E+00 -7.04535E+00 -5.49465E+00 -6.36069E+00 -4.33674E+00 -4.99925E+00
  -2.62627E+00 -3.42420E+00 -1.05580E+00 -2.45521E+00 -9.27020E-01 -3.07930E+00 -1.47841E+00 -4.04110E+00 -1.87668E+00 -4.71036E+00
  -1.88869E+00 -5.04093E+00 -1.71178E+00 -5.23478E+00 -1.54067E+00 -5.45591E+00 -1.40194E+00 -5.55404E+00 -1.03235E+00 -5.19163E+00
  -2.65888E-01 -4.23447E+00  9.40892E-01 -2.71456E+00  2.42623E+00 -8.61823E-01  4.09085E+00  1.30206E+00  6.00111E+00  3.99243E+00
   7.93538E+00  6.72178E+00  1.01756E+01  9.62557E+00  1.23825E+01  1.22944E+01  1.43589E+01  1.35734E+01  1.46088E+01  1.26685E+01
   1.27681E+01  9.83153E+00  1.05552E+01  7.10399E+00  8.53761E+00  4.92415E+00  7.26866E+00  3.57465E+00  6.79769E+00  3.24749E+00
   7.53937E+00  3.96103E+00  9.14288E+00  5.97720E+00  1.33447E+01  1.05619E+01  1.92556E+01  1.66436E+01  2.59505E+01  2.33806E+01
   3.27827E+01  3.01515E+01  3.94213E+01  3.66899E+01  4.56138E+01  4.25803E+01  5.06282E+01  4.71009E+01  5.43638E+01  5.02798E+01
   5.61747E+01  5.13334E+01  5.52465E+01  4.91576E+01  5.06902E+01  4.39444E+01  4.32360E+01  3.64314E+01  3.40187E+01  2.77899E+01
   2.42223E+01  1.91087E+01  1.50837E+01  1.12206E+01  7.35898E+00  4.79464E+00  1.76835E+00  1.83841E-01 -1.72086E+00 -2.28513E+00
  -2.46675E+00 -2.65307E+00 -2.74185E+00 -2.89116E+00 -2.94374E+00 -3.06982E+00 -3.09200E+00 -3.20191E+00 -3.20346E+00 -3.29759E+00
  -3.28521E+00 -3.35545E+00 -3.32570E+00 -3.37554E+00 -3.33478E+00 -3.36931E+00 -3.32520E+00 -3.35136E+00 -3.30920E+00 -3.32655E+00
  -3.28311E+00 -3.28867E+00 -3.24193E+00 -3.22889E+00 -3.17314E+00 -3.13959E+00 -3.06832E+00 -3.01137E+00 -2.92280E+00 -2.83812E+00
  -2.72685E+00 -2.61084E+00 -2.46896E+00 -2.31690E+00 -2.14359E+00 -1.95412E+00 -1.74546E+00 -1.51601E+00 -1.26769E+00 -9.96213E-01
  -7.01606E-01 -3.81089E-01 -3.41235E-02  3.42766E-01  7.51651E-01  1.19843E+00  1.69052E+00  2.24164E+00  2.87562E+00  3.64180E+00
   4.66617E+00  6.14713E+00  7.12565E+00  8.38063E+00  9.07472E+00  9.65414E+00  9.97097E+00  9.60215E+00  9.53553E+00  9.21312E+00
   9.33155E+00  9.08156E+00  9.39882E+00  8.94386E+00  9.35616E+00  8.44501E+00  8.86617E+00  7.48789E+00  7.94773E+00  6.25567E+00
   6.87489E+00  5.06064E+00  5.93131E+00  4.17098E+00  5.32304E+00  3.75266E+00  5.13782E+00  3.78292E+00  5.29834E+00  4.18196E+00
   5.69645E+00  4.82153E+00  6.19451E+00  5.54079E+00  6.66759E+00  6.18826E+00  6.92652E+00  6.47404E+00  6.35510E+00  5.01405E+00
   4.27765E+00  2.56017E+00  1.48836E+00 -1.22107E-01 -1.18402E+00 -1.92126E+00 -2.48983E+00 -2.94664E+00 -3.31889E+00 -3.62156E+00
  -3.86359E+00 -4.05046E+00 -4.18562E+00 -4.27113E+00 -4.30817E+00 -4.29723E+00 -4.23846E+00 -4.13185E+00 -3.97753E+00 -3.77601E+00
  -3.52836E+00 -3.23646E+00 -2.90322E+00 -2.53286E+00 -2.13100E+00 -1.70485E+00 -1.26310E+00 -8.15877E-01 -3.74556E-01  4.85287E-02
   4.40532E-01  7.88569E-01  1.08031E+00  1.30456E+00  1.45177E+00  1.51458E+00  1.48818E+00  1.37061E+00  1.16284E+00  8.68758E-01
   4.94881E-01  5.00468E-02 -4.55128E-01 -1.00870E+00 -1.59811E+00 -2.21063E+00 -2.83407E+00 -3.45709E+00 -4.06968E+00 -4.66329E+00
  -5.23107E+00 -5.76785E+00 -6.27013E+00 -6.73588E+00 -7.16441E+00 -7.55611E+00 -7.91226E+00 -8.23477E+00 -8.52602E+00 -8.78866E+00
  -9.02539E+00 -9.23895E+00 -9.43196E+00 -9.60689E+00 -9.76600E+00 -9.91133E+00 -1.00447E+01 -1.01677E+01 -1.02817E+01 -1.03880E+01
  -1.04875E+01 -1.05811E+01 -1.06697E+01 -1.07538E+01 -1.08340E+01 -1.09108E+01 -1.09846E+01 -1.10557E+01 -1.11245E+01 -1.11911E+01
  -1.12558E+01 -1.13189E+01 -1.13804E+01 -1.14406E+01 -1.14994E+01 -1.15572E+01 -1.16139E+01 -1.16697E+01 -1.17246E+01 -1.17788E+01
  -1.18322E+01 -1.18849E+01 -1.19370E+01 -1.19886E+01 -1.20396E+01 -1.20901E+01 -1.21401E+01 -1.21897E+01 -1.22389E+01 -1.22878E+01
  -1.23363E+01 -1.23844E+01 -1.24322E+01 -1.24798E+01 -1.25270E+01 -1.25740E+01 -1.26207E+01 -1.26672E+01 -1.27135E+01 -1.27595E+01
  -1.28053E+01 -1.28509E+01 -1.28963E+01 -1.29415E+01 -1.29865E+01 -1.30313E+01 -1.30758E+01 -1.31202E+01 -1.31643E+01 -1.32082E+01
  -1.32519E+01 -1.32953E+01 -1.33384E+01 -1.33813E+01 -1.34237E+01 -1.34658E+01 -1.35074E+01 -1.35485E+01
 NY background values follow
     7.497E+00    7.456E+00    7.414E+00    7.372E+00    7.330E+00    7.289E+00    7.247E+00    7.205E+00    7.164E+00    7.122E+00
     7.080E+00    7.038E+00    6.997E+00    6.955E+00    6.913E+00    6.871E+00    6.830E+00    6.788E+00    6.746E+00    6.704E+00
     6.662E+00    6.621E+00    6.579E+00    6.537E+00    6.495E+00    6.453E+00    6.411E+00    6.370E+00    6.328E+00    6.286E+00
     6.244E+00    6.202E+00    6.160E+00    6.118E+00    6.076E+00    6.035E+00    5.993E+00    5.951E+00    5.909E+00    5.867E+00
     5.825E+00    5.783E+00    5.741E+00    5.699E+00    5.657E+00    5.615E+00    5.573E+00    5.531E+00    5.489E+00    5.447E+00
     5.405E+00    5.363E+00    5.321E+00    5.279E+00    5.237E+00    5.195E+00    5.153E+00    5.111E+00    5.069E+00    5.027E+00
     4.985E+00    4.943E+00    4.900E+00    4.858E+00    4.816E+00    4.774E+00    4.732E+00    4.690E+00    4.648E+00    4.606E+00
     4.564E+00    4.521E+00    4.479E+00    4.437E+00    4.395E+00    4.353E+00    4.311E+00    4.268E+00    4.226E+00    4.184E+00
     4.142E+00    4.100E+00    4.057E+00    4.015E+00    3.973E+00    3.931E+00    3.888E+00    3.846E+00    3.804E+00    3.762E+00
     3.719E+00    3.677E+00    3.635E+00    3.593E+00    3.550E+00    3.508E+00    3.466E+00    3.423E+00    3.381E+00    3.339E+00
     3.297E+00    3.254E+00    3.212E+00    3.170E+00    3.127E+00    3.085E+00    3.043E+00    3.000E+00    2.958E+00    2.915E+00
     2.873E+00    2.831E+00    2.788E+00    2.746E+00    2.704E+00    2.661E+00    2.619E+00    2.576E+00    2.534E+00    2.491E+00
     2.449E+00    2.407E+00    2.364E+00    2.322E+00    2.279E+00    2.237E+00    2.194E+00    2.152E+00    2.109E+00    2.067E+00
     2.024E+00    1.982E+00    1.939E+00    1.897E+00    1.854E+00    1.812E+00    1.769E+00    1.727E+00    1.684E+00    1.642E+00
     1.599E+00    1.557E+00    1.514E+00    1.472E+00    1.429E+00    1.387E+00    1.344E+00    1.301E+00    1.259E+00    1.216E+00
     1.174E+00    1.131E+00    1.089E+00    1.046E+00    1.003E+00    9.607E-01    9.181E-01    8.755E-01    8.329E-01    7.903E-01
     7.476E-01    7.050E-01    6.624E-01    6.197E-01    5.771E-01    5.344E-01    4.917E-01    4.491E-01    4.064E-01    3.637E-01
     3.211E-01    2.784E-01    2.357E-01    1.930E-01    1.503E-01    1.076E-01    6.489E-02    2.218E-02   -2.053E-02   -6.325E-02
    -1.060E-01   -1.487E-01   -1.914E-01   -2.342E-01   -2.769E-01   -3.197E-01   -3.624E-01   -4.052E-01   -4.479E-01   -4.907E-01
    -5.334E-01   -5.762E-01   -6.190E-01   -6.618E-01   -7.046E-01   -7.473E-01   -7.901E-01   -8.329E-01   -8.757E-01   -9.185E-01
    -9.613E-01   -1.004E+00   -1.047E+00   -1.090E+00   -1.133E+00   -1.175E+00   -1.218E+00   -1.261E+00   -1.304E+00   -1.347E+00
    -1.390E+00   -1.432E+00   -1.475E+00   -1.518E+00   -1.561E+00   -1.604E+00   -1.647E+00   -1.690E+00   -1.733E+00   -1.775E+00
    -1.818E+00   -1.861E+00   -1.904E+00   -1.947E+00   -1.990E+00   -2.033E+00   -2.076E+00   -2.119E+00   -2.162E+00   -2.204E+00
    -2.247E+00   -2.290E+00   -2.333E+00   -2.376E+00   -2.419E+00   -2.462E+00   -2.505E+00   -2.548E+00   -2.591E+00   -2.634E+00
    -2.677E+00   -2.720E+00   -2.763E+00   -2.806E+00   -2.849E+00   -2.892E+00   -2.935E+00   -2.978E+00   -3.021E+00   -3.064E+00
    -3.107E+00   -3.150E+00   -3.193E+00   -3.236E+00   -3.279E+00   -3.322E+00   -3.365E+00   -3.408E+00   -3.451E+00   -3.494E+00
    -3.537E+00   -3.580E+00   -3.623E+00   -3.666E+00   -3.709E+00   -3.752E+00   -3.795E+00   -3.838E+00   -3.881E+00   -3.924E+00
    -3.967E+00   -4.010E+00   -4.053E+00   -4.096E+00   -4.139E+00   -4.182E+00   -4.225E+00   -4.268E+00   -4.312E+00   -4.355E+00
    -4.398E+00   -4.441E+00   -4.484E+00   -4.527E+00   -4.570E+00   -4.613E+00   -4.656E+00   -4.699E+00   -4.742E+00   -4.785E+00
    -4.829E+00   -4.872E+00   -4.915E+00   -4.958E+00   -5.001E+00   -5.044E+00   -5.087E+00   -5.130E+00   -5.174E+00   -5.217E+00
    -5.260E+00   -5.303E+00   -5.346E+00   -5.389E+00   -5.432E+00   -5.475E+00   -5.519E+00   -5.562E+00   -5.605E+00   -5.648E+00
    -5.691E+00   -5.734E+00   -5.778E+00   -5.821E+00   -5.864E+00   -5.907E+00   -5.950E+00   -5.993E+00   -6.036E+00   -6.080E+00
    -6.123E+00   -6.166E+00   -6.209E+00   -6.252E+00   -6.296E+00   -6.339E+00   -6.382E+00   -6.425E+00   -6.468E+00   -6.511E+00
    -6.555E+00   -6.598E+00   -6.641E+00   -6.684E+00   -6.727E+00   -6.771E+00   -6.814E+00   -6.857E+00   -6.900E+00   -6.943E+00
    -6.987E+00   -7.030E+00   -7.073E+00   -7.116E+00   -7.160E+00   -7.203E+00   -7.246E+00   -7.289E+00   -7.332E+00   -7.376E+00
    -7.419E+00   -7.462E+00   -7.505E+00   -7.549E+00   -7.592E+00   -7.635E+00   -7.678E+00   -7.722E+00   -7.765E+00   -7.808E+00
    -7.851E+00   -7.894E+00   -7.938E+00   -7.981E+00   -8.024E+00   -8.067E+00   -8.111E+00   -8.154E+00   -8.197E+00   -8.240E+00
    -8.284E+00   -8.327E+00   -8.370E+00   -8.414E+00   -8.457E+00   -8.500E+00   -8.543E+00   -8.587E+00   -8.630E+00   -8.673E+00
    -8.716E+00   -8.760E+00   -8.803E+00   -8.846E+00   -8.889E+00   -8.933E+00   -8.976E+00   -9.019E+00   -9.062E+00   -9.106E+00
    -9.149E+00   -9.192E+00   -9.236E+00   -9.279E+00   -9.322E+00   -9.365E+00   -9.409E+00   -9.452E+00   -9.495E+00   -9.539E+00
    -9.582E+00   -9.625E+00   -9.668E+00   -9.712E+00   -9.755E+00   -9.798E+00   -9.842E+00   -9.885E+00   -9.928E+00   -9.971E+00
    -1.001E+01   -1.006E+01   -1.010E+01   -1.014E+01   -1.019E+01   -1.023E+01   -1.027E+01   -1.032E+01   -1.036E+01   -1.040E+01
    -1.045E+01   -1.049E+01   -1.053E+01   -1.058E+01   -1.062E+01   -1.066E+01   -1.071E+01   -1.075E+01   -1.079E+01   -1.084E+01
    -1.088E+01   -1.092E+01   -1.097E+01   -1.101E+01   -1.105E+01   -1.110E+01   -1.114E+01   -1.118E+01   -1.123E+01   -1.127E+01
    -1.131E+01   -1.136E+01   -1.140E+01   -1.144E+01   -1.149E+01   -1.153E+01   -1.157E+01   -1.162E+01   -1.166E+01   -1.170E+01
    -1.175E+01   -1.179E+01   -1.183E+01   -1.188E+01   -1.192E+01   -1.196E+01   -1.201E+01   -1.205E+01   -1.209E+01   -1.214E+01
    -1.218E+01   -1.222E+01   -1.227E+01   -1.231E+01   -1.235E+01   -1.240E+01   -1.244E+01   -1.248E+01   -1.253E+01   -1.257E+01
    -1.261E+01   -1.266E+01   -1.270E+01   -1.274E+01   -1.279E+01   -1.283E+01   -1.287E+01   -1.292E+01   -1.296E+01   -1.300E+01
    -1.305E+01   -1.309E+01   -1.313E+01   -1.318E+01   -1.322E+01   -1.326E+01   -1.330E+01   -1.335E+01   -1.339E+01   -1.343E+01
    -1.348E+01   -1.352E+01   -1.356E+01   -1.361E+01   -1.365E+01   -1.369E+01   -1.374E+01   -1.378E+01
 Asp      Conc. = 1.27E+02
