 LCModel (Version 6.3-1L) Copyright: S.W. Provencher.          Ref.: Magn. Reson. Med. 30:672-679 (1993).                
 Slice#3 Row#2 Col#4  PD_24_press_2_raw_act
 36 lines in following concentration table = NCONC+1
    Conc.  %SD /Cr+PCr  Metabolite                                         
   50.758 244%   0.432 Ala                                                 
   27.639  37%   0.235 Asp                                                 
  117.373  57%   1.000 Cr                                                  
    0.000 999%   0.000 PCr                                                 
   16.693  36%   0.142 GABA                                                
   16.569  37%   0.141 Glc                                                 
  223.440 110%   1.904 Gln                                                 
    0.000 999%   0.000 Glu                                                 
    0.000 999%   0.000 GPC                                                 
   21.963 115%   0.187 PCh                                                 
    0.000 999%   0.000 GSH                                                 
    0.000 999%   0.000 Ins                                                 
    0.000 999%   0.000 Lac                                                 
  265.906  33%   2.265 NAA                                                 
  104.737  87%   0.892 NAAG                                                
    5.581  36% 4.8E-02 Scyllo                                              
   27.672  37%   0.236 Tau                                                 
   12.893  93%   0.110 -CrCH2                                              
   21.963 115%   0.187 GPC+PCh                                             
  370.643  28%   3.158 NAA+NAAG                                            
  117.373  57%   1.000 Cr+PCr                                              
  223.440 110%   1.904 Glu+Gln                                             
    0.000 999%   0.000 Lip13a                                              
  552.859  57%   4.710 Lip13b                                              
  147.613  57%   1.258 Lip09                                               
  716.376  32%   6.103 MM09                                                
   82.929  57%   0.707 Lip20                                               
 1.07E+03  32%   9.155 MM20                                                
  214.913  32%   1.831 MM12                                                
  537.263  32%   4.577 MM14                                                
  268.636  32%   2.289 MM17                                                
  552.859  57%   4.710 Lip13a+Lip13b                                       
 1.31E+03  24%  11.119 MM14+Lip13a+Lip13b+MM12                             
  863.989  25%   7.361 MM09+Lip09                                          
 1.16E+03  28%   9.862 MM20+Lip20                                          
   6 lines in following misc. output table
  FWHM = 0.038 ppm    S/N =   1                                            
  Data shift = 0.031 ppm                                                   
  Ph:  60 deg      17.0 deg/ppm                                            
  alphaB,S = 8.5E+01,   2.2E+01                                            
   14 spline knots.   Ns = 5(1)                                            
   2 inflections.     1 extrema                                            
  498 points on ppm-axis = NY
      4.000000     3.992357     3.984714     3.977070     3.969427     3.961784     3.954141     3.946497     3.938854     3.931211
      3.923568     3.915925     3.908281     3.900638     3.892995     3.885352     3.877708     3.870065     3.862422     3.854779
      3.847136     3.839492     3.831849     3.824206     3.816563     3.808919     3.801276     3.793633     3.785990     3.778347
      3.770703     3.763060     3.755417     3.747774     3.740130     3.732487     3.724844     3.717201     3.709558     3.701914
      3.694271     3.686628     3.678985     3.671341     3.663698     3.656055     3.648412     3.640769     3.633125     3.625482
      3.617839     3.610196     3.602552     3.594909     3.587266     3.579623     3.571980     3.564336     3.556693     3.549050
      3.541407     3.533763     3.526120     3.518477     3.510834     3.503191     3.495547     3.487904     3.480261     3.472618
      3.464974     3.457331     3.449688     3.442045     3.434402     3.426758     3.419115     3.411472     3.403829     3.396185
      3.388542     3.380899     3.373256     3.365613     3.357969     3.350326     3.342683     3.335040     3.327396     3.319753
      3.312110     3.304467     3.296824     3.289180     3.281537     3.273894     3.266251     3.258607     3.250964     3.243321
      3.235678     3.228034     3.220391     3.212748     3.205105     3.197462     3.189818     3.182175     3.174532     3.166889
      3.159245     3.151602     3.143959     3.136316     3.128673     3.121029     3.113386     3.105743     3.098100     3.090456
      3.082813     3.075170     3.067527     3.059884     3.052240     3.044597     3.036954     3.029311     3.021667     3.014024
      3.006381     2.998738     2.991095     2.983451     2.975808     2.968165     2.960522     2.952878     2.945235     2.937592
      2.929949     2.922306     2.914662     2.907019     2.899376     2.891733     2.884089     2.876446     2.868803     2.861160
      2.853517     2.845873     2.838230     2.830587     2.822944     2.815300     2.807657     2.800014     2.792371     2.784728
      2.777084     2.769441     2.761798     2.754155     2.746511     2.738868     2.731225     2.723582     2.715939     2.708295
      2.700652     2.693009     2.685366     2.677722     2.670079     2.662436     2.654793     2.647150     2.639506     2.631863
      2.624220     2.616577     2.608933     2.601290     2.593647     2.586004     2.578361     2.570717     2.563074     2.555431
      2.547788     2.540144     2.532501     2.524858     2.517215     2.509572     2.501928     2.494285     2.486642     2.478999
      2.471355     2.463712     2.456069     2.448426     2.440783     2.433139     2.425496     2.417853     2.410210     2.402566
      2.394923     2.387280     2.379637     2.371994     2.364350     2.356707     2.349064     2.341421     2.333777     2.326134
      2.318491     2.310848     2.303205     2.295561     2.287918     2.280275     2.272632     2.264988     2.257345     2.249702
      2.242059     2.234416     2.226772     2.219129     2.211486     2.203843     2.196199     2.188556     2.180913     2.173270
      2.165627     2.157983     2.150340     2.142697     2.135054     2.127410     2.119767     2.112124     2.104481     2.096838
      2.089194     2.081551     2.073908     2.066265     2.058621     2.050978     2.043335     2.035692     2.028049     2.020405
      2.012762     2.005119     1.997476     1.989833     1.982190     1.974546     1.966903     1.959260     1.951617     1.943974
      1.936331     1.928688     1.921045     1.913402     1.905759     1.898115     1.890472     1.882829     1.875186     1.867543
      1.859900     1.852257     1.844614     1.836971     1.829327     1.821684     1.814041     1.806398     1.798755     1.791112
      1.783469     1.775826     1.768183     1.760540     1.752896     1.745253     1.737610     1.729967     1.722324     1.714681
      1.707038     1.699395     1.691752     1.684108     1.676465     1.668822     1.661179     1.653536     1.645893     1.638250
      1.630607     1.622964     1.615321     1.607677     1.600034     1.592391     1.584748     1.577105     1.569462     1.561819
      1.554176     1.546533     1.538890     1.531246     1.523603     1.515960     1.508317     1.500674     1.493031     1.485388
      1.477745     1.470102     1.462458     1.454815     1.447172     1.439529     1.431886     1.424243     1.416600     1.408957
      1.401314     1.393671     1.386027     1.378384     1.370741     1.363098     1.355455     1.347812     1.340169     1.332526
      1.324883     1.317240     1.309596     1.301953     1.294310     1.286667     1.279024     1.271381     1.263738     1.256095
      1.248452     1.240808     1.233165     1.225522     1.217879     1.210236     1.202593     1.194950     1.187307     1.179664
      1.172021     1.164377     1.156734     1.149091     1.141448     1.133805     1.126162     1.118519     1.110876     1.103233
      1.095590     1.087946     1.080303     1.072660     1.065017     1.057374     1.049731     1.042088     1.034445     1.026802
      1.019158     1.011515     1.003872     0.996229     0.988586     0.980943     0.973300     0.965657     0.958014     0.950371
      0.942727     0.935084     0.927441     0.919798     0.912155     0.904512     0.896869     0.889226     0.881583     0.873940
      0.866296     0.858653     0.851010     0.843367     0.835724     0.828081     0.820438     0.812795     0.805152     0.797508
      0.789865     0.782222     0.774579     0.766936     0.759293     0.751650     0.744007     0.736364     0.728721     0.721077
      0.713434     0.705791     0.698148     0.690505     0.682862     0.675219     0.667576     0.659933     0.652290     0.644646
      0.637003     0.629360     0.621717     0.614074     0.606431     0.598788     0.591145     0.583502     0.575858     0.568215
      0.560572     0.552929     0.545286     0.537643     0.530000     0.522357     0.514714     0.507071     0.499427     0.491784
      0.484141     0.476498     0.468855     0.461212     0.453569     0.445925     0.438282     0.430639     0.422996     0.415353
      0.407710     0.400067     0.392424     0.384780     0.377137     0.369494     0.361851     0.354208     0.346565     0.338922
      0.331278     0.323635     0.315992     0.308349     0.300706     0.293063     0.285420     0.277777     0.270133     0.262490
      0.254847     0.247204     0.239561     0.231918     0.224275     0.216631     0.208988     0.201345
 NY phased data points follow
  -1.44735E+01  2.62949E+00 -8.91896E+00 -1.94316E+01  2.37984E+00 -1.83890E+01 -1.48518E+01  1.82047E-01 -9.57765E+00 -9.41332E-02
   8.97494E+00  2.33874E+00  6.43643E+00 -1.68527E+00 -4.71907E+00 -1.29610E+01 -1.77273E+01 -4.14482E+00  1.07133E+00 -1.64815E+01
  -6.03580E+00 -9.29568E+00 -4.63113E+00 -5.56951E+00  4.91333E+00 -1.68983E+01 -5.07345E+00 -1.03981E+01 -1.20854E+01 -3.59377E+00
   1.87444E-01 -4.02762E+00 -4.14890E+00  2.66396E+00 -1.13344E+01  4.48158E-01 -8.79555E+00 -4.56028E+00 -2.22884E+00 -5.05047E+00
  -8.04881E+00 -1.35027E+01 -3.27872E-01 -1.19801E+01  6.69380E+00 -1.27170E+01  1.05924E+00 -6.63676E+00 -4.23642E+00 -6.90401E+00
  -2.43279E+00 -7.17491E+00 -2.22806E+00  1.81064E+00 -2.47287E+00  1.04879E+01  3.84085E+00  7.15547E+00  1.84338E+00 -6.90867E+00
   4.16798E-02  1.32805E+00 -1.00414E+00  2.19367E+00 -1.46600E+00 -5.06402E-01  8.67299E+00 -5.81779E+00  3.73956E+00 -2.86494E+00
  -1.22631E+01 -3.79136E-01  3.09915E+00 -1.59787E+00 -7.27594E+00  2.62342E+00  9.38566E+00 -6.65153E+00 -8.23226E+00  9.93393E+00
  -2.43337E+00 -3.49132E+00  3.30219E+00  3.53095E+00 -6.68602E-01  1.05405E+01 -1.71938E+00 -6.91103E+00 -5.06567E-01 -3.96260E+00
   5.03322E+00 -9.63482E-01 -1.17072E+00  6.63328E+00  6.44276E+00 -1.22711E+00 -2.89778E+00 -5.79432E+00 -4.34671E-01 -7.01983E+00
  -4.09675E+00  4.54276E+00  5.52952E+00  3.77191E+00  2.64460E-01 -7.39550E+00  4.85060E-01 -1.19102E+01 -7.10409E+00 -5.24740E+00
   1.59172E+00 -1.48096E-01 -1.10385E+01 -4.89907E+00  4.66833E+00  3.84247E+00  8.50329E+00  8.16256E+00 -4.61579E+00 -5.56588E+00
  -2.34284E+00 -6.26351E+00  6.76387E-01 -9.48634E+00  8.83984E+00 -2.77651E+00  1.22647E+01 -1.28508E+00  5.99236E+00 -1.25956E-02
  -1.82475E+00  4.06407E+00 -2.00270E+00 -1.07318E+01  3.19001E+00 -3.12799E+00  7.72763E+00  4.01612E+00  6.84088E-01 -8.63950E-01
   7.09512E+00 -7.17920E+00  3.72148E+00  1.74186E+00 -7.88495E+00 -4.65657E+00 -1.45186E+00 -3.19567E+00  3.53672E+00 -5.71557E+00
   5.69139E+00 -5.37793E-01 -1.60299E+00 -3.96723E+00 -4.26520E+00 -6.88781E+00 -3.07444E+00 -5.29294E+00  5.97058E+00  9.57778E+00
  -2.57677E+00  1.27863E+01  5.23758E+00  3.93753E+00  9.48023E+00  1.24510E+00  6.92883E+00  1.07911E+01  8.89361E+00  5.31649E+00
   3.92959E+00  2.78271E+00 -9.85858E-01  3.09791E+00  8.31883E+00  3.77391E-01  5.69866E-01 -1.36976E-01  1.30877E+01  2.28234E+00
   4.93266E+00 -2.75697E+00  3.73379E+00 -6.13240E+00 -4.65423E+00  6.00403E-01 -8.31837E-01  1.41992E+00 -5.66128E+00  7.80840E+00
   4.99166E+00 -7.32469E+00  3.58294E+00 -4.16283E+00 -4.09933E-01  4.90197E+00 -2.02731E+00  1.09043E-01  4.60307E+00 -9.16687E+00
   3.40020E+00  1.28381E+00  4.83208E-02  7.95402E+00 -2.17097E+00  3.39141E+00  2.46975E+00 -3.83259E+00 -2.58628E+00 -4.89771E+00
  -1.03676E+00  1.92660E+00  2.29885E+00 -4.22095E+00  9.27993E+00  4.58547E+00 -7.33450E+00  6.07405E+00  3.28703E+00 -2.12998E+00
   6.37098E+00  6.81664E+00 -2.85486E+00  3.24252E+00  2.82470E+00  2.45140E-01  6.88174E+00 -2.21093E+00 -5.93236E+00 -8.55200E+00
  -8.99901E-01  5.32665E+00  8.73446E+00  9.19673E-01  5.63650E+00  8.53024E+00  8.19928E-01  7.61897E+00  8.83793E+00  9.74535E+00
   1.16828E+01 -5.19765E-01 -1.85501E+00  2.73373E+00 -1.07891E+00  3.47501E+00  1.04927E+01  9.41605E+00  7.93418E+00  9.40767E+00
   1.58020E+01  1.68314E+01  1.35867E+01  4.75147E+00  1.15642E+01  9.46040E+00  9.27060E+00  1.22521E+01  1.71784E+01  1.57574E+01
   2.13292E+01  5.04401E+00  1.44170E+01  6.37824E+00  1.55325E-01  1.57167E-01  7.37528E+00  1.16688E+01  1.99209E+00  5.96278E+00
   6.94167E+00  1.86561E+00  6.67941E+00  1.18706E+01  9.31234E+00  3.05556E+00 -2.99231E+00  8.74081E+00 -1.78069E+00 -5.83727E+00
   7.72465E+00  7.83052E+00 -3.00085E-01  8.27700E+00 -2.03057E+00  1.88447E+01 -6.14363E+00 -1.03725E+01 -8.44606E+00 -1.43977E+00
   2.25793E+00 -1.67384E-01  1.95065E+00 -1.47929E+00 -2.07667E+00  2.11706E+00  1.21410E+01  1.04503E+01  1.10554E+01  4.80434E+00
   1.33680E+01  2.50818E+00  8.76636E-01 -3.70938E+00 -3.22998E+00 -1.31892E+01 -8.12998E+00 -8.64501E+00 -9.12809E+00 -6.62371E+00
  -3.98758E+00 -1.48744E+01 -2.64451E+00 -1.12119E+01 -6.86929E+00 -7.16611E+00 -1.11580E+01 -4.98418E+00 -3.10980E+00 -4.65474E+00
  -1.71760E+01 -7.94938E+00 -5.34384E+00  7.62074E-01 -5.90474E+00 -7.90113E+00 -2.06540E+00 -6.34619E-01 -5.93009E+00 -1.19700E+01
  -3.44645E-01 -1.19301E+01 -8.58181E+00 -1.08878E+01 -1.18012E+01 -4.39476E+00  1.26884E+00 -1.70342E+00 -3.78291E+00 -8.85356E-01
   2.15842E+00 -6.28514E+00  1.34485E+01 -5.24668E+00  8.20071E+00  7.49520E+00  1.46413E+01  9.74345E+00 -2.59797E+00  6.25110E+00
   9.09890E+00  1.05714E+01  1.59438E+01 -7.58723E-02  9.77973E-01  3.36120E+00 -6.36644E-01  1.05536E+01  9.07666E+00  1.27480E+01
   1.42529E+01 -2.16888E+00  6.50278E+00  1.81341E+00 -1.89615E+00  1.53286E+01 -3.85065E+00  4.00412E+00 -3.03611E+00  5.38181E+00
   5.16473E-01  1.00814E+00  8.27348E+00 -5.75664E+00 -2.37737E+00 -3.70307E+00  1.40046E+01  4.16876E+00 -1.72848E-01  7.75894E+00
   4.76632E+00 -7.53825E-02  1.44359E+00  5.14874E+00 -2.60179E+00 -9.14380E+00  2.16977E+01  2.19900E-01 -5.59064E+00  1.55334E+01
  -1.99393E+00 -3.99890E+00  7.58704E+00  1.03063E+01  1.35797E-01 -4.14265E+00  6.92509E+00  8.50322E+00  5.88741E-01  3.57234E+00
   5.26394E+00  3.24756E+00  3.94769E+00  1.17113E+01  6.18509E+00  1.16423E+01  6.22734E+00  1.44678E+00  5.48488E+00  7.14376E-02
   5.17070E+00  7.35959E+00  8.16593E+00  3.90150E+00 -3.18270E+00 -5.62596E-01  4.84447E+00  1.31237E+01  3.46708E+00 -3.43173E+00
  -2.00799E+00  5.97203E+00  6.89797E-01  2.76070E+00  1.84294E+01  3.65888E+00  4.56171E+00  4.23362E+00  1.28327E+01  5.59342E+00
   1.14175E+01 -4.73795E+00  7.94533E+00  1.12223E+01  5.42527E+00  2.08729E-01  2.61739E+00 -3.97931E+00  7.50102E+00  1.72617E+00
   4.60529E+00 -7.19556E-01  1.55234E+00 -4.10009E+00  6.27491E-01  1.67307E+00  2.72031E+00  3.40377E+00  7.42772E+00  8.03163E-01
   2.96638E+00  1.51850E+00  4.15259E+00  2.57430E+00  2.61508E+00 -5.29448E+00 -3.40391E-01  4.18805E+00 -1.04334E+00 -1.97513E+01
   3.29358E+00  9.55100E+00 -7.19727E+00 -9.69437E-01 -8.14077E+00  4.81610E+00  1.14250E+01  1.84567E+00 -5.21431E+00  1.31724E+00
  -1.03716E+01 -6.77783E+00 -4.56541E-01  2.91090E+00  8.47822E-01  6.49629E+00  2.82560E+00  9.75312E+00 -2.26201E+00  1.25134E+00
  -3.49794E+00 -1.23445E+00 -6.20357E+00 -4.23813E+00 -1.77622E+00 -5.79674E+00 -8.71588E+00 -1.73304E+00 -2.02419E+00 -4.76926E+00
  -3.33528E-01  6.18839E-02 -4.02541E+00  1.34402E+00 -9.12494E+00  3.15015E+00  7.94512E+00  6.25408E-01
 NY points of the fit to the data follow
  -2.25144E+00 -2.22853E+00 -2.20178E+00 -2.18823E+00 -2.21368E+00 -2.24093E+00 -2.05030E+00 -1.43263E+00 -4.91546E-01  4.80306E-01
   1.11739E+00  1.16224E+00  6.11291E-01 -3.16384E-01 -1.30607E+00 -2.04962E+00 -2.36579E+00 -2.32581E+00 -2.17729E+00 -2.03741E+00
  -1.85397E+00 -1.68703E+00 -1.64816E+00 -1.79324E+00 -2.09780E+00 -2.46081E+00 -2.73145E+00 -2.73496E+00 -2.41933E+00 -1.88996E+00
  -1.35472E+00 -1.04806E+00 -1.10644E+00 -1.47100E+00 -1.94748E+00 -2.34380E+00 -2.51965E+00 -2.43840E+00 -2.20639E+00 -1.98984E+00
  -1.86689E+00 -1.84228E+00 -1.89106E+00 -1.96329E+00 -2.00752E+00 -2.01204E+00 -2.00725E+00 -2.00301E+00 -1.99386E+00 -1.97949E+00
  -1.96024E+00 -1.93950E+00 -1.92187E+00 -1.91307E+00 -1.91531E+00 -1.92551E+00 -1.93793E+00 -1.94630E+00 -1.94526E+00 -1.93582E+00
  -1.92147E+00 -1.90192E+00 -1.87714E+00 -1.85339E+00 -1.83265E+00 -1.82070E+00 -1.82393E+00 -1.83980E+00 -1.85912E+00 -1.87154E+00
  -1.85763E+00 -1.80138E+00 -1.71542E+00 -1.63065E+00 -1.58024E+00 -1.58753E+00 -1.65270E+00 -1.74175E+00 -1.81442E+00 -1.84306E+00
  -1.81163E+00 -1.70600E+00 -1.54679E+00 -1.38331E+00 -1.25903E+00 -1.21075E+00 -1.24917E+00 -1.34799E+00 -1.47056E+00 -1.59053E+00
  -1.68569E+00 -1.74405E+00 -1.77378E+00 -1.78373E+00 -1.75259E+00 -1.66816E+00 -1.54247E+00 -1.37567E+00 -1.05728E+00 -4.61884E-01
   3.14996E-01  1.05142E+00  1.48393E+00  1.43984E+00  9.38256E-01  1.67681E-01 -6.20329E-01 -1.19295E+00 -1.43025E+00 -1.40019E+00
  -1.30888E+00 -1.26977E+00 -1.24164E+00 -1.20741E+00 -1.16745E+00 -1.12814E+00 -1.08926E+00 -1.04752E+00 -1.00105E+00 -9.44099E-01
  -8.59327E-01 -6.68357E-01 -6.09264E-02  1.14635E+00  2.68759E+00  4.08269E+00  4.82206E+00  4.61268E+00  3.55577E+00  2.05577E+00
   5.94815E-01 -4.20836E-01 -8.17217E-01 -7.75839E-01 -6.81940E-01 -6.72983E-01 -6.73637E-01 -6.76105E-01 -6.89532E-01 -7.15667E-01
  -7.48067E-01 -7.74320E-01 -7.88938E-01 -7.97743E-01 -8.07787E-01 -8.27181E-01 -8.61863E-01 -9.08827E-01 -9.59156E-01 -1.00920E+00
  -1.06139E+00 -1.11355E+00 -1.15892E+00 -1.18473E+00 -1.17685E+00 -1.15034E+00 -1.15400E+00 -1.22256E+00 -1.35072E+00 -1.49466E+00
  -1.57971E+00 -1.56654E+00 -1.47717E+00 -1.37161E+00 -1.31711E+00 -1.36129E+00 -1.49064E+00 -1.63417E+00 -1.72232E+00 -1.73320E+00
  -1.70027E+00 -1.69506E+00 -1.76144E+00 -1.85805E+00 -1.92456E+00 -1.92044E+00 -1.85386E+00 -1.77211E+00 -1.72446E+00 -1.71494E+00
  -1.71085E+00 -1.68052E+00 -1.61464E+00 -1.51203E+00 -1.38693E+00 -1.26523E+00 -1.14412E+00 -1.00887E+00 -8.67061E-01 -7.68764E-01
  -7.60204E-01 -8.69326E-01 -1.06086E+00 -1.25964E+00 -1.40028E+00 -1.45109E+00 -1.38229E+00 -1.16040E+00 -7.94972E-01 -3.41486E-01
   1.26953E-01  5.04860E-01  6.72250E-01  5.51826E-01  9.32548E-02 -7.13267E-01 -1.68602E+00 -2.51373E+00 -2.95597E+00 -2.88900E+00
  -2.34714E+00 -1.53950E+00 -7.28030E-01 -1.04600E-01  2.36809E-01  3.27070E-01  3.15563E-01  3.35425E-01  3.80780E-01  4.30878E-01
   5.11561E-01  6.16117E-01  7.16877E-01  7.92463E-01  8.34490E-01  8.44825E-01  8.26238E-01  7.93486E-01  7.72714E-01  7.88374E-01
   8.33637E-01  8.43141E-01  8.02567E-01  7.64791E-01  8.20440E-01  1.06979E+00  1.56513E+00  2.21708E+00  2.81075E+00  3.15965E+00
   3.15469E+00  2.82514E+00  2.36525E+00  2.00948E+00  1.86964E+00  1.98088E+00  2.32417E+00  2.81101E+00  3.34202E+00  3.88335E+00
   4.49977E+00  5.41990E+00  6.65562E+00  7.96336E+00  9.06499E+00  1.02035E+01  1.18706E+01  1.38452E+01  1.55078E+01  1.60952E+01
   1.51157E+01  1.26852E+01  9.37977E+00  5.95786E+00  3.34229E+00  2.08417E+00  1.93414E+00  2.04591E+00  1.94952E+00  1.81222E+00
   1.69799E+00  1.60326E+00  1.50997E+00  1.40201E+00  1.27444E+00  1.13520E+00  1.00018E+00  8.84947E-01  7.98365E-01  7.42904E-01
   7.14867E-01  7.06507E-01  7.07721E-01  7.12344E-01  7.20205E-01  7.30726E-01  7.43286E-01  7.63938E-01  8.00708E-01  8.56097E-01
   9.26148E-01  1.00390E+00  1.08118E+00  1.14949E+00  1.20303E+00  1.24101E+00  1.26717E+00  1.28776E+00  1.30676E+00  1.32283E+00
   1.33371E+00  1.33714E+00  1.33040E+00  1.31133E+00  1.27978E+00  1.23844E+00  1.19138E+00  1.14105E+00  1.08957E+00  1.03913E+00
   9.91751E-01  9.49399E-01  9.13906E-01  8.86980E-01  8.70275E-01  8.65363E-01  8.73764E-01  8.97105E-01  9.37430E-01  9.97919E-01
   1.08486E+00  1.21408E+00  1.41714E+00  1.66070E+00  1.83820E+00  1.86232E+00  1.69872E+00  1.38913E+00  1.03545E+00  7.39944E-01
   6.12046E-01  7.60653E-01  1.18127E+00  1.75776E+00  2.32696E+00  2.77631E+00  3.04984E+00  3.13201E+00  3.06638E+00  2.94050E+00
   2.85621E+00  2.87249E+00  2.96532E+00  3.09470E+00  3.27109E+00  3.51023E+00  3.82472E+00  4.22266E+00  4.70469E+00  5.26095E+00
   5.86895E+00  6.49341E+00  7.08847E+00  7.60257E+00  7.98537E+00  8.19541E+00  8.20704E+00  8.01485E+00  7.63463E+00  7.10060E+00
   6.45964E+00  5.76377E+00  5.06277E+00  4.39815E+00  3.79954E+00  3.28374E+00  2.85591E+00  2.51229E+00  2.24335E+00  2.03687E+00
   1.88029E+00  1.76233E+00  1.67379E+00  1.60777E+00  1.55950E+00  1.52597E+00  1.50557E+00  1.49768E+00  1.50242E+00  1.52036E+00
   1.55244E+00  1.59979E+00  1.66367E+00  1.74540E+00  1.84632E+00  1.96766E+00  2.11054E+00  2.27582E+00  2.46399E+00  2.67513E+00
   2.90873E+00  3.16359E+00  3.43773E+00  3.72831E+00  4.03158E+00  4.34287E+00  4.65669E+00  4.96682E+00  5.26644E+00  5.54843E+00
   5.80559E+00  6.03098E+00  6.21824E+00  6.36187E+00  6.45753E+00  6.50226E+00  6.49463E+00  6.43484E+00  6.32468E+00  6.16742E+00
   5.96764E+00  5.73098E+00  5.46386E+00  5.17318E+00  4.86594E+00  4.54900E+00  4.22882E+00  3.91122E+00  3.60124E+00  3.30308E+00
   3.02001E+00  2.75439E+00  2.50778E+00  2.28097E+00  2.07412E+00  1.88686E+00  1.71840E+00  1.56766E+00  1.43338E+00  1.31418E+00
   1.20865E+00  1.11539E+00  1.03307E+00  9.60427E-01  8.96314E-01  8.39695E-01  7.89646E-01  7.45343E-01  7.06064E-01  6.71179E-01
   6.40146E-01  6.12498E-01  5.87830E-01  5.65787E-01  5.46066E-01  5.28402E-01  5.12574E-01  4.98387E-01  4.85669E-01  4.74267E-01
   4.64050E-01  4.54906E-01  4.46739E-01  4.39460E-01  4.32990E-01  4.27252E-01  4.22185E-01  4.17734E-01  4.13855E-01  4.10502E-01
   4.07632E-01  4.05207E-01  4.03196E-01  4.01572E-01  4.00310E-01  3.99380E-01  3.98758E-01  3.98421E-01  3.98353E-01  3.98539E-01
   3.98966E-01  3.99615E-01  4.00469E-01  4.01517E-01  4.02751E-01  4.04163E-01  4.05741E-01  4.07472E-01  4.09346E-01  4.11358E-01
   4.13504E-01  4.15778E-01  4.18172E-01  4.20674E-01  4.23281E-01  4.25990E-01  4.28800E-01  4.31705E-01  4.34698E-01  4.37772E-01
   4.40925E-01  4.44159E-01  4.47472E-01  4.50858E-01  4.54311E-01  4.57828E-01  4.61411E-01  4.65062E-01
 NY background values follow
    -2.364E+00   -2.359E+00   -2.353E+00   -2.348E+00   -2.342E+00   -2.337E+00   -2.331E+00   -2.326E+00   -2.320E+00   -2.315E+00
    -2.309E+00   -2.304E+00   -2.298E+00   -2.293E+00   -2.287E+00   -2.282E+00   -2.276E+00   -2.271E+00   -2.265E+00   -2.260E+00
    -2.254E+00   -2.249E+00   -2.243E+00   -2.238E+00   -2.233E+00   -2.227E+00   -2.222E+00   -2.216E+00   -2.211E+00   -2.205E+00
    -2.200E+00   -2.194E+00   -2.189E+00   -2.183E+00   -2.178E+00   -2.172E+00   -2.167E+00   -2.161E+00   -2.156E+00   -2.150E+00
    -2.145E+00   -2.139E+00   -2.134E+00   -2.128E+00   -2.123E+00   -2.117E+00   -2.112E+00   -2.106E+00   -2.101E+00   -2.095E+00
    -2.090E+00   -2.084E+00   -2.079E+00   -2.073E+00   -2.068E+00   -2.062E+00   -2.057E+00   -2.051E+00   -2.046E+00   -2.040E+00
    -2.035E+00   -2.029E+00   -2.024E+00   -2.018E+00   -2.013E+00   -2.007E+00   -2.002E+00   -1.997E+00   -1.991E+00   -1.986E+00
    -1.980E+00   -1.975E+00   -1.969E+00   -1.964E+00   -1.958E+00   -1.953E+00   -1.947E+00   -1.942E+00   -1.936E+00   -1.931E+00
    -1.925E+00   -1.920E+00   -1.914E+00   -1.909E+00   -1.903E+00   -1.898E+00   -1.892E+00   -1.887E+00   -1.881E+00   -1.876E+00
    -1.870E+00   -1.865E+00   -1.859E+00   -1.854E+00   -1.848E+00   -1.843E+00   -1.837E+00   -1.832E+00   -1.826E+00   -1.821E+00
    -1.815E+00   -1.810E+00   -1.804E+00   -1.799E+00   -1.793E+00   -1.788E+00   -1.782E+00   -1.777E+00   -1.772E+00   -1.766E+00
    -1.761E+00   -1.755E+00   -1.750E+00   -1.744E+00   -1.739E+00   -1.733E+00   -1.728E+00   -1.722E+00   -1.717E+00   -1.711E+00
    -1.706E+00   -1.700E+00   -1.695E+00   -1.689E+00   -1.684E+00   -1.678E+00   -1.673E+00   -1.667E+00   -1.662E+00   -1.656E+00
    -1.651E+00   -1.645E+00   -1.640E+00   -1.634E+00   -1.629E+00   -1.623E+00   -1.618E+00   -1.612E+00   -1.607E+00   -1.601E+00
    -1.596E+00   -1.590E+00   -1.585E+00   -1.579E+00   -1.574E+00   -1.568E+00   -1.563E+00   -1.557E+00   -1.552E+00   -1.547E+00
    -1.541E+00   -1.536E+00   -1.530E+00   -1.525E+00   -1.519E+00   -1.514E+00   -1.508E+00   -1.503E+00   -1.497E+00   -1.492E+00
    -1.486E+00   -1.481E+00   -1.475E+00   -1.470E+00   -1.464E+00   -1.459E+00   -1.453E+00   -1.448E+00   -1.442E+00   -1.437E+00
    -1.431E+00   -1.426E+00   -1.420E+00   -1.415E+00   -1.409E+00   -1.404E+00   -1.398E+00   -1.393E+00   -1.387E+00   -1.382E+00
    -1.376E+00   -1.371E+00   -1.365E+00   -1.360E+00   -1.355E+00   -1.349E+00   -1.344E+00   -1.338E+00   -1.333E+00   -1.327E+00
    -1.322E+00   -1.316E+00   -1.311E+00   -1.305E+00   -1.300E+00   -1.294E+00   -1.289E+00   -1.283E+00   -1.278E+00   -1.272E+00
    -1.267E+00   -1.261E+00   -1.256E+00   -1.250E+00   -1.245E+00   -1.239E+00   -1.234E+00   -1.228E+00   -1.223E+00   -1.217E+00
    -1.212E+00   -1.206E+00   -1.201E+00   -1.195E+00   -1.190E+00   -1.184E+00   -1.179E+00   -1.173E+00   -1.168E+00   -1.163E+00
    -1.157E+00   -1.152E+00   -1.146E+00   -1.141E+00   -1.135E+00   -1.130E+00   -1.124E+00   -1.119E+00   -1.113E+00   -1.108E+00
    -1.102E+00   -1.097E+00   -1.091E+00   -1.086E+00   -1.080E+00   -1.075E+00   -1.069E+00   -1.064E+00   -1.058E+00   -1.053E+00
    -1.047E+00   -1.042E+00   -1.036E+00   -1.031E+00   -1.025E+00   -1.020E+00   -1.014E+00   -1.009E+00   -1.003E+00   -9.980E-01
    -9.925E-01   -9.870E-01   -9.815E-01   -9.761E-01   -9.706E-01   -9.651E-01   -9.596E-01   -9.541E-01   -9.486E-01   -9.432E-01
    -9.377E-01   -9.322E-01   -9.267E-01   -9.212E-01   -9.157E-01   -9.103E-01   -9.048E-01   -8.993E-01   -8.938E-01   -8.883E-01
    -8.828E-01   -8.774E-01   -8.719E-01   -8.664E-01   -8.609E-01   -8.554E-01   -8.499E-01   -8.445E-01   -8.390E-01   -8.335E-01
    -8.280E-01   -8.225E-01   -8.170E-01   -8.116E-01   -8.061E-01   -8.006E-01   -7.951E-01   -7.896E-01   -7.841E-01   -7.787E-01
    -7.732E-01   -7.677E-01   -7.622E-01   -7.567E-01   -7.512E-01   -7.458E-01   -7.403E-01   -7.348E-01   -7.293E-01   -7.238E-01
    -7.183E-01   -7.129E-01   -7.074E-01   -7.019E-01   -6.964E-01   -6.909E-01   -6.854E-01   -6.800E-01   -6.745E-01   -6.690E-01
    -6.635E-01   -6.580E-01   -6.525E-01   -6.471E-01   -6.416E-01   -6.361E-01   -6.306E-01   -6.251E-01   -6.197E-01   -6.142E-01
    -6.087E-01   -6.032E-01   -5.977E-01   -5.922E-01   -5.868E-01   -5.813E-01   -5.758E-01   -5.703E-01   -5.648E-01   -5.593E-01
    -5.539E-01   -5.484E-01   -5.429E-01   -5.374E-01   -5.319E-01   -5.264E-01   -5.210E-01   -5.155E-01   -5.100E-01   -5.045E-01
    -4.990E-01   -4.935E-01   -4.881E-01   -4.826E-01   -4.771E-01   -4.716E-01   -4.661E-01   -4.606E-01   -4.552E-01   -4.497E-01
    -4.442E-01   -4.387E-01   -4.332E-01   -4.277E-01   -4.223E-01   -4.168E-01   -4.113E-01   -4.058E-01   -4.003E-01   -3.949E-01
    -3.894E-01   -3.839E-01   -3.784E-01   -3.729E-01   -3.674E-01   -3.620E-01   -3.565E-01   -3.510E-01   -3.455E-01   -3.400E-01
    -3.345E-01   -3.291E-01   -3.236E-01   -3.181E-01   -3.126E-01   -3.071E-01   -3.016E-01   -2.962E-01   -2.907E-01   -2.852E-01
    -2.797E-01   -2.742E-01   -2.687E-01   -2.633E-01   -2.578E-01   -2.523E-01   -2.468E-01   -2.413E-01   -2.358E-01   -2.304E-01
    -2.249E-01   -2.194E-01   -2.139E-01   -2.084E-01   -2.030E-01   -1.975E-01   -1.920E-01   -1.865E-01   -1.810E-01   -1.755E-01
    -1.701E-01   -1.646E-01   -1.591E-01   -1.536E-01   -1.481E-01   -1.426E-01   -1.372E-01   -1.317E-01   -1.262E-01   -1.207E-01
    -1.152E-01   -1.097E-01   -1.043E-01   -9.878E-02   -9.330E-02   -8.781E-02   -8.233E-02   -7.685E-02   -7.137E-02   -6.588E-02
    -6.040E-02   -5.492E-02   -4.944E-02   -4.395E-02   -3.847E-02   -3.299E-02   -2.750E-02   -2.202E-02   -1.654E-02   -1.106E-02
    -5.574E-03   -9.147E-05    5.391E-03    1.087E-02    1.636E-02    2.184E-02    2.732E-02    3.280E-02    3.829E-02    4.377E-02
     4.925E-02    5.474E-02    6.022E-02    6.570E-02    7.118E-02    7.667E-02    8.215E-02    8.763E-02    9.311E-02    9.860E-02
     1.041E-01    1.096E-01    1.150E-01    1.205E-01    1.260E-01    1.315E-01    1.370E-01    1.425E-01    1.479E-01    1.534E-01
     1.589E-01    1.644E-01    1.699E-01    1.754E-01    1.808E-01    1.863E-01    1.918E-01    1.973E-01    2.028E-01    2.082E-01
     2.137E-01    2.192E-01    2.247E-01    2.302E-01    2.357E-01    2.411E-01    2.466E-01    2.521E-01    2.576E-01    2.631E-01
     2.686E-01    2.740E-01    2.795E-01    2.850E-01    2.905E-01    2.960E-01    3.015E-01    3.069E-01    3.124E-01    3.179E-01
     3.234E-01    3.289E-01    3.343E-01    3.398E-01    3.453E-01    3.508E-01    3.563E-01    3.618E-01
 Ala      Conc. = 5.08E+01
