 LCModel (Version 6.3-1L) Copyright: S.W. Provencher.          Ref.: Magn. Reson. Med. 30:672-679 (1993).                
 Slice#3 Row#1 Col#11  PD_24_press_2_raw_act
 36 lines in following concentration table = NCONC+1
    Conc.  %SD /Cr+PCr  Metabolite                                         
    0.000 999%   0.000 Ala                                                 
   15.639  62%   0.174 Asp                                                 
    0.000 999%   0.000 Cr                                                  
   89.947  69%   1.000 PCr                                                 
    9.537  60%   0.106 GABA                                                
    9.485  61%   0.105 Glc                                                 
    0.000 999%   0.000 Gln                                                 
  511.855  70%   5.691 Glu                                                 
    0.000 999%   0.000 GPC                                                 
   27.370  85%   0.304 PCh                                                 
    0.000 999%   0.000 GSH                                                 
    0.000 999%   0.000 Ins                                                 
    0.000 999%   0.000 Lac                                                 
  145.453  48%   1.617 NAA                                                 
    0.000 999%   0.000 NAAG                                                
    3.135  61% 3.5E-02 Scyllo                                              
   15.685  61%   0.174 Tau                                                 
    8.365 144% 9.3E-02 -CrCH2                                              
   27.370  85%   0.304 GPC+PCh                                             
  145.453  48%   1.617 NAA+NAAG                                            
   89.947  69%   1.000 Cr+PCr                                              
  511.855  70%   5.691 Glu+Gln                                             
    0.000 999%   0.000 Lip13a                                              
    0.000 999%   0.000 Lip13b                                              
    0.000 999%   0.000 Lip09                                               
   56.310 139%   0.626 MM09                                                
 2.25E-04 999% 2.5E-06 Lip20                                               
   99.939 128%   1.111 MM20                                                
   12.876 217%   0.143 MM12                                                
    0.000 999%   0.000 MM14                                                
   39.288 137%   0.437 MM17                                                
    0.000 999%   0.000 Lip13a+Lip13b                                       
   12.876 217%   0.143 MM14+Lip13a+Lip13b+MM12                             
   56.310 139%   0.626 MM09+Lip09                                          
   99.939 128%   1.111 MM20+Lip20                                          
   6 lines in following misc. output table
  FWHM = 0.061 ppm    S/N =   0                                            
  Data shift =-0.031 ppm                                                   
  Ph:  67 deg      -2.5 deg/ppm                                            
  alphaB,S = 8.5E+01,   5.1E+01                                            
   14 spline knots.   Ns = 6(1)                                            
   2 inflections.     1 extrema                                            
  498 points on ppm-axis = NY
      4.000000     3.992357     3.984714     3.977070     3.969427     3.961784     3.954141     3.946497     3.938854     3.931211
      3.923568     3.915925     3.908281     3.900638     3.892995     3.885352     3.877708     3.870065     3.862422     3.854779
      3.847136     3.839492     3.831849     3.824206     3.816563     3.808919     3.801276     3.793633     3.785990     3.778347
      3.770703     3.763060     3.755417     3.747774     3.740130     3.732487     3.724844     3.717201     3.709558     3.701914
      3.694271     3.686628     3.678985     3.671341     3.663698     3.656055     3.648412     3.640769     3.633125     3.625482
      3.617839     3.610196     3.602552     3.594909     3.587266     3.579623     3.571980     3.564336     3.556693     3.549050
      3.541407     3.533763     3.526120     3.518477     3.510834     3.503191     3.495547     3.487904     3.480261     3.472618
      3.464974     3.457331     3.449688     3.442045     3.434402     3.426758     3.419115     3.411472     3.403829     3.396185
      3.388542     3.380899     3.373256     3.365613     3.357969     3.350326     3.342683     3.335040     3.327396     3.319753
      3.312110     3.304467     3.296824     3.289180     3.281537     3.273894     3.266251     3.258607     3.250964     3.243321
      3.235678     3.228034     3.220391     3.212748     3.205105     3.197462     3.189818     3.182175     3.174532     3.166889
      3.159245     3.151602     3.143959     3.136316     3.128673     3.121029     3.113386     3.105743     3.098100     3.090456
      3.082813     3.075170     3.067527     3.059884     3.052240     3.044597     3.036954     3.029311     3.021667     3.014024
      3.006381     2.998738     2.991095     2.983451     2.975808     2.968165     2.960522     2.952878     2.945235     2.937592
      2.929949     2.922306     2.914662     2.907019     2.899376     2.891733     2.884089     2.876446     2.868803     2.861160
      2.853517     2.845873     2.838230     2.830587     2.822944     2.815300     2.807657     2.800014     2.792371     2.784728
      2.777084     2.769441     2.761798     2.754155     2.746511     2.738868     2.731225     2.723582     2.715939     2.708295
      2.700652     2.693009     2.685366     2.677722     2.670079     2.662436     2.654793     2.647150     2.639506     2.631863
      2.624220     2.616577     2.608933     2.601290     2.593647     2.586004     2.578361     2.570717     2.563074     2.555431
      2.547788     2.540144     2.532501     2.524858     2.517215     2.509572     2.501928     2.494285     2.486642     2.478999
      2.471355     2.463712     2.456069     2.448426     2.440783     2.433139     2.425496     2.417853     2.410210     2.402566
      2.394923     2.387280     2.379637     2.371994     2.364350     2.356707     2.349064     2.341421     2.333777     2.326134
      2.318491     2.310848     2.303205     2.295561     2.287918     2.280275     2.272632     2.264988     2.257345     2.249702
      2.242059     2.234416     2.226772     2.219129     2.211486     2.203843     2.196199     2.188556     2.180913     2.173270
      2.165627     2.157983     2.150340     2.142697     2.135054     2.127410     2.119767     2.112124     2.104481     2.096838
      2.089194     2.081551     2.073908     2.066265     2.058621     2.050978     2.043335     2.035692     2.028049     2.020405
      2.012762     2.005119     1.997476     1.989833     1.982190     1.974546     1.966903     1.959260     1.951617     1.943974
      1.936331     1.928688     1.921045     1.913402     1.905759     1.898115     1.890472     1.882829     1.875186     1.867543
      1.859900     1.852257     1.844614     1.836971     1.829327     1.821684     1.814041     1.806398     1.798755     1.791112
      1.783469     1.775826     1.768183     1.760540     1.752896     1.745253     1.737610     1.729967     1.722324     1.714681
      1.707038     1.699395     1.691752     1.684108     1.676465     1.668822     1.661179     1.653536     1.645893     1.638250
      1.630607     1.622964     1.615321     1.607677     1.600034     1.592391     1.584748     1.577105     1.569462     1.561819
      1.554176     1.546533     1.538890     1.531246     1.523603     1.515960     1.508317     1.500674     1.493031     1.485388
      1.477745     1.470102     1.462458     1.454815     1.447172     1.439529     1.431886     1.424243     1.416600     1.408957
      1.401314     1.393671     1.386027     1.378384     1.370741     1.363098     1.355455     1.347812     1.340169     1.332526
      1.324883     1.317240     1.309596     1.301953     1.294310     1.286667     1.279024     1.271381     1.263738     1.256095
      1.248452     1.240808     1.233165     1.225522     1.217879     1.210236     1.202593     1.194950     1.187307     1.179664
      1.172021     1.164377     1.156734     1.149091     1.141448     1.133805     1.126162     1.118519     1.110876     1.103233
      1.095590     1.087946     1.080303     1.072660     1.065017     1.057374     1.049731     1.042088     1.034445     1.026802
      1.019158     1.011515     1.003872     0.996229     0.988586     0.980943     0.973300     0.965657     0.958014     0.950371
      0.942727     0.935084     0.927441     0.919798     0.912155     0.904512     0.896869     0.889226     0.881583     0.873940
      0.866296     0.858653     0.851010     0.843367     0.835724     0.828081     0.820438     0.812795     0.805152     0.797508
      0.789865     0.782222     0.774579     0.766936     0.759293     0.751650     0.744007     0.736364     0.728721     0.721077
      0.713434     0.705791     0.698148     0.690505     0.682862     0.675219     0.667576     0.659933     0.652290     0.644646
      0.637003     0.629360     0.621717     0.614074     0.606431     0.598788     0.591145     0.583502     0.575858     0.568215
      0.560572     0.552929     0.545286     0.537643     0.530000     0.522357     0.514714     0.507071     0.499427     0.491784
      0.484141     0.476498     0.468855     0.461212     0.453569     0.445925     0.438282     0.430639     0.422996     0.415353
      0.407710     0.400067     0.392424     0.384780     0.377137     0.369494     0.361851     0.354208     0.346565     0.338922
      0.331278     0.323635     0.315992     0.308349     0.300706     0.293063     0.285420     0.277777     0.270133     0.262490
      0.254847     0.247204     0.239561     0.231918     0.224275     0.216631     0.208988     0.201345
 NY phased data points follow
  -8.15205E+00  1.98415E+00  3.69937E+00  3.35906E+00 -3.41912E+00 -1.64433E-01 -1.01300E+01  3.99902E+00 -4.10789E-01  1.00545E+01
   6.16156E+00  6.69222E+00  5.11728E-01 -4.80130E+00 -1.24249E+01 -8.24545E+00 -8.01082E-03  2.91636E+00  1.46214E+00  2.42380E+00
  -3.16791E+00  1.67170E+00 -3.80218E+00  6.34318E+00 -2.63415E+00 -3.18563E+00 -5.88398E+00 -4.82078E+00 -2.15415E+00 -1.68561E+00
  -2.27802E+00  2.18991E+00  2.05898E+00  2.58968E-01 -1.76592E+00 -1.47507E+00 -8.52476E+00  8.13848E-01  4.27291E+00 -4.44321E+00
   2.74711E+00 -1.28806E+01  3.26154E-01 -3.01262E+00 -9.57968E+00 -6.36775E+00 -3.90383E+00  4.71950E-01  1.64126E+00 -2.15651E+00
  -2.48771E+00 -4.27806E+00 -6.80942E+00  5.20189E+00 -3.60364E+00 -7.87178E-01  1.45457E+00 -7.25780E+00  9.24900E+00 -1.06448E+01
  -8.62377E+00  2.75082E+00 -5.10654E+00 -4.73493E+00 -4.92472E+00 -2.15857E+00 -3.72188E+00 -1.24338E+00 -1.26692E+00 -1.06084E+01
  -5.46433E+00 -1.43931E+00 -3.15768E+00  1.37794E+00 -8.30110E+00  7.42508E+00 -2.01270E+00  2.53185E+00  4.53939E+00 -2.74308E+00
   1.82858E-02 -6.37419E+00 -5.53301E+00 -4.29896E+00 -1.38275E+00 -1.16964E+00  1.47954E+00  1.93228E+00 -9.37181E+00 -1.18204E+00
  -1.83970E+00 -2.74767E-01  4.29278E+00  1.86539E-02 -2.30778E+00  4.78047E-01  2.17277E+00 -3.51228E+00  2.21859E+00  5.33114E-01
   2.24404E+00 -2.74984E-01  1.95306E+00  3.32092E-01  5.69251E+00 -1.64858E+00 -1.39761E+00  3.98354E+00 -1.97871E+00 -7.29667E-01
  -7.07771E+00 -6.27220E+00  6.29453E+00 -8.45175E-01  5.27801E+00  1.17615E+00  1.09601E+00  6.48243E-01 -6.17021E+00  7.76262E-01
  -6.05698E+00  6.84568E-01 -3.04278E+00 -1.40043E+00  4.97996E+00 -1.62204E+00  3.97663E+00  1.35980E+00 -4.63538E-01 -6.40602E+00
   7.93558E+00  1.20437E+00  1.06066E+00 -1.08755E+01  1.39520E+00 -6.02062E+00  1.58210E+00 -2.66171E+00 -2.58365E+00  5.20669E+00
   2.85391E+00 -1.89660E-01  1.48581E+00 -8.35113E+00  8.80958E+00  1.21355E+00 -5.73775E+00  4.47311E-01 -1.85434E+00  3.03320E+00
  -2.15140E+00 -1.23436E+00 -6.77161E+00 -1.65681E+00 -5.77940E+00 -2.07389E+00  8.11562E+00  4.58406E+00 -4.08604E+00  4.74305E+00
  -3.17372E+00 -4.48420E-01  4.21305E+00 -1.05585E+00  9.02262E-01  9.89184E-01  3.47942E+00 -1.16242E+00  1.98529E+00  5.06891E+00
   1.07309E+00  3.79325E+00  1.33628E+00 -4.95675E+00 -7.47843E-01 -2.59874E+00 -4.94895E+00 -6.76260E+00  3.58105E+00 -2.88471E+00
  -2.22722E+00 -2.02758E+00  3.79848E+00  3.29920E+00 -1.88906E+00 -9.88159E+00 -5.34974E+00  4.83069E+00  7.24371E-01 -1.33076E-02
   2.42535E+00  1.35604E+00  3.98038E+00  2.44381E+00  4.77105E-01  3.84845E+00  3.58890E+00 -4.11067E-02 -4.38415E+00  2.07067E+00
  -4.67458E+00  1.31662E+00 -2.04236E+00 -5.17203E+00  3.87581E+00 -2.52473E+00  3.10709E-01 -6.45594E+00 -1.53410E+00 -3.19167E+00
   1.54418E+00  1.50311E+00  1.81739E+00 -3.50290E+00 -3.86865E+00  7.45553E+00  3.98302E+00 -7.33776E+00 -2.95960E+00  6.02945E-01
  -8.91722E-01 -6.21931E+00 -5.15967E+00 -7.55962E+00  8.43972E-01  3.98608E+00 -6.18459E+00 -3.20722E+00  2.74183E+00 -4.21697E+00
   2.75609E+00 -5.74219E+00  4.22410E+00 -1.02012E+00 -2.32354E+00  4.50451E+00 -5.26168E+00  2.07026E+00 -8.61781E-01 -6.93823E-01
  -2.06952E+00  5.10346E+00 -2.30476E+00 -3.62203E-01  2.46609E+00 -5.99735E+00 -2.10160E+00 -4.38958E+00  1.00450E+01  7.76201E+00
  -2.08210E+00  5.53848E+00  4.94689E+00 -4.45401E+00 -4.89740E+00 -5.54646E+00  8.31993E+00  1.87549E+00  1.00792E+01  1.15172E+00
   1.15207E+00  2.74233E-01  1.38090E+00  1.17856E+01 -9.91189E-01  6.64879E+00 -1.68487E+00 -1.95256E+00 -5.68589E+00  6.06167E+00
   7.85177E+00  5.15011E+00  7.13241E+00  3.45737E+00 -6.90192E-01  3.75834E+00  2.21775E-01  5.59623E+00 -3.21096E+00  4.09921E+00
   2.29149E-01 -6.61368E-01  6.86996E+00  3.17620E+00 -1.08914E+00  6.31738E+00  4.35299E+00  4.92375E-01 -4.37295E+00 -1.23233E+00
   5.81482E+00 -1.57532E+00  4.88172E+00  7.96675E+00  4.87022E+00  1.44333E+00 -1.75734E+00  3.94007E+00 -2.83837E+00 -1.52422E+00
   1.49544E+00  9.30301E-01  5.41963E-01 -1.37405E+00 -2.76845E+00 -4.76035E+00  1.80384E+00 -6.56546E+00  6.17945E+00  5.05255E+00
   3.59986E+00  3.21258E+00  6.38501E+00  4.23660E+00  8.12838E-01  5.00975E+00  5.99492E+00  1.67279E+00  2.21533E+00 -3.07119E+00
   2.19236E+00  4.26913E+00  5.86753E-01 -5.03191E+00 -1.72236E+00 -8.52474E+00 -4.25611E+00  2.42080E-01 -1.51940E+00  1.23524E-01
  -2.00570E+00 -7.69110E+00 -5.15808E+00 -3.34262E+00 -2.75370E+00 -1.00516E+01 -7.45102E+00 -4.17323E+00 -9.60311E+00 -8.37258E+00
  -1.14128E+01 -2.70389E+00 -5.99709E+00 -7.31975E+00 -7.84285E+00 -1.21776E+01 -5.25291E+00 -4.61440E+00 -6.63585E-01 -2.61423E+00
  -7.30985E+00 -1.36883E+00  2.25295E+00 -9.65557E-01 -7.80326E+00 -2.20563E+00 -9.16405E+00 -3.26438E+00 -9.11065E+00 -4.33127E+00
  -1.09775E+01 -1.93195E+01 -3.98988E+00 -1.31424E+01 -6.45598E+00  1.63227E+00 -2.08545E+00  6.64311E-02 -6.98568E+00 -3.48375E+00
  -6.60593E+00 -1.00855E+00  3.25008E+00 -2.57059E+00  7.45893E+00  9.89422E+00 -5.39340E+00 -6.26102E+00 -4.21153E-01 -4.49256E+00
   4.87863E-01 -4.34489E-01 -6.89962E-01 -4.64494E+00  1.20738E+00 -8.19622E+00 -8.13402E+00  1.52383E-01 -4.44933E+00 -2.22527E+00
   5.11261E+00  3.36300E+00  2.33540E+00  2.97524E+00  5.90475E+00  7.53976E+00 -7.10644E+00 -2.51377E+00 -2.00284E+00  9.70951E+00
  -9.83937E+00  3.07623E+00  1.18569E+01 -2.91758E-01 -3.15062E+00  2.17379E+00  2.95441E+00 -9.19069E-02  1.31055E+01  5.26639E-02
   4.10678E+00 -2.52528E+00 -3.91398E+00  2.54404E+00 -3.27403E+00 -8.75531E+00 -8.75924E+00 -2.33129E+00 -2.56380E+00 -5.34725E+00
   1.40985E-01 -6.08279E+00 -8.33101E+00 -1.01631E+00  5.70887E-01 -7.41415E+00 -7.38637E+00 -9.60203E+00 -1.06654E+01 -6.12981E+00
  -6.74068E+00 -4.33569E+00 -1.20209E+01 -2.43048E+00  5.28912E+00 -1.35845E+00  5.64040E+00  2.40519E+00  8.49103E+00  3.99780E+00
   5.65520E+00  1.10373E+00 -4.66890E-02  7.63473E+00  2.76804E+00  1.83035E+00  1.11303E+01  1.46675E+00  7.95963E+00 -1.52861E+00
  -7.59486E-01 -1.80287E+00 -1.10300E+01 -6.41838E+00 -1.25119E-01  5.08451E+00  3.01660E+00 -2.26589E+00  3.14258E+00  7.92319E+00
  -2.47173E+00 -3.97889E+00  6.99583E-01  4.84963E-01  4.64491E+00  9.26992E+00 -6.48681E+00 -1.95408E+00  8.89612E-01  7.31393E-01
   5.66722E+00 -4.16376E+00  1.86322E-01  1.36250E+00 -9.73585E+00  6.94808E+00 -6.69623E-01  6.61071E+00 -4.35276E+00 -2.91949E-01
   4.09100E-01 -3.19052E+00 -6.05273E+00 -5.64602E-01  1.06382E+00 -5.81559E+00  3.51757E-01  4.87261E+00  3.80117E+00  1.82137E+00
   1.83860E+00 -1.58457E+00  2.82571E+00  5.43788E-01  6.49866E+00  2.41339E+00 -6.87562E+00  4.34415E+00
 NY points of the fit to the data follow
  -1.21095E+00 -1.18435E+00 -1.12220E+00 -9.44526E-01 -6.45655E-01 -2.99274E-01  2.22342E-02  2.68400E-01  4.11155E-01  4.41990E-01
   3.70717E-01  2.16530E-01 -6.01953E-03 -2.80613E-01 -5.71605E-01 -8.22193E-01 -9.77789E-01 -1.02042E+00 -9.96030E-01 -9.36533E-01
  -8.37496E-01 -7.21820E-01 -6.68043E-01 -7.13465E-01 -8.48120E-01 -1.03344E+00 -1.19559E+00 -1.25300E+00 -1.15915E+00 -9.47185E-01
  -7.04324E-01 -5.04301E-01 -3.99005E-01 -4.06469E-01 -4.85856E-01 -6.13845E-01 -7.84506E-01 -9.68239E-01 -1.12979E+00 -1.22879E+00
  -1.23129E+00 -1.13753E+00 -9.87965E-01 -8.48757E-01 -7.71433E-01 -7.73429E-01 -8.39076E-01 -9.23019E-01 -9.83506E-01 -1.01940E+00
  -1.04102E+00 -1.05564E+00 -1.06680E+00 -1.07671E+00 -1.08561E+00 -1.09298E+00 -1.09982E+00 -1.10688E+00 -1.11388E+00 -1.12016E+00
  -1.12327E+00 -1.12192E+00 -1.11853E+00 -1.11416E+00 -1.11094E+00 -1.11106E+00 -1.11440E+00 -1.11943E+00 -1.12483E+00 -1.12606E+00
  -1.11838E+00 -1.10379E+00 -1.08729E+00 -1.07340E+00 -1.06551E+00 -1.06515E+00 -1.07060E+00 -1.07842E+00 -1.08722E+00 -1.09437E+00
  -1.09003E+00 -1.06878E+00 -1.03580E+00 -9.97807E-01 -9.62690E-01 -9.37896E-01 -9.26257E-01 -9.29038E-01 -9.46828E-01 -9.77729E-01
  -1.01769E+00 -1.06065E+00 -1.09579E+00 -1.11061E+00 -1.10153E+00 -1.07220E+00 -1.00946E+00 -8.19867E-01 -4.23698E-01  9.50208E-02
   6.13976E-01  1.03850E+00  1.31408E+00  1.41826E+00  1.35594E+00  1.15347E+00  8.38942E-01  4.33348E-01 -2.43670E-02 -4.59466E-01
  -7.86526E-01 -9.55691E-01 -1.00765E+00 -1.02539E+00 -1.03401E+00 -1.03781E+00 -1.03684E+00 -1.03155E+00 -1.01965E+00 -9.89837E-01
  -8.81071E-01 -5.56334E-01 -3.74860E-02  5.44349E-01  1.06996E+00  1.46121E+00  1.67619E+00  1.70260E+00  1.55559E+00  1.26469E+00
   8.54363E-01  3.57196E-01 -1.57996E-01 -5.94040E-01 -8.69572E-01 -9.77845E-01 -1.01386E+00 -1.03263E+00 -1.04390E+00 -1.05007E+00
  -1.05213E+00 -1.05156E+00 -1.05067E+00 -1.05081E+00 -1.05242E+00 -1.05575E+00 -1.06011E+00 -1.06450E+00 -1.06896E+00 -1.07407E+00
  -1.08006E+00 -1.08573E+00 -1.08948E+00 -1.09105E+00 -1.09341E+00 -1.10505E+00 -1.12866E+00 -1.15820E+00 -1.18498E+00 -1.19890E+00
  -1.19963E+00 -1.19280E+00 -1.18308E+00 -1.17361E+00 -1.16554E+00 -1.15929E+00 -1.15636E+00 -1.16008E+00 -1.17454E+00 -1.20111E+00
  -1.23764E+00 -1.27812E+00 -1.30891E+00 -1.32303E+00 -1.32485E+00 -1.32387E+00 -1.32393E+00 -1.32189E+00 -1.31429E+00 -1.29941E+00
  -1.28023E+00 -1.26545E+00 -1.25666E+00 -1.24654E+00 -1.22881E+00 -1.19759E+00 -1.15180E+00 -1.10040E+00 -1.05150E+00 -1.00807E+00
  -9.64643E-01 -9.13642E-01 -8.60237E-01 -8.15430E-01 -7.87133E-01 -7.74940E-01 -7.70218E-01 -7.62090E-01 -7.38291E-01 -6.92166E-01
  -6.23930E-01 -5.59882E-01 -5.19097E-01 -5.13081E-01 -5.74754E-01 -7.11412E-01 -9.07084E-01 -1.12522E+00 -1.29361E+00 -1.31904E+00
  -1.07277E+00 -5.92950E-01 -2.97765E-02  4.68943E-01  7.86550E-01  8.17186E-01  4.58856E-01 -2.93217E-01 -1.27298E+00 -2.24808E+00
  -3.05495E+00 -3.55736E+00 -3.65901E+00 -3.35115E+00 -2.72513E+00 -1.97061E+00 -1.22323E+00 -5.70421E-01 -1.00071E-01  1.29394E-01
   1.34262E-01  2.06071E-02 -9.97815E-02 -1.84892E-01 -2.53537E-01 -3.21231E-01 -3.98903E-01 -5.08469E-01 -6.32036E-01 -7.31127E-01
  -7.77399E-01 -7.66291E-01 -6.94987E-01 -5.74797E-01 -4.48021E-01 -3.62674E-01 -3.36495E-01 -3.51740E-01 -3.92696E-01 -4.42715E-01
  -4.84851E-01 -5.04999E-01 -5.00429E-01 -4.37941E-01 -1.32128E-01  5.83854E-01  1.56290E+00  2.56414E+00  3.40596E+00  3.97837E+00
   4.23428E+00  4.19095E+00  3.88952E+00  3.36301E+00  2.62962E+00  1.74873E+00  8.53409E-01  1.29733E-01 -2.92148E-01 -4.61782E-01
  -5.24249E-01 -5.29073E-01 -4.98180E-01 -4.55433E-01 -4.14240E-01 -3.79989E-01 -3.60417E-01 -3.60489E-01 -3.81922E-01 -4.21081E-01
  -4.68071E-01 -5.09567E-01 -5.38997E-01 -5.57351E-01 -5.66310E-01 -5.67735E-01 -5.64785E-01 -5.60766E-01 -5.58263E-01 -5.57487E-01
  -5.56849E-01 -5.55589E-01 -5.53178E-01 -5.49157E-01 -5.43510E-01 -5.36727E-01 -5.29400E-01 -5.21596E-01 -5.13388E-01 -5.05303E-01
  -4.97867E-01 -4.91451E-01 -4.86470E-01 -4.83203E-01 -4.81832E-01 -4.82447E-01 -4.85086E-01 -4.89744E-01 -4.96331E-01 -5.04624E-01
  -5.14280E-01 -5.24917E-01 -5.36284E-01 -5.48190E-01 -5.60409E-01 -5.72705E-01 -5.84850E-01 -5.96636E-01 -6.07901E-01 -6.18518E-01
  -6.28392E-01 -6.37454E-01 -6.45664E-01 -6.53011E-01 -6.59514E-01 -6.65210E-01 -6.70146E-01 -6.74366E-01 -6.77924E-01 -6.80878E-01
  -6.83295E-01 -6.85231E-01 -6.86734E-01 -6.87840E-01 -6.88588E-01 -6.89011E-01 -6.89144E-01 -6.89007E-01 -6.88616E-01 -6.87976E-01
  -6.87098E-01 -6.85992E-01 -6.84669E-01 -6.83125E-01 -6.81360E-01 -6.79371E-01 -6.77164E-01 -6.74745E-01 -6.72123E-01 -6.69302E-01
  -6.66291E-01 -6.63104E-01 -6.59768E-01 -6.56312E-01 -6.52765E-01 -6.49158E-01 -6.45526E-01 -6.41911E-01 -6.38360E-01 -6.34915E-01
  -6.31615E-01 -6.28491E-01 -6.25573E-01 -6.22888E-01 -6.20455E-01 -6.18276E-01 -6.16344E-01 -6.14634E-01 -6.13120E-01 -6.11764E-01
  -6.10514E-01 -6.09305E-01 -6.08060E-01 -6.06693E-01 -6.05117E-01 -6.03234E-01 -6.00941E-01 -5.98118E-01 -5.94646E-01 -5.90399E-01
  -5.85253E-01 -5.79076E-01 -5.71733E-01 -5.63088E-01 -5.53016E-01 -5.41403E-01 -5.28160E-01 -5.13220E-01 -4.96551E-01 -4.78166E-01
  -4.58142E-01 -4.36621E-01 -4.13819E-01 -3.90024E-01 -3.65600E-01 -3.40983E-01 -3.16676E-01 -2.93228E-01 -2.71216E-01 -2.51214E-01
  -2.33772E-01 -2.19392E-01 -2.08503E-01 -2.01430E-01 -1.98379E-01 -1.99419E-01 -2.04492E-01 -2.13404E-01 -2.25851E-01 -2.41418E-01
  -2.59614E-01 -2.79890E-01 -3.01679E-01 -3.24411E-01 -3.47551E-01 -3.70600E-01 -3.93122E-01 -4.14754E-01 -4.35210E-01 -4.54285E-01
  -4.71845E-01 -4.87817E-01 -5.02188E-01 -5.14986E-01 -5.26286E-01 -5.36182E-01 -5.44786E-01 -5.52214E-01 -5.58585E-01 -5.64018E-01
  -5.68629E-01 -5.72523E-01 -5.75794E-01 -5.78522E-01 -5.80782E-01 -5.82639E-01 -5.84153E-01 -5.85369E-01 -5.86327E-01 -5.87058E-01
  -5.87593E-01 -5.87956E-01 -5.88172E-01 -5.88257E-01 -5.88226E-01 -5.88088E-01 -5.87858E-01 -5.87547E-01 -5.87166E-01 -5.86719E-01
  -5.86213E-01 -5.85648E-01 -5.85034E-01 -5.84376E-01 -5.83678E-01 -5.82940E-01 -5.82167E-01 -5.81358E-01 -5.80523E-01 -5.79661E-01
  -5.78776E-01 -5.77866E-01 -5.76932E-01 -5.75977E-01 -5.75006E-01 -5.74019E-01 -5.73016E-01 -5.71995E-01 -5.70959E-01 -5.69908E-01
  -5.68847E-01 -5.67774E-01 -5.66688E-01 -5.65586E-01 -5.64473E-01 -5.63349E-01 -5.62218E-01 -5.61078E-01 -5.59927E-01 -5.58765E-01
  -5.57595E-01 -5.56420E-01 -5.55239E-01 -5.54049E-01 -5.52850E-01 -5.51642E-01 -5.50428E-01 -5.49209E-01 -5.47985E-01 -5.46751E-01
  -5.45509E-01 -5.44258E-01 -5.43003E-01 -5.41742E-01 -5.40474E-01 -5.39194E-01 -5.37904E-01 -5.36604E-01
 NY background values follow
    -1.284E+00   -1.282E+00   -1.281E+00   -1.279E+00   -1.278E+00   -1.276E+00   -1.275E+00   -1.273E+00   -1.272E+00   -1.270E+00
    -1.269E+00   -1.267E+00   -1.266E+00   -1.264E+00   -1.263E+00   -1.262E+00   -1.260E+00   -1.259E+00   -1.257E+00   -1.256E+00
    -1.254E+00   -1.253E+00   -1.251E+00   -1.250E+00   -1.248E+00   -1.247E+00   -1.245E+00   -1.244E+00   -1.242E+00   -1.241E+00
    -1.239E+00   -1.238E+00   -1.237E+00   -1.235E+00   -1.234E+00   -1.232E+00   -1.231E+00   -1.229E+00   -1.228E+00   -1.226E+00
    -1.225E+00   -1.223E+00   -1.222E+00   -1.220E+00   -1.219E+00   -1.217E+00   -1.216E+00   -1.215E+00   -1.213E+00   -1.212E+00
    -1.210E+00   -1.209E+00   -1.207E+00   -1.206E+00   -1.204E+00   -1.203E+00   -1.201E+00   -1.200E+00   -1.198E+00   -1.197E+00
    -1.195E+00   -1.194E+00   -1.193E+00   -1.191E+00   -1.190E+00   -1.188E+00   -1.187E+00   -1.185E+00   -1.184E+00   -1.182E+00
    -1.181E+00   -1.179E+00   -1.178E+00   -1.176E+00   -1.175E+00   -1.173E+00   -1.172E+00   -1.171E+00   -1.169E+00   -1.168E+00
    -1.166E+00   -1.165E+00   -1.163E+00   -1.162E+00   -1.160E+00   -1.159E+00   -1.157E+00   -1.156E+00   -1.154E+00   -1.153E+00
    -1.151E+00   -1.150E+00   -1.149E+00   -1.147E+00   -1.146E+00   -1.144E+00   -1.143E+00   -1.141E+00   -1.140E+00   -1.138E+00
    -1.137E+00   -1.135E+00   -1.134E+00   -1.132E+00   -1.131E+00   -1.129E+00   -1.128E+00   -1.127E+00   -1.125E+00   -1.124E+00
    -1.122E+00   -1.121E+00   -1.119E+00   -1.118E+00   -1.116E+00   -1.115E+00   -1.113E+00   -1.112E+00   -1.110E+00   -1.109E+00
    -1.107E+00   -1.106E+00   -1.105E+00   -1.103E+00   -1.102E+00   -1.100E+00   -1.099E+00   -1.097E+00   -1.096E+00   -1.094E+00
    -1.093E+00   -1.091E+00   -1.090E+00   -1.088E+00   -1.087E+00   -1.085E+00   -1.084E+00   -1.083E+00   -1.081E+00   -1.080E+00
    -1.078E+00   -1.077E+00   -1.075E+00   -1.074E+00   -1.072E+00   -1.071E+00   -1.069E+00   -1.068E+00   -1.066E+00   -1.065E+00
    -1.063E+00   -1.062E+00   -1.061E+00   -1.059E+00   -1.058E+00   -1.056E+00   -1.055E+00   -1.053E+00   -1.052E+00   -1.050E+00
    -1.049E+00   -1.047E+00   -1.046E+00   -1.044E+00   -1.043E+00   -1.041E+00   -1.040E+00   -1.039E+00   -1.037E+00   -1.036E+00
    -1.034E+00   -1.033E+00   -1.031E+00   -1.030E+00   -1.028E+00   -1.027E+00   -1.025E+00   -1.024E+00   -1.022E+00   -1.021E+00
    -1.019E+00   -1.018E+00   -1.017E+00   -1.015E+00   -1.014E+00   -1.012E+00   -1.011E+00   -1.009E+00   -1.008E+00   -1.006E+00
    -1.005E+00   -1.003E+00   -1.002E+00   -1.000E+00   -9.990E-01   -9.975E-01   -9.960E-01   -9.946E-01   -9.931E-01   -9.916E-01
    -9.902E-01   -9.887E-01   -9.872E-01   -9.858E-01   -9.843E-01   -9.828E-01   -9.814E-01   -9.799E-01   -9.784E-01   -9.770E-01
    -9.755E-01   -9.740E-01   -9.726E-01   -9.711E-01   -9.696E-01   -9.682E-01   -9.667E-01   -9.652E-01   -9.638E-01   -9.623E-01
    -9.608E-01   -9.594E-01   -9.579E-01   -9.564E-01   -9.550E-01   -9.535E-01   -9.520E-01   -9.506E-01   -9.491E-01   -9.476E-01
    -9.462E-01   -9.447E-01   -9.432E-01   -9.418E-01   -9.403E-01   -9.388E-01   -9.374E-01   -9.359E-01   -9.344E-01   -9.330E-01
    -9.315E-01   -9.300E-01   -9.286E-01   -9.271E-01   -9.256E-01   -9.242E-01   -9.227E-01   -9.212E-01   -9.198E-01   -9.183E-01
    -9.168E-01   -9.154E-01   -9.139E-01   -9.124E-01   -9.110E-01   -9.095E-01   -9.080E-01   -9.066E-01   -9.051E-01   -9.036E-01
    -9.022E-01   -9.007E-01   -8.992E-01   -8.978E-01   -8.963E-01   -8.948E-01   -8.934E-01   -8.919E-01   -8.905E-01   -8.890E-01
    -8.875E-01   -8.861E-01   -8.846E-01   -8.831E-01   -8.817E-01   -8.802E-01   -8.787E-01   -8.773E-01   -8.758E-01   -8.743E-01
    -8.729E-01   -8.714E-01   -8.699E-01   -8.685E-01   -8.670E-01   -8.655E-01   -8.641E-01   -8.626E-01   -8.611E-01   -8.597E-01
    -8.582E-01   -8.567E-01   -8.553E-01   -8.538E-01   -8.523E-01   -8.509E-01   -8.494E-01   -8.479E-01   -8.465E-01   -8.450E-01
    -8.435E-01   -8.421E-01   -8.406E-01   -8.391E-01   -8.377E-01   -8.362E-01   -8.347E-01   -8.333E-01   -8.318E-01   -8.303E-01
    -8.289E-01   -8.274E-01   -8.259E-01   -8.245E-01   -8.230E-01   -8.215E-01   -8.201E-01   -8.186E-01   -8.171E-01   -8.157E-01
    -8.142E-01   -8.127E-01   -8.113E-01   -8.098E-01   -8.084E-01   -8.069E-01   -8.054E-01   -8.040E-01   -8.025E-01   -8.010E-01
    -7.996E-01   -7.981E-01   -7.966E-01   -7.952E-01   -7.937E-01   -7.922E-01   -7.908E-01   -7.893E-01   -7.878E-01   -7.864E-01
    -7.849E-01   -7.834E-01   -7.820E-01   -7.805E-01   -7.790E-01   -7.776E-01   -7.761E-01   -7.746E-01   -7.732E-01   -7.717E-01
    -7.702E-01   -7.688E-01   -7.673E-01   -7.658E-01   -7.644E-01   -7.629E-01   -7.614E-01   -7.600E-01   -7.585E-01   -7.570E-01
    -7.556E-01   -7.541E-01   -7.526E-01   -7.512E-01   -7.497E-01   -7.482E-01   -7.468E-01   -7.453E-01   -7.438E-01   -7.424E-01
    -7.409E-01   -7.394E-01   -7.380E-01   -7.365E-01   -7.350E-01   -7.336E-01   -7.321E-01   -7.306E-01   -7.292E-01   -7.277E-01
    -7.262E-01   -7.248E-01   -7.233E-01   -7.218E-01   -7.204E-01   -7.189E-01   -7.174E-01   -7.160E-01   -7.145E-01   -7.131E-01
    -7.116E-01   -7.101E-01   -7.087E-01   -7.072E-01   -7.057E-01   -7.043E-01   -7.028E-01   -7.013E-01   -6.999E-01   -6.984E-01
    -6.969E-01   -6.955E-01   -6.940E-01   -6.925E-01   -6.911E-01   -6.896E-01   -6.881E-01   -6.867E-01   -6.852E-01   -6.837E-01
    -6.823E-01   -6.808E-01   -6.793E-01   -6.779E-01   -6.764E-01   -6.749E-01   -6.735E-01   -6.720E-01   -6.705E-01   -6.691E-01
    -6.676E-01   -6.661E-01   -6.647E-01   -6.632E-01   -6.617E-01   -6.603E-01   -6.588E-01   -6.573E-01   -6.559E-01   -6.544E-01
    -6.529E-01   -6.515E-01   -6.500E-01   -6.485E-01   -6.471E-01   -6.456E-01   -6.441E-01   -6.427E-01   -6.412E-01   -6.397E-01
    -6.383E-01   -6.368E-01   -6.353E-01   -6.339E-01   -6.324E-01   -6.309E-01   -6.295E-01   -6.280E-01   -6.265E-01   -6.251E-01
    -6.236E-01   -6.221E-01   -6.207E-01   -6.192E-01   -6.177E-01   -6.163E-01   -6.148E-01   -6.133E-01   -6.119E-01   -6.104E-01
    -6.089E-01   -6.075E-01   -6.060E-01   -6.045E-01   -6.031E-01   -6.016E-01   -6.001E-01   -5.987E-01   -5.972E-01   -5.957E-01
    -5.943E-01   -5.928E-01   -5.913E-01   -5.899E-01   -5.884E-01   -5.869E-01   -5.855E-01   -5.840E-01   -5.825E-01   -5.811E-01
    -5.796E-01   -5.781E-01   -5.767E-01   -5.752E-01   -5.737E-01   -5.723E-01   -5.708E-01   -5.693E-01   -5.679E-01   -5.664E-01
    -5.649E-01   -5.635E-01   -5.620E-01   -5.605E-01   -5.591E-01   -5.576E-01   -5.561E-01   -5.547E-01
 Asp      Conc. = 1.56E+01
