 LCModel (Version 6.3-1L) Copyright: S.W. Provencher.          Ref.: Magn. Reson. Med. 30:672-679 (1993).                
 Slice#1 Row#11 Col#3  PD_24_press_2_raw_act
 36 lines in following concentration table = NCONC+1
    Conc.  %SD /Cr+PCr  Metabolite                                         
    0.000 999%   0.000 Ala                                                 
 6.09E-02 999%   0.000 Asp                                                 
    0.000 999%   0.000 Cr                                                  
    0.000 999%   0.000 PCr                                                 
 3.34E-02 999%   0.000 GABA                                                
 3.42E-02 999%   0.000 Glc                                                 
    0.000 999%   0.000 Gln                                                 
    0.000 999%   0.000 Glu                                                 
    0.000 999%   0.000 GPC                                                 
    0.376 999%   0.000 PCh                                                 
   50.844  78%   0.000 GSH                                                 
  293.153  48%   0.000 Ins                                                 
  202.700  34%   0.000 Lac                                                 
    0.000 999%   0.000 NAA                                                 
    0.000 999%   0.000 NAAG                                                
 1.32E-02 999%   0.000 Scyllo                                              
 6.05E-02 999%   0.000 Tau                                                 
 4.07E-02 999%   0.000 -CrCH2                                              
    0.376 999%   0.000 GPC+PCh                                             
    0.000 999%   0.000 NAA+NAAG                                            
    0.000 999%   0.000 Cr+PCr                                              
    0.000 999%   0.000 Glu+Gln                                             
 8.15E+03   9%   0.000 Lip13a                                              
    0.000 999%   0.000 Lip13b                                              
 2.15E+03  10%   0.000 Lip09                                               
    0.000 999%   0.000 MM09                                                
 1.22E+03  10%   0.000 Lip20                                               
 5.14E-02 999%   0.000 MM20                                                
 4.55E-03 999%   0.000 MM12                                                
    0.232 999%   0.000 MM14                                                
    0.000 999%   0.000 MM17                                                
 8.15E+03   9%   0.000 Lip13a+Lip13b                                       
 8.15E+03   9%   0.000 MM14+Lip13a+Lip13b+MM12                             
 2.15E+03  10%   0.000 MM09+Lip09                                          
 1.22E+03  10%   0.000 MM20+Lip20                                          
   6 lines in following misc. output table
  FWHM = 0.061 ppm    S/N =   6                                            
  Data shift = 0.031 ppm                                                   
  Ph: -91 deg       7.3 deg/ppm                                            
  alphaB,S = 5.0E-01,   4.8E+01                                            
   14 spline knots.   Ns = 5(1)                                            
  (10) 2 infls.   ( 9) 1 extrs.                                            
  498 points on ppm-axis = NY
      4.000000     3.992357     3.984714     3.977070     3.969427     3.961784     3.954141     3.946497     3.938854     3.931211
      3.923568     3.915925     3.908281     3.900638     3.892995     3.885352     3.877708     3.870065     3.862422     3.854779
      3.847136     3.839492     3.831849     3.824206     3.816563     3.808919     3.801276     3.793633     3.785990     3.778347
      3.770703     3.763060     3.755417     3.747774     3.740130     3.732487     3.724844     3.717201     3.709558     3.701914
      3.694271     3.686628     3.678985     3.671341     3.663698     3.656055     3.648412     3.640769     3.633125     3.625482
      3.617839     3.610196     3.602552     3.594909     3.587266     3.579623     3.571980     3.564336     3.556693     3.549050
      3.541407     3.533763     3.526120     3.518477     3.510834     3.503191     3.495547     3.487904     3.480261     3.472618
      3.464974     3.457331     3.449688     3.442045     3.434402     3.426758     3.419115     3.411472     3.403829     3.396185
      3.388542     3.380899     3.373256     3.365613     3.357969     3.350326     3.342683     3.335040     3.327396     3.319753
      3.312110     3.304467     3.296824     3.289180     3.281537     3.273894     3.266251     3.258607     3.250964     3.243321
      3.235678     3.228034     3.220391     3.212748     3.205105     3.197462     3.189818     3.182175     3.174532     3.166889
      3.159245     3.151602     3.143959     3.136316     3.128673     3.121029     3.113386     3.105743     3.098100     3.090456
      3.082813     3.075170     3.067527     3.059884     3.052240     3.044597     3.036954     3.029311     3.021667     3.014024
      3.006381     2.998738     2.991095     2.983451     2.975808     2.968165     2.960522     2.952878     2.945235     2.937592
      2.929949     2.922306     2.914662     2.907019     2.899376     2.891733     2.884089     2.876446     2.868803     2.861160
      2.853517     2.845873     2.838230     2.830587     2.822944     2.815300     2.807657     2.800014     2.792371     2.784728
      2.777084     2.769441     2.761798     2.754155     2.746511     2.738868     2.731225     2.723582     2.715939     2.708295
      2.700652     2.693009     2.685366     2.677722     2.670079     2.662436     2.654793     2.647150     2.639506     2.631863
      2.624220     2.616577     2.608933     2.601290     2.593647     2.586004     2.578361     2.570717     2.563074     2.555431
      2.547788     2.540144     2.532501     2.524858     2.517215     2.509572     2.501928     2.494285     2.486642     2.478999
      2.471355     2.463712     2.456069     2.448426     2.440783     2.433139     2.425496     2.417853     2.410210     2.402566
      2.394923     2.387280     2.379637     2.371994     2.364350     2.356707     2.349064     2.341421     2.333777     2.326134
      2.318491     2.310848     2.303205     2.295561     2.287918     2.280275     2.272632     2.264988     2.257345     2.249702
      2.242059     2.234416     2.226772     2.219129     2.211486     2.203843     2.196199     2.188556     2.180913     2.173270
      2.165627     2.157983     2.150340     2.142697     2.135054     2.127410     2.119767     2.112124     2.104481     2.096838
      2.089194     2.081551     2.073908     2.066265     2.058621     2.050978     2.043335     2.035692     2.028049     2.020405
      2.012762     2.005119     1.997476     1.989833     1.982190     1.974546     1.966903     1.959260     1.951617     1.943974
      1.936331     1.928688     1.921045     1.913402     1.905759     1.898115     1.890472     1.882829     1.875186     1.867543
      1.859900     1.852257     1.844614     1.836971     1.829327     1.821684     1.814041     1.806398     1.798755     1.791112
      1.783469     1.775826     1.768183     1.760540     1.752896     1.745253     1.737610     1.729967     1.722324     1.714681
      1.707038     1.699395     1.691752     1.684108     1.676465     1.668822     1.661179     1.653536     1.645893     1.638250
      1.630607     1.622964     1.615321     1.607677     1.600034     1.592391     1.584748     1.577105     1.569462     1.561819
      1.554176     1.546533     1.538890     1.531246     1.523603     1.515960     1.508317     1.500674     1.493031     1.485388
      1.477745     1.470102     1.462458     1.454815     1.447172     1.439529     1.431886     1.424243     1.416600     1.408957
      1.401314     1.393671     1.386027     1.378384     1.370741     1.363098     1.355455     1.347812     1.340169     1.332526
      1.324883     1.317240     1.309596     1.301953     1.294310     1.286667     1.279024     1.271381     1.263738     1.256095
      1.248452     1.240808     1.233165     1.225522     1.217879     1.210236     1.202593     1.194950     1.187307     1.179664
      1.172021     1.164377     1.156734     1.149091     1.141448     1.133805     1.126162     1.118519     1.110876     1.103233
      1.095590     1.087946     1.080303     1.072660     1.065017     1.057374     1.049731     1.042088     1.034445     1.026802
      1.019158     1.011515     1.003872     0.996229     0.988586     0.980943     0.973300     0.965657     0.958014     0.950371
      0.942727     0.935084     0.927441     0.919798     0.912155     0.904512     0.896869     0.889226     0.881583     0.873940
      0.866296     0.858653     0.851010     0.843367     0.835724     0.828081     0.820438     0.812795     0.805152     0.797508
      0.789865     0.782222     0.774579     0.766936     0.759293     0.751650     0.744007     0.736364     0.728721     0.721077
      0.713434     0.705791     0.698148     0.690505     0.682862     0.675219     0.667576     0.659933     0.652290     0.644646
      0.637003     0.629360     0.621717     0.614074     0.606431     0.598788     0.591145     0.583502     0.575858     0.568215
      0.560572     0.552929     0.545286     0.537643     0.530000     0.522357     0.514714     0.507071     0.499427     0.491784
      0.484141     0.476498     0.468855     0.461212     0.453569     0.445925     0.438282     0.430639     0.422996     0.415353
      0.407710     0.400067     0.392424     0.384780     0.377137     0.369494     0.361851     0.354208     0.346565     0.338922
      0.331278     0.323635     0.315992     0.308349     0.300706     0.293063     0.285420     0.277777     0.270133     0.262490
      0.254847     0.247204     0.239561     0.231918     0.224275     0.216631     0.208988     0.201345
 NY phased data points follow
  -7.74854E+01 -7.38422E+01 -7.76075E+01 -7.45976E+01 -7.30696E+01 -7.28804E+01 -7.35289E+01 -7.24679E+01 -7.46456E+01 -7.24105E+01
  -7.23891E+01 -7.06628E+01 -7.01149E+01 -6.91639E+01 -6.81944E+01 -6.43920E+01 -6.66982E+01 -6.37585E+01 -6.53673E+01 -6.53714E+01
  -6.46451E+01 -6.10208E+01 -6.28426E+01 -5.86252E+01 -6.24777E+01 -5.97610E+01 -5.93625E+01 -5.86914E+01 -5.94721E+01 -5.70868E+01
  -5.71200E+01 -5.74296E+01 -5.59255E+01 -5.62917E+01 -5.55070E+01 -5.51004E+01 -5.46270E+01 -5.59239E+01 -5.22830E+01 -5.11232E+01
  -5.24285E+01 -4.99540E+01 -5.33236E+01 -5.26480E+01 -5.29530E+01 -4.84760E+01 -4.87885E+01 -4.69924E+01 -4.89897E+01 -4.91381E+01
  -5.04426E+01 -4.87687E+01 -5.07234E+01 -4.81871E+01 -4.60507E+01 -4.79157E+01 -4.40706E+01 -4.42547E+01 -4.81469E+01 -4.66699E+01
  -4.44058E+01 -4.19589E+01 -4.36727E+01 -4.26057E+01 -4.39165E+01 -4.12226E+01 -3.93833E+01 -4.40029E+01 -4.17864E+01 -4.28181E+01
  -4.37225E+01 -4.16130E+01 -4.26163E+01 -4.11839E+01 -4.21562E+01 -3.94978E+01 -4.00981E+01 -3.73522E+01 -4.01790E+01 -3.59518E+01
  -3.88524E+01 -3.90323E+01 -3.95225E+01 -3.70096E+01 -3.67423E+01 -3.59947E+01 -3.67721E+01 -3.54908E+01 -3.50169E+01 -3.74021E+01
  -3.75032E+01 -3.39595E+01 -3.66148E+01 -3.63985E+01 -3.26261E+01 -3.19396E+01 -3.17874E+01 -3.20718E+01 -3.57629E+01 -3.45985E+01
  -3.88891E+01 -3.83853E+01 -3.74296E+01 -3.31467E+01 -3.11695E+01 -3.24611E+01 -3.09650E+01 -3.20676E+01 -3.23709E+01 -3.18620E+01
  -3.32430E+01 -3.43165E+01 -3.08619E+01 -3.26691E+01 -3.04131E+01 -3.20068E+01 -3.25592E+01 -3.09375E+01 -3.03210E+01 -2.94444E+01
  -2.97683E+01 -2.95605E+01 -2.97637E+01 -3.15607E+01 -3.41677E+01 -3.06713E+01 -3.43250E+01 -2.99019E+01 -3.29014E+01 -2.88141E+01
  -2.84996E+01 -2.73879E+01 -2.82307E+01 -3.12883E+01 -2.67082E+01 -2.87343E+01 -2.97624E+01 -3.01415E+01 -2.89710E+01 -2.66867E+01
  -3.01920E+01 -2.78777E+01 -2.73364E+01 -2.61141E+01 -3.05266E+01 -2.98789E+01 -2.95908E+01 -2.69534E+01 -2.70948E+01 -2.83976E+01
  -2.73917E+01 -2.74672E+01 -2.67881E+01 -2.77768E+01 -2.46987E+01 -2.72480E+01 -2.68444E+01 -2.28356E+01 -2.74998E+01 -2.30753E+01
  -2.46814E+01 -2.68332E+01 -2.60466E+01 -2.43703E+01 -2.55834E+01 -2.83793E+01 -2.60652E+01 -2.50721E+01 -2.83585E+01 -2.53859E+01
  -2.55415E+01 -2.19403E+01 -2.40360E+01 -2.04966E+01 -2.17769E+01 -2.07514E+01 -2.37036E+01 -2.35784E+01 -2.18109E+01 -2.32242E+01
  -2.42637E+01 -2.24130E+01 -2.44571E+01 -2.37357E+01 -2.10480E+01 -2.26548E+01 -2.24379E+01 -2.43518E+01 -2.77583E+01 -2.53074E+01
  -2.44828E+01 -2.42421E+01 -2.31096E+01 -2.34260E+01 -2.42445E+01 -2.20614E+01 -2.14886E+01 -2.39187E+01 -2.44591E+01 -2.37071E+01
  -2.21275E+01 -2.16627E+01 -2.02148E+01 -2.12121E+01 -2.19698E+01 -2.06829E+01 -2.20982E+01 -2.03223E+01 -2.22935E+01 -1.93653E+01
  -2.11175E+01 -2.02613E+01 -2.17634E+01 -2.24652E+01 -2.07033E+01 -2.48192E+01 -1.99414E+01 -2.12531E+01 -2.30271E+01 -1.88462E+01
  -1.89994E+01 -1.90635E+01 -2.20854E+01 -2.05391E+01 -2.29376E+01 -1.91135E+01 -2.21267E+01 -1.95416E+01 -2.03418E+01 -1.92510E+01
  -2.13051E+01 -1.80668E+01 -1.87344E+01 -2.08093E+01 -1.93953E+01 -2.00170E+01 -1.98600E+01 -2.11593E+01 -1.81859E+01 -1.82801E+01
  -1.77192E+01 -2.01514E+01 -1.99469E+01 -1.88569E+01 -1.93684E+01 -1.92059E+01 -1.71247E+01 -1.77224E+01 -1.77837E+01 -1.63934E+01
  -1.77282E+01 -1.57087E+01 -1.72203E+01 -1.75843E+01 -1.78501E+01 -1.89233E+01 -2.44860E+01 -2.43499E+01 -2.59081E+01 -2.51840E+01
  -2.29615E+01 -2.25223E+01 -2.03188E+01 -1.57204E+01 -1.84058E+01 -2.02371E+01 -2.19925E+01 -2.30548E+01 -1.97535E+01 -2.01519E+01
  -1.94532E+01 -2.17676E+01 -2.15130E+01 -2.25326E+01 -2.12284E+01 -2.22380E+01 -2.12385E+01 -2.43776E+01 -2.20354E+01 -2.05637E+01
  -2.21648E+01 -2.35718E+01 -2.13888E+01 -1.74033E+01 -2.48369E+01 -2.15907E+01 -2.49075E+01 -2.35651E+01 -2.44017E+01 -2.33205E+01
  -2.37579E+01 -2.38304E+01 -2.59562E+01 -2.19424E+01 -2.63526E+01 -2.43477E+01 -2.31399E+01 -2.38329E+01 -2.35486E+01 -2.34222E+01
  -1.87868E+01 -1.98068E+01 -2.12048E+01 -2.05540E+01 -2.21037E+01 -1.78093E+01 -1.90083E+01 -1.90332E+01 -1.82412E+01 -1.93293E+01
  -1.97785E+01 -1.75148E+01 -1.66406E+01 -1.54319E+01 -1.86239E+01 -1.75609E+01 -1.70599E+01 -1.93596E+01 -1.69256E+01 -1.57800E+01
  -1.57486E+01 -1.48481E+01 -1.22534E+01 -1.34748E+01 -1.11652E+01 -1.27234E+01 -6.70874E+00 -8.23809E+00 -6.76495E+00 -3.88796E+00
  -6.57076E+00 -2.94250E+00 -5.92015E+00 -4.33078E+00  1.42419E+00 -2.61141E-01  9.42957E-01 -6.54868E-01  4.55446E+00  9.38827E-01
   4.38155E+00  4.52672E+00  4.38036E+00  6.14653E+00  6.00200E+00  3.92230E+00  3.07449E+00  2.47637E+00  2.02885E+00  2.85983E+00
   2.62096E+00  2.37676E+00  1.47207E+00  5.94758E+00 -9.09958E-01  3.66049E+00  2.75131E+00  4.04384E+00  1.94702E+00  2.98933E+00
  -5.29492E-01  1.68864E+00  1.19186E-01 -4.56647E+00  1.43152E-01 -9.28617E-01 -1.13663E+00 -1.91804E+00 -2.22278E+00 -4.66668E+00
  -3.47766E+00 -4.85462E+00 -2.18849E+00 -1.01267E+00 -4.66033E+00 -3.37269E+00 -5.63159E+00 -7.86181E+00 -5.77923E+00 -5.70861E+00
  -7.03625E+00 -4.19351E+00 -5.54503E+00 -7.77774E+00 -6.89108E+00 -9.90655E+00 -8.51536E+00 -5.91925E+00 -7.16600E+00 -5.47956E+00
  -5.65362E+00 -7.31459E+00 -1.02675E+01 -9.54930E+00 -7.54175E+00 -8.67821E+00 -7.82117E+00 -4.52197E+00 -9.01299E+00 -5.75463E+00
  -8.16932E+00 -5.81692E+00 -8.06155E+00 -5.89524E+00 -7.84597E+00 -8.27177E+00 -1.04967E+01 -7.15604E+00 -7.92452E+00 -6.95600E+00
  -8.27771E+00 -8.47261E+00 -8.01280E+00 -9.73088E+00 -7.57129E+00 -5.72328E+00 -8.96949E+00 -7.05033E+00 -5.95736E+00 -8.18691E+00
  -6.57337E+00 -7.95607E+00 -5.33670E+00 -5.52256E+00 -4.78609E+00 -3.47142E+00 -4.47119E+00 -2.48804E+00 -5.14140E+00 -3.93615E+00
  -5.50747E+00 -5.33726E+00 -3.96008E+00 -4.22723E+00 -6.17336E+00 -3.16349E+00 -5.24217E+00 -4.47949E+00 -2.12368E+00 -2.31564E+00
  -6.41539E-01 -4.25343E+00 -4.07330E+00 -1.09355E+00 -4.75133E+00 -4.02155E+00 -4.10810E+00 -4.99773E+00 -2.39515E+00 -2.33413E+00
   1.54786E-01 -2.85959E+00 -4.70666E+00 -3.75599E+00 -4.18547E+00 -1.12839E+00 -2.06788E+00 -1.75458E+00 -3.59138E+00 -1.35250E+00
   9.49218E-02 -5.92697E+00 -1.64206E+00 -3.30824E+00 -3.68325E+00 -6.83918E-01 -4.42265E+00 -8.75105E-01 -3.15407E+00 -1.06349E+00
  -1.13117E+00 -4.21081E+00 -2.74846E+00 -5.60093E-01 -2.01600E+00 -3.06659E+00 -2.23875E+00 -6.83418E-01 -1.37237E+00 -1.51366E+00
  -1.29967E+00 -9.25225E-01  1.69025E-01 -2.63161E+00 -1.93369E+00 -3.68176E+00 -2.44294E+00  7.80948E-01 -1.89424E+00 -9.60858E-02
  -2.65285E+00  2.84759E-01 -1.86305E+00 -8.62569E-01 -3.75350E+00 -1.86335E+00 -1.19611E+00 -1.91909E+00
 NY points of the fit to the data follow
  -7.42228E+01 -7.38113E+01 -7.33505E+01 -7.28414E+01 -7.23216E+01 -7.18044E+01 -7.12837E+01 -7.07598E+01 -7.02337E+01 -6.97064E+01
  -6.91791E+01 -6.86524E+01 -6.81260E+01 -6.75999E+01 -6.70737E+01 -6.65464E+01 -6.60169E+01 -6.54837E+01 -6.49483E+01 -6.44246E+01
  -6.39184E+01 -6.34235E+01 -6.29301E+01 -6.24257E+01 -6.18744E+01 -6.11698E+01 -6.03267E+01 -5.94753E+01 -5.87072E+01 -5.80560E+01
  -5.75153E+01 -5.70712E+01 -5.66888E+01 -5.63330E+01 -5.60227E+01 -5.57708E+01 -5.55272E+01 -5.52208E+01 -5.48647E+01 -5.44965E+01
  -5.41136E+01 -5.36731E+01 -5.30469E+01 -5.21524E+01 -5.11085E+01 -5.01444E+01 -4.94213E+01 -4.89609E+01 -4.87050E+01 -4.85957E+01
  -4.85904E+01 -4.86367E+01 -4.86687E+01 -4.86003E+01 -4.83065E+01 -4.77560E+01 -4.70638E+01 -4.63555E+01 -4.57226E+01 -4.52074E+01
  -4.48167E+01 -4.45320E+01 -4.43085E+01 -4.41042E+01 -4.38896E+01 -4.36452E+01 -4.33363E+01 -4.29271E+01 -4.24466E+01 -4.19486E+01
  -4.14892E+01 -4.10927E+01 -4.07582E+01 -4.04738E+01 -4.02196E+01 -3.99831E+01 -3.97548E+01 -3.95280E+01 -3.92919E+01 -3.90348E+01
  -3.87701E+01 -3.85224E+01 -3.83336E+01 -3.82195E+01 -3.81637E+01 -3.81182E+01 -3.80373E+01 -3.78953E+01 -3.76807E+01 -3.73872E+01
  -3.70255E+01 -3.66066E+01 -3.61649E+01 -3.57671E+01 -3.54644E+01 -3.52609E+01 -3.51317E+01 -3.50429E+01 -3.49700E+01 -3.48930E+01
  -3.47908E+01 -3.46433E+01 -3.44510E+01 -3.42201E+01 -3.39711E+01 -3.37263E+01 -3.34923E+01 -3.32682E+01 -3.30538E+01 -3.28505E+01
  -3.26585E+01 -3.24767E+01 -3.23016E+01 -3.21306E+01 -3.19664E+01 -3.18114E+01 -3.16651E+01 -3.15233E+01 -3.13821E+01 -3.12372E+01
  -3.10842E+01 -3.09236E+01 -3.07585E+01 -3.05910E+01 -3.04214E+01 -3.02500E+01 -3.00758E+01 -2.98958E+01 -2.96966E+01 -2.94703E+01
  -2.92489E+01 -2.90686E+01 -2.89378E+01 -2.88494E+01 -2.87785E+01 -2.86920E+01 -2.85730E+01 -2.84065E+01 -2.82009E+01 -2.79678E+01
  -2.77142E+01 -2.74545E+01 -2.72155E+01 -2.70115E+01 -2.68405E+01 -2.66980E+01 -2.65724E+01 -2.64494E+01 -2.63224E+01 -2.61868E+01
  -2.60512E+01 -2.59182E+01 -2.57862E+01 -2.56557E+01 -2.55278E+01 -2.54035E+01 -2.52834E+01 -2.51695E+01 -2.50636E+01 -2.49664E+01
  -2.48790E+01 -2.48019E+01 -2.47345E+01 -2.46734E+01 -2.46163E+01 -2.45628E+01 -2.45127E+01 -2.44654E+01 -2.44195E+01 -2.43748E+01
  -2.43330E+01 -2.42960E+01 -2.42637E+01 -2.42350E+01 -2.42082E+01 -2.41820E+01 -2.41559E+01 -2.41290E+01 -2.41005E+01 -2.40685E+01
  -2.40375E+01 -2.40112E+01 -2.39861E+01 -2.39575E+01 -2.39181E+01 -2.38560E+01 -2.37619E+01 -2.36383E+01 -2.35017E+01 -2.33752E+01
  -2.32739E+01 -2.32058E+01 -2.31826E+01 -2.32090E+01 -2.32517E+01 -2.32739E+01 -2.32579E+01 -2.31994E+01 -2.31036E+01 -2.29804E+01
  -2.28424E+01 -2.27021E+01 -2.25697E+01 -2.24543E+01 -2.23615E+01 -2.22877E+01 -2.22152E+01 -2.21358E+01 -2.20515E+01 -2.19657E+01
  -2.18812E+01 -2.17971E+01 -2.17116E+01 -2.16234E+01 -2.15321E+01 -2.14372E+01 -2.13385E+01 -2.12372E+01 -2.11347E+01 -2.10328E+01
  -2.09330E+01 -2.08376E+01 -2.07477E+01 -2.06632E+01 -2.05841E+01 -2.05132E+01 -2.04615E+01 -2.04397E+01 -2.04345E+01 -2.04254E+01
  -2.03997E+01 -2.03513E+01 -2.02738E+01 -2.01665E+01 -2.00620E+01 -1.99938E+01 -1.99729E+01 -1.99942E+01 -2.00496E+01 -2.01286E+01
  -2.02025E+01 -2.02378E+01 -2.02224E+01 -2.01587E+01 -2.00555E+01 -1.99306E+01 -1.98126E+01 -1.97208E+01 -1.96604E+01 -1.96314E+01
  -1.96292E+01 -1.96456E+01 -1.96679E+01 -1.96870E+01 -1.97059E+01 -1.97291E+01 -1.97595E+01 -1.97996E+01 -1.98521E+01 -1.99199E+01
  -2.00031E+01 -2.01001E+01 -2.02082E+01 -2.03249E+01 -2.04482E+01 -2.05763E+01 -2.07071E+01 -2.08386E+01 -2.09690E+01 -2.10963E+01
  -2.12190E+01 -2.13355E+01 -2.14447E+01 -2.15456E+01 -2.16375E+01 -2.17198E+01 -2.17922E+01 -2.18546E+01 -2.19069E+01 -2.19490E+01
  -2.19810E+01 -2.20030E+01 -2.20152E+01 -2.20177E+01 -2.20109E+01 -2.19950E+01 -2.19700E+01 -2.19362E+01 -2.18938E+01 -2.18429E+01
  -2.17834E+01 -2.17155E+01 -2.16391E+01 -2.15543E+01 -2.14609E+01 -2.13588E+01 -2.12478E+01 -2.11277E+01 -2.09981E+01 -2.08587E+01
  -2.07091E+01 -2.05489E+01 -2.03776E+01 -2.01945E+01 -1.99991E+01 -1.97907E+01 -1.95684E+01 -1.93316E+01 -1.90793E+01 -1.88105E+01
  -1.85241E+01 -1.82190E+01 -1.78940E+01 -1.75479E+01 -1.71792E+01 -1.67865E+01 -1.63684E+01 -1.59234E+01 -1.54501E+01 -1.49470E+01
  -1.44127E+01 -1.38460E+01 -1.32459E+01 -1.26114E+01 -1.19421E+01 -1.12377E+01 -1.04983E+01 -9.72460E+00 -8.91797E+00 -8.08031E+00
  -7.21413E+00 -6.32259E+00 -5.40954E+00 -4.47948E+00 -3.53738E+00 -2.58833E+00 -1.63698E+00 -6.86679E-01  2.62252E-01  1.21696E+00
   2.20615E+00  3.32049E+00  4.55717E+00  5.52134E+00  5.98103E+00  5.94685E+00  5.53738E+00  4.86491E+00  3.97951E+00  3.09405E+00
   2.60599E+00  2.58665E+00  2.93582E+00  3.51074E+00  4.10491E+00  4.46384E+00  4.53510E+00  4.31842E+00  3.80509E+00  3.01183E+00
   2.02088E+00  1.02287E+00  1.74969E-01 -5.75020E-01 -1.26973E+00 -1.92249E+00 -2.53742E+00 -3.11542E+00 -3.65636E+00 -4.15984E+00
  -4.62553E+00 -5.05329E+00 -5.44324E+00 -5.79585E+00 -6.11191E+00 -6.39252E+00 -6.63897E+00 -6.85266E+00 -7.03510E+00 -7.18793E+00
  -7.31288E+00 -7.41173E+00 -7.48626E+00 -7.53818E+00 -7.56919E+00 -7.58103E+00 -7.57542E+00 -7.55402E+00 -7.51845E+00 -7.47025E+00
  -7.41095E+00 -7.34206E+00 -7.26505E+00 -7.18134E+00 -7.09225E+00 -6.99906E+00 -6.90298E+00 -6.80520E+00 -6.70683E+00 -6.60886E+00
  -6.51220E+00 -6.41765E+00 -6.32594E+00 -6.23771E+00 -6.15349E+00 -6.07367E+00 -5.99852E+00 -5.92821E+00 -5.86288E+00 -5.80264E+00
  -5.74747E+00 -5.69725E+00 -5.65179E+00 -5.61081E+00 -5.57402E+00 -5.54103E+00 -5.51142E+00 -5.48468E+00 -5.46034E+00 -5.43790E+00
  -5.41688E+00 -5.39678E+00 -5.37710E+00 -5.35736E+00 -5.33713E+00 -5.31601E+00 -5.29365E+00 -5.26970E+00 -5.24386E+00 -5.21586E+00
  -5.18550E+00 -5.15263E+00 -5.11709E+00 -5.07880E+00 -5.03767E+00 -4.99367E+00 -4.94681E+00 -4.89714E+00 -4.84469E+00 -4.78953E+00
  -4.73175E+00 -4.67145E+00 -4.60878E+00 -4.54388E+00 -4.47689E+00 -4.40795E+00 -4.33723E+00 -4.26490E+00 -4.19115E+00 -4.11615E+00
  -4.04007E+00 -3.96308E+00 -3.88536E+00 -3.80706E+00 -3.72826E+00 -3.64898E+00 -3.56927E+00 -3.48915E+00 -3.40869E+00 -3.32791E+00
  -3.24687E+00 -3.16557E+00 -3.08405E+00 -3.00233E+00 -2.92044E+00 -2.83841E+00 -2.75625E+00 -2.67397E+00 -2.59158E+00 -2.50908E+00
  -2.42651E+00 -2.34387E+00 -2.26115E+00 -2.17834E+00 -2.09545E+00 -2.01247E+00 -1.92942E+00 -1.84628E+00 -1.76303E+00 -1.67966E+00
  -1.59615E+00 -1.51251E+00 -1.42872E+00 -1.34477E+00 -1.26061E+00 -1.17624E+00 -1.09163E+00 -1.00678E+00 -9.21655E-01 -8.36231E-01
  -7.50472E-01 -6.64356E-01 -5.77865E-01 -4.90974E-01 -4.03651E-01 -3.15856E-01 -2.27557E-01 -1.38729E-01
 NY background values follow
    -7.478E+01   -7.425E+01   -7.373E+01   -7.320E+01   -7.267E+01   -7.214E+01   -7.161E+01   -7.108E+01   -7.055E+01   -7.003E+01
    -6.950E+01   -6.897E+01   -6.845E+01   -6.792E+01   -6.740E+01   -6.688E+01   -6.636E+01   -6.584E+01   -6.532E+01   -6.480E+01
    -6.429E+01   -6.377E+01   -6.326E+01   -6.275E+01   -6.224E+01   -6.174E+01   -6.123E+01   -6.073E+01   -6.023E+01   -5.974E+01
    -5.925E+01   -5.875E+01   -5.827E+01   -5.778E+01   -5.730E+01   -5.682E+01   -5.634E+01   -5.587E+01   -5.540E+01   -5.494E+01
    -5.448E+01   -5.402E+01   -5.356E+01   -5.311E+01   -5.267E+01   -5.223E+01   -5.179E+01   -5.135E+01   -5.092E+01   -5.050E+01
    -5.008E+01   -4.966E+01   -4.925E+01   -4.884E+01   -4.844E+01   -4.804E+01   -4.764E+01   -4.725E+01   -4.687E+01   -4.648E+01
    -4.611E+01   -4.573E+01   -4.536E+01   -4.500E+01   -4.464E+01   -4.429E+01   -4.394E+01   -4.359E+01   -4.325E+01   -4.291E+01
    -4.258E+01   -4.225E+01   -4.193E+01   -4.161E+01   -4.129E+01   -4.099E+01   -4.068E+01   -4.038E+01   -4.009E+01   -3.979E+01
    -3.951E+01   -3.923E+01   -3.895E+01   -3.868E+01   -3.841E+01   -3.815E+01   -3.789E+01   -3.764E+01   -3.739E+01   -3.715E+01
    -3.691E+01   -3.668E+01   -3.645E+01   -3.623E+01   -3.601E+01   -3.579E+01   -3.558E+01   -3.538E+01   -3.518E+01   -3.498E+01
    -3.479E+01   -3.460E+01   -3.441E+01   -3.423E+01   -3.405E+01   -3.388E+01   -3.370E+01   -3.354E+01   -3.337E+01   -3.321E+01
    -3.305E+01   -3.289E+01   -3.274E+01   -3.259E+01   -3.244E+01   -3.230E+01   -3.216E+01   -3.202E+01   -3.188E+01   -3.174E+01
    -3.161E+01   -3.148E+01   -3.135E+01   -3.122E+01   -3.109E+01   -3.097E+01   -3.084E+01   -3.072E+01   -3.060E+01   -3.048E+01
    -3.036E+01   -3.024E+01   -3.013E+01   -3.001E+01   -2.989E+01   -2.978E+01   -2.966E+01   -2.955E+01   -2.943E+01   -2.932E+01
    -2.921E+01   -2.910E+01   -2.898E+01   -2.887E+01   -2.876E+01   -2.865E+01   -2.854E+01   -2.843E+01   -2.832E+01   -2.821E+01
    -2.811E+01   -2.800E+01   -2.789E+01   -2.779E+01   -2.768E+01   -2.758E+01   -2.748E+01   -2.738E+01   -2.727E+01   -2.717E+01
    -2.707E+01   -2.697E+01   -2.688E+01   -2.678E+01   -2.668E+01   -2.659E+01   -2.649E+01   -2.640E+01   -2.631E+01   -2.621E+01
    -2.612E+01   -2.603E+01   -2.594E+01   -2.586E+01   -2.577E+01   -2.569E+01   -2.560E+01   -2.552E+01   -2.544E+01   -2.536E+01
    -2.528E+01   -2.520E+01   -2.512E+01   -2.504E+01   -2.497E+01   -2.490E+01   -2.482E+01   -2.475E+01   -2.468E+01   -2.462E+01
    -2.455E+01   -2.449E+01   -2.442E+01   -2.436E+01   -2.430E+01   -2.424E+01   -2.419E+01   -2.413E+01   -2.408E+01   -2.403E+01
    -2.398E+01   -2.393E+01   -2.388E+01   -2.384E+01   -2.379E+01   -2.375E+01   -2.372E+01   -2.368E+01   -2.364E+01   -2.361E+01
    -2.358E+01   -2.355E+01   -2.353E+01   -2.350E+01   -2.348E+01   -2.346E+01   -2.344E+01   -2.343E+01   -2.341E+01   -2.340E+01
    -2.340E+01   -2.339E+01   -2.339E+01   -2.339E+01   -2.339E+01   -2.339E+01   -2.340E+01   -2.341E+01   -2.342E+01   -2.343E+01
    -2.345E+01   -2.347E+01   -2.349E+01   -2.351E+01   -2.354E+01   -2.356E+01   -2.359E+01   -2.362E+01   -2.365E+01   -2.368E+01
    -2.372E+01   -2.375E+01   -2.379E+01   -2.383E+01   -2.386E+01   -2.390E+01   -2.394E+01   -2.398E+01   -2.402E+01   -2.406E+01
    -2.410E+01   -2.414E+01   -2.418E+01   -2.422E+01   -2.427E+01   -2.431E+01   -2.435E+01   -2.439E+01   -2.443E+01   -2.446E+01
    -2.450E+01   -2.454E+01   -2.458E+01   -2.461E+01   -2.465E+01   -2.468E+01   -2.471E+01   -2.474E+01   -2.477E+01   -2.480E+01
    -2.482E+01   -2.484E+01   -2.487E+01   -2.489E+01   -2.490E+01   -2.492E+01   -2.493E+01   -2.494E+01   -2.495E+01   -2.496E+01
    -2.497E+01   -2.497E+01   -2.497E+01   -2.497E+01   -2.497E+01   -2.497E+01   -2.496E+01   -2.495E+01   -2.495E+01   -2.493E+01
    -2.492E+01   -2.490E+01   -2.489E+01   -2.487E+01   -2.485E+01   -2.482E+01   -2.480E+01   -2.477E+01   -2.474E+01   -2.471E+01
    -2.468E+01   -2.464E+01   -2.461E+01   -2.457E+01   -2.453E+01   -2.449E+01   -2.444E+01   -2.439E+01   -2.435E+01   -2.430E+01
    -2.424E+01   -2.419E+01   -2.413E+01   -2.408E+01   -2.402E+01   -2.395E+01   -2.389E+01   -2.382E+01   -2.376E+01   -2.369E+01
    -2.362E+01   -2.354E+01   -2.347E+01   -2.339E+01   -2.331E+01   -2.323E+01   -2.315E+01   -2.307E+01   -2.298E+01   -2.290E+01
    -2.281E+01   -2.272E+01   -2.263E+01   -2.254E+01   -2.245E+01   -2.235E+01   -2.226E+01   -2.216E+01   -2.206E+01   -2.197E+01
    -2.187E+01   -2.177E+01   -2.167E+01   -2.156E+01   -2.146E+01   -2.136E+01   -2.125E+01   -2.115E+01   -2.104E+01   -2.094E+01
    -2.083E+01   -2.072E+01   -2.061E+01   -2.050E+01   -2.040E+01   -2.029E+01   -2.018E+01   -2.007E+01   -1.996E+01   -1.985E+01
    -1.973E+01   -1.962E+01   -1.951E+01   -1.940E+01   -1.929E+01   -1.918E+01   -1.907E+01   -1.896E+01   -1.884E+01   -1.873E+01
    -1.862E+01   -1.851E+01   -1.839E+01   -1.828E+01   -1.816E+01   -1.805E+01   -1.793E+01   -1.782E+01   -1.770E+01   -1.758E+01
    -1.746E+01   -1.734E+01   -1.722E+01   -1.710E+01   -1.698E+01   -1.686E+01   -1.673E+01   -1.661E+01   -1.648E+01   -1.636E+01
    -1.623E+01   -1.610E+01   -1.597E+01   -1.584E+01   -1.570E+01   -1.557E+01   -1.543E+01   -1.530E+01   -1.516E+01   -1.502E+01
    -1.488E+01   -1.474E+01   -1.459E+01   -1.445E+01   -1.430E+01   -1.415E+01   -1.400E+01   -1.384E+01   -1.369E+01   -1.353E+01
    -1.338E+01   -1.322E+01   -1.306E+01   -1.289E+01   -1.273E+01   -1.257E+01   -1.240E+01   -1.223E+01   -1.207E+01   -1.190E+01
    -1.173E+01   -1.156E+01   -1.139E+01   -1.122E+01   -1.105E+01   -1.087E+01   -1.070E+01   -1.053E+01   -1.036E+01   -1.019E+01
    -1.001E+01   -9.842E+00   -9.671E+00   -9.499E+00   -9.329E+00   -9.158E+00   -8.989E+00   -8.820E+00   -8.651E+00   -8.484E+00
    -8.317E+00   -8.152E+00   -7.988E+00   -7.825E+00   -7.663E+00   -7.502E+00   -7.343E+00   -7.185E+00   -7.029E+00   -6.875E+00
    -6.723E+00   -6.572E+00   -6.423E+00   -6.276E+00   -6.132E+00   -5.989E+00   -5.848E+00   -5.708E+00   -5.571E+00   -5.435E+00
    -5.301E+00   -5.169E+00   -5.038E+00   -4.909E+00   -4.781E+00   -4.654E+00   -4.529E+00   -4.406E+00   -4.283E+00   -4.162E+00
    -4.042E+00   -3.923E+00   -3.806E+00   -3.689E+00   -3.573E+00   -3.459E+00   -3.345E+00   -3.232E+00   -3.120E+00   -3.009E+00
    -2.898E+00   -2.789E+00   -2.679E+00   -2.571E+00   -2.463E+00   -2.355E+00   -2.248E+00   -2.141E+00   -2.035E+00   -1.928E+00
    -1.823E+00   -1.717E+00   -1.611E+00   -1.506E+00   -1.401E+00   -1.296E+00   -1.190E+00   -1.085E+00
 Asp      Conc. = 6.09E-02
