 LCModel (Version 6.3-1L) Copyright: S.W. Provencher.          Ref.: Magn. Reson. Med. 30:672-679 (1993).                
 Slice#1 Row#7 Col#3  PD_24_press_2_raw_act
 36 lines in following concentration table = NCONC+1
    Conc.  %SD /Cr+PCr  Metabolite                                         
    0.000 999%   0.000 Ala                                                 
    0.000 999%   0.000 Asp                                                 
 1.72E+03   8%   1.000 Cr                                                  
    0.000 999%   0.000 PCr                                                 
  206.591 131%   0.120 GABA                                                
    0.000 999%   0.000 Glc                                                 
 1.03E+03  61%   0.598 Gln                                                 
 2.27E+03  32%   1.321 Glu                                                 
  754.682   7%   0.439 GPC                                                 
    0.000 999%   0.000 PCh                                                 
  689.621  26%   0.401 GSH                                                 
 1.37E+03  45%   0.794 Ins                                                 
    0.000 999%   0.000 Lac                                                 
 3.54E+03  10%   2.057 NAA                                                 
  457.012  83%   0.266 NAAG                                                
  120.197  48% 7.0E-02 Scyllo                                              
  156.738 241% 9.1E-02 Tau                                                 
  469.606  51%   0.273 -CrCH2                                              
  754.682   7%   0.439 GPC+PCh                                             
 4.00E+03   6%   2.323 NAA+NAAG                                            
 1.72E+03   8%   1.000 Cr+PCr                                              
 3.30E+03  33%   1.919 Glu+Gln                                             
 3.03E+03  33%   1.763 Lip13a                                              
    0.000 999%   0.000 Lip13b                                              
    0.000 999%   0.000 Lip09                                               
 4.67E+03  11%   2.712 MM09                                                
  945.875  44%   0.550 Lip20                                               
 1.19E+04   8%   6.921 MM20                                                
 1.79E+03  24%   1.040 MM12                                                
 4.36E+03  11%   2.538 MM14                                                
 2.90E+03  10%   1.688 MM17                                                
 3.03E+03  33%   1.763 Lip13a+Lip13b                                       
 9.19E+03   8%   5.340 MM14+Lip13a+Lip13b+MM12                             
 4.67E+03  11%   2.712 MM09+Lip09                                          
 1.28E+04   8%   7.471 MM20+Lip20                                          
   6 lines in following misc. output table
  FWHM = 0.069 ppm    S/N =  10                                            
  Data shift =-0.008 ppm                                                   
  Ph:  -6 deg       5.7 deg/ppm                                            
  alphaB,S = 6.5E-01,   9.2E+00                                            
   14 spline knots.   Ns = 8(1)                                            
  (12) 9 infls.   (15) 3 extrs.                                            
  498 points on ppm-axis = NY
      4.000000     3.992357     3.984714     3.977070     3.969427     3.961784     3.954141     3.946497     3.938854     3.931211
      3.923568     3.915925     3.908281     3.900638     3.892995     3.885352     3.877708     3.870065     3.862422     3.854779
      3.847136     3.839492     3.831849     3.824206     3.816563     3.808919     3.801276     3.793633     3.785990     3.778347
      3.770703     3.763060     3.755417     3.747774     3.740130     3.732487     3.724844     3.717201     3.709558     3.701914
      3.694271     3.686628     3.678985     3.671341     3.663698     3.656055     3.648412     3.640769     3.633125     3.625482
      3.617839     3.610196     3.602552     3.594909     3.587266     3.579623     3.571980     3.564336     3.556693     3.549050
      3.541407     3.533763     3.526120     3.518477     3.510834     3.503191     3.495547     3.487904     3.480261     3.472618
      3.464974     3.457331     3.449688     3.442045     3.434402     3.426758     3.419115     3.411472     3.403829     3.396185
      3.388542     3.380899     3.373256     3.365613     3.357969     3.350326     3.342683     3.335040     3.327396     3.319753
      3.312110     3.304467     3.296824     3.289180     3.281537     3.273894     3.266251     3.258607     3.250964     3.243321
      3.235678     3.228034     3.220391     3.212748     3.205105     3.197462     3.189818     3.182175     3.174532     3.166889
      3.159245     3.151602     3.143959     3.136316     3.128673     3.121029     3.113386     3.105743     3.098100     3.090456
      3.082813     3.075170     3.067527     3.059884     3.052240     3.044597     3.036954     3.029311     3.021667     3.014024
      3.006381     2.998738     2.991095     2.983451     2.975808     2.968165     2.960522     2.952878     2.945235     2.937592
      2.929949     2.922306     2.914662     2.907019     2.899376     2.891733     2.884089     2.876446     2.868803     2.861160
      2.853517     2.845873     2.838230     2.830587     2.822944     2.815300     2.807657     2.800014     2.792371     2.784728
      2.777084     2.769441     2.761798     2.754155     2.746511     2.738868     2.731225     2.723582     2.715939     2.708295
      2.700652     2.693009     2.685366     2.677722     2.670079     2.662436     2.654793     2.647150     2.639506     2.631863
      2.624220     2.616577     2.608933     2.601290     2.593647     2.586004     2.578361     2.570717     2.563074     2.555431
      2.547788     2.540144     2.532501     2.524858     2.517215     2.509572     2.501928     2.494285     2.486642     2.478999
      2.471355     2.463712     2.456069     2.448426     2.440783     2.433139     2.425496     2.417853     2.410210     2.402566
      2.394923     2.387280     2.379637     2.371994     2.364350     2.356707     2.349064     2.341421     2.333777     2.326134
      2.318491     2.310848     2.303205     2.295561     2.287918     2.280275     2.272632     2.264988     2.257345     2.249702
      2.242059     2.234416     2.226772     2.219129     2.211486     2.203843     2.196199     2.188556     2.180913     2.173270
      2.165627     2.157983     2.150340     2.142697     2.135054     2.127410     2.119767     2.112124     2.104481     2.096838
      2.089194     2.081551     2.073908     2.066265     2.058621     2.050978     2.043335     2.035692     2.028049     2.020405
      2.012762     2.005119     1.997476     1.989833     1.982190     1.974546     1.966903     1.959260     1.951617     1.943974
      1.936331     1.928688     1.921045     1.913402     1.905759     1.898115     1.890472     1.882829     1.875186     1.867543
      1.859900     1.852257     1.844614     1.836971     1.829327     1.821684     1.814041     1.806398     1.798755     1.791112
      1.783469     1.775826     1.768183     1.760540     1.752896     1.745253     1.737610     1.729967     1.722324     1.714681
      1.707038     1.699395     1.691752     1.684108     1.676465     1.668822     1.661179     1.653536     1.645893     1.638250
      1.630607     1.622964     1.615321     1.607677     1.600034     1.592391     1.584748     1.577105     1.569462     1.561819
      1.554176     1.546533     1.538890     1.531246     1.523603     1.515960     1.508317     1.500674     1.493031     1.485388
      1.477745     1.470102     1.462458     1.454815     1.447172     1.439529     1.431886     1.424243     1.416600     1.408957
      1.401314     1.393671     1.386027     1.378384     1.370741     1.363098     1.355455     1.347812     1.340169     1.332526
      1.324883     1.317240     1.309596     1.301953     1.294310     1.286667     1.279024     1.271381     1.263738     1.256095
      1.248452     1.240808     1.233165     1.225522     1.217879     1.210236     1.202593     1.194950     1.187307     1.179664
      1.172021     1.164377     1.156734     1.149091     1.141448     1.133805     1.126162     1.118519     1.110876     1.103233
      1.095590     1.087946     1.080303     1.072660     1.065017     1.057374     1.049731     1.042088     1.034445     1.026802
      1.019158     1.011515     1.003872     0.996229     0.988586     0.980943     0.973300     0.965657     0.958014     0.950371
      0.942727     0.935084     0.927441     0.919798     0.912155     0.904512     0.896869     0.889226     0.881583     0.873940
      0.866296     0.858653     0.851010     0.843367     0.835724     0.828081     0.820438     0.812795     0.805152     0.797508
      0.789865     0.782222     0.774579     0.766936     0.759293     0.751650     0.744007     0.736364     0.728721     0.721077
      0.713434     0.705791     0.698148     0.690505     0.682862     0.675219     0.667576     0.659933     0.652290     0.644646
      0.637003     0.629360     0.621717     0.614074     0.606431     0.598788     0.591145     0.583502     0.575858     0.568215
      0.560572     0.552929     0.545286     0.537643     0.530000     0.522357     0.514714     0.507071     0.499427     0.491784
      0.484141     0.476498     0.468855     0.461212     0.453569     0.445925     0.438282     0.430639     0.422996     0.415353
      0.407710     0.400067     0.392424     0.384780     0.377137     0.369494     0.361851     0.354208     0.346565     0.338922
      0.331278     0.323635     0.315992     0.308349     0.300706     0.293063     0.285420     0.277777     0.270133     0.262490
      0.254847     0.247204     0.239561     0.231918     0.224275     0.216631     0.208988     0.201345
 NY phased data points follow
  -1.66187E+00  1.40029E+01  2.70043E+00  1.56495E+01  3.46165E+00  1.49624E+01  1.06472E+01  3.35274E+01  1.80202E+01  3.97481E+01
   3.09490E+01  4.24783E+01  3.11050E+01  4.20926E+01  3.46027E+01  4.81083E+01  2.42955E+01  2.69507E+01  2.29662E+01  2.12529E+01
   1.31077E+01  2.36541E+01  2.05189E+01  2.49433E+01  1.47189E+01  2.41306E+01  1.90354E+01  2.11738E+01  2.74961E+01  1.72667E+01
   1.92161E+01  2.77528E+01  1.82453E+01  2.83535E+01  1.32690E+01  2.02634E+01  8.78298E+00  2.57466E+01  1.83661E+01  2.01814E+01
   1.86977E+01  2.38552E+01  1.85185E+01  2.48903E+01  2.16840E+01  2.71720E+01  1.24865E+01  2.94761E+01  2.34600E+01  1.95716E+01
   1.95932E+01  1.85936E+01  1.50314E+01  2.59000E+01  1.72208E+01  1.76007E+01  1.14132E+01  1.89177E+01  5.88730E+00  1.40903E+01
   9.71529E+00  7.43340E+00  7.47859E-01  1.70044E+01  5.98117E+00  9.32255E+00  6.73801E+00  5.59281E+00  1.01243E+01  3.51061E+00
   2.74268E+00  7.77285E+00 -5.91036E-01  1.05317E+01  2.51017E+00  5.04666E+00 -6.94621E+00  3.84758E+00 -5.42473E+00  1.00701E+01
  -3.94936E+00  1.21093E+01  6.05820E+00  1.07059E+01  2.52809E+00  4.94590E+00  8.73919E+00  6.05975E+00  1.11992E-01  8.63112E+00
   2.82572E+00  9.09716E+00  1.06891E+01  9.98845E+00  4.95656E+00  1.00334E+01  1.70774E+01  2.42346E+01  1.47960E+01  3.93787E+01
   3.35976E+01  4.91788E+01  5.35961E+01  6.27507E+01  5.29217E+01  6.31102E+01  4.69394E+01  4.38163E+01  2.93588E+01  3.01427E+01
   7.56676E+00  2.10984E+01  1.08377E+01  6.90356E+00  2.81476E+00  9.36012E+00  1.05546E+01  1.26863E+00  1.26960E+00  4.68430E+00
   9.37544E+00  1.67851E+01  1.24298E+01  2.39760E+01  2.67148E+01  4.48906E+01  3.90309E+01  5.86346E+01  6.16551E+01  6.29036E+01
   4.19404E+01  5.12219E+01  3.95999E+01  2.51643E+01  1.08574E+01  2.07093E+01  1.49544E+01  1.90542E+01  2.61101E+00  1.06424E+01
   3.08473E+00  6.44723E+00  2.27221E+00  4.24590E+00  4.72375E+00  6.36971E+00  1.58653E+00  9.73266E+00  6.37305E+00  5.91204E+00
   4.18546E+00  2.29685E+00  9.76825E-01  9.58998E+00  5.15297E+00 -2.19671E-01  2.36390E+00 -4.42195E+00 -3.62658E+00  9.79836E+00
  -3.21140E+00 -1.58389E-01 -1.85945E+00 -4.87148E+00 -6.50247E+00 -3.69116E+00 -8.03186E+00 -1.65653E+01 -1.38048E+01 -1.75701E+01
  -2.01565E+01 -2.04028E+01 -1.89420E+01 -2.22071E+01 -2.05340E+01 -2.67244E+01 -2.67085E+01 -2.48817E+01 -3.16023E+01 -2.47064E+01
  -2.42908E+01 -1.57070E+01 -1.97867E+01 -2.10676E+01 -1.58124E+01 -1.30032E+01 -1.85047E+01 -6.98398E+00 -1.79789E+01 -1.63119E+01
  -1.46694E+01 -1.16307E+01 -1.42977E+01 -1.44438E+01 -1.68038E+01 -6.26239E+00 -1.87283E+01 -8.54156E+00 -7.68701E+00 -1.30495E+01
  -5.68513E+00 -8.02115E+00 -2.47077E+00 -1.01338E+01 -1.03798E+00 -5.53652E-01 -3.58567E+00 -6.68584E+00 -1.00744E+01 -2.34817E+00
  -7.68594E+00 -3.10928E+00 -9.73170E+00  4.78594E+00  1.91924E+00  5.97593E+00  1.05633E+01 -1.07300E+00  2.60448E+00  5.09783E+00
  -6.90466E+00 -1.36990E+01 -1.01494E+01  4.45498E+00 -7.45236E+00  4.54417E+00 -5.83833E-01  1.03212E+01  3.18841E+00  1.36669E+01
  -9.84993E-01  9.80916E+00 -3.02352E-01  1.07421E+01  1.57097E+01  1.92763E+01  1.00939E+01  1.66771E+01  1.13842E+01  1.72687E+01
   1.03408E+01  1.36678E+01  1.59542E+01  2.17438E+01  7.99350E+00  2.63495E+01  2.08835E+01  2.82586E+01  3.29061E+01  4.38745E+01
   3.05860E+01  4.07820E+01  4.63205E+01  6.34839E+01  7.67500E+01  9.23585E+01  9.85787E+01  1.14300E+02  1.25342E+02  1.21103E+02
   1.23463E+02  1.19408E+02  1.08109E+02  8.66765E+01  5.33907E+01  3.30690E+01  2.60285E+01  1.83906E+01  1.09470E+01  5.22593E+00
   9.59225E+00  6.67502E+00  5.99802E+00  1.13699E+01  1.76537E+00  1.89770E+00  5.95772E-01  6.52206E+00  3.30307E+00  6.32944E+00
   6.46478E+00  8.72330E-01 -2.15506E+00 -2.07335E+00 -6.24257E+00  1.20693E-01  1.12070E+00  5.92839E+00  1.45746E+00  1.08107E+01
  -4.66856E+00 -3.31838E+00  5.80933E+00 -2.58975E+00  2.15008E+00  2.04578E+00 -1.43590E+00  1.36781E+01  1.66024E+00  4.44940E+00
   5.11465E+00 -3.92951E+00  2.47457E+00  8.29940E+00 -1.25393E+01  3.57152E-01 -9.32275E+00 -1.93449E+01 -2.06225E+01 -2.09124E+01
  -3.02394E+01 -2.17061E+01 -2.84277E+01 -3.27871E+01 -4.07232E+01 -3.79307E+01 -4.51319E+01 -3.97399E+01 -3.91817E+01 -3.70494E+01
  -3.45400E+01 -3.77837E+01 -3.46441E+01 -2.38785E+01 -2.85119E+01 -9.65806E+00 -1.59910E+01 -9.12420E+00 -3.08874E+00 -1.28645E+00
  -5.48499E+00  6.65073E+00  1.80175E+00  1.09694E+01  1.18969E+01  1.65408E+01  1.92477E+01  1.43066E+01  1.45076E+01  2.40119E+01
   1.60034E+01  2.40457E+01  1.88731E+01  1.59378E+01  1.17363E+01  1.75776E+01  1.17130E+01  1.71472E+01  1.80261E+01  1.45259E+01
   9.18576E+00  1.36361E+01  1.48861E+01  1.22661E+01  1.19716E+01  4.99473E+00  1.04284E+01  4.82389E+00  8.47612E+00  1.14850E+01
   2.54584E+00  2.54306E+00 -2.64297E+00  8.93199E+00  4.73845E+00  6.46991E+00  4.25198E+00  1.52445E+00  4.82180E+00  4.88994E+00
  -4.78906E+00  8.33393E+00  1.09789E-02 -3.95433E+00  2.89470E+00 -3.90770E-01 -3.54997E+00 -2.06317E+00  1.52917E+00 -9.31827E+00
  -3.31635E+00 -1.14677E+01 -5.14242E+00  1.35606E+00  2.59981E+00 -1.70957E+00 -3.17714E+00 -5.49132E-03  7.68171E-01  9.27312E+00
  -3.22763E+00  2.69309E+00  2.83757E+00 -2.52205E+00  1.12439E+01 -1.93259E+00  3.59114E+00 -1.12802E+00  3.24035E+00  4.84450E+00
   3.37075E+00  9.89237E+00 -1.56928E+00  8.24458E-01  5.20710E+00  1.26079E+01  1.26440E+01  9.14447E+00  1.08129E+01  9.53338E-01
  -1.62531E+00  3.02813E+00 -9.74054E+00 -3.18781E+00 -9.20223E+00  6.01778E-01 -1.55942E+01 -1.35160E+01 -1.36141E+01 -1.06902E+01
  -1.02409E+01 -1.00599E+01 -1.16597E+01 -3.23748E+00 -1.05362E+01 -7.86655E+00 -1.87008E+01 -8.14919E+00 -1.53625E+01 -9.72393E+00
  -7.95693E+00 -1.26782E+01 -9.61889E+00 -1.18200E+00 -2.10935E+01 -1.02324E+01 -1.96586E+01 -1.99446E+01 -1.39823E+01 -1.33049E+01
  -1.44233E+01 -1.06077E+01 -8.35874E+00  4.29695E-01 -1.69700E+01 -1.03791E+01 -7.36983E+00 -1.00821E+01 -1.51521E+01 -1.11968E+01
  -1.02929E+01 -1.33410E+01 -6.23338E+00 -1.74597E+01 -1.08992E+01 -8.14639E+00 -1.09152E+01 -6.69528E+00 -1.44252E+01 -1.56862E+00
  -9.29031E+00 -5.28507E+00 -1.24373E+01 -8.31755E+00 -9.74518E+00 -3.10723E+00 -4.28763E+00 -2.39671E+00 -8.35704E+00 -3.01933E+00
  -8.01826E+00 -1.22940E+01 -5.72952E+00 -4.60667E-01 -1.04351E+01 -1.56528E+01 -3.95446E+00 -1.39923E+01 -7.49270E+00 -9.90920E+00
  -4.62478E+00  5.13399E+00 -1.04161E+01 -3.89665E+00 -1.00302E+01 -3.12834E+00 -2.19354E+00 -1.27653E+01 -1.40947E+01 -1.02664E+01
  -3.35665E+00 -6.40159E+00 -1.69735E+01 -3.35086E+00 -1.34562E+01 -4.39736E+00 -1.10038E+01 -1.12594E+01
 NY points of the fit to the data follow
   1.40670E+01  1.28283E+01  1.15361E+01  1.13910E+01  1.26713E+01  1.60281E+01  1.76352E+01  2.10247E+01  2.44585E+01  2.88609E+01
   3.38158E+01  3.73451E+01  4.02714E+01  4.32709E+01  4.29966E+01  4.00112E+01  3.30623E+01  2.66053E+01  2.33050E+01  2.20728E+01
   2.11760E+01  1.82716E+01  1.71268E+01  1.71242E+01  1.73654E+01  1.88589E+01  1.97450E+01  2.20841E+01  2.39552E+01  2.53289E+01
   2.69398E+01  2.77100E+01  2.77717E+01  2.65875E+01  2.29323E+01  1.98491E+01  1.68832E+01  1.53347E+01  1.40895E+01  1.35269E+01
   1.46172E+01  1.59463E+01  1.72211E+01  1.82672E+01  1.91940E+01  2.00214E+01  2.03515E+01  2.02884E+01  2.00076E+01  1.89050E+01
   1.71983E+01  1.50088E+01  1.29424E+01  1.16670E+01  1.16052E+01  1.15302E+01  1.11851E+01  1.08621E+01  1.08134E+01  1.08086E+01
   1.05425E+01  1.01330E+01  9.64944E+00  8.87778E+00  8.18606E+00  7.53153E+00  7.20038E+00  7.30487E+00  7.46903E+00  7.70928E+00
   7.82892E+00  7.74959E+00  7.63112E+00  7.41524E+00  7.15359E+00  6.76605E+00  6.25734E+00  5.85736E+00  5.76485E+00  6.07623E+00
   6.03728E+00  6.10912E+00  6.34958E+00  6.62612E+00  7.03224E+00  6.92307E+00  6.63725E+00  6.26380E+00  5.57829E+00  4.62474E+00
   3.32629E+00  2.26989E+00  1.90165E+00  2.02575E+00  2.62467E+00  4.89786E+00  1.14134E+01  1.78968E+01  2.33867E+01  3.24030E+01
   3.87027E+01  4.92151E+01  5.53064E+01  5.93935E+01  6.13072E+01  6.02288E+01  5.29752E+01  4.22336E+01  2.70939E+01  1.84773E+01
   1.35800E+01  1.35243E+01  1.05134E+01  6.67243E+00  5.14743E+00  4.66623E+00  4.48929E+00  4.46099E+00  4.66303E+00  5.86300E+00
   1.03115E+01  1.65601E+01  2.08042E+01  2.81267E+01  3.39333E+01  4.20543E+01  4.92185E+01  5.32022E+01  5.54034E+01  5.60286E+01
   5.15082E+01  4.42505E+01  3.20739E+01  2.23490E+01  1.65205E+01  1.45948E+01  1.25947E+01  8.62063E+00  6.18329E+00  5.90769E+00
   6.20175E+00  6.57918E+00  6.57177E+00  6.07499E+00  5.34612E+00  4.35188E+00  3.31975E+00  2.46912E+00  1.67013E+00  1.00556E+00
   2.77662E-01 -3.88061E-01 -1.08508E+00 -1.94068E+00 -2.68188E+00 -3.27680E+00 -3.86964E+00 -4.13751E+00 -4.80644E+00 -5.41489E+00
  -5.88454E+00 -6.63296E+00 -7.15463E+00 -7.69033E+00 -8.03182E+00 -8.16748E+00 -8.69948E+00 -9.81310E+00 -1.14229E+01 -1.28426E+01
  -1.33338E+01 -1.39180E+01 -1.42468E+01 -1.51288E+01 -1.58617E+01 -1.60796E+01 -1.64604E+01 -1.66210E+01 -1.68489E+01 -1.67974E+01
  -1.65322E+01 -1.63177E+01 -1.65653E+01 -1.61591E+01 -1.54549E+01 -1.37418E+01 -1.24846E+01 -1.12593E+01 -1.02284E+01 -8.87153E+00
  -7.87755E+00 -7.23552E+00 -7.39966E+00 -8.28952E+00 -9.18048E+00 -9.95209E+00 -9.92091E+00 -9.57492E+00 -8.54254E+00 -7.45380E+00
  -6.11371E+00 -5.00930E+00 -4.36386E+00 -4.66723E+00 -5.25725E+00 -7.52752E+00 -9.31620E+00 -1.13540E+01 -1.27835E+01 -1.28012E+01
  -1.28280E+01 -1.12387E+01 -8.95723E+00 -6.18735E+00 -3.50742E+00 -2.50607E+00 -2.21789E+00 -2.61764E+00 -4.48545E+00 -6.56340E+00
  -9.36436E+00 -1.07310E+01 -9.96658E+00 -8.37557E+00 -6.13746E+00 -3.46753E+00 -1.46707E-01  2.84221E+00  4.47449E+00  4.75371E+00
   5.37587E+00  6.08605E+00  7.39197E+00  8.41730E+00  9.72442E+00  1.12468E+01  1.25532E+01  1.37017E+01  1.43752E+01  1.51144E+01
   1.58324E+01  1.65844E+01  1.72999E+01  1.84872E+01  2.00080E+01  2.22823E+01  2.44968E+01  2.72179E+01  3.02842E+01  3.32802E+01
   3.53474E+01  4.02779E+01  5.14270E+01  6.60107E+01  7.51723E+01  8.97932E+01  9.95051E+01  1.13241E+02  1.22200E+02  1.24626E+02
   1.22608E+02  1.18422E+02  1.05245E+02  8.76950E+01  6.05649E+01  3.96953E+01  2.69708E+01  2.34051E+01  1.90868E+01  1.05216E+01
   5.30758E+00  3.00209E+00  1.50529E+00  1.99620E-01 -7.21440E-01 -1.46727E+00 -2.16960E+00 -2.81843E+00 -3.39254E+00 -3.77602E+00
  -3.90687E+00 -3.69926E+00 -3.24640E+00 -2.56167E+00 -1.67301E+00 -5.92097E-01  5.65620E-01  1.76307E+00  2.89253E+00  3.94109E+00
   4.84275E+00  5.52287E+00  5.93971E+00  6.07894E+00  5.88197E+00  5.34707E+00  4.46881E+00  3.28914E+00  1.85214E+00  2.05972E-01
  -1.59483E+00 -3.50311E+00 -5.45572E+00 -7.38804E+00 -9.26669E+00 -1.10534E+01 -1.27148E+01 -1.42195E+01 -1.55443E+01 -1.66883E+01
  -1.76455E+01 -1.84206E+01 -1.90185E+01 -1.94482E+01 -1.97147E+01 -1.98278E+01 -1.97902E+01 -1.96068E+01 -1.92740E+01 -1.87913E+01
  -1.81509E+01 -1.73493E+01 -1.63767E+01 -1.52285E+01 -1.38971E+01 -1.23829E+01 -1.06858E+01 -8.81639E+00 -6.78622E+00 -4.61842E+00
  -2.33802E+00  1.81508E-02  2.41185E+00  4.79523E+00  7.12247E+00  9.34200E+00  1.14084E+01  1.32746E+01  1.49040E+01  1.62631E+01
   1.73329E+01  1.81003E+01  1.85679E+01  1.87436E+01  1.86501E+01  1.83137E+01  1.77722E+01  1.70624E+01  1.62276E+01  1.53050E+01
   1.43341E+01  1.33449E+01  1.23666E+01  1.14166E+01  1.05097E+01  9.64939E+00  8.83820E+00  8.06906E+00  7.33628E+00  6.62694E+00
   5.93204E+00  5.23823E+00  4.53882E+00  3.82478E+00  3.09483E+00  2.34586E+00  1.58279E+00  8.08839E-01  3.50269E-02 -7.30209E-01
  -1.47208E+00 -2.17975E+00 -2.83711E+00 -3.43284E+00 -3.95119E+00 -4.38232E+00 -4.71315E+00 -4.93721E+00 -5.04506E+00 -5.03396E+00
  -4.89846E+00 -4.64040E+00 -4.25930E+00 -3.76203E+00 -3.15298E+00 -2.44369E+00 -1.64342E+00 -7.68813E-01  1.65806E-01  1.13924E+00
   2.13339E+00  3.12401E+00  4.09065E+00  5.00745E+00  5.85363E+00  6.60471E+00  7.24295E+00  7.74833E+00  8.10866E+00  8.31057E+00
   8.34960E+00  8.22109E+00  7.92973E+00  7.47967E+00  6.88374E+00  6.15334E+00  5.30760E+00  4.36312E+00  3.34267E+00  2.26466E+00
   1.15192E+00  2.15938E-02 -1.10575E+00 -2.21610E+00 -3.29289E+00 -4.32688E+00 -5.30657E+00 -6.22761E+00 -7.08291E+00 -7.87215E+00
  -8.59204E+00 -9.24569E+00 -9.83267E+00 -1.03581E+01 -1.08229E+01 -1.12331E+01 -1.15904E+01 -1.19014E+01 -1.21679E+01 -1.23962E+01
  -1.25876E+01 -1.27478E+01 -1.28778E+01 -1.29830E+01 -1.30637E+01 -1.31247E+01 -1.31655E+01 -1.31907E+01 -1.31994E+01 -1.31959E+01
  -1.31790E+01 -1.31523E+01 -1.31143E+01 -1.30683E+01 -1.30132E+01 -1.29519E+01 -1.28827E+01 -1.28086E+01 -1.27276E+01 -1.26427E+01
  -1.25520E+01 -1.24584E+01 -1.23598E+01 -1.22586E+01 -1.21529E+01 -1.20454E+01 -1.19340E+01 -1.18212E+01 -1.17048E+01 -1.15872E+01
  -1.14664E+01 -1.13448E+01 -1.12204E+01 -1.10955E+01 -1.09678E+01 -1.08396E+01 -1.07090E+01 -1.05783E+01 -1.04453E+01 -1.03123E+01
  -1.01770E+01 -1.00418E+01 -9.90453E+00 -9.76764E+00 -9.62874E+00 -9.49015E+00 -9.34952E+00 -9.20937E+00 -9.06745E+00 -8.92613E+00
  -8.78298E+00 -8.64033E+00 -8.49587E+00 -8.35209E+00 -8.20671E+00 -8.06203E+00 -7.91559E+00 -7.76977E+00 -7.62227E+00 -7.47557E+00
  -7.32730E+00 -7.17972E+00 -7.03039E+00 -6.88169E+00 -6.73134E+00 -6.58174E+00 -6.43044E+00 -6.27968E+00
 NY background values follow
     1.305E+01    1.294E+01    1.282E+01    1.270E+01    1.259E+01    1.247E+01    1.236E+01    1.224E+01    1.212E+01    1.201E+01
     1.189E+01    1.177E+01    1.166E+01    1.154E+01    1.143E+01    1.131E+01    1.119E+01    1.107E+01    1.096E+01    1.084E+01
     1.072E+01    1.061E+01    1.049E+01    1.037E+01    1.025E+01    1.013E+01    1.001E+01    9.896E+00    9.777E+00    9.658E+00
     9.539E+00    9.420E+00    9.300E+00    9.180E+00    9.060E+00    8.939E+00    8.818E+00    8.697E+00    8.576E+00    8.454E+00
     8.332E+00    8.210E+00    8.088E+00    7.965E+00    7.842E+00    7.718E+00    7.594E+00    7.470E+00    7.345E+00    7.220E+00
     7.095E+00    6.970E+00    6.844E+00    6.718E+00    6.591E+00    6.464E+00    6.337E+00    6.209E+00    6.081E+00    5.953E+00
     5.824E+00    5.696E+00    5.566E+00    5.437E+00    5.307E+00    5.177E+00    5.046E+00    4.915E+00    4.784E+00    4.653E+00
     4.521E+00    4.389E+00    4.257E+00    4.124E+00    3.991E+00    3.858E+00    3.724E+00    3.590E+00    3.456E+00    3.322E+00
     3.187E+00    3.052E+00    2.916E+00    2.781E+00    2.645E+00    2.508E+00    2.372E+00    2.235E+00    2.098E+00    1.960E+00
     1.823E+00    1.685E+00    1.546E+00    1.408E+00    1.269E+00    1.130E+00    9.905E-01    8.509E-01    7.110E-01    5.707E-01
     4.303E-01    2.895E-01    1.485E-01    7.175E-03   -1.344E-01   -2.762E-01   -4.183E-01   -5.607E-01   -7.033E-01   -8.463E-01
    -9.894E-01   -1.133E+00   -1.277E+00   -1.421E+00   -1.565E+00   -1.709E+00   -1.854E+00   -1.999E+00   -2.144E+00   -2.290E+00
    -2.435E+00   -2.581E+00   -2.728E+00   -2.874E+00   -3.021E+00   -3.168E+00   -3.315E+00   -3.463E+00   -3.611E+00   -3.759E+00
    -3.907E+00   -4.055E+00   -4.204E+00   -4.353E+00   -4.502E+00   -4.652E+00   -4.801E+00   -4.951E+00   -5.101E+00   -5.252E+00
    -5.402E+00   -5.553E+00   -5.704E+00   -5.855E+00   -6.006E+00   -6.157E+00   -6.309E+00   -6.460E+00   -6.612E+00   -6.763E+00
    -6.915E+00   -7.066E+00   -7.218E+00   -7.369E+00   -7.521E+00   -7.672E+00   -7.824E+00   -7.975E+00   -8.127E+00   -8.278E+00
    -8.429E+00   -8.580E+00   -8.731E+00   -8.881E+00   -9.032E+00   -9.182E+00   -9.332E+00   -9.482E+00   -9.632E+00   -9.781E+00
    -9.930E+00   -1.008E+01   -1.023E+01   -1.038E+01   -1.052E+01   -1.067E+01   -1.082E+01   -1.096E+01   -1.111E+01   -1.126E+01
    -1.140E+01   -1.155E+01   -1.169E+01   -1.184E+01   -1.198E+01   -1.212E+01   -1.227E+01   -1.241E+01   -1.255E+01   -1.269E+01
    -1.283E+01   -1.297E+01   -1.312E+01   -1.325E+01   -1.339E+01   -1.353E+01   -1.367E+01   -1.381E+01   -1.395E+01   -1.409E+01
    -1.422E+01   -1.436E+01   -1.449E+01   -1.463E+01   -1.477E+01   -1.490E+01   -1.503E+01   -1.517E+01   -1.530E+01   -1.543E+01
    -1.557E+01   -1.570E+01   -1.583E+01   -1.596E+01   -1.609E+01   -1.622E+01   -1.635E+01   -1.648E+01   -1.661E+01   -1.674E+01
    -1.687E+01   -1.700E+01   -1.713E+01   -1.725E+01   -1.738E+01   -1.751E+01   -1.763E+01   -1.776E+01   -1.789E+01   -1.801E+01
    -1.814E+01   -1.826E+01   -1.838E+01   -1.851E+01   -1.863E+01   -1.875E+01   -1.887E+01   -1.899E+01   -1.911E+01   -1.923E+01
    -1.935E+01   -1.947E+01   -1.959E+01   -1.970E+01   -1.982E+01   -1.994E+01   -2.005E+01   -2.017E+01   -2.028E+01   -2.039E+01
    -2.050E+01   -2.061E+01   -2.072E+01   -2.083E+01   -2.094E+01   -2.105E+01   -2.116E+01   -2.126E+01   -2.137E+01   -2.147E+01
    -2.157E+01   -2.167E+01   -2.177E+01   -2.187E+01   -2.197E+01   -2.207E+01   -2.217E+01   -2.226E+01   -2.236E+01   -2.245E+01
    -2.254E+01   -2.263E+01   -2.272E+01   -2.281E+01   -2.290E+01   -2.298E+01   -2.307E+01   -2.315E+01   -2.323E+01   -2.331E+01
    -2.339E+01   -2.347E+01   -2.354E+01   -2.362E+01   -2.369E+01   -2.376E+01   -2.383E+01   -2.390E+01   -2.397E+01   -2.403E+01
    -2.410E+01   -2.416E+01   -2.422E+01   -2.428E+01   -2.433E+01   -2.439E+01   -2.444E+01   -2.449E+01   -2.454E+01   -2.459E+01
    -2.464E+01   -2.468E+01   -2.472E+01   -2.476E+01   -2.480E+01   -2.483E+01   -2.487E+01   -2.490E+01   -2.493E+01   -2.496E+01
    -2.498E+01   -2.501E+01   -2.503E+01   -2.505E+01   -2.506E+01   -2.508E+01   -2.509E+01   -2.510E+01   -2.511E+01   -2.511E+01
    -2.512E+01   -2.512E+01   -2.512E+01   -2.511E+01   -2.511E+01   -2.510E+01   -2.509E+01   -2.508E+01   -2.506E+01   -2.505E+01
    -2.503E+01   -2.501E+01   -2.499E+01   -2.496E+01   -2.493E+01   -2.491E+01   -2.488E+01   -2.484E+01   -2.481E+01   -2.477E+01
    -2.473E+01   -2.469E+01   -2.465E+01   -2.461E+01   -2.456E+01   -2.452E+01   -2.447E+01   -2.442E+01   -2.436E+01   -2.431E+01
    -2.425E+01   -2.419E+01   -2.414E+01   -2.407E+01   -2.401E+01   -2.395E+01   -2.388E+01   -2.381E+01   -2.374E+01   -2.367E+01
    -2.360E+01   -2.353E+01   -2.345E+01   -2.338E+01   -2.330E+01   -2.322E+01   -2.314E+01   -2.305E+01   -2.297E+01   -2.289E+01
    -2.280E+01   -2.271E+01   -2.262E+01   -2.253E+01   -2.244E+01   -2.235E+01   -2.225E+01   -2.215E+01   -2.206E+01   -2.196E+01
    -2.186E+01   -2.176E+01   -2.165E+01   -2.155E+01   -2.145E+01   -2.134E+01   -2.123E+01   -2.112E+01   -2.101E+01   -2.090E+01
    -2.079E+01   -2.068E+01   -2.056E+01   -2.045E+01   -2.033E+01   -2.021E+01   -2.009E+01   -1.997E+01   -1.985E+01   -1.973E+01
    -1.961E+01   -1.948E+01   -1.936E+01   -1.923E+01   -1.910E+01   -1.897E+01   -1.884E+01   -1.871E+01   -1.858E+01   -1.845E+01
    -1.832E+01   -1.818E+01   -1.805E+01   -1.791E+01   -1.778E+01   -1.764E+01   -1.750E+01   -1.736E+01   -1.722E+01   -1.708E+01
    -1.694E+01   -1.680E+01   -1.665E+01   -1.651E+01   -1.637E+01   -1.622E+01   -1.608E+01   -1.593E+01   -1.579E+01   -1.564E+01
    -1.549E+01   -1.534E+01   -1.520E+01   -1.505E+01   -1.490E+01   -1.475E+01   -1.460E+01   -1.445E+01   -1.430E+01   -1.415E+01
    -1.400E+01   -1.384E+01   -1.369E+01   -1.354E+01   -1.339E+01   -1.324E+01   -1.308E+01   -1.293E+01   -1.278E+01   -1.262E+01
    -1.247E+01   -1.232E+01   -1.216E+01   -1.201E+01   -1.186E+01   -1.170E+01   -1.155E+01   -1.140E+01   -1.124E+01   -1.109E+01
    -1.094E+01   -1.078E+01   -1.063E+01   -1.048E+01   -1.032E+01   -1.017E+01   -1.002E+01   -9.864E+00   -9.710E+00   -9.557E+00
    -9.403E+00   -9.250E+00   -9.097E+00   -8.943E+00   -8.790E+00   -8.637E+00   -8.484E+00   -8.330E+00   -8.177E+00   -8.024E+00
    -7.871E+00   -7.718E+00   -7.565E+00   -7.412E+00   -7.259E+00   -7.106E+00   -6.954E+00   -6.801E+00   -6.648E+00   -6.496E+00
    -6.344E+00   -6.191E+00   -6.039E+00   -5.887E+00   -5.735E+00   -5.583E+00   -5.431E+00   -5.279E+00
 Cr       Conc. = 1.72E+03
