 LCModel (Version 6.3-1L) Copyright: S.W. Provencher.          Ref.: Magn. Reson. Med. 30:672-679 (1993).                
 Slice#2 Row#10 Col#1  PD_24_press_2_raw_act
 36 lines in following concentration table = NCONC+1
    Conc.  %SD /Cr+PCr  Metabolite                                         
    0.000 999%   0.000 Ala                                                 
 4.50E+03  15%  11.210 Asp                                                 
  401.385  23%   1.000 Cr                                                  
    0.000 999%   0.000 PCr                                                 
    0.000 999%   0.000 GABA                                                
  110.309 272%   0.275 Glc                                                 
    0.000 999%   0.000 Gln                                                 
  429.838 177%   1.071 Glu                                                 
    0.000 999%   0.000 GPC                                                 
    0.000 999%   0.000 PCh                                                 
    0.000 999%   0.000 GSH                                                 
 1.83E+03  21%   4.562 Ins                                                 
 2.51E+03  23%   6.256 Lac                                                 
 4.10E+03  14%  10.203 NAA                                                 
    0.000 999%   0.000 NAAG                                                
  142.819  28%   0.356 Scyllo                                              
 2.32E+03  23%   5.769 Tau                                                 
    0.000 999%   0.000 -CrCH2                                              
    0.000 999%   0.000 GPC+PCh                                             
 4.10E+03  14%  10.203 NAA+NAAG                                            
  401.385  23%   1.000 Cr+PCr                                              
  429.838 177%   1.071 Glu+Gln                                             
 3.05E+05   7% 759.520 Lip13a                                              
    0.000 999%   0.000 Lip13b                                              
 8.40E+04  10% 209.176 Lip09                                               
 2.30E+04  12%  57.315 MM09                                                
 7.99E+04   7% 199.134 Lip20                                               
 8.55E+04   7% 213.017 MM20                                                
    0.000 999%   0.000 MM12                                                
 1.30E+05   8% 324.313 MM14                                                
 4.73E+04  12% 117.957 MM17                                                
 3.05E+05   7% 759.520 Lip13a+Lip13b                                       
 4.35E+05   5% 1.1E+03 MM14+Lip13a+Lip13b+MM12                             
 1.07E+05   8% 266.491 MM09+Lip09                                          
 1.65E+05   3% 412.151 MM20+Lip20                                          
   6 lines in following misc. output table
  FWHM = 0.107 ppm    S/N =  31                                            
  Data shift = 0.237 ppm                                                   
  Ph:  34 deg      62.5 deg/ppm                                            
  alphaB,S = 4.2E-01,   1.2E+01                                            
    7 spline knots.   Ns = 9(2)                                            
  ( 4) 2 infls.   ( 2) 2 extrs.                                            
  498 points on ppm-axis = NY
      4.000000     3.992357     3.984714     3.977070     3.969427     3.961784     3.954141     3.946497     3.938854     3.931211
      3.923568     3.915925     3.908281     3.900638     3.892995     3.885352     3.877708     3.870065     3.862422     3.854779
      3.847136     3.839492     3.831849     3.824206     3.816563     3.808919     3.801276     3.793633     3.785990     3.778347
      3.770703     3.763060     3.755417     3.747774     3.740130     3.732487     3.724844     3.717201     3.709558     3.701914
      3.694271     3.686628     3.678985     3.671341     3.663698     3.656055     3.648412     3.640769     3.633125     3.625482
      3.617839     3.610196     3.602552     3.594909     3.587266     3.579623     3.571980     3.564336     3.556693     3.549050
      3.541407     3.533763     3.526120     3.518477     3.510834     3.503191     3.495547     3.487904     3.480261     3.472618
      3.464974     3.457331     3.449688     3.442045     3.434402     3.426758     3.419115     3.411472     3.403829     3.396185
      3.388542     3.380899     3.373256     3.365613     3.357969     3.350326     3.342683     3.335040     3.327396     3.319753
      3.312110     3.304467     3.296824     3.289180     3.281537     3.273894     3.266251     3.258607     3.250964     3.243321
      3.235678     3.228034     3.220391     3.212748     3.205105     3.197462     3.189818     3.182175     3.174532     3.166889
      3.159245     3.151602     3.143959     3.136316     3.128673     3.121029     3.113386     3.105743     3.098100     3.090456
      3.082813     3.075170     3.067527     3.059884     3.052240     3.044597     3.036954     3.029311     3.021667     3.014024
      3.006381     2.998738     2.991095     2.983451     2.975808     2.968165     2.960522     2.952878     2.945235     2.937592
      2.929949     2.922306     2.914662     2.907019     2.899376     2.891733     2.884089     2.876446     2.868803     2.861160
      2.853517     2.845873     2.838230     2.830587     2.822944     2.815300     2.807657     2.800014     2.792371     2.784728
      2.777084     2.769441     2.761798     2.754155     2.746511     2.738868     2.731225     2.723582     2.715939     2.708295
      2.700652     2.693009     2.685366     2.677722     2.670079     2.662436     2.654793     2.647150     2.639506     2.631863
      2.624220     2.616577     2.608933     2.601290     2.593647     2.586004     2.578361     2.570717     2.563074     2.555431
      2.547788     2.540144     2.532501     2.524858     2.517215     2.509572     2.501928     2.494285     2.486642     2.478999
      2.471355     2.463712     2.456069     2.448426     2.440783     2.433139     2.425496     2.417853     2.410210     2.402566
      2.394923     2.387280     2.379637     2.371994     2.364350     2.356707     2.349064     2.341421     2.333777     2.326134
      2.318491     2.310848     2.303205     2.295561     2.287918     2.280275     2.272632     2.264988     2.257345     2.249702
      2.242059     2.234416     2.226772     2.219129     2.211486     2.203843     2.196199     2.188556     2.180913     2.173270
      2.165627     2.157983     2.150340     2.142697     2.135054     2.127410     2.119767     2.112124     2.104481     2.096838
      2.089194     2.081551     2.073908     2.066265     2.058621     2.050978     2.043335     2.035692     2.028049     2.020405
      2.012762     2.005119     1.997476     1.989833     1.982190     1.974546     1.966903     1.959260     1.951617     1.943974
      1.936331     1.928688     1.921045     1.913402     1.905759     1.898115     1.890472     1.882829     1.875186     1.867543
      1.859900     1.852257     1.844614     1.836971     1.829327     1.821684     1.814041     1.806398     1.798755     1.791112
      1.783469     1.775826     1.768183     1.760540     1.752896     1.745253     1.737610     1.729967     1.722324     1.714681
      1.707038     1.699395     1.691752     1.684108     1.676465     1.668822     1.661179     1.653536     1.645893     1.638250
      1.630607     1.622964     1.615321     1.607677     1.600034     1.592391     1.584748     1.577105     1.569462     1.561819
      1.554176     1.546533     1.538890     1.531246     1.523603     1.515960     1.508317     1.500674     1.493031     1.485388
      1.477745     1.470102     1.462458     1.454815     1.447172     1.439529     1.431886     1.424243     1.416600     1.408957
      1.401314     1.393671     1.386027     1.378384     1.370741     1.363098     1.355455     1.347812     1.340169     1.332526
      1.324883     1.317240     1.309596     1.301953     1.294310     1.286667     1.279024     1.271381     1.263738     1.256095
      1.248452     1.240808     1.233165     1.225522     1.217879     1.210236     1.202593     1.194950     1.187307     1.179664
      1.172021     1.164377     1.156734     1.149091     1.141448     1.133805     1.126162     1.118519     1.110876     1.103233
      1.095590     1.087946     1.080303     1.072660     1.065017     1.057374     1.049731     1.042088     1.034445     1.026802
      1.019158     1.011515     1.003872     0.996229     0.988586     0.980943     0.973300     0.965657     0.958014     0.950371
      0.942727     0.935084     0.927441     0.919798     0.912155     0.904512     0.896869     0.889226     0.881583     0.873940
      0.866296     0.858653     0.851010     0.843367     0.835724     0.828081     0.820438     0.812795     0.805152     0.797508
      0.789865     0.782222     0.774579     0.766936     0.759293     0.751650     0.744007     0.736364     0.728721     0.721077
      0.713434     0.705791     0.698148     0.690505     0.682862     0.675219     0.667576     0.659933     0.652290     0.644646
      0.637003     0.629360     0.621717     0.614074     0.606431     0.598788     0.591145     0.583502     0.575858     0.568215
      0.560572     0.552929     0.545286     0.537643     0.530000     0.522357     0.514714     0.507071     0.499427     0.491784
      0.484141     0.476498     0.468855     0.461212     0.453569     0.445925     0.438282     0.430639     0.422996     0.415353
      0.407710     0.400067     0.392424     0.384780     0.377137     0.369494     0.361851     0.354208     0.346565     0.338922
      0.331278     0.323635     0.315992     0.308349     0.300706     0.293063     0.285420     0.277777     0.270133     0.262490
      0.254847     0.247204     0.239561     0.231918     0.224275     0.216631     0.208988     0.201345
 NY phased data points follow
  -5.17476E+01 -5.34292E+01 -4.87574E+01 -5.10679E+01 -4.45140E+01 -5.12737E+01 -4.55200E+01 -5.17064E+01 -4.51209E+01 -4.96249E+01
  -4.25557E+01 -4.78566E+01 -4.18908E+01 -3.86693E+01 -3.80541E+01 -3.54120E+01 -3.71462E+01 -3.88986E+01 -2.97458E+01 -3.58913E+01
  -3.12297E+01 -3.15787E+01 -3.12926E+01 -3.34491E+01 -2.93185E+01 -2.86446E+01 -2.69964E+01 -2.75132E+01 -2.42922E+01 -2.19791E+01
  -2.31110E+01 -2.43517E+01 -1.87956E+01 -2.17097E+01 -1.79204E+01 -1.85042E+01 -1.60885E+01 -1.56706E+01 -1.34141E+01 -1.54563E+01
  -1.00878E+01 -9.42567E+00 -7.15122E+00 -1.36053E+01 -6.93513E+00 -6.07090E+00 -7.20553E+00 -8.37800E+00 -3.26219E+00 -3.24562E+00
  -3.17081E-01 -5.02322E+00  3.11772E+00  1.16540E+00  2.37359E+00  3.43532E+00  6.40119E+00  3.58715E+00  8.42758E+00  8.63712E+00
   1.08091E+01  9.23615E+00  1.47777E+01  1.01281E+01  1.60544E+01  1.63141E+01  1.78372E+01  1.70054E+01  1.98851E+01  1.35525E+01
   2.09923E+01  1.95597E+01  2.62983E+01  2.71533E+01  2.68220E+01  3.13692E+01  2.90491E+01  2.71039E+01  2.52828E+01  2.62674E+01
   3.32249E+01  2.54541E+01  2.93661E+01  2.95339E+01  2.76979E+01  2.90317E+01  2.67451E+01  2.77680E+01  2.74982E+01  2.34763E+01
   2.36089E+01  1.97654E+01  2.68856E+01  1.85789E+01  2.28849E+01  1.20320E+01  1.80083E+01  1.90053E+01  2.05963E+01  1.95662E+01
   2.03828E+01  1.99416E+01  1.53320E+01  1.31216E+01  1.62720E+01  1.53949E+01  1.72569E+01  1.53649E+01  1.74383E+01  1.61964E+01
   2.07459E+01  1.72505E+01  2.27155E+01  2.23284E+01  2.45771E+01  2.38520E+01  2.85624E+01  2.91579E+01  3.34150E+01  3.01354E+01
   3.64089E+01  3.54420E+01  4.14751E+01  4.03316E+01  4.42780E+01  4.72715E+01  5.04105E+01  5.23366E+01  5.30218E+01  5.06659E+01
   5.68712E+01  5.83206E+01  6.27384E+01  6.52161E+01  6.37133E+01  6.65342E+01  6.84618E+01  7.06058E+01  6.88420E+01  6.88860E+01
   7.25975E+01  7.13135E+01  7.22572E+01  6.71075E+01  6.90911E+01  6.61586E+01  6.45143E+01  6.33429E+01  6.18472E+01  5.65839E+01
   5.67544E+01  4.99000E+01  4.73129E+01  3.99472E+01  4.01475E+01  3.31597E+01  2.83829E+01  2.49273E+01  2.00266E+01  1.51998E+01
   8.64317E+00  2.33381E+00 -4.36933E+00 -9.44593E+00 -1.93041E+01 -2.43865E+01 -2.65380E+01 -3.42977E+01 -3.66517E+01 -4.76479E+01
  -4.88295E+01 -5.48784E+01 -6.13636E+01 -6.88096E+01 -6.94430E+01 -8.20033E+01 -8.63004E+01 -9.78739E+01 -1.01649E+02 -1.11404E+02
  -1.24030E+02 -1.27087E+02 -1.36017E+02 -1.45510E+02 -1.55177E+02 -1.65052E+02 -1.74085E+02 -1.80336E+02 -1.91576E+02 -2.01768E+02
  -2.09033E+02 -2.18838E+02 -2.25126E+02 -2.26739E+02 -2.37179E+02 -2.42277E+02 -2.44952E+02 -2.48280E+02 -2.46122E+02 -2.52736E+02
  -2.49055E+02 -2.50860E+02 -2.51639E+02 -2.50498E+02 -2.47879E+02 -2.46450E+02 -2.41220E+02 -2.39202E+02 -2.31302E+02 -2.31513E+02
  -2.22971E+02 -2.20229E+02 -2.14844E+02 -2.10371E+02 -2.08376E+02 -2.02248E+02 -1.91165E+02 -1.86607E+02 -1.80664E+02 -1.76522E+02
  -1.72359E+02 -1.66359E+02 -1.59737E+02 -1.54589E+02 -1.48402E+02 -1.42325E+02 -1.34383E+02 -1.25309E+02 -1.23978E+02 -1.16637E+02
  -1.05463E+02 -9.99750E+01 -9.02462E+01 -9.13289E+01 -8.62889E+01 -8.14306E+01 -8.06723E+01 -7.18946E+01 -6.29246E+01 -5.84885E+01
  -5.42963E+01 -4.86740E+01 -4.17972E+01 -3.72378E+01 -3.04143E+01 -3.10150E+01 -2.49222E+01 -2.17895E+01 -1.70076E+01 -1.33899E+01
  -6.39794E+00 -7.14307E+00  1.29624E+00  2.67015E+00  4.50230E+00  8.10561E+00  1.35117E+01  1.64409E+01  1.52115E+01  1.91002E+01
   2.22332E+01  1.98876E+01  2.39700E+01  2.33861E+01  2.45715E+01  2.09890E+01  1.93348E+01  1.34318E+01  9.49267E+00 -2.00414E+00
  -1.21411E+01 -2.98686E+01 -4.78534E+01 -6.81569E+01 -9.24953E+01 -1.26795E+02 -1.57295E+02 -1.98659E+02 -2.37289E+02 -2.80484E+02
  -3.26996E+02 -3.70299E+02 -4.09303E+02 -4.48798E+02 -4.85809E+02 -5.12262E+02 -5.37751E+02 -5.55324E+02 -5.67458E+02 -5.75383E+02
  -5.71271E+02 -5.66259E+02 -5.54466E+02 -5.38768E+02 -5.19554E+02 -4.97972E+02 -4.73350E+02 -4.45557E+02 -4.23001E+02 -4.01923E+02
  -3.73913E+02 -3.53890E+02 -3.32440E+02 -3.15025E+02 -2.92062E+02 -2.72081E+02 -2.53905E+02 -2.42216E+02 -2.22272E+02 -2.09586E+02
  -1.95402E+02 -1.84306E+02 -1.70518E+02 -1.64714E+02 -1.50845E+02 -1.44362E+02 -1.35450E+02 -1.27960E+02 -1.16201E+02 -1.15118E+02
  -1.06250E+02 -1.01223E+02 -9.57755E+01 -8.70827E+01 -8.32646E+01 -7.78262E+01 -7.48920E+01 -7.34645E+01 -6.89237E+01 -6.38731E+01
  -6.50877E+01 -6.08488E+01 -5.78889E+01 -5.71384E+01 -5.35565E+01 -5.67289E+01 -5.25179E+01 -5.30733E+01 -5.47748E+01 -5.34115E+01
  -5.48094E+01 -5.41824E+01 -5.40884E+01 -5.31415E+01 -5.42371E+01 -5.60846E+01 -5.69052E+01 -5.53372E+01 -5.26073E+01 -5.04098E+01
  -5.38206E+01 -5.04124E+01 -4.96865E+01 -4.92306E+01 -4.53710E+01 -4.72560E+01 -4.63452E+01 -4.50526E+01 -4.11046E+01 -4.17286E+01
  -3.95578E+01 -4.14364E+01 -4.02623E+01 -3.63794E+01 -3.45086E+01 -3.40061E+01 -3.40689E+01 -3.08999E+01 -2.78704E+01 -2.92537E+01
  -2.68941E+01 -2.48205E+01 -2.44512E+01 -2.59546E+01 -2.28934E+01 -2.37605E+01 -2.08157E+01 -1.91091E+01 -1.95545E+01 -1.83493E+01
  -2.09324E+01 -1.94011E+01 -1.81784E+01 -1.59027E+01 -1.24929E+01 -1.40223E+01 -1.50510E+01 -1.32046E+01 -1.38624E+01 -1.44264E+01
  -1.05759E+01 -1.18617E+01 -9.76755E+00 -1.12743E+01 -7.26379E+00 -5.35376E+00 -4.61346E+00 -7.90171E+00 -5.57766E+00 -4.40651E+00
  -6.35284E+00 -4.84020E+00 -6.60176E+00 -4.17136E+00 -5.05025E+00 -6.97925E+00 -1.23874E+00 -3.51790E+00 -2.55418E+00 -1.90548E+00
  -3.93380E+00 -4.55950E+00 -3.33521E+00 -1.91125E+00  4.61662E-01 -5.33428E-02  8.80437E-01 -1.42366E+00 -3.42932E+00  7.13101E-01
   1.45573E+00  3.18934E+00  2.56454E+00  7.35624E-01  1.68662E+00  2.92888E+00  3.67330E+00  4.11561E+00  6.50218E+00  7.47556E+00
   5.25316E+00  4.75621E+00  5.98038E+00  7.24817E+00  5.33310E+00  4.05238E+00  8.41412E+00  6.81399E+00  5.12272E+00  5.08743E+00
   8.20866E+00  6.20092E+00  6.25839E+00  5.31029E+00  9.66208E+00  1.10668E+01  7.38288E+00  1.17626E+01  1.55803E+01  1.23994E+01
   1.48852E+01  1.17025E+01  1.04971E+01  1.04202E+01  1.08587E+01  9.76259E+00  1.22651E+01  1.02269E+01  1.10770E+01  1.24790E+01
   9.60802E+00  1.24273E+01  1.12475E+01  1.26368E+01  1.44765E+01  1.22711E+01  1.51842E+01  1.47145E+01  1.69182E+01  1.56592E+01
   1.34828E+01  1.41698E+01  1.48675E+01  1.62325E+01  1.44541E+01  1.47032E+01  1.61742E+01  1.69191E+01  1.71965E+01  1.46369E+01
   1.16408E+01  1.31554E+01  1.89115E+01  1.73137E+01  1.37029E+01  1.08590E+01  1.53299E+01  1.67380E+01  1.97706E+01  1.63710E+01
   1.42470E+01  1.51651E+01  1.81190E+01  1.64993E+01  1.85740E+01  1.92712E+01  1.63720E+01  1.91211E+01
 NY points of the fit to the data follow
  -5.22759E+01 -4.83428E+01 -4.83717E+01 -4.51105E+01 -4.39523E+01 -4.28952E+01 -4.37537E+01 -4.40740E+01 -4.53707E+01 -4.60508E+01
  -4.79479E+01 -4.84631E+01 -4.79400E+01 -4.64065E+01 -4.49524E+01 -4.19247E+01 -4.15872E+01 -3.70566E+01 -3.68365E+01 -3.30119E+01
  -3.37219E+01 -2.96444E+01 -3.05493E+01 -2.68071E+01 -2.67553E+01 -2.27368E+01 -2.41233E+01 -2.36643E+01 -2.48019E+01 -2.68692E+01
  -2.50973E+01 -2.53521E+01 -2.19477E+01 -2.08449E+01 -1.70803E+01 -1.38738E+01 -1.16162E+01 -9.16147E+00 -1.03944E+01 -9.94224E+00
  -9.31956E+00 -8.43553E+00 -7.53021E+00 -6.38760E+00 -5.22235E+00 -3.55663E+00 -2.23263E+00 -6.96242E-01  2.59938E-01  2.07688E+00
   2.25821E+00  3.81200E+00  4.64697E+00  5.65509E+00  5.49390E+00  6.69941E+00  5.51273E+00  4.12146E+00  4.63747E+00  4.89292E+00
   6.35387E+00  6.08724E+00  7.92073E+00  6.04876E+00  7.77652E+00  6.36854E+00  8.70914E+00  6.70499E+00  8.56190E+00  1.05936E+01
   1.52075E+01  1.74255E+01  1.99809E+01  2.12729E+01  2.23477E+01  2.54732E+01  2.56869E+01  2.86212E+01  2.71253E+01  2.88578E+01
   2.42015E+01  2.76524E+01  2.48713E+01  2.78108E+01  2.55879E+01  2.78822E+01  2.53400E+01  2.55971E+01  2.49842E+01  2.20707E+01
   2.33967E+01  1.96847E+01  2.11496E+01  1.65706E+01  1.91994E+01  1.28967E+01  1.77669E+01  1.50442E+01  1.96973E+01  1.67203E+01
   1.94940E+01  1.61607E+01  1.70100E+01  1.60248E+01  1.67698E+01  1.75569E+01  1.68520E+01  2.01608E+01  1.98853E+01  2.14443E+01
   2.01732E+01  2.30530E+01  2.15321E+01  2.58815E+01  2.50414E+01  2.78053E+01  2.64028E+01  2.85166E+01  2.72152E+01  3.00230E+01
   3.33901E+01  3.78086E+01  4.10825E+01  4.44927E+01  4.65812E+01  4.73438E+01  5.02667E+01  5.30546E+01  5.51183E+01  5.88241E+01
   6.03444E+01  6.38541E+01  6.45611E+01  6.77794E+01  6.74739E+01  6.99515E+01  6.89481E+01  7.08443E+01  6.97725E+01  7.19297E+01
   6.96039E+01  7.05912E+01  6.82902E+01  6.99291E+01  6.84958E+01  6.98752E+01  6.54676E+01  6.49863E+01  6.11834E+01  6.35423E+01
   6.02614E+01  6.14349E+01  5.72608E+01  5.65451E+01  5.11589E+01  4.80558E+01  4.25304E+01  3.71784E+01  3.20897E+01  2.58246E+01
   2.13994E+01  1.04459E+01  4.68904E+00 -8.60704E+00 -1.44275E+01 -2.41934E+01 -3.00508E+01 -4.04698E+01 -4.67485E+01 -5.64163E+01
  -6.21557E+01 -6.93123E+01 -7.47223E+01 -8.20538E+01 -8.87439E+01 -9.51225E+01 -1.02194E+02 -1.07694E+02 -1.16657E+02 -1.24187E+02
  -1.33659E+02 -1.41276E+02 -1.49332E+02 -1.57859E+02 -1.67123E+02 -1.77248E+02 -1.83187E+02 -1.93574E+02 -1.96513E+02 -2.05758E+02
  -2.07239E+02 -2.15842E+02 -2.16182E+02 -2.23698E+02 -2.22736E+02 -2.28824E+02 -2.27506E+02 -2.31181E+02 -2.30949E+02 -2.33550E+02
  -2.34921E+02 -2.35493E+02 -2.37744E+02 -2.34552E+02 -2.35018E+02 -2.31145E+02 -2.31103E+02 -2.26910E+02 -2.26047E+02 -2.21698E+02
  -2.20511E+02 -2.18171E+02 -2.17947E+02 -2.15344E+02 -2.13287E+02 -2.10042E+02 -2.06064E+02 -2.02231E+02 -1.96453E+02 -1.91975E+02
  -1.83875E+02 -1.78382E+02 -1.69427E+02 -1.63557E+02 -1.54546E+02 -1.48845E+02 -1.40557E+02 -1.34226E+02 -1.26191E+02 -1.20169E+02
  -1.13279E+02 -1.07726E+02 -1.01940E+02 -9.64193E+01 -9.11201E+01 -8.49324E+01 -8.00400E+01 -7.32686E+01 -6.61811E+01 -5.72348E+01
  -4.74524E+01 -3.60008E+01 -2.42396E+01 -1.75653E+01 -3.01524E+01 -2.54685E+01 -2.82957E+01 -1.91345E+01 -2.08867E+01 -1.13584E+01
  -1.43147E+01 -5.29778E+00 -6.17644E+00  1.59057E+00  1.65749E+00  7.28420E+00  1.01678E+01  1.27950E+01  1.62335E+01  1.54512E+01
   2.17935E+01  1.83624E+01  2.73463E+01  2.08536E+01  2.93868E+01  1.90267E+01  2.48964E+01  1.10498E+01  1.36110E+01 -4.11065E+00
  -9.82482E+00 -3.19929E+01 -4.62848E+01 -7.28869E+01 -9.81548E+01 -1.29633E+02 -1.66985E+02 -2.02133E+02 -2.45224E+02 -2.81765E+02
  -3.30085E+02 -3.69251E+02 -4.27639E+02 -4.61695E+02 -4.84852E+02 -5.02950E+02 -5.17595E+02 -5.29189E+02 -5.37770E+02 -5.43317E+02
  -5.45670E+02 -5.44766E+02 -5.40413E+02 -5.32646E+02 -5.21386E+02 -5.06759E+02 -4.88885E+02 -4.68129E+02 -4.44861E+02 -4.19642E+02
  -3.93046E+02 -3.65757E+02 -3.38474E+02 -3.11877E+02 -2.86593E+02 -2.63166E+02 -2.42011E+02 -2.23404E+02 -2.07459E+02 -1.94134E+02
  -1.83237E+02 -1.74451E+02 -1.67358E+02 -1.61488E+02 -1.56350E+02 -1.51474E+02 -1.46442E+02 -1.40921E+02 -1.34677E+02 -1.27593E+02
  -1.19661E+02 -1.10985E+02 -1.01755E+02 -9.22444E+01 -8.27792E+01 -7.37396E+01 -6.55721E+01 -5.89140E+01 -5.53396E+01 -5.76351E+01
  -5.51756E+01 -5.44296E+01 -5.31028E+01 -5.32674E+01 -5.27989E+01 -5.15120E+01 -4.88853E+01 -5.32705E+01 -5.49766E+01 -5.88431E+01
  -5.98134E+01 -6.20052E+01 -6.21738E+01 -6.37525E+01 -6.34019E+01 -6.26932E+01 -6.13504E+01 -5.89151E+01 -5.73450E+01 -5.37551E+01
  -5.19647E+01 -4.84137E+01 -4.71816E+01 -4.34721E+01 -4.29541E+01 -4.00293E+01 -3.98277E+01 -3.75413E+01 -3.77298E+01 -3.69338E+01
  -3.76451E+01 -3.78586E+01 -3.78524E+01 -3.79094E+01 -3.74570E+01 -3.77941E+01 -3.69969E+01 -3.88322E+01 -3.46616E+01 -2.71966E+01
  -2.19968E+01 -1.77535E+01 -1.37662E+01 -1.26598E+01 -1.01537E+01 -1.67830E+01 -2.19909E+01 -2.53560E+01 -2.74615E+01 -2.85742E+01
  -2.88413E+01 -2.83688E+01 -2.72519E+01 -2.55865E+01 -2.34748E+01 -2.10268E+01 -1.83589E+01 -1.55899E+01 -1.28359E+01 -1.02047E+01
  -7.79206E+00 -5.67801E+00 -3.92423E+00 -2.57202E+00 -1.63956E+00 -1.12327E+00 -9.99469E-01 -1.22716E+00 -1.75233E+00 -2.51039E+00
  -3.43031E+00 -4.43823E+00 -5.46258E+00 -6.43712E+00 -7.30332E+00 -8.01258E+00 -8.52629E+00 -8.81687E+00 -8.86857E+00 -8.67746E+00
  -8.24834E+00 -7.59490E+00 -6.73703E+00 -5.70015E+00 -4.51414E+00 -3.21128E+00 -1.82482E+00 -3.87822E-01  1.06878E+00  2.51505E+00
   3.92367E+00  5.27030E+00  6.53427E+00  7.69875E+00  8.75051E+00  9.67975E+00  1.04793E+01  1.11457E+01  1.16788E+01  1.20806E+01
   1.23557E+01  1.25101E+01  1.25514E+01  1.24886E+01  1.23320E+01  1.20922E+01  1.17804E+01  1.14074E+01  1.09841E+01  1.05213E+01
   1.00299E+01  9.51955E+00  8.99987E+00  8.47893E+00  7.96465E+00  7.46437E+00  6.98481E+00  6.53174E+00  6.10972E+00  5.72303E+00
   5.37517E+00  5.06945E+00  4.80844E+00  4.59387E+00  4.42686E+00  4.30834E+00  4.23879E+00  4.21889E+00  4.24828E+00  4.32651E+00
   4.45269E+00  4.62585E+00  4.84519E+00  5.10982E+00  5.41809E+00  5.76861E+00  6.15956E+00  6.58955E+00  7.05717E+00  7.56095E+00
   8.09898E+00  8.66936E+00  9.27056E+00  9.90115E+00  1.05596E+01  1.12444E+01  1.19538E+01  1.26862E+01  1.34402E+01  1.42149E+01
   1.50089E+01  1.58209E+01  1.66495E+01  1.74938E+01  1.83529E+01  1.92263E+01  2.01130E+01  2.10124E+01  2.19238E+01  2.28472E+01
   2.37825E+01  2.47303E+01  2.56906E+01  2.66646E+01  2.76534E+01  2.86598E+01  2.96875E+01  3.07420E+01
 NY background values follow
    -2.273E+02   -2.251E+02   -2.230E+02   -2.208E+02   -2.187E+02   -2.166E+02   -2.146E+02   -2.125E+02   -2.105E+02   -2.085E+02
    -2.065E+02   -2.046E+02   -2.027E+02   -2.008E+02   -1.989E+02   -1.970E+02   -1.952E+02   -1.934E+02   -1.916E+02   -1.899E+02
    -1.881E+02   -1.864E+02   -1.848E+02   -1.831E+02   -1.815E+02   -1.799E+02   -1.784E+02   -1.768E+02   -1.753E+02   -1.738E+02
    -1.724E+02   -1.710E+02   -1.696E+02   -1.682E+02   -1.669E+02   -1.656E+02   -1.643E+02   -1.631E+02   -1.619E+02   -1.607E+02
    -1.595E+02   -1.584E+02   -1.573E+02   -1.562E+02   -1.552E+02   -1.542E+02   -1.532E+02   -1.523E+02   -1.514E+02   -1.505E+02
    -1.497E+02   -1.488E+02   -1.481E+02   -1.473E+02   -1.466E+02   -1.459E+02   -1.452E+02   -1.446E+02   -1.440E+02   -1.434E+02
    -1.428E+02   -1.423E+02   -1.418E+02   -1.414E+02   -1.409E+02   -1.405E+02   -1.402E+02   -1.398E+02   -1.395E+02   -1.392E+02
    -1.390E+02   -1.388E+02   -1.386E+02   -1.384E+02   -1.383E+02   -1.382E+02   -1.381E+02   -1.380E+02   -1.380E+02   -1.380E+02
    -1.380E+02   -1.381E+02   -1.381E+02   -1.383E+02   -1.384E+02   -1.385E+02   -1.387E+02   -1.389E+02   -1.392E+02   -1.394E+02
    -1.397E+02   -1.400E+02   -1.403E+02   -1.407E+02   -1.410E+02   -1.414E+02   -1.419E+02   -1.423E+02   -1.428E+02   -1.432E+02
    -1.438E+02   -1.443E+02   -1.448E+02   -1.454E+02   -1.460E+02   -1.466E+02   -1.472E+02   -1.478E+02   -1.485E+02   -1.492E+02
    -1.499E+02   -1.506E+02   -1.513E+02   -1.520E+02   -1.528E+02   -1.536E+02   -1.543E+02   -1.551E+02   -1.560E+02   -1.568E+02
    -1.576E+02   -1.585E+02   -1.593E+02   -1.602E+02   -1.611E+02   -1.620E+02   -1.629E+02   -1.638E+02   -1.647E+02   -1.657E+02
    -1.666E+02   -1.676E+02   -1.686E+02   -1.696E+02   -1.706E+02   -1.716E+02   -1.726E+02   -1.736E+02   -1.747E+02   -1.758E+02
    -1.769E+02   -1.780E+02   -1.791E+02   -1.802E+02   -1.814E+02   -1.825E+02   -1.837E+02   -1.849E+02   -1.861E+02   -1.874E+02
    -1.886E+02   -1.899E+02   -1.912E+02   -1.925E+02   -1.939E+02   -1.952E+02   -1.966E+02   -1.980E+02   -1.994E+02   -2.008E+02
    -2.023E+02   -2.038E+02   -2.053E+02   -2.068E+02   -2.084E+02   -2.099E+02   -2.115E+02   -2.132E+02   -2.148E+02   -2.165E+02
    -2.182E+02   -2.199E+02   -2.216E+02   -2.234E+02   -2.252E+02   -2.270E+02   -2.289E+02   -2.307E+02   -2.326E+02   -2.346E+02
    -2.365E+02   -2.385E+02   -2.405E+02   -2.426E+02   -2.446E+02   -2.467E+02   -2.489E+02   -2.510E+02   -2.532E+02   -2.554E+02
    -2.577E+02   -2.600E+02   -2.623E+02   -2.646E+02   -2.670E+02   -2.694E+02   -2.718E+02   -2.743E+02   -2.768E+02   -2.793E+02
    -2.819E+02   -2.845E+02   -2.871E+02   -2.897E+02   -2.924E+02   -2.952E+02   -2.979E+02   -3.007E+02   -3.035E+02   -3.064E+02
    -3.093E+02   -3.122E+02   -3.152E+02   -3.182E+02   -3.212E+02   -3.243E+02   -3.274E+02   -3.305E+02   -3.337E+02   -3.369E+02
    -3.401E+02   -3.434E+02   -3.467E+02   -3.501E+02   -3.535E+02   -3.569E+02   -3.604E+02   -3.639E+02   -3.674E+02   -3.710E+02
    -3.746E+02   -3.782E+02   -3.819E+02   -3.856E+02   -3.894E+02   -3.931E+02   -3.970E+02   -4.008E+02   -4.047E+02   -4.087E+02
    -4.126E+02   -4.166E+02   -4.207E+02   -4.248E+02   -4.289E+02   -4.330E+02   -4.372E+02   -4.415E+02   -4.457E+02   -4.500E+02
    -4.544E+02   -4.588E+02   -4.632E+02   -4.676E+02   -4.721E+02   -4.766E+02   -4.811E+02   -4.856E+02   -4.902E+02   -4.948E+02
    -4.994E+02   -5.040E+02   -5.086E+02   -5.132E+02   -5.179E+02   -5.226E+02   -5.272E+02   -5.319E+02   -5.366E+02   -5.413E+02
    -5.460E+02   -5.507E+02   -5.553E+02   -5.600E+02   -5.647E+02   -5.694E+02   -5.740E+02   -5.787E+02   -5.833E+02   -5.879E+02
    -5.925E+02   -5.971E+02   -6.017E+02   -6.062E+02   -6.108E+02   -6.153E+02   -6.197E+02   -6.242E+02   -6.286E+02   -6.330E+02
    -6.374E+02   -6.417E+02   -6.460E+02   -6.502E+02   -6.545E+02   -6.586E+02   -6.628E+02   -6.669E+02   -6.709E+02   -6.749E+02
    -6.789E+02   -6.828E+02   -6.867E+02   -6.905E+02   -6.942E+02   -6.979E+02   -7.016E+02   -7.052E+02   -7.087E+02   -7.122E+02
    -7.156E+02   -7.190E+02   -7.223E+02   -7.255E+02   -7.286E+02   -7.317E+02   -7.348E+02   -7.377E+02   -7.406E+02   -7.434E+02
    -7.462E+02   -7.488E+02   -7.514E+02   -7.540E+02   -7.564E+02   -7.588E+02   -7.611E+02   -7.633E+02   -7.654E+02   -7.674E+02
    -7.694E+02   -7.713E+02   -7.730E+02   -7.747E+02   -7.764E+02   -7.779E+02   -7.793E+02   -7.807E+02   -7.819E+02   -7.831E+02
    -7.842E+02   -7.851E+02   -7.860E+02   -7.868E+02   -7.875E+02   -7.881E+02   -7.886E+02   -7.890E+02   -7.893E+02   -7.896E+02
    -7.897E+02   -7.897E+02   -7.896E+02   -7.894E+02   -7.891E+02   -7.887E+02   -7.882E+02   -7.876E+02   -7.869E+02   -7.861E+02
    -7.852E+02   -7.842E+02   -7.831E+02   -7.819E+02   -7.806E+02   -7.791E+02   -7.776E+02   -7.760E+02   -7.742E+02   -7.724E+02
    -7.704E+02   -7.684E+02   -7.662E+02   -7.639E+02   -7.615E+02   -7.591E+02   -7.565E+02   -7.538E+02   -7.510E+02   -7.481E+02
    -7.452E+02   -7.421E+02   -7.390E+02   -7.357E+02   -7.324E+02   -7.290E+02   -7.256E+02   -7.220E+02   -7.184E+02   -7.147E+02
    -7.109E+02   -7.071E+02   -7.032E+02   -6.992E+02   -6.952E+02   -6.911E+02   -6.870E+02   -6.827E+02   -6.785E+02   -6.742E+02
    -6.698E+02   -6.654E+02   -6.610E+02   -6.565E+02   -6.519E+02   -6.473E+02   -6.427E+02   -6.381E+02   -6.334E+02   -6.286E+02
    -6.239E+02   -6.191E+02   -6.143E+02   -6.094E+02   -6.046E+02   -5.997E+02   -5.947E+02   -5.898E+02   -5.849E+02   -5.799E+02
    -5.749E+02   -5.699E+02   -5.649E+02   -5.599E+02   -5.549E+02   -5.498E+02   -5.448E+02   -5.397E+02   -5.347E+02   -5.296E+02
    -5.246E+02   -5.195E+02   -5.145E+02   -5.095E+02   -5.044E+02   -4.994E+02   -4.944E+02   -4.893E+02   -4.843E+02   -4.793E+02
    -4.744E+02   -4.694E+02   -4.644E+02   -4.595E+02   -4.546E+02   -4.497E+02   -4.448E+02   -4.399E+02   -4.351E+02   -4.302E+02
    -4.254E+02   -4.206E+02   -4.159E+02   -4.112E+02   -4.064E+02   -4.018E+02   -3.971E+02   -3.925E+02   -3.879E+02   -3.833E+02
    -3.788E+02   -3.743E+02   -3.698E+02   -3.653E+02   -3.609E+02   -3.565E+02   -3.522E+02   -3.478E+02   -3.436E+02   -3.393E+02
    -3.351E+02   -3.309E+02   -3.268E+02   -3.226E+02   -3.186E+02   -3.145E+02   -3.105E+02   -3.065E+02   -3.026E+02   -2.987E+02
    -2.948E+02   -2.910E+02   -2.872E+02   -2.834E+02   -2.797E+02   -2.760E+02   -2.724E+02   -2.688E+02   -2.652E+02   -2.616E+02
    -2.581E+02   -2.547E+02   -2.512E+02   -2.478E+02   -2.444E+02   -2.411E+02   -2.378E+02   -2.345E+02
 Asp      Conc. = 4.50E+03
