 LCModel (Version 6.3-1L) Copyright: S.W. Provencher.          Ref.: Magn. Reson. Med. 30:672-679 (1993).                
 Slice#3 Row#4 Col#10  PD_24_press_2_raw_act
 36 lines in following concentration table = NCONC+1
    Conc.  %SD /Cr+PCr  Metabolite                                         
  172.418 120% 7.8E-02 Ala                                                 
    0.000 999%   0.000 Asp                                                 
  581.508  85%   0.264 Cr                                                  
 1.62E+03  31%   0.736 PCr                                                 
    0.000 999%   0.000 GABA                                                
   81.643 282% 3.7E-02 Glc                                                 
 1.13E+03  39%   0.513 Gln                                                 
 2.07E+03  23%   0.942 Glu                                                 
  900.155   4%   0.409 GPC                                                 
    0.000 999%   0.000 PCh                                                 
  647.250  20%   0.294 GSH                                                 
 2.71E+03  15%   1.233 Ins                                                 
    0.000 999%   0.000 Lac                                                 
 2.04E+03  10%   0.927 NAA                                                 
  535.516  44%   0.243 NAAG                                                
  176.828  26% 8.0E-02 Scyllo                                              
  114.374 279% 5.2E-02 Tau                                                 
 1.17E+03  16%   0.534 -CrCH2                                              
  900.155   4%   0.409 GPC+PCh                                             
 2.58E+03   5%   1.171 NAA+NAAG                                            
 2.20E+03   4%   1.000 Cr+PCr                                              
 3.20E+03  22%   1.455 Glu+Gln                                             
  506.418 129%   0.230 Lip13a                                              
    0.000 999%   0.000 Lip13b                                              
   97.691 230% 4.4E-02 Lip09                                               
 1.89E+03  18%   0.861 MM09                                                
   62.392 221% 2.8E-02 Lip20                                               
 3.21E+03  17%   1.457 MM20                                                
  563.565  47%   0.256 MM12                                                
 2.82E+03  21%   1.283 MM14                                                
 1.40E+03  25%   0.634 MM17                                                
  506.418 129%   0.230 Lip13a+Lip13b                                       
 3.89E+03  13%   1.770 MM14+Lip13a+Lip13b+MM12                             
 1.99E+03  13%   0.905 MM09+Lip09                                          
 3.27E+03  16%   1.485 MM20+Lip20                                          
   6 lines in following misc. output table
  FWHM = 0.054 ppm    S/N =   7                                            
  Data shift = 0.023 ppm                                                   
  Ph: -11 deg      -1.0 deg/ppm                                            
  alphaB,S = 8.5E+01,   1.6E+02                                            
   14 spline knots.   Ns = 7(1)                                            
   2 inflections.     1 extrema                                            
  498 points on ppm-axis = NY
      4.000000     3.992357     3.984714     3.977070     3.969427     3.961784     3.954141     3.946497     3.938854     3.931211
      3.923568     3.915925     3.908281     3.900638     3.892995     3.885352     3.877708     3.870065     3.862422     3.854779
      3.847136     3.839492     3.831849     3.824206     3.816563     3.808919     3.801276     3.793633     3.785990     3.778347
      3.770703     3.763060     3.755417     3.747774     3.740130     3.732487     3.724844     3.717201     3.709558     3.701914
      3.694271     3.686628     3.678985     3.671341     3.663698     3.656055     3.648412     3.640769     3.633125     3.625482
      3.617839     3.610196     3.602552     3.594909     3.587266     3.579623     3.571980     3.564336     3.556693     3.549050
      3.541407     3.533763     3.526120     3.518477     3.510834     3.503191     3.495547     3.487904     3.480261     3.472618
      3.464974     3.457331     3.449688     3.442045     3.434402     3.426758     3.419115     3.411472     3.403829     3.396185
      3.388542     3.380899     3.373256     3.365613     3.357969     3.350326     3.342683     3.335040     3.327396     3.319753
      3.312110     3.304467     3.296824     3.289180     3.281537     3.273894     3.266251     3.258607     3.250964     3.243321
      3.235678     3.228034     3.220391     3.212748     3.205105     3.197462     3.189818     3.182175     3.174532     3.166889
      3.159245     3.151602     3.143959     3.136316     3.128673     3.121029     3.113386     3.105743     3.098100     3.090456
      3.082813     3.075170     3.067527     3.059884     3.052240     3.044597     3.036954     3.029311     3.021667     3.014024
      3.006381     2.998738     2.991095     2.983451     2.975808     2.968165     2.960522     2.952878     2.945235     2.937592
      2.929949     2.922306     2.914662     2.907019     2.899376     2.891733     2.884089     2.876446     2.868803     2.861160
      2.853517     2.845873     2.838230     2.830587     2.822944     2.815300     2.807657     2.800014     2.792371     2.784728
      2.777084     2.769441     2.761798     2.754155     2.746511     2.738868     2.731225     2.723582     2.715939     2.708295
      2.700652     2.693009     2.685366     2.677722     2.670079     2.662436     2.654793     2.647150     2.639506     2.631863
      2.624220     2.616577     2.608933     2.601290     2.593647     2.586004     2.578361     2.570717     2.563074     2.555431
      2.547788     2.540144     2.532501     2.524858     2.517215     2.509572     2.501928     2.494285     2.486642     2.478999
      2.471355     2.463712     2.456069     2.448426     2.440783     2.433139     2.425496     2.417853     2.410210     2.402566
      2.394923     2.387280     2.379637     2.371994     2.364350     2.356707     2.349064     2.341421     2.333777     2.326134
      2.318491     2.310848     2.303205     2.295561     2.287918     2.280275     2.272632     2.264988     2.257345     2.249702
      2.242059     2.234416     2.226772     2.219129     2.211486     2.203843     2.196199     2.188556     2.180913     2.173270
      2.165627     2.157983     2.150340     2.142697     2.135054     2.127410     2.119767     2.112124     2.104481     2.096838
      2.089194     2.081551     2.073908     2.066265     2.058621     2.050978     2.043335     2.035692     2.028049     2.020405
      2.012762     2.005119     1.997476     1.989833     1.982190     1.974546     1.966903     1.959260     1.951617     1.943974
      1.936331     1.928688     1.921045     1.913402     1.905759     1.898115     1.890472     1.882829     1.875186     1.867543
      1.859900     1.852257     1.844614     1.836971     1.829327     1.821684     1.814041     1.806398     1.798755     1.791112
      1.783469     1.775826     1.768183     1.760540     1.752896     1.745253     1.737610     1.729967     1.722324     1.714681
      1.707038     1.699395     1.691752     1.684108     1.676465     1.668822     1.661179     1.653536     1.645893     1.638250
      1.630607     1.622964     1.615321     1.607677     1.600034     1.592391     1.584748     1.577105     1.569462     1.561819
      1.554176     1.546533     1.538890     1.531246     1.523603     1.515960     1.508317     1.500674     1.493031     1.485388
      1.477745     1.470102     1.462458     1.454815     1.447172     1.439529     1.431886     1.424243     1.416600     1.408957
      1.401314     1.393671     1.386027     1.378384     1.370741     1.363098     1.355455     1.347812     1.340169     1.332526
      1.324883     1.317240     1.309596     1.301953     1.294310     1.286667     1.279024     1.271381     1.263738     1.256095
      1.248452     1.240808     1.233165     1.225522     1.217879     1.210236     1.202593     1.194950     1.187307     1.179664
      1.172021     1.164377     1.156734     1.149091     1.141448     1.133805     1.126162     1.118519     1.110876     1.103233
      1.095590     1.087946     1.080303     1.072660     1.065017     1.057374     1.049731     1.042088     1.034445     1.026802
      1.019158     1.011515     1.003872     0.996229     0.988586     0.980943     0.973300     0.965657     0.958014     0.950371
      0.942727     0.935084     0.927441     0.919798     0.912155     0.904512     0.896869     0.889226     0.881583     0.873940
      0.866296     0.858653     0.851010     0.843367     0.835724     0.828081     0.820438     0.812795     0.805152     0.797508
      0.789865     0.782222     0.774579     0.766936     0.759293     0.751650     0.744007     0.736364     0.728721     0.721077
      0.713434     0.705791     0.698148     0.690505     0.682862     0.675219     0.667576     0.659933     0.652290     0.644646
      0.637003     0.629360     0.621717     0.614074     0.606431     0.598788     0.591145     0.583502     0.575858     0.568215
      0.560572     0.552929     0.545286     0.537643     0.530000     0.522357     0.514714     0.507071     0.499427     0.491784
      0.484141     0.476498     0.468855     0.461212     0.453569     0.445925     0.438282     0.430639     0.422996     0.415353
      0.407710     0.400067     0.392424     0.384780     0.377137     0.369494     0.361851     0.354208     0.346565     0.338922
      0.331278     0.323635     0.315992     0.308349     0.300706     0.293063     0.285420     0.277777     0.270133     0.262490
      0.254847     0.247204     0.239561     0.231918     0.224275     0.216631     0.208988     0.201345
 NY phased data points follow
   1.40520E+01  1.43923E+01  1.20518E+01  6.01126E+00  1.78515E+01  1.38890E+01  2.93479E+01  2.14734E+01  2.47189E+01  2.18847E+01
   4.00571E+01  3.89009E+01  2.01405E+01  2.53178E+01  2.24993E+01  2.56096E+01  1.63426E+01  2.04662E+01  2.50814E+01  1.76580E+01
   1.15772E+01  9.08955E+00  1.17536E+01  1.49328E+01  1.06053E+01  1.76304E+01  1.86356E+01  1.38547E+01  2.32940E+01  2.01557E+01
   1.83757E+01  2.21206E+01  1.92869E+01  1.66797E+01  2.11164E+01  1.65765E+01  1.19713E+01  1.72387E+01  2.37237E+01  1.93958E+01
   1.18321E+01  2.26118E+01  2.28421E+01  2.24098E+01  2.01481E+01  2.82886E+01  2.26600E+01  2.23072E+01  2.55684E+01  2.89126E+01
   2.49178E+01  2.51847E+01  2.56934E+01  2.21032E+01  1.32656E+01  1.42922E+01  1.55056E+01  5.34709E+00  2.16613E+01  1.17486E+01
   8.74191E+00  4.57085E+00  1.06049E+01  3.31431E+00  5.44539E+00  1.33704E+00  1.13096E+01  1.68394E+00  5.99157E+00  8.42744E+00
   6.11889E+00  1.31323E+01  7.57368E+00  9.68231E+00  9.88163E+00  2.19018E+00  1.29023E+01  1.04802E+01  8.90711E+00  1.31720E+00
   6.33653E+00  1.42582E+01  1.29030E+01  1.63643E+01  6.15640E+00  6.60869E+00  9.71187E+00  1.45308E+01  8.73669E+00  1.49714E+01
   1.30052E+01  9.93903E+00  7.89501E+00  1.23713E+01  1.93898E+01  1.64164E+01  2.89598E+01  2.59218E+01  3.21426E+01  4.01345E+01
   5.24269E+01  6.38762E+01  7.57665E+01  8.74360E+01  7.63304E+01  6.69075E+01  5.45016E+01  4.28390E+01  2.02106E+01  1.54493E+01
   1.79549E+01  1.62915E+01  1.31883E+01  6.15148E+00  1.15258E+01  1.04984E+01  8.65545E+00  5.45091E+00  1.03292E+01  1.18175E+01
   1.43779E+01  2.21733E+01  1.89376E+01  3.83071E+01  4.55780E+01  5.59941E+01  6.44175E+01  7.54824E+01  7.82822E+01  5.48301E+01
   5.51097E+01  4.47674E+01  2.67988E+01  2.50532E+01  2.58186E+01  1.58333E+01  7.54948E+00  1.24653E+01  3.53955E+00  1.16433E+01
   6.77070E+00  8.78137E+00  1.43765E+01  1.30617E+01  2.25258E+00  1.45251E+00  7.81651E+00  4.88594E+00  4.02471E+00  2.68533E-01
   9.06995E+00  3.15501E+00  2.33902E+00  8.95245E+00 -2.20024E+00  6.97072E+00  1.01673E+01  2.80177E+00  7.75826E+00  9.75165E+00
   5.56689E+00  1.45424E+00 -2.24917E+00  4.91174E+00 -1.52695E+00 -8.88256E+00  4.10468E+00 -1.26979E+01 -9.67081E+00 -5.93636E+00
  -1.67247E+01 -4.66010E+00 -1.73679E+01 -1.19737E+01 -1.27875E+01 -1.33825E+01 -1.41383E+01 -8.57116E+00 -1.08365E+01 -2.23818E+00
  -1.13082E+01 -4.29990E+00 -5.55839E+00 -1.08073E+01 -1.50126E+01 -1.15507E+01 -4.21060E+00 -6.87677E+00 -7.94123E+00 -3.88841E+00
  -1.57086E+01  4.86489E+00 -4.91782E-01  2.75551E+00 -5.92231E+00 -3.87911E+00 -1.82659E+00 -1.09472E+01 -1.27684E+01 -6.27626E+00
   4.92351E+00 -2.92359E+00  8.35558E+00  5.81691E+00  4.37579E+00  6.00765E+00  6.73651E+00  4.09552E+00 -2.46947E+00 -1.20598E+00
  -2.16060E+00  6.32532E+00  5.53169E+00  1.06214E+01  7.41527E+00  2.30137E+01  1.93707E+01  1.19219E+01  7.55225E+00  5.20772E+00
   2.30243E-01 -3.88198E+00  3.00975E+00  5.51612E+00  3.68744E+00  8.13227E-01  6.11437E+00  1.72834E+01  1.55108E+01  4.27264E+00
   1.92986E+01  1.93425E+01  1.62033E+01  7.69681E+00  4.79603E+00  1.08078E+01  9.53094E+00  1.53539E+01  9.31770E+00  6.58305E+00
  -1.75189E+00  9.19159E+00  6.33987E+00  3.12507E+00  1.11738E+01  1.15538E+01  1.26201E+01  1.33317E+01  1.78214E+01  1.75221E+01
   1.83393E+01  2.59639E+01  2.48548E+01  3.26274E+01  3.97871E+01  4.43237E+01  5.82154E+01  6.62024E+01  7.68271E+01  8.87068E+01
   9.01579E+01  8.78926E+01  6.70605E+01  5.88286E+01  4.01704E+01  3.23091E+01  2.03817E+01  5.70417E+00  1.11316E+01  1.28164E+01
   7.44877E+00  6.28056E+00  5.16797E+00  1.34584E+00  1.17623E+01  1.38404E+01  1.21290E+01  2.55021E+00  1.14345E+00  1.05912E+01
   8.66554E+00  5.28831E+00  4.47261E-01  1.04879E+01  9.95167E+00  5.43824E+00  1.24340E+01 -1.28663E+00  7.61283E+00  1.08664E+01
   8.77418E+00  7.71125E-01  1.03545E+01  2.80639E+00  3.17802E+00  2.17246E+00  7.20626E+00  7.75429E+00  9.74868E+00  8.28887E+00
  -9.56370E-01  1.72355E+00  6.53945E-01  1.13371E+01  7.54678E+00  8.67786E+00  8.05644E+00  1.48514E+01  1.23746E+01  1.46556E+01
   1.95951E+01  1.80780E+01  1.78817E+01  1.38939E+01  1.30107E+01  1.98984E+01  2.03094E+01  1.40940E+01  8.45777E+00  1.83859E+01
   1.65083E+01  1.04645E+01  1.04105E+01  1.05378E+01  1.62164E+01  7.32939E+00  1.76105E+01  2.23980E+01  1.38703E+01  1.93653E+01
   1.59607E+01  1.82672E+01  1.16024E+01  8.30639E+00  1.15019E+01  2.04023E+01  2.52661E+01  1.30913E+01  1.27362E+01  1.87020E+01
   1.88164E+01  1.59428E+01  2.26931E+01  1.86797E+01  1.56050E+01  3.34004E+01  7.97130E+00  1.56198E+01  1.38479E+01  1.65118E+01
   2.19687E+01  1.15205E+01  1.23948E+01  1.10805E+01  1.16654E+01  1.78377E+01  1.41125E+01  9.41981E+00  6.25176E+00  8.29951E+00
   1.03755E+01  6.56342E+00  3.53625E+00  1.08728E+01  1.39997E+01  7.41795E+00  1.18781E+01  1.11495E+01  1.11598E+01  7.19602E+00
   8.71239E+00  9.39035E+00  6.40128E+00  7.13746E+00  5.14782E+00  6.59894E+00  1.04573E+01  1.62055E+00  7.05211E+00  6.92676E+00
   1.10168E+01  3.86435E+00  9.42618E+00 -8.97055E+00  9.59422E-01  7.71733E-01  4.63720E+00 -1.45786E+00  5.69598E+00  1.19090E+01
   2.40820E+00  4.47464E+00  8.06477E+00  4.38783E+00 -3.74707E+00  1.18134E+01  7.23103E+00  7.15956E+00  1.13626E+01  1.92424E+01
   1.15688E+01  2.17101E+01  1.12886E+01  1.27737E+01  2.03502E+01  2.06278E+01  1.77359E+01  1.92962E+01  1.48027E+01  6.79792E+00
   1.38060E+01  1.96680E+01  1.05724E+01  1.51220E+01  1.74054E+01  7.19892E+00  9.82894E+00  7.69439E+00  1.17400E+01  1.13542E+01
   1.14645E+01  9.42118E+00  1.38969E+01  9.30658E+00  1.38861E+01  6.52952E+00  3.86561E+00  1.72339E+01  7.94483E+00  1.46041E+01
  -2.84767E+00  8.67564E+00  8.73687E+00  1.06484E+01  9.15122E+00  6.33167E+00  3.87627E+00  5.33301E+00  1.01268E+01  2.26293E+00
   3.64750E-01 -3.31224E+00  9.80595E+00  1.00247E+01  3.76090E+00 -5.44724E+00  2.28122E+00  8.31313E-01  7.32157E+00  7.05317E+00
   4.29536E+00 -8.25720E-01  5.97369E+00  6.51755E+00  9.64175E+00  2.70048E+00  1.16992E+00  1.67886E+00 -1.47390E+00  4.36487E+00
   2.61812E-01  3.62552E-01  2.97697E+00 -3.34999E+00  5.29874E+00  2.41352E+00 -1.92022E+00  6.01716E-01  4.87088E-01  6.44651E+00
  -3.36024E+00  6.89294E+00  5.28728E+00  6.90510E+00  4.60989E+00  7.49179E+00 -5.39709E+00  6.80224E+00  2.06540E+00 -1.64923E+00
  -8.50493E-01  7.75456E+00  2.85484E+00  1.16260E+01  1.37377E+00 -7.78254E+00 -1.09266E+00  3.97093E+00  6.46814E+00  3.59166E+00
   2.06282E+00  4.48575E+00  2.81943E+00  2.34575E-01 -6.99845E-01  1.24284E+01 -1.64152E+00 -8.08265E-03
 NY points of the fit to the data follow
   1.26554E+01  1.18219E+01  1.17404E+01  1.27242E+01  1.46073E+01  1.73496E+01  2.04960E+01  2.37535E+01  2.69958E+01  2.98870E+01
   3.18588E+01  3.23085E+01  3.10566E+01  2.84551E+01  2.51367E+01  2.17618E+01  1.87393E+01  1.62075E+01  1.42612E+01  1.29958E+01
   1.21272E+01  1.14921E+01  1.12042E+01  1.15700E+01  1.22676E+01  1.33568E+01  1.50117E+01  1.72809E+01  1.99838E+01  2.26273E+01
   2.46053E+01  2.54453E+01  2.50271E+01  2.34015E+01  2.08123E+01  1.78651E+01  1.51676E+01  1.29264E+01  1.14140E+01  1.09311E+01
   1.14308E+01  1.30153E+01  1.53586E+01  1.80219E+01  2.07256E+01  2.33455E+01  2.55773E+01  2.68099E+01  2.65146E+01  2.45404E+01
   2.12208E+01  1.72990E+01  1.36868E+01  1.10033E+01  9.39913E+00  8.84611E+00  9.17185E+00  1.01453E+01  1.13633E+01  1.23865E+01
   1.28967E+01  1.27453E+01  1.19680E+01  1.07749E+01  9.49416E+00  8.56826E+00  8.18903E+00  8.28348E+00  8.78733E+00  9.59348E+00
   1.04833E+01  1.12696E+01  1.17657E+01  1.18743E+01  1.16261E+01  1.11317E+01  1.05187E+01  9.89975E+00  9.40326E+00  9.24284E+00
   9.56689E+00  1.00848E+01  1.05785E+01  1.10587E+01  1.15226E+01  1.18220E+01  1.16883E+01  1.09471E+01  9.71861E+00  8.41473E+00
   7.43911E+00  6.92064E+00  6.89355E+00  7.30084E+00  8.18030E+00  1.05831E+01  1.67729E+01  2.53601E+01  3.47342E+01  4.50921E+01
   5.65271E+01  6.79964E+01  7.70340E+01  8.06233E+01  7.71710E+01  6.77723E+01  5.50889E+01  4.16239E+01  2.94145E+01  1.95943E+01
   1.21464E+01  7.10244E+00  5.08924E+00  4.68029E+00  4.64165E+00  4.74058E+00  4.93154E+00  5.25538E+00  5.84682E+00  7.28828E+00
   1.15299E+01  1.87001E+01  2.70659E+01  3.62979E+01  4.64828E+01  5.70156E+01  6.62183E+01  7.15149E+01  7.08810E+01  6.45144E+01
   5.44428E+01  4.28933E+01  3.17105E+01  2.20875E+01  1.43103E+01  8.38565E+00  5.08296E+00  4.02304E+00  3.90892E+00  4.30172E+00
   4.91239E+00  5.48298E+00  5.87289E+00  5.98264E+00  5.78128E+00  5.36540E+00  4.84220E+00  4.27211E+00  3.72459E+00  3.23893E+00
   2.84607E+00  2.54267E+00  2.30881E+00  2.08880E+00  1.83690E+00  1.61892E+00  1.45750E+00  1.34120E+00  1.23404E+00  1.02852E+00
   7.64824E-01  5.59975E-01  4.68149E-01  4.14414E-01  3.01158E-01  8.12575E-02 -2.61066E-01 -6.79077E-01 -1.12669E+00 -1.62786E+00
  -2.07841E+00 -2.38675E+00 -2.62003E+00 -2.85042E+00 -3.10849E+00 -3.32255E+00 -3.38995E+00 -3.29509E+00 -3.17134E+00 -3.14932E+00
  -3.23027E+00 -3.23269E+00 -3.04659E+00 -2.63347E+00 -1.99696E+00 -1.14259E+00 -3.40684E-02  1.28318E+00  2.70043E+00  3.96616E+00
   4.74658E+00  4.86131E+00  4.38878E+00  3.49902E+00  2.43982E+00  1.50768E+00  1.00245E+00  1.18444E+00  2.16652E+00  3.81997E+00
   5.75444E+00  7.59054E+00  8.83706E+00  8.95252E+00  8.01386E+00  6.22827E+00  3.70933E+00  9.03404E-01 -1.46822E+00 -2.60547E+00
  -2.31462E+00 -6.43303E-01  2.15944E+00  5.52640E+00  8.67815E+00  1.06176E+01  1.07281E+01  9.21599E+00  6.54322E+00  3.15342E+00
  -9.85003E-02 -2.40449E+00 -3.22454E+00 -2.36951E+00 -2.26262E-01  2.64986E+00  5.52099E+00  7.85160E+00  9.35666E+00  9.98641E+00
   1.00767E+01  9.90048E+00  9.69303E+00  9.72993E+00  1.01179E+01  1.06515E+01  1.10380E+01  1.12200E+01  1.11900E+01  1.08889E+01
   1.02994E+01  9.61453E+00  9.09422E+00  8.96583E+00  9.31655E+00  1.00098E+01  1.09653E+01  1.20508E+01  1.32680E+01  1.50832E+01
   1.74785E+01  2.01943E+01  2.39568E+01  3.11050E+01  4.06293E+01  5.05228E+01  6.01588E+01  6.93521E+01  7.75600E+01  8.34035E+01
   8.48532E+01  8.06857E+01  7.17483E+01  6.00753E+01  4.76875E+01  3.64965E+01  2.73901E+01  2.01463E+01  1.47446E+01  1.19893E+01
   1.07910E+01  1.00587E+01  9.57329E+00  9.24575E+00  8.94967E+00  8.61068E+00  8.22743E+00  7.80432E+00  7.36131E+00  6.93182E+00
   6.54372E+00  6.21120E+00  5.94665E+00  5.74477E+00  5.58274E+00  5.44471E+00  5.31949E+00  5.20895E+00  5.12673E+00  5.08396E+00
   5.09213E+00  5.16052E+00  5.28850E+00  5.47032E+00  5.69704E+00  5.96392E+00  6.27018E+00  6.61590E+00  7.00657E+00  7.44656E+00
   7.93721E+00  8.47737E+00  9.05755E+00  9.66131E+00  1.02718E+01  1.08715E+01  1.14463E+01  1.19817E+01  1.24644E+01  1.28856E+01
   1.32407E+01  1.35258E+01  1.37419E+01  1.38916E+01  1.39826E+01  1.40252E+01  1.40350E+01  1.40296E+01  1.40330E+01  1.40792E+01
   1.42250E+01  1.44446E+01  1.46517E+01  1.48461E+01  1.50303E+01  1.51639E+01  1.51740E+01  1.49856E+01  1.46467E+01  1.43419E+01
   1.41745E+01  1.42019E+01  1.44720E+01  1.50065E+01  1.57691E+01  1.66567E+01  1.75353E+01  1.82363E+01  1.86451E+01  1.87728E+01
   1.86681E+01  1.83971E+01  1.80165E+01  1.75485E+01  1.70385E+01  1.65484E+01  1.60662E+01  1.55804E+01  1.50918E+01  1.46038E+01
   1.41219E+01  1.36500E+01  1.31926E+01  1.27522E+01  1.23313E+01  1.19306E+01  1.15505E+01  1.11896E+01  1.08471E+01  1.05204E+01
   1.02080E+01  9.90724E+00  9.61647E+00  9.33316E+00  9.05616E+00  8.78381E+00  8.51598E+00  8.25192E+00  7.99231E+00  7.73723E+00
   7.48823E+00  7.24628E+00  7.01367E+00  6.79178E+00  6.58315E+00  6.38946E+00  6.21356E+00  6.05738E+00  5.92393E+00  5.81513E+00
   5.73399E+00  5.68263E+00  5.66437E+00  5.68162E+00  5.73783E+00  5.83549E+00  5.97811E+00  6.16821E+00  6.40920E+00  6.70309E+00
   7.05226E+00  7.45726E+00  7.91864E+00  8.43464E+00  9.00296E+00  9.61837E+00  1.02746E+01  1.09622E+01  1.16708E+01  1.23872E+01
   1.30973E+01  1.37849E+01  1.44340E+01  1.50276E+01  1.55505E+01  1.59875E+01  1.63269E+01  1.65584E+01  1.66757E+01  1.66752E+01
   1.65579E+01  1.63273E+01  1.59913E+01  1.55593E+01  1.50443E+01  1.44600E+01  1.38218E+01  1.31447E+01  1.24440E+01  1.17333E+01
   1.10257E+01  1.03316E+01  9.66084E+00  9.01999E+00  8.41475E+00  7.84809E+00  7.32240E+00  6.83779E+00  6.39419E+00  5.98962E+00
   5.62243E+00  5.28964E+00  4.98903E+00  4.71733E+00  4.47221E+00  4.25042E+00  4.04985E+00  3.86771E+00  3.70237E+00  3.55148E+00
   3.41377E+00  3.28721E+00  3.17095E+00  3.06340E+00  2.96407E+00  2.87161E+00  2.78567E+00  2.70508E+00  2.62975E+00  2.55875E+00
   2.49212E+00  2.42900E+00  2.36945E+00  2.31269E+00  2.25895E+00  2.20759E+00  2.15884E+00  2.11201E+00  2.06736E+00  2.02428E+00
   1.98312E+00  1.94335E+00  1.90527E+00  1.86830E+00  1.83276E+00  1.79815E+00  1.76488E+00  1.73244E+00  1.70117E+00  1.67052E+00
   1.64089E+00  1.61182E+00  1.58373E+00  1.55613E+00  1.52938E+00  1.50296E+00  1.47730E+00  1.45197E+00  1.42739E+00  1.40305E+00
   1.37932E+00  1.35572E+00  1.33272E+00  1.30987E+00  1.28758E+00  1.26534E+00  1.24354E+00  1.22173E+00  1.20037E+00  1.17901E+00
   1.15803E+00  1.13693E+00  1.11611E+00  1.09513E+00  1.07445E+00  1.05358E+00  1.03289E+00  1.01186E+00
 NY background values follow
     2.292E+00    2.287E+00    2.281E+00    2.276E+00    2.270E+00    2.265E+00    2.259E+00    2.254E+00    2.249E+00    2.243E+00
     2.238E+00    2.232E+00    2.227E+00    2.221E+00    2.216E+00    2.211E+00    2.205E+00    2.200E+00    2.194E+00    2.189E+00
     2.183E+00    2.178E+00    2.173E+00    2.167E+00    2.162E+00    2.156E+00    2.151E+00    2.145E+00    2.140E+00    2.134E+00
     2.129E+00    2.123E+00    2.118E+00    2.113E+00    2.107E+00    2.102E+00    2.096E+00    2.091E+00    2.085E+00    2.080E+00
     2.074E+00    2.069E+00    2.063E+00    2.058E+00    2.052E+00    2.047E+00    2.041E+00    2.036E+00    2.030E+00    2.025E+00
     2.019E+00    2.014E+00    2.009E+00    2.003E+00    1.998E+00    1.992E+00    1.987E+00    1.981E+00    1.976E+00    1.970E+00
     1.965E+00    1.959E+00    1.954E+00    1.948E+00    1.943E+00    1.937E+00    1.932E+00    1.926E+00    1.921E+00    1.915E+00
     1.910E+00    1.904E+00    1.898E+00    1.893E+00    1.887E+00    1.882E+00    1.876E+00    1.871E+00    1.865E+00    1.860E+00
     1.854E+00    1.849E+00    1.843E+00    1.838E+00    1.832E+00    1.827E+00    1.821E+00    1.816E+00    1.810E+00    1.805E+00
     1.799E+00    1.794E+00    1.788E+00    1.782E+00    1.777E+00    1.771E+00    1.766E+00    1.760E+00    1.755E+00    1.749E+00
     1.744E+00    1.738E+00    1.733E+00    1.727E+00    1.721E+00    1.716E+00    1.710E+00    1.705E+00    1.699E+00    1.694E+00
     1.688E+00    1.683E+00    1.677E+00    1.671E+00    1.666E+00    1.660E+00    1.655E+00    1.649E+00    1.644E+00    1.638E+00
     1.633E+00    1.627E+00    1.621E+00    1.616E+00    1.610E+00    1.605E+00    1.599E+00    1.594E+00    1.588E+00    1.582E+00
     1.577E+00    1.571E+00    1.566E+00    1.560E+00    1.555E+00    1.549E+00    1.543E+00    1.538E+00    1.532E+00    1.527E+00
     1.521E+00    1.516E+00    1.510E+00    1.504E+00    1.499E+00    1.493E+00    1.488E+00    1.482E+00    1.476E+00    1.471E+00
     1.465E+00    1.460E+00    1.454E+00    1.448E+00    1.443E+00    1.437E+00    1.432E+00    1.426E+00    1.421E+00    1.415E+00
     1.409E+00    1.404E+00    1.398E+00    1.393E+00    1.387E+00    1.381E+00    1.376E+00    1.370E+00    1.365E+00    1.359E+00
     1.353E+00    1.348E+00    1.342E+00    1.337E+00    1.331E+00    1.325E+00    1.320E+00    1.314E+00    1.309E+00    1.303E+00
     1.297E+00    1.292E+00    1.286E+00    1.281E+00    1.275E+00    1.269E+00    1.264E+00    1.258E+00    1.253E+00    1.247E+00
     1.241E+00    1.236E+00    1.230E+00    1.224E+00    1.219E+00    1.213E+00    1.208E+00    1.202E+00    1.196E+00    1.191E+00
     1.185E+00    1.180E+00    1.174E+00    1.168E+00    1.163E+00    1.157E+00    1.152E+00    1.146E+00    1.140E+00    1.135E+00
     1.129E+00    1.124E+00    1.118E+00    1.112E+00    1.107E+00    1.101E+00    1.095E+00    1.090E+00    1.084E+00    1.079E+00
     1.073E+00    1.067E+00    1.062E+00    1.056E+00    1.051E+00    1.045E+00    1.039E+00    1.034E+00    1.028E+00    1.022E+00
     1.017E+00    1.011E+00    1.006E+00    1.000E+00    9.944E-01    9.887E-01    9.831E-01    9.775E-01    9.719E-01    9.663E-01
     9.607E-01    9.550E-01    9.494E-01    9.438E-01    9.382E-01    9.326E-01    9.269E-01    9.213E-01    9.157E-01    9.101E-01
     9.045E-01    8.989E-01    8.932E-01    8.876E-01    8.820E-01    8.764E-01    8.708E-01    8.652E-01    8.595E-01    8.539E-01
     8.483E-01    8.427E-01    8.371E-01    8.315E-01    8.258E-01    8.202E-01    8.146E-01    8.090E-01    8.034E-01    7.978E-01
     7.921E-01    7.865E-01    7.809E-01    7.753E-01    7.697E-01    7.641E-01    7.585E-01    7.528E-01    7.472E-01    7.416E-01
     7.360E-01    7.304E-01    7.248E-01    7.192E-01    7.135E-01    7.079E-01    7.023E-01    6.967E-01    6.911E-01    6.855E-01
     6.799E-01    6.743E-01    6.686E-01    6.630E-01    6.574E-01    6.518E-01    6.462E-01    6.406E-01    6.350E-01    6.294E-01
     6.238E-01    6.182E-01    6.125E-01    6.069E-01    6.013E-01    5.957E-01    5.901E-01    5.845E-01    5.789E-01    5.733E-01
     5.677E-01    5.621E-01    5.565E-01    5.509E-01    5.453E-01    5.397E-01    5.341E-01    5.285E-01    5.229E-01    5.173E-01
     5.117E-01    5.061E-01    5.005E-01    4.949E-01    4.893E-01    4.837E-01    4.781E-01    4.725E-01    4.669E-01    4.613E-01
     4.557E-01    4.501E-01    4.445E-01    4.389E-01    4.333E-01    4.277E-01    4.221E-01    4.165E-01    4.109E-01    4.053E-01
     3.997E-01    3.941E-01    3.885E-01    3.830E-01    3.774E-01    3.718E-01    3.662E-01    3.606E-01    3.550E-01    3.494E-01
     3.438E-01    3.383E-01    3.327E-01    3.271E-01    3.215E-01    3.159E-01    3.103E-01    3.048E-01    2.992E-01    2.936E-01
     2.880E-01    2.824E-01    2.769E-01    2.713E-01    2.657E-01    2.601E-01    2.546E-01    2.490E-01    2.434E-01    2.378E-01
     2.323E-01    2.267E-01    2.211E-01    2.155E-01    2.100E-01    2.044E-01    1.988E-01    1.933E-01    1.877E-01    1.821E-01
     1.766E-01    1.710E-01    1.654E-01    1.599E-01    1.543E-01    1.488E-01    1.432E-01    1.376E-01    1.321E-01    1.265E-01
     1.210E-01    1.154E-01    1.099E-01    1.043E-01    9.875E-02    9.320E-02    8.764E-02    8.209E-02    7.654E-02    7.099E-02
     6.545E-02    5.990E-02    5.435E-02    4.881E-02    4.326E-02    3.772E-02    3.218E-02    2.664E-02    2.110E-02    1.556E-02
     1.002E-02    4.479E-03   -1.058E-03   -6.593E-03   -1.213E-02   -1.766E-02   -2.320E-02   -2.873E-02   -3.426E-02   -3.979E-02
    -4.532E-02   -5.084E-02   -5.637E-02   -6.190E-02   -6.742E-02   -7.295E-02   -7.847E-02   -8.399E-02   -8.951E-02   -9.503E-02
    -1.005E-01   -1.061E-01   -1.116E-01   -1.171E-01   -1.226E-01   -1.281E-01   -1.336E-01   -1.391E-01   -1.447E-01   -1.502E-01
    -1.557E-01   -1.612E-01   -1.667E-01   -1.722E-01   -1.777E-01   -1.832E-01   -1.887E-01   -1.942E-01   -1.997E-01   -2.052E-01
    -2.107E-01   -2.162E-01   -2.217E-01   -2.272E-01   -2.327E-01   -2.381E-01   -2.436E-01   -2.491E-01   -2.546E-01   -2.601E-01
    -2.656E-01   -2.711E-01   -2.765E-01   -2.820E-01   -2.875E-01   -2.930E-01   -2.984E-01   -3.039E-01   -3.094E-01   -3.149E-01
    -3.203E-01   -3.258E-01   -3.313E-01   -3.367E-01   -3.422E-01   -3.477E-01   -3.531E-01   -3.586E-01   -3.641E-01   -3.695E-01
    -3.750E-01   -3.804E-01   -3.859E-01   -3.913E-01   -3.968E-01   -4.022E-01   -4.077E-01   -4.131E-01   -4.186E-01   -4.240E-01
    -4.295E-01   -4.349E-01   -4.404E-01   -4.458E-01   -4.512E-01   -4.567E-01   -4.621E-01   -4.675E-01
 Ala      Conc. = 1.72E+02
