 LCModel (Version 6.3-1L) Copyright: S.W. Provencher.          Ref.: Magn. Reson. Med. 30:672-679 (1993).                
 Slice#2 Row#8 Col#8  PD_24_press_2_raw_act
 36 lines in following concentration table = NCONC+1
    Conc.  %SD /Cr+PCr  Metabolite                                         
    0.000 999%   0.000 Ala                                                 
    0.000 999%   0.000 Asp                                                 
 1.09E+03  24%   0.431 Cr                                                  
 1.44E+03  19%   0.569 PCr                                                 
    0.000 999%   0.000 GABA                                                
    0.000 999%   0.000 Glc                                                 
  535.648  46%   0.211 Gln                                                 
 1.94E+03  14%   0.765 Glu                                                 
  896.909   3%   0.354 GPC                                                 
    0.000 999%   0.000 PCh                                                 
  446.693  19%   0.176 GSH                                                 
 1.94E+03  17%   0.765 Ins                                                 
  121.540 114% 4.8E-02 Lac                                                 
 3.88E+03   4%   1.529 NAA                                                 
  585.619  25%   0.231 NAAG                                                
  161.539  22% 6.4E-02 Scyllo                                              
    0.000 999%   0.000 Tau                                                 
  275.516  55%   0.109 -CrCH2                                              
  896.909   3%   0.354 GPC+PCh                                             
 4.47E+03   3%   1.760 NAA+NAAG                                            
 2.54E+03   3%   1.000 Cr+PCr                                              
 2.48E+03  15%   0.976 Glu+Gln                                             
    0.000 999%   0.000 Lip13a                                              
  306.826  57%   0.121 Lip13b                                              
   73.552 106% 2.9E-02 Lip09                                               
 2.43E+03  15%   0.959 MM09                                                
   46.320 110% 1.8E-02 Lip20                                               
 4.82E+03  13%   1.901 MM20                                                
  638.840  41%   0.252 MM12                                                
 2.89E+03  19%   1.138 MM14                                                
 1.33E+03  31%   0.523 MM17                                                
  306.826  57%   0.121 Lip13a+Lip13b                                       
 3.83E+03  17%   1.511 MM14+Lip13a+Lip13b+MM12                             
 2.51E+03  15%   0.988 MM09+Lip09                                          
 4.87E+03  13%   1.920 MM20+Lip20                                          
   6 lines in following misc. output table
  FWHM = 0.046 ppm    S/N =  18                                            
  Data shift = 0.015 ppm                                                   
  Ph: -22 deg      -7.5 deg/ppm                                            
  alphaB,S = 8.1E-01,   8.9E+01                                            
   14 spline knots.   Ns = 6(1)                                            
  ( 9) 2 infls.   ( 1) 1 extrs.                                            
  498 points on ppm-axis = NY
      4.000000     3.992357     3.984714     3.977070     3.969427     3.961784     3.954141     3.946497     3.938854     3.931211
      3.923568     3.915925     3.908281     3.900638     3.892995     3.885352     3.877708     3.870065     3.862422     3.854779
      3.847136     3.839492     3.831849     3.824206     3.816563     3.808919     3.801276     3.793633     3.785990     3.778347
      3.770703     3.763060     3.755417     3.747774     3.740130     3.732487     3.724844     3.717201     3.709558     3.701914
      3.694271     3.686628     3.678985     3.671341     3.663698     3.656055     3.648412     3.640769     3.633125     3.625482
      3.617839     3.610196     3.602552     3.594909     3.587266     3.579623     3.571980     3.564336     3.556693     3.549050
      3.541407     3.533763     3.526120     3.518477     3.510834     3.503191     3.495547     3.487904     3.480261     3.472618
      3.464974     3.457331     3.449688     3.442045     3.434402     3.426758     3.419115     3.411472     3.403829     3.396185
      3.388542     3.380899     3.373256     3.365613     3.357969     3.350326     3.342683     3.335040     3.327396     3.319753
      3.312110     3.304467     3.296824     3.289180     3.281537     3.273894     3.266251     3.258607     3.250964     3.243321
      3.235678     3.228034     3.220391     3.212748     3.205105     3.197462     3.189818     3.182175     3.174532     3.166889
      3.159245     3.151602     3.143959     3.136316     3.128673     3.121029     3.113386     3.105743     3.098100     3.090456
      3.082813     3.075170     3.067527     3.059884     3.052240     3.044597     3.036954     3.029311     3.021667     3.014024
      3.006381     2.998738     2.991095     2.983451     2.975808     2.968165     2.960522     2.952878     2.945235     2.937592
      2.929949     2.922306     2.914662     2.907019     2.899376     2.891733     2.884089     2.876446     2.868803     2.861160
      2.853517     2.845873     2.838230     2.830587     2.822944     2.815300     2.807657     2.800014     2.792371     2.784728
      2.777084     2.769441     2.761798     2.754155     2.746511     2.738868     2.731225     2.723582     2.715939     2.708295
      2.700652     2.693009     2.685366     2.677722     2.670079     2.662436     2.654793     2.647150     2.639506     2.631863
      2.624220     2.616577     2.608933     2.601290     2.593647     2.586004     2.578361     2.570717     2.563074     2.555431
      2.547788     2.540144     2.532501     2.524858     2.517215     2.509572     2.501928     2.494285     2.486642     2.478999
      2.471355     2.463712     2.456069     2.448426     2.440783     2.433139     2.425496     2.417853     2.410210     2.402566
      2.394923     2.387280     2.379637     2.371994     2.364350     2.356707     2.349064     2.341421     2.333777     2.326134
      2.318491     2.310848     2.303205     2.295561     2.287918     2.280275     2.272632     2.264988     2.257345     2.249702
      2.242059     2.234416     2.226772     2.219129     2.211486     2.203843     2.196199     2.188556     2.180913     2.173270
      2.165627     2.157983     2.150340     2.142697     2.135054     2.127410     2.119767     2.112124     2.104481     2.096838
      2.089194     2.081551     2.073908     2.066265     2.058621     2.050978     2.043335     2.035692     2.028049     2.020405
      2.012762     2.005119     1.997476     1.989833     1.982190     1.974546     1.966903     1.959260     1.951617     1.943974
      1.936331     1.928688     1.921045     1.913402     1.905759     1.898115     1.890472     1.882829     1.875186     1.867543
      1.859900     1.852257     1.844614     1.836971     1.829327     1.821684     1.814041     1.806398     1.798755     1.791112
      1.783469     1.775826     1.768183     1.760540     1.752896     1.745253     1.737610     1.729967     1.722324     1.714681
      1.707038     1.699395     1.691752     1.684108     1.676465     1.668822     1.661179     1.653536     1.645893     1.638250
      1.630607     1.622964     1.615321     1.607677     1.600034     1.592391     1.584748     1.577105     1.569462     1.561819
      1.554176     1.546533     1.538890     1.531246     1.523603     1.515960     1.508317     1.500674     1.493031     1.485388
      1.477745     1.470102     1.462458     1.454815     1.447172     1.439529     1.431886     1.424243     1.416600     1.408957
      1.401314     1.393671     1.386027     1.378384     1.370741     1.363098     1.355455     1.347812     1.340169     1.332526
      1.324883     1.317240     1.309596     1.301953     1.294310     1.286667     1.279024     1.271381     1.263738     1.256095
      1.248452     1.240808     1.233165     1.225522     1.217879     1.210236     1.202593     1.194950     1.187307     1.179664
      1.172021     1.164377     1.156734     1.149091     1.141448     1.133805     1.126162     1.118519     1.110876     1.103233
      1.095590     1.087946     1.080303     1.072660     1.065017     1.057374     1.049731     1.042088     1.034445     1.026802
      1.019158     1.011515     1.003872     0.996229     0.988586     0.980943     0.973300     0.965657     0.958014     0.950371
      0.942727     0.935084     0.927441     0.919798     0.912155     0.904512     0.896869     0.889226     0.881583     0.873940
      0.866296     0.858653     0.851010     0.843367     0.835724     0.828081     0.820438     0.812795     0.805152     0.797508
      0.789865     0.782222     0.774579     0.766936     0.759293     0.751650     0.744007     0.736364     0.728721     0.721077
      0.713434     0.705791     0.698148     0.690505     0.682862     0.675219     0.667576     0.659933     0.652290     0.644646
      0.637003     0.629360     0.621717     0.614074     0.606431     0.598788     0.591145     0.583502     0.575858     0.568215
      0.560572     0.552929     0.545286     0.537643     0.530000     0.522357     0.514714     0.507071     0.499427     0.491784
      0.484141     0.476498     0.468855     0.461212     0.453569     0.445925     0.438282     0.430639     0.422996     0.415353
      0.407710     0.400067     0.392424     0.384780     0.377137     0.369494     0.361851     0.354208     0.346565     0.338922
      0.331278     0.323635     0.315992     0.308349     0.300706     0.293063     0.285420     0.277777     0.270133     0.262490
      0.254847     0.247204     0.239561     0.231918     0.224275     0.216631     0.208988     0.201345
 NY phased data points follow
  -4.33422E+01 -4.43290E+01 -3.95297E+01 -4.29544E+01 -2.94877E+01 -2.62368E+01 -1.19986E+01 -1.07021E+01  9.52042E+00  6.72933E+00
   1.80024E+01  9.28258E+00  1.14731E+01 -8.93103E+00 -7.67577E+00 -2.29768E+01 -2.70345E+01 -3.72815E+01 -3.45436E+01 -4.08220E+01
  -3.33799E+01 -3.76702E+01 -3.19908E+01 -3.91909E+01 -2.78350E+01 -3.02444E+01 -2.80967E+01 -3.48072E+01 -2.60531E+01 -2.15464E+01
  -1.56725E+01 -2.46308E+01 -2.48728E+01 -3.04331E+01 -1.62790E+01 -2.75546E+01 -2.83262E+01 -2.94731E+01 -1.89385E+01 -2.75797E+01
  -1.99311E+01 -2.26800E+01 -1.82683E+01 -2.03704E+01 -1.26478E+01 -1.19728E+01 -8.51744E-01 -8.68397E+00 -8.13717E+00 -1.75896E+01
  -1.69291E+01 -1.75762E+01 -1.72541E+01 -2.06262E+01 -1.57921E+01 -1.53683E+01 -1.52108E+01 -1.51804E+01 -1.46826E+01 -1.65866E+01
  -2.08577E+01 -3.02689E+01 -2.17342E+01 -2.61173E+01 -2.97048E+01 -2.74612E+01 -3.03141E+01 -2.64661E+01 -2.33422E+01 -2.28530E+01
  -2.54683E+01 -2.44986E+01 -2.07847E+01 -2.78675E+01 -1.91578E+01 -2.22838E+01 -1.75473E+01 -2.49811E+01 -2.41780E+01 -2.49335E+01
  -1.65703E+01 -1.59932E+01 -1.47908E+01 -1.71074E+01 -1.74095E+01 -1.48978E+01 -1.66686E+01 -1.35478E+01 -1.02667E+01 -1.15778E+01
  -2.09849E+01 -1.37807E+01 -7.76024E+00 -6.64398E+00 -4.88849E+00 -1.33534E+01 -3.65324E+00 -1.67073E+00  8.73769E+00  2.04155E+01
   3.83717E+01  6.13556E+01  7.86695E+01  7.52535E+01  5.72876E+01  3.65785E+01  2.76702E+01  1.36936E+01  8.75771E+00 -3.83056E+00
  -4.53341E+00 -6.97346E+00 -1.08582E+01 -1.18400E+01 -9.43950E+00 -1.30558E+01 -6.61497E+00 -1.50306E+01 -1.23809E+01 -1.17842E+01
  -9.18765E+00  2.83434E-02  1.09367E+01  2.07540E+01  3.73403E+01  6.93672E+01  7.73048E+01  8.51225E+01  7.01169E+01  5.46801E+01
   3.36952E+01  2.26863E+01  1.52733E+01  1.61535E-02  1.12357E+00 -4.10093E+00 -9.32108E+00 -9.14878E+00 -7.64792E+00 -1.33003E+01
   1.54227E+00 -9.87151E+00 -6.26557E+00 -1.03503E+01 -9.45937E+00 -9.24997E+00 -9.50325E+00 -1.57331E+01 -8.43793E+00 -1.04279E+01
  -6.95854E+00 -1.44119E+01 -8.68300E+00 -1.29891E+01 -8.45853E+00 -1.21101E+01 -1.32068E+01 -1.39313E+01 -1.19899E+01 -1.00872E+01
  -1.19391E+01 -1.54994E+01 -1.08323E+01 -1.63601E+01 -1.21202E+01 -1.46178E+01 -1.10110E+01 -2.17509E+01 -1.58558E+01 -2.90319E+01
  -1.91789E+01 -2.49823E+01 -2.43719E+01 -2.58463E+01 -2.66184E+01 -2.75286E+01 -3.08826E+01 -2.84729E+01 -2.89933E+01 -2.32935E+01
  -2.66462E+01 -2.92325E+01 -2.72825E+01 -2.37365E+01 -2.44458E+01 -2.13153E+01 -2.06876E+01 -2.32744E+01 -1.09068E+01 -6.23143E+00
   2.34602E+00 -2.01360E+00  2.93213E+00  4.67805E+00  6.27125E-01 -1.87979E+00  8.99577E-01 -3.54891E+00 -3.62823E+00 -1.08800E+01
  -6.15121E+00 -8.96263E+00  3.92251E+00  3.95042E+00  6.52242E+00 -9.16290E-01 -7.75786E+00 -1.22987E+01 -8.17693E+00 -9.35865E+00
  -5.45990E+00 -3.52032E+00  6.58319E-02  6.73268E+00  1.39514E+01  9.34961E+00  1.71113E+01  7.38491E+00  1.26348E+01 -4.02877E-01
  -1.54195E+00 -7.67679E+00 -5.67677E+00 -2.22448E+00 -4.95144E-02  8.43766E+00  1.40686E+01  1.21217E+01  1.34451E+01  1.40878E+01
   1.55449E+01  1.23998E+01  1.04685E+01  1.91391E+01  1.37526E+01  9.29487E+00  9.82409E+00  1.05789E+01  4.15537E+00  1.08279E+01
   1.22067E+01  6.20947E+00  3.92521E+00  6.24985E+00  1.20054E+01  1.43227E+01  1.85194E+01  1.94430E+01  2.44885E+01  2.65967E+01
   2.40847E+01  2.15019E+01  2.98632E+01  3.87329E+01  5.09119E+01  6.49384E+01  8.10245E+01  1.07772E+02  1.29542E+02  1.51833E+02
   1.69132E+02  1.66816E+02  1.37920E+02  1.00235E+02  7.25360E+01  5.11435E+01  3.41890E+01  2.63386E+01  2.25964E+01  2.02809E+01
   1.42072E+01  1.38989E+01  1.33576E+01  1.37041E+01  9.19544E+00  9.95809E+00  1.00964E+01  1.40537E+01  1.32377E+01  1.00231E+01
   1.35123E+01  9.36389E+00  1.30533E+01  7.71563E+00  9.66904E+00  9.17075E+00  1.46769E+01  1.70805E+01  8.94235E+00  8.96429E+00
   1.15126E+01  8.79306E+00  1.22379E+01  6.06353E+00  1.03227E+01  8.81567E+00  7.24126E+00  8.54025E+00  1.39551E+01  1.13750E+01
   8.53789E+00  1.28251E+01  1.57352E+01  1.27353E+01  1.45430E+01  1.25818E+01  1.77446E+01  1.27683E+01  1.60099E+01  1.18778E+01
   1.71311E+01  1.74971E+01  1.91997E+01  1.39637E+01  9.80955E+00  1.62159E+01  1.00454E+01  1.48761E+01  1.62171E+01  1.04924E+01
   9.27472E+00  1.23793E+01  1.21028E+01  1.27979E+01  1.02352E+01  1.42288E+01  9.38388E+00  1.71028E+01  1.38768E+01  1.26219E+01
   1.42915E+01  2.59566E+01  2.11764E+01  2.83658E+01  2.11961E+01  2.43948E+01  2.91240E+01  2.04024E+01  2.75100E+01  2.53144E+01
   2.28239E+01  2.35532E+01  2.00601E+01  1.93713E+01  1.73555E+01  3.01032E+01  2.14556E+01  2.12292E+01  2.02679E+01  1.52837E+01
   1.77513E+01  1.97290E+01  1.39692E+01  1.88822E+01  2.22061E+01  1.45742E+01  2.04026E+01  1.57743E+01  1.80231E+01  1.58080E+01
   1.69146E+01  1.12012E+01  1.86287E+01  1.49735E+01  1.04827E+01  5.27278E+00  1.17229E+01  1.22964E+01  6.12709E+00  6.32801E+00
   1.04412E+01  6.54515E+00  1.22421E+01  1.39596E+01  9.91847E+00  1.32294E+01  1.28276E+01  5.62426E+00  7.91294E+00  5.48233E+00
   7.07556E+00  5.51398E+00  1.48632E+01  6.75114E+00  1.17144E+01  1.46309E+01  6.05096E+00  1.16135E+01  1.73599E+01  1.26355E+01
   1.31874E+01  1.52783E+01  1.93528E+01  1.85826E+01  1.65339E+01  1.62218E+01  2.00855E+01  1.85268E+01  1.83971E+01  2.29270E+01
   2.16409E+01  2.31933E+01  1.78062E+01  2.20070E+01  2.38643E+01  2.22103E+01  2.36944E+01  2.68883E+01  2.33837E+01  2.21603E+01
   2.40660E+01  2.25794E+01  2.15079E+01  2.14612E+01  2.45405E+01  1.61937E+01  1.52074E+01  1.52800E+01  1.64297E+01  1.34173E+01
   1.17754E+01  8.76347E+00  1.48910E+01  1.48034E+01  9.47390E+00  1.40721E+01  1.42812E+01  5.64230E+00  8.79426E+00  7.41910E+00
   1.18328E+01  9.53709E+00  1.23376E+01  1.38253E+01  1.34124E+01  1.05951E+01  7.85973E+00  1.17612E+01  1.17315E+01  4.99437E+00
   5.05142E+00  4.33120E+00  7.27997E+00  5.86327E+00  8.43672E+00  7.21526E+00  4.69837E+00  4.93187E+00  3.68543E+00  5.32369E+00
   4.44084E+00  8.00598E+00  5.10117E+00  7.70324E+00  1.08209E+01  7.86721E+00  1.07477E+01  1.06867E+01  9.59313E+00  7.25729E+00
   9.15587E+00  6.51599E+00  3.57667E+00  8.22572E+00  1.20732E+01  5.20163E+00  4.28710E+00  7.07531E+00  4.67853E+00  8.97811E+00
   9.21714E+00  9.78027E+00  6.23779E+00  1.05258E+01  9.59420E+00  5.62187E+00  1.38588E+01  1.07817E+01  1.06918E+01  8.07323E+00
   8.28176E+00  5.34637E+00  1.04895E+01  6.98112E+00  9.72297E+00  5.91166E+00  5.77047E+00  7.06847E+00  1.28134E+00  1.13945E+01
   3.20420E+00  6.52033E+00  8.95068E+00  8.55514E+00  3.99078E+00  3.21590E+00  2.81239E+00  1.31540E+01
 NY points of the fit to the data follow
  -4.25055E+01 -4.19928E+01 -4.07328E+01 -3.77234E+01 -3.28698E+01 -2.58455E+01 -1.64876E+01 -5.77760E+00  4.80163E+00  1.27418E+01
   1.54624E+01  1.21540E+01  4.35160E+00 -5.06075E+00 -1.35109E+01 -1.99985E+01 -2.48578E+01 -2.83350E+01 -3.08321E+01 -3.22831E+01
  -3.28069E+01 -3.30638E+01 -3.34326E+01 -3.36436E+01 -3.32484E+01 -3.25125E+01 -3.12159E+01 -2.89497E+01 -2.56790E+01 -2.20574E+01
  -1.92168E+01 -1.78996E+01 -1.81874E+01 -1.96089E+01 -2.16439E+01 -2.40519E+01 -2.64765E+01 -2.82295E+01 -2.89324E+01 -2.87378E+01
  -2.74071E+01 -2.49879E+01 -2.20113E+01 -1.87697E+01 -1.52404E+01 -1.17974E+01 -9.60181E+00 -9.84477E+00 -1.25391E+01 -1.64449E+01
  -1.99975E+01 -2.24753E+01 -2.40041E+01 -2.47680E+01 -2.47398E+01 -2.38534E+01 -2.24665E+01 -2.09843E+01 -1.96952E+01 -1.90229E+01
  -1.92830E+01 -2.03861E+01 -2.18580E+01 -2.30812E+01 -2.36901E+01 -2.35669E+01 -2.28752E+01 -2.18603E+01 -2.07617E+01 -1.97060E+01
  -1.88471E+01 -1.83454E+01 -1.82836E+01 -1.85770E+01 -1.89746E+01 -1.92558E+01 -1.93818E+01 -1.94025E+01 -1.93833E+01 -1.92690E+01
  -1.89774E+01 -1.82315E+01 -1.73278E+01 -1.62994E+01 -1.50276E+01 -1.37397E+01 -1.29627E+01 -1.31273E+01 -1.41779E+01 -1.54160E+01
  -1.60785E+01 -1.60899E+01 -1.57916E+01 -1.55029E+01 -1.52550E+01 -1.44612E+01 -1.13286E+01 -3.39122E+00  7.95170E+00  2.30751E+01
   4.22274E+01  6.17655E+01  7.46440E+01  7.47269E+01  6.18250E+01  4.26132E+01  2.49377E+01  1.19447E+01  2.49435E+00 -5.13764E+00
  -1.06720E+01 -1.28373E+01 -1.33759E+01 -1.34824E+01 -1.34343E+01 -1.32938E+01 -1.30749E+01 -1.27598E+01 -1.22680E+01 -1.13488E+01
  -8.78364E+00 -1.34411E+00  9.90862E+00  2.41552E+01  4.24541E+01  6.27078E+01  7.85775E+01  8.29368E+01  7.32459E+01  5.46470E+01
   3.58464E+01  2.16373E+01  1.13208E+01  2.61417E+00 -5.00139E+00 -9.34392E+00 -1.09551E+01 -1.13491E+01 -1.09710E+01 -1.02160E+01
  -9.47869E+00 -9.00636E+00 -8.89731E+00 -9.13098E+00 -9.54010E+00 -9.96571E+00 -1.03608E+01 -1.07096E+01 -1.10545E+01 -1.13957E+01
  -1.16973E+01 -1.19764E+01 -1.22064E+01 -1.23234E+01 -1.23181E+01 -1.23366E+01 -1.24413E+01 -1.26918E+01 -1.32515E+01 -1.40178E+01
  -1.47757E+01 -1.51420E+01 -1.47529E+01 -1.38580E+01 -1.31985E+01 -1.33491E+01 -1.42892E+01 -1.54906E+01 -1.64109E+01 -1.70044E+01
  -1.75232E+01 -1.81213E+01 -1.87049E+01 -1.92945E+01 -1.98720E+01 -2.02551E+01 -2.00573E+01 -1.91758E+01 -1.81562E+01 -1.76627E+01
  -1.77527E+01 -1.79724E+01 -1.77314E+01 -1.69010E+01 -1.59954E+01 -1.51597E+01 -1.38204E+01 -1.15924E+01 -8.65262E+00 -5.76404E+00
  -3.77752E+00 -2.92337E+00 -3.05529E+00 -3.69314E+00 -4.37148E+00 -4.92961E+00 -5.28350E+00 -5.25138E+00 -4.62898E+00 -3.43518E+00
  -1.79650E+00 -3.11649E-03  1.59964E+00  2.58536E+00  2.36230E+00  8.93456E-01 -1.66259E+00 -4.82216E+00 -7.61842E+00 -9.16660E+00
  -8.89630E+00 -7.06038E+00 -3.97407E+00  5.15781E-02  4.28750E+00  7.36665E+00  7.79709E+00  5.23033E+00  8.20417E-01 -3.72651E+00
  -7.43205E+00 -9.63005E+00 -9.59413E+00 -6.99270E+00 -2.42447E+00  2.34205E+00  5.92333E+00  8.12961E+00  9.25780E+00  9.59899E+00
   9.37508E+00  9.12518E+00  9.39716E+00  1.03130E+01  1.15401E+01  1.27543E+01  1.36248E+01  1.38463E+01  1.34597E+01  1.26201E+01
   1.16838E+01  1.11500E+01  1.14874E+01  1.28104E+01  1.47989E+01  1.68983E+01  1.85435E+01  1.95711E+01  2.01939E+01  2.10511E+01
   2.31353E+01  2.63114E+01  3.06993E+01  3.70929E+01  4.84246E+01  6.60373E+01  8.48269E+01  1.06012E+02  1.31417E+02  1.56345E+02
   1.69933E+02  1.62909E+02  1.36449E+02  1.02926E+02  7.48100E+01  5.49757E+01  4.01202E+01  2.75731E+01  1.87407E+01  1.54196E+01
   1.40732E+01  1.33107E+01  1.29014E+01  1.26574E+01  1.23679E+01  1.19464E+01  1.14034E+01  1.08384E+01  1.03397E+01  9.93134E+00
   9.60834E+00  9.38067E+00  9.25553E+00  9.19751E+00  9.14761E+00  9.07783E+00  9.01923E+00  9.00214E+00  9.03930E+00  9.14246E+00
   9.33146E+00  9.61015E+00  9.95175E+00  1.03093E+01  1.06632E+01  1.10113E+01  1.13550E+01  1.16969E+01  1.20386E+01  1.23830E+01
   1.27347E+01  1.30799E+01  1.33946E+01  1.36601E+01  1.38661E+01  1.40092E+01  1.40886E+01  1.41038E+01  1.40615E+01  1.39703E+01
   1.38386E+01  1.36774E+01  1.34993E+01  1.33180E+01  1.31475E+01  1.30022E+01  1.28955E+01  1.28400E+01  1.28473E+01  1.29273E+01
   1.30872E+01  1.33317E+01  1.36627E+01  1.40798E+01  1.45800E+01  1.51575E+01  1.58030E+01  1.65045E+01  1.72477E+01  1.80167E+01
   1.87941E+01  1.95611E+01  2.02981E+01  2.09857E+01  2.16059E+01  2.21432E+01  2.25845E+01  2.29208E+01  2.31479E+01  2.32708E+01
   2.33106E+01  2.33134E+01  2.32429E+01  2.30508E+01  2.27619E+01  2.23294E+01  2.16489E+01  2.06655E+01  1.94798E+01  1.84110E+01
   1.77003E+01  1.73741E+01  1.73785E+01  1.76369E+01  1.80283E+01  1.83623E+01  1.83781E+01  1.79425E+01  1.71764E+01  1.62625E+01
   1.53110E+01  1.43596E+01  1.34313E+01  1.26093E+01  1.19343E+01  1.13869E+01  1.09507E+01  1.06093E+01  1.03452E+01  1.01421E+01
   9.98550E+00  9.86436E+00  9.77096E+00  9.70109E+00  9.65299E+00  9.62699E+00  9.62446E+00  9.64789E+00  9.70027E+00  9.78542E+00
   9.90724E+00  1.00699E+01  1.02773E+01  1.05335E+01  1.08423E+01  1.12077E+01  1.16327E+01  1.21197E+01  1.26699E+01  1.32833E+01
   1.39584E+01  1.46919E+01  1.54780E+01  1.63088E+01  1.71733E+01  1.80587E+01  1.89495E+01  1.98286E+01  2.06768E+01  2.14742E+01
   2.22007E+01  2.28371E+01  2.33657E+01  2.37713E+01  2.40416E+01  2.41685E+01  2.41476E+01  2.39799E+01  2.36701E+01  2.32276E+01
   2.26650E+01  2.19980E+01  2.12447E+01  2.04246E+01  1.95575E+01  1.86629E+01  1.77588E+01  1.68619E+01  1.59867E+01  1.51452E+01
   1.43467E+01  1.35982E+01  1.29041E+01  1.22667E+01  1.16866E+01  1.11630E+01  1.06935E+01  1.02752E+01  9.90408E+00  9.57655E+00
   9.28846E+00  9.03592E+00  8.81490E+00  8.62180E+00  8.45315E+00  8.30612E+00  8.17797E+00  8.06639E+00  7.96910E+00  7.88432E+00
   7.81037E+00  7.74608E+00  7.69016E+00  7.64165E+00  7.59946E+00  7.56290E+00  7.53124E+00  7.50409E+00  7.48082E+00  7.46102E+00
   7.44412E+00  7.42991E+00  7.41803E+00  7.40840E+00  7.40062E+00  7.39456E+00  7.38988E+00  7.38660E+00  7.38454E+00  7.38369E+00
   7.38376E+00  7.38473E+00  7.38638E+00  7.38882E+00  7.39193E+00  7.39571E+00  7.39994E+00  7.40463E+00  7.40965E+00  7.41514E+00
   7.42099E+00  7.42722E+00  7.43361E+00  7.44026E+00  7.44707E+00  7.45419E+00  7.46149E+00  7.46898E+00  7.47649E+00  7.48414E+00
   7.49186E+00  7.49980E+00  7.50780E+00  7.51589E+00  7.52394E+00  7.53209E+00  7.54029E+00  7.54867E+00  7.55703E+00  7.56545E+00
   7.57381E+00  7.58230E+00  7.59085E+00  7.59957E+00  7.60826E+00  7.61703E+00  7.62582E+00  7.63481E+00
 NY background values follow
    -4.760E+01   -4.726E+01   -4.692E+01   -4.657E+01   -4.623E+01   -4.589E+01   -4.554E+01   -4.520E+01   -4.485E+01   -4.451E+01
    -4.416E+01   -4.382E+01   -4.348E+01   -4.313E+01   -4.279E+01   -4.244E+01   -4.210E+01   -4.176E+01   -4.142E+01   -4.107E+01
    -4.073E+01   -4.039E+01   -4.005E+01   -3.971E+01   -3.938E+01   -3.904E+01   -3.870E+01   -3.837E+01   -3.803E+01   -3.770E+01
    -3.736E+01   -3.703E+01   -3.670E+01   -3.637E+01   -3.605E+01   -3.572E+01   -3.539E+01   -3.507E+01   -3.475E+01   -3.443E+01
    -3.411E+01   -3.379E+01   -3.348E+01   -3.316E+01   -3.285E+01   -3.254E+01   -3.224E+01   -3.193E+01   -3.163E+01   -3.132E+01
    -3.102E+01   -3.073E+01   -3.043E+01   -3.014E+01   -2.985E+01   -2.956E+01   -2.927E+01   -2.899E+01   -2.870E+01   -2.842E+01
    -2.815E+01   -2.787E+01   -2.760E+01   -2.733E+01   -2.706E+01   -2.679E+01   -2.653E+01   -2.627E+01   -2.601E+01   -2.576E+01
    -2.550E+01   -2.525E+01   -2.501E+01   -2.476E+01   -2.452E+01   -2.428E+01   -2.404E+01   -2.381E+01   -2.357E+01   -2.335E+01
    -2.312E+01   -2.290E+01   -2.268E+01   -2.246E+01   -2.224E+01   -2.203E+01   -2.182E+01   -2.162E+01   -2.141E+01   -2.121E+01
    -2.102E+01   -2.082E+01   -2.063E+01   -2.045E+01   -2.026E+01   -2.008E+01   -1.990E+01   -1.973E+01   -1.955E+01   -1.939E+01
    -1.922E+01   -1.906E+01   -1.889E+01   -1.874E+01   -1.858E+01   -1.843E+01   -1.828E+01   -1.813E+01   -1.799E+01   -1.785E+01
    -1.771E+01   -1.757E+01   -1.744E+01   -1.731E+01   -1.718E+01   -1.705E+01   -1.693E+01   -1.681E+01   -1.669E+01   -1.657E+01
    -1.646E+01   -1.635E+01   -1.624E+01   -1.613E+01   -1.603E+01   -1.593E+01   -1.583E+01   -1.573E+01   -1.563E+01   -1.554E+01
    -1.545E+01   -1.536E+01   -1.527E+01   -1.519E+01   -1.511E+01   -1.503E+01   -1.495E+01   -1.487E+01   -1.480E+01   -1.473E+01
    -1.466E+01   -1.459E+01   -1.452E+01   -1.445E+01   -1.438E+01   -1.432E+01   -1.425E+01   -1.419E+01   -1.412E+01   -1.406E+01
    -1.400E+01   -1.393E+01   -1.387E+01   -1.380E+01   -1.374E+01   -1.367E+01   -1.361E+01   -1.354E+01   -1.347E+01   -1.340E+01
    -1.333E+01   -1.326E+01   -1.318E+01   -1.310E+01   -1.303E+01   -1.295E+01   -1.286E+01   -1.278E+01   -1.269E+01   -1.260E+01
    -1.251E+01   -1.241E+01   -1.231E+01   -1.221E+01   -1.210E+01   -1.199E+01   -1.188E+01   -1.176E+01   -1.164E+01   -1.151E+01
    -1.138E+01   -1.125E+01   -1.111E+01   -1.097E+01   -1.082E+01   -1.067E+01   -1.051E+01   -1.035E+01   -1.019E+01   -1.002E+01
    -9.854E+00   -9.682E+00   -9.506E+00   -9.329E+00   -9.148E+00   -8.966E+00   -8.781E+00   -8.594E+00   -8.406E+00   -8.215E+00
    -8.024E+00   -7.831E+00   -7.637E+00   -7.441E+00   -7.245E+00   -7.049E+00   -6.852E+00   -6.654E+00   -6.457E+00   -6.260E+00
    -6.062E+00   -5.865E+00   -5.669E+00   -5.474E+00   -5.279E+00   -5.085E+00   -4.893E+00   -4.702E+00   -4.512E+00   -4.325E+00
    -4.139E+00   -3.955E+00   -3.774E+00   -3.595E+00   -3.418E+00   -3.245E+00   -3.074E+00   -2.906E+00   -2.742E+00   -2.580E+00
    -2.421E+00   -2.265E+00   -2.113E+00   -1.962E+00   -1.815E+00   -1.671E+00   -1.529E+00   -1.390E+00   -1.253E+00   -1.120E+00
    -9.884E-01   -8.596E-01   -7.334E-01   -6.096E-01   -4.882E-01   -3.692E-01   -2.526E-01   -1.382E-01   -2.607E-02    8.383E-02
     1.916E-01    2.971E-01    4.006E-01    5.021E-01    6.015E-01    6.989E-01    7.944E-01    8.879E-01    9.797E-01    1.070E+00
     1.158E+00    1.244E+00    1.329E+00    1.412E+00    1.493E+00    1.573E+00    1.651E+00    1.728E+00    1.803E+00    1.877E+00
     1.949E+00    2.020E+00    2.090E+00    2.158E+00    2.225E+00    2.291E+00    2.356E+00    2.419E+00    2.481E+00    2.542E+00
     2.601E+00    2.660E+00    2.717E+00    2.773E+00    2.827E+00    2.881E+00    2.933E+00    2.984E+00    3.034E+00    3.082E+00
     3.130E+00    3.176E+00    3.221E+00    3.266E+00    3.309E+00    3.350E+00    3.391E+00    3.431E+00    3.469E+00    3.507E+00
     3.543E+00    3.578E+00    3.612E+00    3.646E+00    3.678E+00    3.709E+00    3.739E+00    3.768E+00    3.796E+00    3.823E+00
     3.849E+00    3.874E+00    3.898E+00    3.921E+00    3.943E+00    3.964E+00    3.984E+00    4.004E+00    4.022E+00    4.040E+00
     4.056E+00    4.072E+00    4.087E+00    4.101E+00    4.115E+00    4.127E+00    4.140E+00    4.151E+00    4.162E+00    4.172E+00
     4.182E+00    4.191E+00    4.199E+00    4.208E+00    4.215E+00    4.223E+00    4.229E+00    4.236E+00    4.242E+00    4.248E+00
     4.254E+00    4.259E+00    4.264E+00    4.269E+00    4.274E+00    4.279E+00    4.283E+00    4.288E+00    4.292E+00    4.297E+00
     4.301E+00    4.306E+00    4.310E+00    4.315E+00    4.320E+00    4.325E+00    4.330E+00    4.335E+00    4.341E+00    4.347E+00
     4.353E+00    4.360E+00    4.367E+00    4.374E+00    4.382E+00    4.390E+00    4.398E+00    4.407E+00    4.416E+00    4.426E+00
     4.436E+00    4.446E+00    4.457E+00    4.468E+00    4.480E+00    4.492E+00    4.505E+00    4.518E+00    4.531E+00    4.545E+00
     4.559E+00    4.573E+00    4.588E+00    4.604E+00    4.619E+00    4.636E+00    4.652E+00    4.669E+00    4.687E+00    4.705E+00
     4.723E+00    4.742E+00    4.762E+00    4.781E+00    4.802E+00    4.822E+00    4.844E+00    4.865E+00    4.887E+00    4.910E+00
     4.933E+00    4.956E+00    4.980E+00    5.004E+00    5.029E+00    5.055E+00    5.080E+00    5.107E+00    5.133E+00    5.161E+00
     5.188E+00    5.216E+00    5.245E+00    5.274E+00    5.303E+00    5.332E+00    5.362E+00    5.392E+00    5.423E+00    5.453E+00
     5.484E+00    5.515E+00    5.546E+00    5.578E+00    5.609E+00    5.641E+00    5.673E+00    5.705E+00    5.737E+00    5.769E+00
     5.801E+00    5.833E+00    5.865E+00    5.897E+00    5.929E+00    5.961E+00    5.992E+00    6.024E+00    6.056E+00    6.087E+00
     6.118E+00    6.149E+00    6.180E+00    6.210E+00    6.241E+00    6.271E+00    6.300E+00    6.330E+00    6.359E+00    6.388E+00
     6.416E+00    6.444E+00    6.471E+00    6.498E+00    6.525E+00    6.551E+00    6.577E+00    6.603E+00    6.628E+00    6.652E+00
     6.676E+00    6.700E+00    6.724E+00    6.747E+00    6.769E+00    6.792E+00    6.813E+00    6.835E+00    6.856E+00    6.877E+00
     6.898E+00    6.918E+00    6.938E+00    6.957E+00    6.977E+00    6.996E+00    7.014E+00    7.033E+00    7.051E+00    7.068E+00
     7.086E+00    7.103E+00    7.120E+00    7.137E+00    7.153E+00    7.169E+00    7.185E+00    7.201E+00    7.216E+00    7.232E+00
     7.246E+00    7.261E+00    7.276E+00    7.290E+00    7.304E+00    7.318E+00    7.332E+00    7.345E+00
 Cr       Conc. = 1.09E+03
