 LCModel (Version 6.3-1L) Copyright: S.W. Provencher.          Ref.: Magn. Reson. Med. 30:672-679 (1993).                
 Slice#1 Row#6 Col#5  PD_24_press_2_raw_act
 36 lines in following concentration table = NCONC+1
    Conc.  %SD /Cr+PCr  Metabolite                                         
    0.000 999%   0.000 Ala                                                 
  254.508 131%   0.138 Asp                                                 
  660.792  68%   0.358 Cr                                                  
 1.18E+03  39%   0.642 PCr                                                 
  109.794 191% 6.0E-02 GABA                                                
   66.950 309% 3.6E-02 Glc                                                 
  478.075 113%   0.259 Gln                                                 
 2.16E+03  29%   1.171 Glu                                                 
    0.000 999%   0.000 GPC                                                 
  531.982   9%   0.288 PCh                                                 
    0.000 999%   0.000 GSH                                                 
 1.31E+03  43%   0.708 Ins                                                 
  420.516  71%   0.228 Lac                                                 
 3.11E+03   5%   1.685 NAA                                                 
    0.000 999%   0.000 NAAG                                                
  128.583  39% 7.0E-02 Scyllo                                              
  659.697  47%   0.358 Tau                                                 
  969.029  23%   0.526 -CrCH2                                              
  531.982   9%   0.288 GPC+PCh                                             
 3.11E+03   5%   1.685 NAA+NAAG                                            
 1.84E+03   7%   1.000 Cr+PCr                                              
 2.64E+03  33%   1.430 Glu+Gln                                             
 4.07E+03  17%   2.205 Lip13a                                              
    0.000 999%   0.000 Lip13b                                              
 1.11E+03  44%   0.600 Lip09                                               
 1.77E+03  29%   0.958 MM09                                                
  942.730  37%   0.511 Lip20                                               
 3.29E+03  23%   1.783 MM20                                                
  329.362 109%   0.179 MM12                                                
 1.94E+03  30%   1.053 MM14                                                
    0.000 999%   0.000 MM17                                                
 4.07E+03  17%   2.205 Lip13a+Lip13b                                       
 6.34E+03  10%   3.437 MM14+Lip13a+Lip13b+MM12                             
 2.87E+03  11%   1.558 MM09+Lip09                                          
 4.23E+03  17%   2.295 MM20+Lip20                                          
   6 lines in following misc. output table
  FWHM = 0.054 ppm    S/N =   7                                            
  Data shift = 0.008 ppm                                                   
  Ph: -38 deg      -3.5 deg/ppm                                            
  alphaB,S = 1.9E+00,   4.0E+00                                            
   14 spline knots.   Ns = 7(1)                                            
  (11)13 infls.   (13) 7 extrs.                                            
  498 points on ppm-axis = NY
      4.000000     3.992357     3.984714     3.977070     3.969427     3.961784     3.954141     3.946497     3.938854     3.931211
      3.923568     3.915925     3.908281     3.900638     3.892995     3.885352     3.877708     3.870065     3.862422     3.854779
      3.847136     3.839492     3.831849     3.824206     3.816563     3.808919     3.801276     3.793633     3.785990     3.778347
      3.770703     3.763060     3.755417     3.747774     3.740130     3.732487     3.724844     3.717201     3.709558     3.701914
      3.694271     3.686628     3.678985     3.671341     3.663698     3.656055     3.648412     3.640769     3.633125     3.625482
      3.617839     3.610196     3.602552     3.594909     3.587266     3.579623     3.571980     3.564336     3.556693     3.549050
      3.541407     3.533763     3.526120     3.518477     3.510834     3.503191     3.495547     3.487904     3.480261     3.472618
      3.464974     3.457331     3.449688     3.442045     3.434402     3.426758     3.419115     3.411472     3.403829     3.396185
      3.388542     3.380899     3.373256     3.365613     3.357969     3.350326     3.342683     3.335040     3.327396     3.319753
      3.312110     3.304467     3.296824     3.289180     3.281537     3.273894     3.266251     3.258607     3.250964     3.243321
      3.235678     3.228034     3.220391     3.212748     3.205105     3.197462     3.189818     3.182175     3.174532     3.166889
      3.159245     3.151602     3.143959     3.136316     3.128673     3.121029     3.113386     3.105743     3.098100     3.090456
      3.082813     3.075170     3.067527     3.059884     3.052240     3.044597     3.036954     3.029311     3.021667     3.014024
      3.006381     2.998738     2.991095     2.983451     2.975808     2.968165     2.960522     2.952878     2.945235     2.937592
      2.929949     2.922306     2.914662     2.907019     2.899376     2.891733     2.884089     2.876446     2.868803     2.861160
      2.853517     2.845873     2.838230     2.830587     2.822944     2.815300     2.807657     2.800014     2.792371     2.784728
      2.777084     2.769441     2.761798     2.754155     2.746511     2.738868     2.731225     2.723582     2.715939     2.708295
      2.700652     2.693009     2.685366     2.677722     2.670079     2.662436     2.654793     2.647150     2.639506     2.631863
      2.624220     2.616577     2.608933     2.601290     2.593647     2.586004     2.578361     2.570717     2.563074     2.555431
      2.547788     2.540144     2.532501     2.524858     2.517215     2.509572     2.501928     2.494285     2.486642     2.478999
      2.471355     2.463712     2.456069     2.448426     2.440783     2.433139     2.425496     2.417853     2.410210     2.402566
      2.394923     2.387280     2.379637     2.371994     2.364350     2.356707     2.349064     2.341421     2.333777     2.326134
      2.318491     2.310848     2.303205     2.295561     2.287918     2.280275     2.272632     2.264988     2.257345     2.249702
      2.242059     2.234416     2.226772     2.219129     2.211486     2.203843     2.196199     2.188556     2.180913     2.173270
      2.165627     2.157983     2.150340     2.142697     2.135054     2.127410     2.119767     2.112124     2.104481     2.096838
      2.089194     2.081551     2.073908     2.066265     2.058621     2.050978     2.043335     2.035692     2.028049     2.020405
      2.012762     2.005119     1.997476     1.989833     1.982190     1.974546     1.966903     1.959260     1.951617     1.943974
      1.936331     1.928688     1.921045     1.913402     1.905759     1.898115     1.890472     1.882829     1.875186     1.867543
      1.859900     1.852257     1.844614     1.836971     1.829327     1.821684     1.814041     1.806398     1.798755     1.791112
      1.783469     1.775826     1.768183     1.760540     1.752896     1.745253     1.737610     1.729967     1.722324     1.714681
      1.707038     1.699395     1.691752     1.684108     1.676465     1.668822     1.661179     1.653536     1.645893     1.638250
      1.630607     1.622964     1.615321     1.607677     1.600034     1.592391     1.584748     1.577105     1.569462     1.561819
      1.554176     1.546533     1.538890     1.531246     1.523603     1.515960     1.508317     1.500674     1.493031     1.485388
      1.477745     1.470102     1.462458     1.454815     1.447172     1.439529     1.431886     1.424243     1.416600     1.408957
      1.401314     1.393671     1.386027     1.378384     1.370741     1.363098     1.355455     1.347812     1.340169     1.332526
      1.324883     1.317240     1.309596     1.301953     1.294310     1.286667     1.279024     1.271381     1.263738     1.256095
      1.248452     1.240808     1.233165     1.225522     1.217879     1.210236     1.202593     1.194950     1.187307     1.179664
      1.172021     1.164377     1.156734     1.149091     1.141448     1.133805     1.126162     1.118519     1.110876     1.103233
      1.095590     1.087946     1.080303     1.072660     1.065017     1.057374     1.049731     1.042088     1.034445     1.026802
      1.019158     1.011515     1.003872     0.996229     0.988586     0.980943     0.973300     0.965657     0.958014     0.950371
      0.942727     0.935084     0.927441     0.919798     0.912155     0.904512     0.896869     0.889226     0.881583     0.873940
      0.866296     0.858653     0.851010     0.843367     0.835724     0.828081     0.820438     0.812795     0.805152     0.797508
      0.789865     0.782222     0.774579     0.766936     0.759293     0.751650     0.744007     0.736364     0.728721     0.721077
      0.713434     0.705791     0.698148     0.690505     0.682862     0.675219     0.667576     0.659933     0.652290     0.644646
      0.637003     0.629360     0.621717     0.614074     0.606431     0.598788     0.591145     0.583502     0.575858     0.568215
      0.560572     0.552929     0.545286     0.537643     0.530000     0.522357     0.514714     0.507071     0.499427     0.491784
      0.484141     0.476498     0.468855     0.461212     0.453569     0.445925     0.438282     0.430639     0.422996     0.415353
      0.407710     0.400067     0.392424     0.384780     0.377137     0.369494     0.361851     0.354208     0.346565     0.338922
      0.331278     0.323635     0.315992     0.308349     0.300706     0.293063     0.285420     0.277777     0.270133     0.262490
      0.254847     0.247204     0.239561     0.231918     0.224275     0.216631     0.208988     0.201345
 NY phased data points follow
  -5.56756E+01 -4.71067E+01 -5.97542E+01 -3.39489E+01 -5.24924E+01 -2.54376E+01 -4.42526E+01 -2.49464E+01 -3.21631E+01 -1.29210E+01
  -1.62044E+01  5.35666E+00 -1.51908E+01 -2.75402E-01 -1.80554E+01 -1.40969E+01 -3.44076E+01 -1.12894E+01 -3.80618E+01 -2.62362E+01
  -3.55728E+01 -3.40199E+01 -4.23615E+01 -2.68606E+01 -3.15142E+01 -2.77055E+01 -3.52016E+01 -1.77844E+01 -3.88204E+01 -2.79265E+01
  -3.53611E+01 -1.52965E+01 -3.97630E+01 -5.12666E+00 -3.31126E+01 -2.40860E+01 -3.57057E+01 -2.61016E+01 -3.07153E+01 -1.67887E+01
  -3.21914E+01 -1.10377E+01 -2.43223E+01 -1.97489E+01 -2.02305E+01 -7.21790E+00 -8.62414E+00 -9.00577E+00 -1.64841E+01 -8.32133E+00
  -1.58574E+01 -1.77909E+01 -2.96207E+01 -1.59008E+01 -3.12325E+01 -4.23845E+00 -2.54804E+01 -6.10286E+00 -1.95867E+01 -8.17535E+00
  -2.52093E+01 -1.66893E+01 -3.02681E+01 -1.78923E+01 -3.24387E+01 -1.10652E+01 -3.57790E+01 -2.43295E+01 -2.55210E+01 -2.06047E+01
  -2.13520E+01 -2.71222E+01 -2.91077E+01 -3.53190E+00 -2.22209E+01 -1.33808E+01 -1.08665E+01 -1.64693E+01 -2.10045E+01 -8.95249E+00
  -2.82464E+01 -1.20434E+01 -3.03897E+01 -6.28013E+00 -2.31271E+01 -7.25040E+00 -1.62488E+01 -1.25874E-01 -2.84592E+01 -1.95148E+01
  -1.23377E+01 -8.20516E+00 -6.70625E+00 -1.46741E+01 -1.14646E+01 -6.87094E+00 -4.23924E+00 -1.03068E+01 -1.27495E+01  1.29072E+01
   6.07930E+00  1.20722E+01  1.80608E+01  2.57907E+01  2.23264E+01  4.02593E+01  1.20476E+01  2.17864E+01 -3.92242E+00 -3.20026E+00
  -1.09006E+01 -8.83920E-03  5.81763E-01 -1.02059E+01 -1.78748E+01 -9.04429E+00 -2.32564E+01 -9.79872E+00 -1.92093E+01 -1.31566E+01
  -3.25754E+01 -1.12703E+01 -1.46262E+00 -5.13919E+00 -4.35709E+00  2.09236E+01  3.80422E+01  4.47691E+01  4.84447E+01  2.72815E+01
   2.17671E+01  3.04376E+01  9.37570E+00  8.20857E+00 -1.05861E+01 -3.57443E+00 -5.73586E+00  6.45843E-01 -1.14214E+01 -5.07708E+00
  -1.27840E+01 -1.70344E+01 -2.35512E+01 -1.69785E+01 -1.41815E+01 -8.48899E+00 -1.63672E+01 -1.30273E+01 -1.54374E+01 -1.08871E+01
  -2.42039E+01 -1.55897E+01 -2.06693E+01 -1.16719E+01 -9.88832E+00 -7.71098E+00 -2.00859E+01 -2.02340E+01 -1.17614E+01 -9.45141E+00
  -1.00213E+01 -6.33111E+00 -1.45511E+01  5.24003E+00 -3.50595E+01 -1.51611E+01 -2.11627E+01 -1.78836E+01 -1.78040E+01 -1.66867E+01
  -1.11374E+01 -9.18230E+00 -1.36819E+01 -4.97008E+00 -1.11789E+01 -6.40702E+00 -2.35841E+01 -2.20744E+01 -3.09063E+01 -2.07099E+01
  -2.33299E+01 -1.93509E+01 -8.55959E+00 -1.59405E+01 -2.67869E+01 -1.69841E+01 -1.11566E+01 -1.36881E+01 -6.29929E+00 -5.30939E+00
  -1.56961E+01 -1.15433E+01 -8.43063E+00 -1.13249E+01 -2.45952E+01 -1.57250E+01 -2.01520E+01 -1.27685E+01 -1.80705E+01 -1.95076E+01
  -2.14599E+01 -1.00909E+00 -7.67118E+00 -4.89703E+00 -1.20939E+01 -9.20189E+00 -1.56795E+01 -1.33686E+01 -1.20159E+01 -3.32341E-01
  -2.53973E+01 -1.18339E+01 -2.88628E+00  3.90211E+00  1.21156E+01  1.28319E+01 -1.58468E+01  5.73898E+00 -8.47872E+00 -4.15464E-01
  -2.68403E+01 -1.01036E+01 -2.21976E+01 -9.17691E+00 -1.29502E+01  4.32769E+00 -8.78562E+00  4.92883E+00 -9.39248E+00  4.52820E-01
  -1.19936E+01  3.92671E-05  2.35320E+00  6.60131E+00  1.65226E+00 -2.41665E+00 -3.66619E+00 -1.82073E+00 -5.96153E-01 -3.10658E+00
   4.95404E-01  1.14059E+01 -4.26586E+00 -8.04762E+00 -1.09914E+01  2.64319E+00  2.61665E+00  8.94792E+00  6.28731E+00 -6.42889E+00
   7.43667E+00  8.92249E+00  3.81664E-01  8.95137E+00  6.74934E+00  2.92463E+01  3.48095E+01  6.06714E+01  6.84909E+01  1.00474E+02
   1.03222E+02  9.85389E+01  7.83902E+01  7.58473E+01  6.04884E+01  3.94596E+01  2.57294E+01  2.94505E+01  4.77788E+00  4.97593E+00
   8.32818E+00  1.46111E+00 -6.80685E-01 -4.51700E+00 -6.03592E+00 -6.36676E+00 -1.54138E+01 -1.45668E+01 -9.01636E+00 -1.46317E+01
  -1.92888E+01  9.62386E+00 -1.76270E+01 -1.55120E+01 -7.62450E+00 -8.16903E+00 -1.72480E+01 -1.00749E+01 -4.05327E+00 -6.93191E+00
  -2.42677E+01 -1.23015E+01 -2.07120E+01 -2.39118E+01 -3.11790E+01 -1.96045E+01 -2.22190E+01 -2.05347E+01 -1.98253E+01 -7.22280E+00
  -1.82862E+01 -1.79573E+01 -1.07501E+01 -6.47704E+00 -1.44735E+01 -4.64440E+00 -1.35818E+01  7.66860E+00 -3.13559E+00  2.76123E+00
  -8.04176E+00  1.19122E-01  2.14797E+00  7.47441E+00 -4.75660E+00 -6.39537E+00 -1.32478E+01 -5.41573E-01 -1.63223E+01 -1.55640E+01
  -6.38950E+00 -7.20630E+00 -1.73927E+01 -1.66659E+01 -1.05852E+01  8.58506E+00 -1.04975E+01  3.11301E+00  6.74155E+00  1.39959E+01
   7.41347E+00  9.86960E+00  3.05159E+00  4.65985E+00 -3.42228E+00  1.44907E+01 -2.39711E+00  1.48049E+01  1.96743E+00  1.52139E+01
   7.22863E+00  1.80402E+01  1.65745E+01  2.19767E+01  1.04733E+01  1.73706E+01  1.34887E+01  2.21395E+01  1.34065E+01  1.55642E+01
   1.03531E+01  1.41631E+01  1.22849E+01  2.60680E+01  7.94412E+00  1.63027E+01  1.08295E+01  1.66790E+01  2.10038E+01  1.29111E+01
   1.88788E+01  1.26885E+01  1.06874E+01  1.70364E+01  9.15192E+00  2.13554E+01 -8.23865E-01  7.84510E+00  8.36098E+00  7.52368E+00
   3.12083E+00 -1.17964E+01 -3.55942E+00 -4.16847E+00 -9.71117E+00 -2.38184E+00 -1.42473E+01 -2.21001E+01 -5.35078E+00  2.30221E+00
  -4.69455E+00  5.86244E+00 -7.51298E+00 -4.79310E+00 -7.73607E+00 -2.02389E+01 -4.08200E+00 -1.67833E+00 -6.68609E+00 -2.68616E+00
   2.72763E-01  1.58614E+00 -5.99459E+00  2.31812E+00  5.90553E+00  6.13063E+00 -9.29303E+00  8.26606E+00  6.56568E+00  3.37360E+00
   1.45491E+01  1.23462E+01  1.40552E+01  2.13002E+01  1.60389E+01  1.90046E+01  3.61714E+00  2.66909E+01  1.22948E+01  1.23909E+01
   1.37418E+01  1.52198E+01  6.42691E+00  1.12452E+01  1.03290E+01  9.02939E+00  1.63969E+01  1.70297E+00  2.34977E-01  8.25669E+00
   5.96823E+00  7.82393E+00  1.23804E+00 -3.83404E+00 -5.33367E+00 -2.17365E+00 -6.45535E+00  1.30001E+01 -7.65526E+00 -8.90955E+00
  -4.14329E+00 -4.30064E+00 -8.65914E+00 -1.73250E+01 -9.19561E+00 -3.40228E+00 -7.49689E+00 -1.04294E+01 -1.92217E+00 -2.91735E+00
  -1.12080E+01  6.74061E+00 -1.73115E+01 -5.37171E+00 -8.07352E+00 -3.65555E+00 -1.31657E+01 -2.36576E+00 -1.15058E+01 -3.07742E-01
  -2.33628E+01 -8.98539E+00 -5.84749E+00 -3.92548E+00 -4.08746E+00 -3.99234E+00 -1.16001E+01 -5.32084E+00 -1.23195E+01  1.81210E+00
  -1.31819E+01 -2.83720E+00 -5.91443E+00 -3.55536E+00 -1.12786E+01 -8.73311E+00 -3.08518E-01  6.25362E+00 -6.35369E+00 -7.84297E+00
  -7.85842E+00 -8.07157E+00 -8.40573E+00 -5.25265E+00 -8.59443E+00 -3.95700E+00 -3.80606E+00  6.03512E-01 -8.69016E+00 -7.19069E+00
  -1.50516E+01 -5.57557E+00 -4.57620E+00 -1.47516E+01 -4.93320E+00 -1.30211E+00 -1.41166E+01 -6.00428E+00 -4.44029E+00 -1.17789E+01
  -2.16143E+01  3.15357E+00 -7.09903E+00 -1.01486E+01  9.38553E+00 -5.27175E+00 -5.01873E+00 -5.96417E+00
 NY points of the fit to the data follow
  -2.88167E+01 -3.03909E+01 -3.02774E+01 -3.24515E+01 -3.35654E+01 -3.03232E+01 -3.30847E+01 -2.82117E+01 -2.62112E+01 -1.74201E+01
  -1.18752E+01 -6.66695E+00 -1.37920E+01 -7.90473E+00 -1.52976E+01 -1.57004E+01 -2.35904E+01 -2.01960E+01 -2.34894E+01 -2.42891E+01
  -2.65546E+01 -2.67097E+01 -2.69135E+01 -2.64580E+01 -2.66165E+01 -2.73299E+01 -2.85865E+01 -2.88588E+01 -2.90841E+01 -2.67689E+01
  -2.55069E+01 -2.30603E+01 -2.12620E+01 -2.05660E+01 -2.23821E+01 -2.31255E+01 -2.50340E+01 -2.52317E+01 -2.65696E+01 -2.54694E+01
  -2.52534E+01 -2.48290E+01 -2.42766E+01 -2.26455E+01 -2.14953E+01 -1.91129E+01 -1.73815E+01 -1.58905E+01 -1.64839E+01 -1.87978E+01
  -2.04209E+01 -2.14162E+01 -2.31101E+01 -2.40626E+01 -2.33966E+01 -2.29912E+01 -2.28809E+01 -2.25197E+01 -2.16281E+01 -2.04516E+01
  -1.98093E+01 -1.99052E+01 -1.99725E+01 -2.03997E+01 -2.03884E+01 -2.07623E+01 -2.03614E+01 -1.98994E+01 -1.98296E+01 -1.98014E+01
  -1.88023E+01 -1.86594E+01 -1.78027E+01 -1.72277E+01 -1.68198E+01 -1.66234E+01 -1.68471E+01 -1.80445E+01 -1.91633E+01 -1.88713E+01
  -1.93401E+01 -1.81776E+01 -1.73968E+01 -1.58146E+01 -1.48710E+01 -1.37795E+01 -1.36572E+01 -1.43728E+01 -1.63104E+01 -1.60533E+01
  -1.66216E+01 -1.78927E+01 -1.86670E+01 -1.81010E+01 -1.81638E+01 -1.88983E+01 -1.80762E+01 -1.68329E+01 -1.22915E+01 -2.93472E+00
  -1.09878E+00  1.14681E+01  2.13535E+01  3.12092E+01  3.13594E+01  2.77552E+01  1.64486E+01  1.86395E+01  5.02891E+00 -9.20187E-01
  -6.43312E+00 -4.02250E+00 -1.12854E+01 -1.58273E+01 -1.69056E+01 -1.68869E+01 -1.69563E+01 -1.68867E+01 -1.67379E+01 -1.63719E+01
  -1.59467E+01 -1.49383E+01 -7.92448E+00  1.75369E+00  5.33558E+00  2.26566E+01  3.36457E+01  4.46468E+01  4.37802E+01  3.64389E+01
   2.41692E+01  2.64516E+01  8.24273E+00  2.07427E+00 -2.95725E+00 -7.15434E-01 -1.07972E+01 -1.50064E+01 -1.57069E+01 -1.58061E+01
  -1.59464E+01 -1.59689E+01 -1.59713E+01 -1.58487E+01 -1.56747E+01 -1.56224E+01 -1.55938E+01 -1.55496E+01 -1.56381E+01 -1.56381E+01
  -1.56699E+01 -1.56579E+01 -1.56030E+01 -1.54986E+01 -1.54463E+01 -1.56485E+01 -1.61104E+01 -1.61655E+01 -1.68922E+01 -1.73165E+01
  -1.76468E+01 -1.79591E+01 -1.72065E+01 -1.64447E+01 -1.65538E+01 -1.63747E+01 -1.66128E+01 -1.72786E+01 -1.74188E+01 -1.82099E+01
  -1.84290E+01 -1.91956E+01 -1.92237E+01 -2.00451E+01 -2.07447E+01 -2.07641E+01 -2.08223E+01 -1.99886E+01 -1.95401E+01 -1.97275E+01
  -1.98494E+01 -1.92484E+01 -1.93745E+01 -1.84678E+01 -1.88711E+01 -1.77149E+01 -1.71458E+01 -1.61341E+01 -1.52527E+01 -1.37486E+01
  -1.34032E+01 -1.22841E+01 -1.15585E+01 -1.16407E+01 -1.14300E+01 -1.08402E+01 -1.04302E+01 -1.08878E+01 -1.07418E+01 -1.06221E+01
  -9.50819E+00 -8.79728E+00 -7.79881E+00 -6.62009E+00 -7.00839E+00 -8.51503E+00 -1.01952E+01 -1.21925E+01 -1.48829E+01 -1.54795E+01
  -1.59215E+01 -1.29245E+01 -1.17317E+01 -7.82748E+00 -5.07006E+00 -2.08334E+00 -4.37340E+00 -7.52281E+00 -1.09542E+01 -1.22111E+01
  -1.82765E+01 -1.92377E+01 -1.83145E+01 -1.46075E+01 -1.21948E+01 -1.01269E+01 -7.41880E+00 -4.11257E+00 -3.05389E+00 -3.45957E+00
  -2.72648E+00 -1.75567E+00 -1.36901E+00 -1.63650E+00 -1.64807E+00 -1.60005E+00 -7.52618E-01 -7.34243E-01 -3.26996E-01 -5.34014E-02
   3.38763E-01  3.95132E-01  1.14180E+00  1.27067E+00  2.51991E+00  3.13246E+00  3.21402E+00  3.79366E+00  4.42722E+00  4.27968E+00
   4.53424E+00  6.25756E+00  7.65136E+00  8.47019E+00  1.27203E+01  2.98211E+01  3.69657E+01  5.31537E+01  7.65864E+01  9.60459E+01
   1.04424E+02  9.97833E+01  7.71078E+01  7.23138E+01  5.81370E+01  3.46653E+01  2.32103E+01  2.25407E+01  1.54927E+01  3.19410E-01
  -3.82111E+00 -4.76120E+00 -5.51655E+00 -5.63369E+00 -5.68174E+00 -5.97494E+00 -6.20204E+00 -6.48705E+00 -6.98201E+00 -7.44948E+00
  -7.76655E+00 -8.07781E+00 -8.41302E+00 -8.71700E+00 -8.89004E+00 -9.02369E+00 -9.14249E+00 -9.26249E+00 -9.33956E+00 -9.37159E+00
  -9.41648E+00 -9.48584E+00 -9.52310E+00 -9.53190E+00 -9.56051E+00 -9.58137E+00 -9.56582E+00 -9.54133E+00 -9.51257E+00 -9.46895E+00
  -9.40709E+00 -9.33711E+00 -9.25775E+00 -9.16051E+00 -9.06042E+00 -8.94486E+00 -8.81758E+00 -8.67403E+00 -8.52019E+00 -8.34128E+00
  -8.14624E+00 -7.92547E+00 -7.68726E+00 -7.41525E+00 -7.12136E+00 -6.79052E+00 -6.43358E+00 -6.03639E+00 -5.61055E+00 -5.14272E+00
  -4.64492E+00 -4.10521E+00 -3.53671E+00 -2.92885E+00 -2.29600E+00 -1.62895E+00 -9.42498E-01 -2.28512E-01  4.98122E-01  1.24550E+00
   1.99954E+00  2.76953E+00  3.54361E+00  4.33297E+00  5.12857E+00  5.94464E+00  6.77640E+00  7.64246E+00  8.54418E+00  9.50881E+00
   1.05561E+01  1.18156E+01  1.35917E+01  1.48125E+01  1.58441E+01  1.74406E+01  1.76885E+01  1.73162E+01  1.57548E+01  1.38532E+01
   1.37141E+01  1.37134E+01  1.26159E+01  1.42069E+01  1.60485E+01  1.77946E+01  1.80103E+01  1.76784E+01  1.77424E+01  1.75321E+01
   1.58046E+01  1.41764E+01  1.30136E+01  1.19429E+01  9.87217E+00  8.13599E+00  6.62117E+00  5.23280E+00  3.94183E+00  2.75262E+00
   1.66008E+00  6.73693E-01 -2.11980E-01 -9.90225E-01 -1.66930E+00 -2.24529E+00 -2.72814E+00 -3.11522E+00 -3.41673E+00 -3.63000E+00
  -3.76422E+00 -3.81550E+00 -3.79106E+00 -3.68522E+00 -3.50310E+00 -3.23739E+00 -2.89145E+00 -2.45690E+00 -1.93632E+00 -1.32173E+00
  -6.16805E-01  1.83955E-01  1.07367E+00  2.05309E+00  3.10975E+00  4.23736E+00  5.41602E+00  6.63136E+00  7.85583E+00  9.06776E+00
   1.02337E+01  1.13275E+01  1.23139E+01  1.31673E+01  1.38563E+01  1.43618E+01  1.46619E+01  1.47488E+01  1.46142E+01  1.42647E+01
   1.37069E+01  1.29611E+01  1.20461E+01  1.09924E+01  9.82628E+00  8.58264E+00  7.28959E+00  5.98028E+00  4.67901E+00  3.41274E+00
   2.19852E+00  1.05490E+00 -9.62235E-03 -9.85163E-01 -1.87094E+00 -2.66412E+00 -3.36953E+00 -3.98905E+00 -4.53079E+00 -4.99910E+00
  -5.40333E+00 -5.74843E+00 -6.04341E+00 -6.29274E+00 -6.50442E+00 -6.68197E+00 -6.83203E+00 -6.95696E+00 -7.06204E+00 -7.14871E+00
  -7.22117E+00 -7.28016E+00 -7.32894E+00 -7.36769E+00 -7.39900E+00 -7.42274E+00 -7.44102E+00 -7.45355E+00 -7.46199E+00 -7.46589E+00
  -7.46664E+00 -7.46383E+00 -7.45860E+00 -7.45054E+00 -7.44053E+00 -7.42820E+00 -7.41426E+00 -7.39848E+00 -7.38142E+00 -7.36287E+00
  -7.34317E+00 -7.32224E+00 -7.30032E+00 -7.27744E+00 -7.25371E+00 -7.22920E+00 -7.20386E+00 -7.17792E+00 -7.15121E+00 -7.12410E+00
  -7.09626E+00 -7.06810E+00 -7.03919E+00 -7.01009E+00 -6.98027E+00 -6.95041E+00 -6.91981E+00 -6.88922E+00 -6.85784E+00 -6.82661E+00
  -6.79461E+00 -6.76284E+00 -6.73023E+00 -6.69790E+00 -6.66469E+00 -6.63186E+00 -6.59815E+00 -6.56487E+00 -6.53061E+00 -6.49683E+00
  -6.46201E+00 -6.42777E+00 -6.39247E+00 -6.35774E+00 -6.32183E+00 -6.28651E+00 -6.24996E+00 -6.21407E+00
 NY background values follow
    -3.339E+01   -3.327E+01   -3.315E+01   -3.303E+01   -3.291E+01   -3.279E+01   -3.267E+01   -3.255E+01   -3.243E+01   -3.231E+01
    -3.219E+01   -3.207E+01   -3.195E+01   -3.183E+01   -3.171E+01   -3.159E+01   -3.147E+01   -3.135E+01   -3.123E+01   -3.111E+01
    -3.099E+01   -3.087E+01   -3.075E+01   -3.063E+01   -3.051E+01   -3.040E+01   -3.028E+01   -3.016E+01   -3.004E+01   -2.992E+01
    -2.980E+01   -2.968E+01   -2.957E+01   -2.945E+01   -2.933E+01   -2.921E+01   -2.910E+01   -2.898E+01   -2.886E+01   -2.874E+01
    -2.863E+01   -2.851E+01   -2.839E+01   -2.828E+01   -2.816E+01   -2.805E+01   -2.793E+01   -2.782E+01   -2.770E+01   -2.759E+01
    -2.747E+01   -2.736E+01   -2.724E+01   -2.713E+01   -2.702E+01   -2.690E+01   -2.679E+01   -2.668E+01   -2.657E+01   -2.645E+01
    -2.634E+01   -2.623E+01   -2.612E+01   -2.601E+01   -2.590E+01   -2.579E+01   -2.568E+01   -2.557E+01   -2.546E+01   -2.535E+01
    -2.524E+01   -2.513E+01   -2.502E+01   -2.492E+01   -2.481E+01   -2.470E+01   -2.460E+01   -2.449E+01   -2.439E+01   -2.428E+01
    -2.418E+01   -2.407E+01   -2.397E+01   -2.386E+01   -2.376E+01   -2.366E+01   -2.355E+01   -2.345E+01   -2.335E+01   -2.325E+01
    -2.315E+01   -2.305E+01   -2.295E+01   -2.285E+01   -2.275E+01   -2.265E+01   -2.255E+01   -2.246E+01   -2.236E+01   -2.226E+01
    -2.217E+01   -2.207E+01   -2.198E+01   -2.188E+01   -2.179E+01   -2.169E+01   -2.160E+01   -2.151E+01   -2.141E+01   -2.132E+01
    -2.123E+01   -2.114E+01   -2.105E+01   -2.096E+01   -2.087E+01   -2.078E+01   -2.069E+01   -2.060E+01   -2.052E+01   -2.043E+01
    -2.034E+01   -2.026E+01   -2.017E+01   -2.009E+01   -2.000E+01   -1.992E+01   -1.984E+01   -1.975E+01   -1.967E+01   -1.959E+01
    -1.951E+01   -1.943E+01   -1.935E+01   -1.927E+01   -1.919E+01   -1.911E+01   -1.903E+01   -1.895E+01   -1.888E+01   -1.880E+01
    -1.872E+01   -1.865E+01   -1.857E+01   -1.850E+01   -1.842E+01   -1.835E+01   -1.828E+01   -1.821E+01   -1.813E+01   -1.806E+01
    -1.799E+01   -1.792E+01   -1.785E+01   -1.778E+01   -1.771E+01   -1.765E+01   -1.758E+01   -1.751E+01   -1.745E+01   -1.738E+01
    -1.731E+01   -1.725E+01   -1.719E+01   -1.712E+01   -1.706E+01   -1.699E+01   -1.693E+01   -1.687E+01   -1.681E+01   -1.675E+01
    -1.669E+01   -1.663E+01   -1.657E+01   -1.651E+01   -1.645E+01   -1.639E+01   -1.634E+01   -1.628E+01   -1.622E+01   -1.617E+01
    -1.611E+01   -1.606E+01   -1.600E+01   -1.595E+01   -1.590E+01   -1.585E+01   -1.579E+01   -1.574E+01   -1.569E+01   -1.564E+01
    -1.559E+01   -1.554E+01   -1.549E+01   -1.544E+01   -1.539E+01   -1.534E+01   -1.530E+01   -1.525E+01   -1.520E+01   -1.516E+01
    -1.511E+01   -1.507E+01   -1.502E+01   -1.498E+01   -1.493E+01   -1.489E+01   -1.485E+01   -1.480E+01   -1.476E+01   -1.472E+01
    -1.468E+01   -1.464E+01   -1.460E+01   -1.456E+01   -1.452E+01   -1.448E+01   -1.444E+01   -1.440E+01   -1.436E+01   -1.432E+01
    -1.428E+01   -1.425E+01   -1.421E+01   -1.417E+01   -1.414E+01   -1.410E+01   -1.407E+01   -1.403E+01   -1.399E+01   -1.396E+01
    -1.393E+01   -1.389E+01   -1.386E+01   -1.383E+01   -1.379E+01   -1.376E+01   -1.373E+01   -1.369E+01   -1.366E+01   -1.363E+01
    -1.360E+01   -1.357E+01   -1.354E+01   -1.351E+01   -1.348E+01   -1.345E+01   -1.342E+01   -1.339E+01   -1.336E+01   -1.333E+01
    -1.330E+01   -1.327E+01   -1.324E+01   -1.321E+01   -1.319E+01   -1.316E+01   -1.313E+01   -1.310E+01   -1.307E+01   -1.305E+01
    -1.302E+01   -1.299E+01   -1.296E+01   -1.294E+01   -1.291E+01   -1.288E+01   -1.286E+01   -1.283E+01   -1.280E+01   -1.278E+01
    -1.275E+01   -1.273E+01   -1.270E+01   -1.267E+01   -1.265E+01   -1.262E+01   -1.260E+01   -1.257E+01   -1.254E+01   -1.252E+01
    -1.249E+01   -1.247E+01   -1.244E+01   -1.242E+01   -1.239E+01   -1.237E+01   -1.234E+01   -1.231E+01   -1.229E+01   -1.226E+01
    -1.224E+01   -1.221E+01   -1.219E+01   -1.216E+01   -1.214E+01   -1.211E+01   -1.209E+01   -1.206E+01   -1.204E+01   -1.201E+01
    -1.199E+01   -1.196E+01   -1.194E+01   -1.191E+01   -1.189E+01   -1.186E+01   -1.183E+01   -1.181E+01   -1.178E+01   -1.176E+01
    -1.173E+01   -1.171E+01   -1.168E+01   -1.166E+01   -1.163E+01   -1.161E+01   -1.158E+01   -1.155E+01   -1.153E+01   -1.150E+01
    -1.148E+01   -1.145E+01   -1.143E+01   -1.140E+01   -1.137E+01   -1.135E+01   -1.132E+01   -1.130E+01   -1.127E+01   -1.124E+01
    -1.122E+01   -1.119E+01   -1.116E+01   -1.114E+01   -1.111E+01   -1.108E+01   -1.106E+01   -1.103E+01   -1.100E+01   -1.098E+01
    -1.095E+01   -1.092E+01   -1.090E+01   -1.087E+01   -1.084E+01   -1.081E+01   -1.079E+01   -1.076E+01   -1.073E+01   -1.070E+01
    -1.068E+01   -1.065E+01   -1.062E+01   -1.059E+01   -1.056E+01   -1.053E+01   -1.051E+01   -1.048E+01   -1.045E+01   -1.042E+01
    -1.039E+01   -1.036E+01   -1.034E+01   -1.031E+01   -1.028E+01   -1.025E+01   -1.022E+01   -1.019E+01   -1.016E+01   -1.013E+01
    -1.010E+01   -1.007E+01   -1.004E+01   -1.001E+01   -9.983E+00   -9.953E+00   -9.923E+00   -9.893E+00   -9.863E+00   -9.833E+00
    -9.802E+00   -9.772E+00   -9.741E+00   -9.711E+00   -9.680E+00   -9.649E+00   -9.618E+00   -9.588E+00   -9.557E+00   -9.525E+00
    -9.494E+00   -9.463E+00   -9.432E+00   -9.400E+00   -9.369E+00   -9.337E+00   -9.306E+00   -9.274E+00   -9.242E+00   -9.210E+00
    -9.178E+00   -9.146E+00   -9.114E+00   -9.082E+00   -9.050E+00   -9.017E+00   -8.985E+00   -8.952E+00   -8.920E+00   -8.887E+00
    -8.854E+00   -8.822E+00   -8.789E+00   -8.756E+00   -8.723E+00   -8.690E+00   -8.657E+00   -8.623E+00   -8.590E+00   -8.557E+00
    -8.524E+00   -8.490E+00   -8.457E+00   -8.423E+00   -8.390E+00   -8.356E+00   -8.322E+00   -8.289E+00   -8.255E+00   -8.221E+00
    -8.187E+00   -8.153E+00   -8.119E+00   -8.085E+00   -8.051E+00   -8.017E+00   -7.983E+00   -7.949E+00   -7.915E+00   -7.881E+00
    -7.847E+00   -7.812E+00   -7.778E+00   -7.744E+00   -7.710E+00   -7.675E+00   -7.641E+00   -7.607E+00   -7.572E+00   -7.538E+00
    -7.503E+00   -7.469E+00   -7.435E+00   -7.400E+00   -7.366E+00   -7.331E+00   -7.297E+00   -7.262E+00   -7.228E+00   -7.193E+00
    -7.159E+00   -7.124E+00   -7.090E+00   -7.055E+00   -7.021E+00   -6.986E+00   -6.952E+00   -6.917E+00   -6.883E+00   -6.848E+00
    -6.813E+00   -6.779E+00   -6.744E+00   -6.710E+00   -6.675E+00   -6.641E+00   -6.606E+00   -6.571E+00   -6.537E+00   -6.502E+00
    -6.468E+00   -6.433E+00   -6.398E+00   -6.364E+00   -6.329E+00   -6.295E+00   -6.260E+00   -6.225E+00   -6.191E+00   -6.156E+00
    -6.121E+00   -6.087E+00   -6.052E+00   -6.018E+00   -5.983E+00   -5.948E+00   -5.914E+00   -5.879E+00
 Asp      Conc. = 2.55E+02
