 LCModel (Version 6.3-1L) Copyright: S.W. Provencher.          Ref.: Magn. Reson. Med. 30:672-679 (1993).                
 Slice#2 Row#1 Col#10  PD_24_press_2_raw_act
 36 lines in following concentration table = NCONC+1
    Conc.  %SD /Cr+PCr  Metabolite                                         
  717.008  81%  16.128 Ala                                                 
   55.266  92%   1.243 Asp                                                 
   44.458 259%   1.000 Cr                                                  
    0.000 999%   0.000 PCr                                                 
   35.608  86%   0.801 GABA                                                
   33.136  93%   0.745 Glc                                                 
  305.336 338%   6.868 Gln                                                 
    0.000 999%   0.000 Glu                                                 
    0.000 999%   0.000 GPC                                                 
  100.003  43%   2.249 PCh                                                 
    0.000 999%   0.000 GSH                                                 
  420.811 103%   9.465 Ins                                                 
  778.590  76%  17.513 Lac                                                 
    0.000 999%   0.000 NAA                                                 
  816.415  16%  18.364 NAAG                                                
   11.291  89%   0.254 Scyllo                                              
   54.238  93%   1.220 Tau                                                 
    4.584 283%   0.103 -CrCH2                                              
  100.003  43%   2.249 GPC+PCh                                             
  816.415  16%  18.364 NAA+NAAG                                            
   44.458 259%   1.000 Cr+PCr                                              
  305.336 338%   6.868 Glu+Gln                                             
    0.000 999%   0.000 Lip13a                                              
    0.000 999%   0.000 Lip13b                                              
 6.44E-05 999% 1.4E-06 Lip09                                               
   13.719 875%   0.309 MM09                                                
    0.000 999%   0.000 Lip20                                               
    5.407 999%   0.122 MM20                                                
    1.824 999% 4.1E-02 MM12                                                
   42.218 301%   0.950 MM14                                                
    0.000 999%   0.000 MM17                                                
    0.000 999%   0.000 Lip13a+Lip13b                                       
   44.042 354%   0.991 MM14+Lip13a+Lip13b+MM12                             
   13.719 875%   0.309 MM09+Lip09                                          
    5.407 999%   0.122 MM20+Lip20                                          
   6 lines in following misc. output table
  FWHM = 0.168 ppm    S/N =   1                                            
  Data shift =-0.008 ppm                                                   
  Ph: -37 deg     -23.5 deg/ppm                                            
  alphaB,S = 8.5E+01,   1.0E+02                                            
   14 spline knots.   Ns = 8(2)                                            
   2 inflections.     1 extrema                                            
  498 points on ppm-axis = NY
      4.000000     3.992357     3.984714     3.977070     3.969427     3.961784     3.954141     3.946497     3.938854     3.931211
      3.923568     3.915925     3.908281     3.900638     3.892995     3.885352     3.877708     3.870065     3.862422     3.854779
      3.847136     3.839492     3.831849     3.824206     3.816563     3.808919     3.801276     3.793633     3.785990     3.778347
      3.770703     3.763060     3.755417     3.747774     3.740130     3.732487     3.724844     3.717201     3.709558     3.701914
      3.694271     3.686628     3.678985     3.671341     3.663698     3.656055     3.648412     3.640769     3.633125     3.625482
      3.617839     3.610196     3.602552     3.594909     3.587266     3.579623     3.571980     3.564336     3.556693     3.549050
      3.541407     3.533763     3.526120     3.518477     3.510834     3.503191     3.495547     3.487904     3.480261     3.472618
      3.464974     3.457331     3.449688     3.442045     3.434402     3.426758     3.419115     3.411472     3.403829     3.396185
      3.388542     3.380899     3.373256     3.365613     3.357969     3.350326     3.342683     3.335040     3.327396     3.319753
      3.312110     3.304467     3.296824     3.289180     3.281537     3.273894     3.266251     3.258607     3.250964     3.243321
      3.235678     3.228034     3.220391     3.212748     3.205105     3.197462     3.189818     3.182175     3.174532     3.166889
      3.159245     3.151602     3.143959     3.136316     3.128673     3.121029     3.113386     3.105743     3.098100     3.090456
      3.082813     3.075170     3.067527     3.059884     3.052240     3.044597     3.036954     3.029311     3.021667     3.014024
      3.006381     2.998738     2.991095     2.983451     2.975808     2.968165     2.960522     2.952878     2.945235     2.937592
      2.929949     2.922306     2.914662     2.907019     2.899376     2.891733     2.884089     2.876446     2.868803     2.861160
      2.853517     2.845873     2.838230     2.830587     2.822944     2.815300     2.807657     2.800014     2.792371     2.784728
      2.777084     2.769441     2.761798     2.754155     2.746511     2.738868     2.731225     2.723582     2.715939     2.708295
      2.700652     2.693009     2.685366     2.677722     2.670079     2.662436     2.654793     2.647150     2.639506     2.631863
      2.624220     2.616577     2.608933     2.601290     2.593647     2.586004     2.578361     2.570717     2.563074     2.555431
      2.547788     2.540144     2.532501     2.524858     2.517215     2.509572     2.501928     2.494285     2.486642     2.478999
      2.471355     2.463712     2.456069     2.448426     2.440783     2.433139     2.425496     2.417853     2.410210     2.402566
      2.394923     2.387280     2.379637     2.371994     2.364350     2.356707     2.349064     2.341421     2.333777     2.326134
      2.318491     2.310848     2.303205     2.295561     2.287918     2.280275     2.272632     2.264988     2.257345     2.249702
      2.242059     2.234416     2.226772     2.219129     2.211486     2.203843     2.196199     2.188556     2.180913     2.173270
      2.165627     2.157983     2.150340     2.142697     2.135054     2.127410     2.119767     2.112124     2.104481     2.096838
      2.089194     2.081551     2.073908     2.066265     2.058621     2.050978     2.043335     2.035692     2.028049     2.020405
      2.012762     2.005119     1.997476     1.989833     1.982190     1.974546     1.966903     1.959260     1.951617     1.943974
      1.936331     1.928688     1.921045     1.913402     1.905759     1.898115     1.890472     1.882829     1.875186     1.867543
      1.859900     1.852257     1.844614     1.836971     1.829327     1.821684     1.814041     1.806398     1.798755     1.791112
      1.783469     1.775826     1.768183     1.760540     1.752896     1.745253     1.737610     1.729967     1.722324     1.714681
      1.707038     1.699395     1.691752     1.684108     1.676465     1.668822     1.661179     1.653536     1.645893     1.638250
      1.630607     1.622964     1.615321     1.607677     1.600034     1.592391     1.584748     1.577105     1.569462     1.561819
      1.554176     1.546533     1.538890     1.531246     1.523603     1.515960     1.508317     1.500674     1.493031     1.485388
      1.477745     1.470102     1.462458     1.454815     1.447172     1.439529     1.431886     1.424243     1.416600     1.408957
      1.401314     1.393671     1.386027     1.378384     1.370741     1.363098     1.355455     1.347812     1.340169     1.332526
      1.324883     1.317240     1.309596     1.301953     1.294310     1.286667     1.279024     1.271381     1.263738     1.256095
      1.248452     1.240808     1.233165     1.225522     1.217879     1.210236     1.202593     1.194950     1.187307     1.179664
      1.172021     1.164377     1.156734     1.149091     1.141448     1.133805     1.126162     1.118519     1.110876     1.103233
      1.095590     1.087946     1.080303     1.072660     1.065017     1.057374     1.049731     1.042088     1.034445     1.026802
      1.019158     1.011515     1.003872     0.996229     0.988586     0.980943     0.973300     0.965657     0.958014     0.950371
      0.942727     0.935084     0.927441     0.919798     0.912155     0.904512     0.896869     0.889226     0.881583     0.873940
      0.866296     0.858653     0.851010     0.843367     0.835724     0.828081     0.820438     0.812795     0.805152     0.797508
      0.789865     0.782222     0.774579     0.766936     0.759293     0.751650     0.744007     0.736364     0.728721     0.721077
      0.713434     0.705791     0.698148     0.690505     0.682862     0.675219     0.667576     0.659933     0.652290     0.644646
      0.637003     0.629360     0.621717     0.614074     0.606431     0.598788     0.591145     0.583502     0.575858     0.568215
      0.560572     0.552929     0.545286     0.537643     0.530000     0.522357     0.514714     0.507071     0.499427     0.491784
      0.484141     0.476498     0.468855     0.461212     0.453569     0.445925     0.438282     0.430639     0.422996     0.415353
      0.407710     0.400067     0.392424     0.384780     0.377137     0.369494     0.361851     0.354208     0.346565     0.338922
      0.331278     0.323635     0.315992     0.308349     0.300706     0.293063     0.285420     0.277777     0.270133     0.262490
      0.254847     0.247204     0.239561     0.231918     0.224275     0.216631     0.208988     0.201345
 NY phased data points follow
  -7.31671E-01 -6.73521E+00 -8.82247E+00 -2.44382E+01  2.86347E+00  7.13129E+00  1.25838E+01  1.60112E+00  2.93947E+00 -8.14220E+00
  -9.98356E+00 -7.37809E+00  7.01913E+00 -5.81454E-01  4.03955E+00 -2.37652E+00 -2.51741E+00  1.27254E+00 -3.54160E+00 -3.36909E+00
  -5.97777E+00 -3.59627E+00 -3.74623E+00 -1.02100E+01 -2.70226E+00 -4.08009E+00 -4.82001E+00 -2.73573E+00  1.06214E+00 -7.25582E-01
  -2.62374E-01 -6.69762E-02 -8.85470E+00 -2.69003E+00 -2.03912E+00 -1.36368E-01 -3.04655E+00 -3.24853E+00 -1.63336E+00  7.69349E+00
  -3.38120E+00 -7.49414E+00 -4.15246E-01  4.02699E+00  3.29555E+00  3.95037E+00  6.77925E+00  6.67813E+00 -3.13263E+00  4.28399E+00
  -5.41306E+00 -3.90936E-01 -1.53212E-01  3.34893E+00 -2.07214E+00  9.55009E-01 -3.58505E+00 -4.90176E+00  4.99003E+00 -7.10973E-01
   2.83741E+00 -1.02001E+01 -5.11311E+00 -4.08199E+00 -4.41903E+00 -3.28478E+00 -5.98457E+00  1.02405E+00  2.93399E+00 -1.42378E+00
  -3.11322E+00  2.26263E+00  5.47777E+00 -2.45673E+00 -5.47136E+00 -1.47876E+00 -2.08141E+00  4.10231E+00 -7.13107E+00  5.29751E+00
  -5.71218E+00 -5.37854E+00 -4.98466E+00  2.98794E-03 -3.74157E+00  2.13444E+00 -3.56717E+00  8.02578E-01 -1.27475E+00 -3.79111E+00
  -3.11672E+00  3.14898E+00 -8.42833E+00  6.45432E+00  1.91630E+00 -1.04439E+01  5.68287E+00 -4.15102E-03  5.60255E-01  8.20241E+00
   1.34063E+01 -8.97205E-02  7.06606E+00  4.72052E+00  5.58316E+00 -1.38608E+00  4.94557E+00 -1.61658E+01 -4.74262E+00  5.06921E-01
  -1.16840E+00  2.56009E+00  4.76260E-01 -5.20644E+00 -7.68110E+00 -5.96219E+00 -3.18285E+00 -3.81573E+00  2.13954E+00 -1.43882E+00
  -3.89569E+00  6.96243E+00 -5.62362E+00 -5.12655E+00 -2.93274E-01  1.12292E+00  4.95310E-01  6.85501E+00 -2.69618E+00 -1.10928E+01
  -2.00417E+00  7.74370E-01  1.06350E+01 -1.17565E+00 -3.82036E+00  3.95879E+00 -1.08907E+01 -5.52479E+00  8.01314E-01 -1.06979E+00
   6.69139E+00  1.67174E-01 -1.08484E+01 -1.57334E+00  2.84834E+00 -6.48477E+00 -4.69677E+00  3.05484E+00 -6.97682E+00 -4.33794E+00
  -4.89818E-01  8.79102E+00  4.85393E-01  9.14948E+00 -3.90083E+00 -4.81898E+00  3.63904E+00 -8.57578E+00 -4.63179E+00 -1.02043E+01
  -7.96430E+00 -5.82827E+00 -6.58393E+00 -2.55764E+00  6.13164E+00 -1.88062E+00 -1.38412E+00 -1.07247E+01 -4.63552E+00 -1.40489E+01
  -5.03174E+00  4.11551E-01 -4.66540E+00  2.83196E-01 -2.42071E+00 -1.35605E+00 -9.06805E+00 -6.68936E+00  1.98013E+00  5.07802E-01
  -1.05453E+01 -1.14683E+01 -9.19132E+00 -8.59756E-01 -3.09693E+00 -2.50839E+00  1.99765E+00 -2.62834E+00 -4.19943E+00  3.31738E+00
   2.25024E+00 -9.34056E+00  8.75810E-01 -2.78971E+00  1.46045E+00 -3.97074E-01 -6.06550E+00  3.08368E-01 -1.16086E+01 -6.83127E+00
  -5.48326E+00 -3.44833E+00 -4.99467E+00 -8.68481E+00 -7.21976E+00 -5.36544E-01 -1.14060E+01 -1.06064E+01  2.11106E+00 -4.65157E+00
   9.23939E+00 -4.74925E+00  6.86765E+00  2.05405E+00 -4.15094E+00 -9.38265E-01 -2.30081E+00 -2.23890E+00 -3.43724E+00 -6.03308E+00
  -6.02156E+00 -4.27899E+00 -1.08633E+01  2.63343E+00  3.59175E+00 -1.28004E+01 -4.37891E+00 -7.19251E+00 -4.56176E+00 -4.24340E+00
  -7.00452E+00 -5.59431E+00 -6.07160E+00 -2.47658E+00 -3.78420E-01 -1.36059E-01 -7.84155E+00 -4.16095E+00  1.30552E+00 -1.07020E+00
  -8.03488E-01 -4.45534E+00 -3.53871E+00  9.30607E+00  7.50297E+00  3.69428E+00  5.97679E+00  7.05746E+00  9.81344E+00  6.06672E+00
  -8.34869E-01 -3.87958E+00  7.80952E+00  1.37961E+01  1.83825E+01 -2.19826E+00  1.18351E+01  1.83902E+00  9.97432E+00  1.21885E+01
   3.84752E+00  1.51113E+01  9.77419E+00  5.96477E+00  4.02661E+00  1.62769E+00  1.86731E+00  1.81755E+00  4.11364E+00  7.13755E+00
  -8.14975E+00  8.92703E-02 -8.81572E+00  6.03237E+00 -6.48505E+00 -7.48461E+00 -7.02000E+00 -3.13531E+00  6.29919E+00  9.50442E-01
  -6.31008E+00 -7.74197E-01 -1.67286E+00 -8.36399E+00 -6.10549E+00  3.11000E+00 -3.30448E+00 -5.62172E+00 -8.31807E+00 -1.68686E+00
   6.14232E+00  1.16996E+00  3.60490E+00  1.26723E+00 -5.61097E+00 -5.53654E+00  6.01327E+00 -5.96859E+00 -5.96492E+00 -4.90374E+00
  -8.79231E+00 -3.13408E+00  1.90676E+00 -7.01153E+00  4.09316E+00  1.35370E+00 -7.40129E+00  2.56029E-01  3.26308E+00  4.30914E-01
   6.53595E+00  2.70818E-01 -4.80187E+00 -8.60363E+00 -5.11854E+00  6.74494E-01  4.08980E+00  1.09044E+00 -8.90345E+00 -5.56942E+00
   2.10095E+00 -6.52703E+00 -5.45109E+00 -6.53288E-01  1.61375E+00 -8.24820E+00  1.04083E+01  1.96063E+00 -2.11399E-02  1.52068E+00
   5.70630E+00  4.68876E+00  1.41792E+01  7.34648E+00  2.19974E-01  7.33995E+00  7.53629E+00 -8.62264E-01  4.38414E+00 -7.16044E+00
   1.16344E+01 -3.88107E+00 -1.93956E+00 -5.26019E-01  6.48640E+00 -7.30315E-01  5.22818E+00  3.05932E+00 -5.68871E+00  3.99249E+00
  -6.49836E-01  3.75761E+00 -2.44636E+00 -4.01743E+00  1.54372E+00  2.64086E+00  1.35430E-01  7.43257E-01  6.85809E-02 -3.52196E+00
  -5.28745E+00 -1.00376E+00 -3.97655E+00 -9.32519E-01 -2.62920E+00 -7.08809E+00 -9.92103E+00 -7.72655E+00  5.92848E-01 -3.65163E+00
  -4.21898E+00 -5.47886E+00 -9.06913E+00 -2.40325E+00  1.18824E+01  9.77266E+00  3.82075E+00 -4.96861E+00  6.92680E-01 -8.81447E+00
  -3.12020E+00 -8.74545E+00 -1.20986E+01 -2.31030E+00  5.74513E+00  7.90924E+00 -4.42805E+00  1.25745E+00  2.48989E-01 -1.40703E+00
  -3.22459E+00 -9.71276E+00  5.84793E+00 -5.85529E+00  6.17104E+00  4.19013E+00  6.39839E+00  3.13002E-01 -2.07264E+00  5.26085E+00
   2.20832E+00 -1.29268E-02  5.00627E+00  2.66698E-01 -1.89708E+00 -1.16082E+00 -5.23216E+00 -1.91229E+00 -7.27679E+00  6.31766E+00
  -3.38021E+00  7.77421E+00 -5.53612E+00 -4.01073E+00 -4.41688E+00 -6.65406E+00 -3.18262E+00 -7.88755E+00 -9.15211E+00  2.45741E+00
  -2.44588E+00 -9.25500E+00 -9.88549E+00 -1.59087E+00 -6.74155E+00 -7.89720E+00 -8.79727E-01 -5.76489E+00  2.73601E+00 -7.06621E+00
  -1.32986E+00 -4.60157E-01  3.65160E+00  6.15880E-01  4.93844E-01 -9.30207E-01 -2.66655E+00 -3.93184E+00  2.71918E-01  2.56855E+00
   1.57919E+00  2.94922E+00 -7.87858E-01 -2.02879E+00 -3.83056E+00 -1.15262E+01 -2.84609E+00  8.04509E-01 -6.48565E+00  1.48599E+00
  -4.89277E+00  2.27941E+00  5.97130E-01  2.84332E-01 -1.27213E+00 -1.47830E+00 -6.68133E+00 -4.62547E-01 -4.15921E+00 -2.98457E+00
   3.63324E+00 -2.30754E+00  2.18045E+00  5.02783E+00  9.93327E-01  1.75326E+00  3.00537E-01  1.18960E+00  1.98402E+00 -4.59776E+00
  -5.99906E+00  3.36793E+00  5.15703E-01 -2.55826E+00  4.39260E+00 -1.08783E+01 -7.51614E-01 -1.36625E+00  6.71999E-01 -2.66525E+00
   2.11763E+00 -8.12541E+00 -7.98788E+00 -3.17554E+00  2.59512E+00  3.65905E+00  3.09705E+00 -9.97584E+00 -6.24154E+00 -3.70061E+00
  -6.73501E+00  7.35262E+00  1.26533E+00 -1.00452E+01  3.26533E+00 -1.67930E+00 -6.08889E-01 -2.40258E+00
 NY points of the fit to the data follow
  -1.04126E+00 -9.93088E-01 -1.12402E+00 -1.14511E+00 -1.28425E+00 -1.36633E+00 -1.47731E+00 -1.56900E+00 -1.59087E+00 -1.60703E+00
  -1.55724E+00 -1.58795E+00 -1.50022E+00 -1.60920E+00 -1.52549E+00 -1.74586E+00 -1.64579E+00 -1.93370E+00 -1.73225E+00 -2.04605E+00
  -1.73041E+00 -2.06049E+00 -1.65284E+00 -2.00687E+00 -1.56722E+00 -1.97344E+00 -1.53225E+00 -1.97248E+00 -1.53743E+00 -1.99645E+00
  -1.55514E+00 -1.94857E+00 -1.45555E+00 -1.78029E+00 -1.29629E+00 -1.57792E+00 -1.14086E+00 -1.39891E+00 -1.04003E+00 -1.28010E+00
  -9.93760E-01 -1.18880E+00 -9.75359E-01 -1.10219E+00 -9.37804E-01 -1.01526E+00 -9.03088E-01 -9.79431E-01 -9.17416E-01 -9.91950E-01
  -9.57893E-01 -1.02271E+00 -1.00007E+00 -1.05235E+00 -1.03943E+00 -1.07943E+00 -1.06506E+00 -1.10203E+00 -1.08563E+00 -1.12079E+00
  -1.09450E+00 -1.14025E+00 -1.10754E+00 -1.15213E+00 -1.10822E+00 -1.14764E+00 -1.09266E+00 -1.13015E+00 -1.07154E+00 -1.11841E+00
  -1.05949E+00 -1.12890E+00 -1.08849E+00 -1.19018E+00 -1.16902E+00 -1.29506E+00 -1.28388E+00 -1.41832E+00 -1.40585E+00 -1.53753E+00
  -1.51326E+00 -1.64501E+00 -1.62191E+00 -1.75527E+00 -1.75082E+00 -1.87491E+00 -1.85931E+00 -1.75702E+00 -1.47558E+00 -1.30794E+00
  -7.75465E-01 -6.89034E-01  3.60793E-02 -7.81187E-02  7.26744E-01  4.02441E-01  1.21907E+00  7.35769E-01  1.54090E+00  9.58643E-01
   1.74425E+00  1.06340E+00  1.78057E+00  1.03063E+00  1.65012E+00  8.83264E-01  1.41005E+00  6.50457E-01  1.07912E+00  3.30963E-01
   6.53694E-01 -1.13364E-02  2.05204E-01 -3.57809E-01 -2.44019E-01 -6.83385E-01 -6.56141E-01 -9.93823E-01 -1.04872E+00 -1.26648E+00
  -1.34840E+00 -1.45199E+00 -1.51383E+00 -1.52903E+00 -1.54981E+00 -1.56370E+00 -1.58690E+00 -1.61015E+00 -1.63618E+00 -1.66398E+00
  -1.68831E+00 -1.72003E+00 -1.74414E+00 -1.78372E+00 -1.80987E+00 -1.85722E+00 -1.88642E+00 -1.94051E+00 -1.99372E+00 -2.06099E+00
  -2.12300E+00 -2.19484E+00 -2.23844E+00 -2.28624E+00 -2.32598E+00 -2.34780E+00 -2.39310E+00 -2.39338E+00 -2.45739E+00 -2.45703E+00
  -2.54265E+00 -2.54371E+00 -2.64475E+00 -2.65674E+00 -2.79042E+00 -2.78842E+00 -2.92731E+00 -2.90466E+00 -3.03456E+00 -3.01378E+00
  -3.13765E+00 -3.10917E+00 -3.22764E+00 -3.18886E+00 -3.30830E+00 -3.26293E+00 -3.39889E+00 -3.36056E+00 -3.45501E+00 -3.41515E+00
  -3.45060E+00 -3.41129E+00 -3.38654E+00 -3.34213E+00 -3.26107E+00 -3.20262E+00 -3.05472E+00 -3.00272E+00 -2.83773E+00 -2.80759E+00
  -2.66271E+00 -2.66686E+00 -2.55828E+00 -2.57578E+00 -2.46860E+00 -2.48248E+00 -2.34375E+00 -2.34538E+00 -2.17752E+00 -2.15930E+00
  -1.99137E+00 -1.97680E+00 -1.85898E+00 -1.92064E+00 -1.91300E+00 -2.03272E+00 -2.07513E+00 -2.21632E+00 -2.27253E+00 -2.40436E+00
  -2.44282E+00 -2.55209E+00 -2.56161E+00 -2.64834E+00 -2.62597E+00 -2.69433E+00 -2.65280E+00 -2.69210E+00 -2.62293E+00 -2.63355E+00
  -2.54559E+00 -2.53540E+00 -2.45551E+00 -2.43026E+00 -2.37047E+00 -2.34712E+00 -2.29295E+00 -2.27064E+00 -2.19962E+00 -2.16031E+00
  -2.09598E+00 -2.04496E+00 -2.00506E+00 -1.92487E+00 -1.90688E+00 -1.79850E+00 -1.84661E+00 -1.76020E+00 -1.84901E+00 -1.80162E+00
  -1.91951E+00 -1.90135E+00 -2.02263E+00 -2.03898E+00 -2.14943E+00 -2.17686E+00 -2.24722E+00 -2.25878E+00 -2.24900E+00 -1.92452E+00
  -9.56642E-01 -5.17852E-01  1.22304E+00  1.46590E+00  3.70462E+00  3.51074E+00  5.85144E+00  5.17285E+00  7.41091E+00  6.34129E+00
   8.44711E+00  7.11506E+00  9.11020E+00  7.55287E+00  9.27867E+00  7.57536E+00  8.98628E+00  7.25852E+00  8.40949E+00  6.73521E+00
   7.62656E+00  5.98963E+00  6.52853E+00  4.95580E+00  5.12697E+00  3.69101E+00  3.55199E+00  2.34915E+00  2.03457E+00  1.08461E+00
   6.48600E-01 -4.67465E-03 -3.88126E-01 -7.61358E-01 -9.83687E-01 -1.14930E+00 -1.16338E+00 -1.26814E+00 -1.24762E+00 -1.33533E+00
  -1.29458E+00 -1.37291E+00 -1.32212E+00 -1.40029E+00 -1.34547E+00 -1.42287E+00 -1.36666E+00 -1.43931E+00 -1.38119E+00 -1.44526E+00
  -1.38541E+00 -1.43686E+00 -1.37750E+00 -1.41867E+00 -1.36373E+00 -1.39653E+00 -1.34676E+00 -1.37228E+00 -1.32675E+00 -1.33984E+00
  -1.29627E+00 -1.29509E+00 -1.25001E+00 -1.23229E+00 -1.17950E+00 -1.14191E+00 -1.07413E+00 -1.00567E+00 -9.02972E-01 -7.70126E-01
  -5.56924E-01 -1.80838E-01  1.44187E-01  3.55920E-01  7.00073E-01  5.46096E-01  8.44931E-01  1.98376E-01  3.55715E-01 -6.23299E-01
  -1.35228E-01 -1.27041E+00 -3.29599E-01 -1.55794E+00 -1.85655E-01 -1.54607E+00  8.94628E-02 -1.35149E+00  4.24374E-01 -9.72721E-01
   9.64624E-01 -1.09630E-01  1.81174E+00  6.94607E-01  2.38702E+00  1.07285E+00  2.39486E+00  7.91132E-01  1.72885E+00  3.45839E-01
   1.20186E+00  1.80505E-01  1.00051E+00  3.80419E-01  1.11229E+00  6.77796E-01  1.23826E+00  8.63654E-01  1.23302E+00  8.44357E-01
   1.00750E+00  6.68299E-01  7.22578E-01  3.87621E-01  4.08727E-01  8.86851E-02  1.60525E-01 -9.80726E-02  5.24314E-03 -1.57496E-01
  -2.90042E-02 -1.43615E-01 -2.69032E-03 -6.62457E-02  5.21894E-02  2.60511E-03  6.15655E-02 -7.27290E-03 -3.73988E-02 -2.25539E-01
  -3.36071E-01 -5.56407E-01 -6.97807E-01 -8.78300E-01 -1.00209E+00 -1.09056E+00 -1.15976E+00 -1.21607E+00 -1.26335E+00 -1.30348E+00
  -1.33821E+00 -1.36825E+00 -1.39465E+00 -1.41767E+00 -1.43803E+00 -1.45577E+00 -1.47144E+00 -1.48497E+00 -1.49684E+00 -1.50692E+00
  -1.51564E+00 -1.52287E+00 -1.52902E+00 -1.53395E+00 -1.53811E+00 -1.54138E+00 -1.54421E+00 -1.54649E+00 -1.54868E+00 -1.55068E+00
  -1.55295E+00 -1.55538E+00 -1.55837E+00 -1.56176E+00 -1.56593E+00 -1.57066E+00 -1.57625E+00 -1.58241E+00 -1.58938E+00 -1.59681E+00
  -1.60489E+00 -1.61323E+00 -1.62200E+00 -1.63079E+00 -1.63976E+00 -1.64851E+00 -1.65722E+00 -1.66553E+00 -1.67364E+00 -1.68122E+00
  -1.68851E+00 -1.69521E+00 -1.70159E+00 -1.70739E+00 -1.71288E+00 -1.71782E+00 -1.72250E+00 -1.72667E+00 -1.73065E+00 -1.73420E+00
  -1.73760E+00 -1.74062E+00 -1.74354E+00 -1.74614E+00 -1.74869E+00 -1.75094E+00 -1.75319E+00 -1.75517E+00 -1.75716E+00 -1.75891E+00
  -1.76070E+00 -1.76227E+00 -1.76389E+00 -1.76529E+00 -1.76676E+00 -1.76803E+00 -1.76938E+00 -1.77053E+00 -1.77176E+00 -1.77281E+00
  -1.77394E+00 -1.77490E+00 -1.77595E+00 -1.77682E+00 -1.77779E+00 -1.77859E+00 -1.77949E+00 -1.78022E+00 -1.78105E+00 -1.78172E+00
  -1.78249E+00 -1.78311E+00 -1.78383E+00 -1.78439E+00 -1.78506E+00 -1.78558E+00 -1.78620E+00 -1.78667E+00 -1.78726E+00 -1.78769E+00
  -1.78824E+00 -1.78863E+00 -1.78914E+00 -1.78951E+00 -1.78999E+00 -1.79032E+00 -1.79077E+00 -1.79108E+00 -1.79150E+00 -1.79178E+00
  -1.79219E+00 -1.79245E+00 -1.79283E+00 -1.79307E+00 -1.79343E+00 -1.79366E+00 -1.79401E+00 -1.79422E+00 -1.79456E+00 -1.79475E+00
  -1.79508E+00 -1.79527E+00 -1.79558E+00 -1.79576E+00 -1.79606E+00 -1.79622E+00 -1.79650E+00 -1.79663E+00
 NY background values follow
    -2.305E+00   -2.304E+00   -2.304E+00   -2.303E+00   -2.302E+00   -2.301E+00   -2.300E+00   -2.299E+00   -2.299E+00   -2.298E+00
    -2.297E+00   -2.296E+00   -2.295E+00   -2.294E+00   -2.294E+00   -2.293E+00   -2.292E+00   -2.291E+00   -2.290E+00   -2.289E+00
    -2.289E+00   -2.288E+00   -2.287E+00   -2.286E+00   -2.285E+00   -2.284E+00   -2.283E+00   -2.283E+00   -2.282E+00   -2.281E+00
    -2.280E+00   -2.279E+00   -2.278E+00   -2.278E+00   -2.277E+00   -2.276E+00   -2.275E+00   -2.274E+00   -2.273E+00   -2.273E+00
    -2.272E+00   -2.271E+00   -2.270E+00   -2.269E+00   -2.268E+00   -2.267E+00   -2.267E+00   -2.266E+00   -2.265E+00   -2.264E+00
    -2.263E+00   -2.262E+00   -2.262E+00   -2.261E+00   -2.260E+00   -2.259E+00   -2.258E+00   -2.257E+00   -2.256E+00   -2.256E+00
    -2.255E+00   -2.254E+00   -2.253E+00   -2.252E+00   -2.251E+00   -2.251E+00   -2.250E+00   -2.249E+00   -2.248E+00   -2.247E+00
    -2.246E+00   -2.245E+00   -2.245E+00   -2.244E+00   -2.243E+00   -2.242E+00   -2.241E+00   -2.240E+00   -2.240E+00   -2.239E+00
    -2.238E+00   -2.237E+00   -2.236E+00   -2.235E+00   -2.234E+00   -2.234E+00   -2.233E+00   -2.232E+00   -2.231E+00   -2.230E+00
    -2.229E+00   -2.229E+00   -2.228E+00   -2.227E+00   -2.226E+00   -2.225E+00   -2.224E+00   -2.223E+00   -2.223E+00   -2.222E+00
    -2.221E+00   -2.220E+00   -2.219E+00   -2.218E+00   -2.217E+00   -2.217E+00   -2.216E+00   -2.215E+00   -2.214E+00   -2.213E+00
    -2.212E+00   -2.211E+00   -2.211E+00   -2.210E+00   -2.209E+00   -2.208E+00   -2.207E+00   -2.206E+00   -2.206E+00   -2.205E+00
    -2.204E+00   -2.203E+00   -2.202E+00   -2.201E+00   -2.200E+00   -2.200E+00   -2.199E+00   -2.198E+00   -2.197E+00   -2.196E+00
    -2.195E+00   -2.194E+00   -2.194E+00   -2.193E+00   -2.192E+00   -2.191E+00   -2.190E+00   -2.189E+00   -2.188E+00   -2.188E+00
    -2.187E+00   -2.186E+00   -2.185E+00   -2.184E+00   -2.183E+00   -2.182E+00   -2.182E+00   -2.181E+00   -2.180E+00   -2.179E+00
    -2.178E+00   -2.177E+00   -2.176E+00   -2.176E+00   -2.175E+00   -2.174E+00   -2.173E+00   -2.172E+00   -2.171E+00   -2.170E+00
    -2.170E+00   -2.169E+00   -2.168E+00   -2.167E+00   -2.166E+00   -2.165E+00   -2.164E+00   -2.164E+00   -2.163E+00   -2.162E+00
    -2.161E+00   -2.160E+00   -2.159E+00   -2.158E+00   -2.158E+00   -2.157E+00   -2.156E+00   -2.155E+00   -2.154E+00   -2.153E+00
    -2.152E+00   -2.152E+00   -2.151E+00   -2.150E+00   -2.149E+00   -2.148E+00   -2.147E+00   -2.146E+00   -2.145E+00   -2.145E+00
    -2.144E+00   -2.143E+00   -2.142E+00   -2.141E+00   -2.140E+00   -2.139E+00   -2.139E+00   -2.138E+00   -2.137E+00   -2.136E+00
    -2.135E+00   -2.134E+00   -2.133E+00   -2.133E+00   -2.132E+00   -2.131E+00   -2.130E+00   -2.129E+00   -2.128E+00   -2.127E+00
    -2.126E+00   -2.126E+00   -2.125E+00   -2.124E+00   -2.123E+00   -2.122E+00   -2.121E+00   -2.120E+00   -2.120E+00   -2.119E+00
    -2.118E+00   -2.117E+00   -2.116E+00   -2.115E+00   -2.114E+00   -2.113E+00   -2.113E+00   -2.112E+00   -2.111E+00   -2.110E+00
    -2.109E+00   -2.108E+00   -2.107E+00   -2.107E+00   -2.106E+00   -2.105E+00   -2.104E+00   -2.103E+00   -2.102E+00   -2.101E+00
    -2.100E+00   -2.100E+00   -2.099E+00   -2.098E+00   -2.097E+00   -2.096E+00   -2.095E+00   -2.094E+00   -2.094E+00   -2.093E+00
    -2.092E+00   -2.091E+00   -2.090E+00   -2.089E+00   -2.088E+00   -2.087E+00   -2.087E+00   -2.086E+00   -2.085E+00   -2.084E+00
    -2.083E+00   -2.082E+00   -2.081E+00   -2.080E+00   -2.080E+00   -2.079E+00   -2.078E+00   -2.077E+00   -2.076E+00   -2.075E+00
    -2.074E+00   -2.074E+00   -2.073E+00   -2.072E+00   -2.071E+00   -2.070E+00   -2.069E+00   -2.068E+00   -2.067E+00   -2.067E+00
    -2.066E+00   -2.065E+00   -2.064E+00   -2.063E+00   -2.062E+00   -2.061E+00   -2.060E+00   -2.060E+00   -2.059E+00   -2.058E+00
    -2.057E+00   -2.056E+00   -2.055E+00   -2.054E+00   -2.053E+00   -2.053E+00   -2.052E+00   -2.051E+00   -2.050E+00   -2.049E+00
    -2.048E+00   -2.047E+00   -2.046E+00   -2.046E+00   -2.045E+00   -2.044E+00   -2.043E+00   -2.042E+00   -2.041E+00   -2.040E+00
    -2.039E+00   -2.039E+00   -2.038E+00   -2.037E+00   -2.036E+00   -2.035E+00   -2.034E+00   -2.033E+00   -2.032E+00   -2.032E+00
    -2.031E+00   -2.030E+00   -2.029E+00   -2.028E+00   -2.027E+00   -2.026E+00   -2.025E+00   -2.025E+00   -2.024E+00   -2.023E+00
    -2.022E+00   -2.021E+00   -2.020E+00   -2.019E+00   -2.018E+00   -2.017E+00   -2.017E+00   -2.016E+00   -2.015E+00   -2.014E+00
    -2.013E+00   -2.012E+00   -2.011E+00   -2.010E+00   -2.010E+00   -2.009E+00   -2.008E+00   -2.007E+00   -2.006E+00   -2.005E+00
    -2.004E+00   -2.003E+00   -2.003E+00   -2.002E+00   -2.001E+00   -2.000E+00   -1.999E+00   -1.998E+00   -1.997E+00   -1.996E+00
    -1.995E+00   -1.995E+00   -1.994E+00   -1.993E+00   -1.992E+00   -1.991E+00   -1.990E+00   -1.989E+00   -1.988E+00   -1.988E+00
    -1.987E+00   -1.986E+00   -1.985E+00   -1.984E+00   -1.983E+00   -1.982E+00   -1.981E+00   -1.980E+00   -1.980E+00   -1.979E+00
    -1.978E+00   -1.977E+00   -1.976E+00   -1.975E+00   -1.974E+00   -1.973E+00   -1.973E+00   -1.972E+00   -1.971E+00   -1.970E+00
    -1.969E+00   -1.968E+00   -1.967E+00   -1.966E+00   -1.965E+00   -1.965E+00   -1.964E+00   -1.963E+00   -1.962E+00   -1.961E+00
    -1.960E+00   -1.959E+00   -1.958E+00   -1.957E+00   -1.957E+00   -1.956E+00   -1.955E+00   -1.954E+00   -1.953E+00   -1.952E+00
    -1.951E+00   -1.950E+00   -1.950E+00   -1.949E+00   -1.948E+00   -1.947E+00   -1.946E+00   -1.945E+00   -1.944E+00   -1.943E+00
    -1.942E+00   -1.942E+00   -1.941E+00   -1.940E+00   -1.939E+00   -1.938E+00   -1.937E+00   -1.936E+00   -1.935E+00   -1.934E+00
    -1.934E+00   -1.933E+00   -1.932E+00   -1.931E+00   -1.930E+00   -1.929E+00   -1.928E+00   -1.927E+00   -1.926E+00   -1.926E+00
    -1.925E+00   -1.924E+00   -1.923E+00   -1.922E+00   -1.921E+00   -1.920E+00   -1.919E+00   -1.918E+00   -1.918E+00   -1.917E+00
    -1.916E+00   -1.915E+00   -1.914E+00   -1.913E+00   -1.912E+00   -1.911E+00   -1.910E+00   -1.910E+00   -1.909E+00   -1.908E+00
    -1.907E+00   -1.906E+00   -1.905E+00   -1.904E+00   -1.903E+00   -1.902E+00   -1.902E+00   -1.901E+00   -1.900E+00   -1.899E+00
    -1.898E+00   -1.897E+00   -1.896E+00   -1.895E+00   -1.894E+00   -1.893E+00   -1.893E+00   -1.892E+00   -1.891E+00   -1.890E+00
    -1.889E+00   -1.888E+00   -1.887E+00   -1.886E+00   -1.885E+00   -1.885E+00   -1.884E+00   -1.883E+00   -1.882E+00   -1.881E+00
    -1.880E+00   -1.879E+00   -1.878E+00   -1.877E+00   -1.876E+00   -1.876E+00   -1.875E+00   -1.874E+00
 Ala      Conc. = 7.17E+02
