 LCModel (Version 6.3-1L) Copyright: S.W. Provencher.          Ref.: Magn. Reson. Med. 30:672-679 (1993).                
 Slice#3 Row#10 Col#6  PD_24_press_2_raw_act
 36 lines in following concentration table = NCONC+1
    Conc.  %SD /Cr+PCr  Metabolite                                         
  105.248  88% 7.9E-02 Ala                                                 
   22.294 852% 1.7E-02 Asp                                                 
  426.792  47%   0.319 Cr                                                  
  912.359  23%   0.681 PCr                                                 
    0.274 999% 2.0E-04 GABA                                                
   71.175 177% 5.3E-02 Glc                                                 
  275.722  68%   0.206 Gln                                                 
  998.433  22%   0.746 Glu                                                 
  345.088   6%   0.258 GPC                                                 
    0.000 999%   0.000 PCh                                                 
  468.828  14%   0.350 GSH                                                 
 1.39E+03  18%   1.041 Ins                                                 
   41.757 239% 3.1E-02 Lac                                                 
 1.81E+03   5%   1.353 NAA                                                 
  236.584  40%   0.177 NAAG                                                
   60.540  40% 4.5E-02 Scyllo                                              
  131.157 143% 9.8E-02 Tau                                                 
  197.281  55%   0.147 -CrCH2                                              
  345.088   6%   0.258 GPC+PCh                                             
 2.05E+03   4%   1.530 NAA+NAAG                                            
 1.34E+03   4%   1.000 Cr+PCr                                              
 1.27E+03  23%   0.951 Glu+Gln                                             
 2.03E+03  31%   1.519 Lip13a                                              
    0.000 999%   0.000 Lip13b                                              
  383.666  82%   0.286 Lip09                                               
  876.370  33%   0.654 MM09                                                
  265.509  82%   0.198 Lip20                                               
 1.32E+03  32%   0.983 MM20                                                
  255.706  65%   0.191 MM12                                                
  781.112  49%   0.583 MM14                                                
 1.15E+03  14%   0.859 MM17                                                
 2.03E+03  31%   1.519 Lip13a+Lip13b                                       
 3.07E+03  19%   2.293 MM14+Lip13a+Lip13b+MM12                             
 1.26E+03  19%   0.941 MM09+Lip09                                          
 1.58E+03  25%   1.182 MM20+Lip20                                          
   6 lines in following misc. output table
  FWHM = 0.046 ppm    S/N =  11                                            
  Data shift = 0.023 ppm                                                   
  Ph: -36 deg     -10.5 deg/ppm                                            
  alphaB,S = 6.7E-01,   9.2E+01                                            
   14 spline knots.   Ns = 6(1)                                            
  ( 9) 2 infls.   ( 7) 1 extrs.                                            
  498 points on ppm-axis = NY
      4.000000     3.992357     3.984714     3.977070     3.969427     3.961784     3.954141     3.946497     3.938854     3.931211
      3.923568     3.915925     3.908281     3.900638     3.892995     3.885352     3.877708     3.870065     3.862422     3.854779
      3.847136     3.839492     3.831849     3.824206     3.816563     3.808919     3.801276     3.793633     3.785990     3.778347
      3.770703     3.763060     3.755417     3.747774     3.740130     3.732487     3.724844     3.717201     3.709558     3.701914
      3.694271     3.686628     3.678985     3.671341     3.663698     3.656055     3.648412     3.640769     3.633125     3.625482
      3.617839     3.610196     3.602552     3.594909     3.587266     3.579623     3.571980     3.564336     3.556693     3.549050
      3.541407     3.533763     3.526120     3.518477     3.510834     3.503191     3.495547     3.487904     3.480261     3.472618
      3.464974     3.457331     3.449688     3.442045     3.434402     3.426758     3.419115     3.411472     3.403829     3.396185
      3.388542     3.380899     3.373256     3.365613     3.357969     3.350326     3.342683     3.335040     3.327396     3.319753
      3.312110     3.304467     3.296824     3.289180     3.281537     3.273894     3.266251     3.258607     3.250964     3.243321
      3.235678     3.228034     3.220391     3.212748     3.205105     3.197462     3.189818     3.182175     3.174532     3.166889
      3.159245     3.151602     3.143959     3.136316     3.128673     3.121029     3.113386     3.105743     3.098100     3.090456
      3.082813     3.075170     3.067527     3.059884     3.052240     3.044597     3.036954     3.029311     3.021667     3.014024
      3.006381     2.998738     2.991095     2.983451     2.975808     2.968165     2.960522     2.952878     2.945235     2.937592
      2.929949     2.922306     2.914662     2.907019     2.899376     2.891733     2.884089     2.876446     2.868803     2.861160
      2.853517     2.845873     2.838230     2.830587     2.822944     2.815300     2.807657     2.800014     2.792371     2.784728
      2.777084     2.769441     2.761798     2.754155     2.746511     2.738868     2.731225     2.723582     2.715939     2.708295
      2.700652     2.693009     2.685366     2.677722     2.670079     2.662436     2.654793     2.647150     2.639506     2.631863
      2.624220     2.616577     2.608933     2.601290     2.593647     2.586004     2.578361     2.570717     2.563074     2.555431
      2.547788     2.540144     2.532501     2.524858     2.517215     2.509572     2.501928     2.494285     2.486642     2.478999
      2.471355     2.463712     2.456069     2.448426     2.440783     2.433139     2.425496     2.417853     2.410210     2.402566
      2.394923     2.387280     2.379637     2.371994     2.364350     2.356707     2.349064     2.341421     2.333777     2.326134
      2.318491     2.310848     2.303205     2.295561     2.287918     2.280275     2.272632     2.264988     2.257345     2.249702
      2.242059     2.234416     2.226772     2.219129     2.211486     2.203843     2.196199     2.188556     2.180913     2.173270
      2.165627     2.157983     2.150340     2.142697     2.135054     2.127410     2.119767     2.112124     2.104481     2.096838
      2.089194     2.081551     2.073908     2.066265     2.058621     2.050978     2.043335     2.035692     2.028049     2.020405
      2.012762     2.005119     1.997476     1.989833     1.982190     1.974546     1.966903     1.959260     1.951617     1.943974
      1.936331     1.928688     1.921045     1.913402     1.905759     1.898115     1.890472     1.882829     1.875186     1.867543
      1.859900     1.852257     1.844614     1.836971     1.829327     1.821684     1.814041     1.806398     1.798755     1.791112
      1.783469     1.775826     1.768183     1.760540     1.752896     1.745253     1.737610     1.729967     1.722324     1.714681
      1.707038     1.699395     1.691752     1.684108     1.676465     1.668822     1.661179     1.653536     1.645893     1.638250
      1.630607     1.622964     1.615321     1.607677     1.600034     1.592391     1.584748     1.577105     1.569462     1.561819
      1.554176     1.546533     1.538890     1.531246     1.523603     1.515960     1.508317     1.500674     1.493031     1.485388
      1.477745     1.470102     1.462458     1.454815     1.447172     1.439529     1.431886     1.424243     1.416600     1.408957
      1.401314     1.393671     1.386027     1.378384     1.370741     1.363098     1.355455     1.347812     1.340169     1.332526
      1.324883     1.317240     1.309596     1.301953     1.294310     1.286667     1.279024     1.271381     1.263738     1.256095
      1.248452     1.240808     1.233165     1.225522     1.217879     1.210236     1.202593     1.194950     1.187307     1.179664
      1.172021     1.164377     1.156734     1.149091     1.141448     1.133805     1.126162     1.118519     1.110876     1.103233
      1.095590     1.087946     1.080303     1.072660     1.065017     1.057374     1.049731     1.042088     1.034445     1.026802
      1.019158     1.011515     1.003872     0.996229     0.988586     0.980943     0.973300     0.965657     0.958014     0.950371
      0.942727     0.935084     0.927441     0.919798     0.912155     0.904512     0.896869     0.889226     0.881583     0.873940
      0.866296     0.858653     0.851010     0.843367     0.835724     0.828081     0.820438     0.812795     0.805152     0.797508
      0.789865     0.782222     0.774579     0.766936     0.759293     0.751650     0.744007     0.736364     0.728721     0.721077
      0.713434     0.705791     0.698148     0.690505     0.682862     0.675219     0.667576     0.659933     0.652290     0.644646
      0.637003     0.629360     0.621717     0.614074     0.606431     0.598788     0.591145     0.583502     0.575858     0.568215
      0.560572     0.552929     0.545286     0.537643     0.530000     0.522357     0.514714     0.507071     0.499427     0.491784
      0.484141     0.476498     0.468855     0.461212     0.453569     0.445925     0.438282     0.430639     0.422996     0.415353
      0.407710     0.400067     0.392424     0.384780     0.377137     0.369494     0.361851     0.354208     0.346565     0.338922
      0.331278     0.323635     0.315992     0.308349     0.300706     0.293063     0.285420     0.277777     0.270133     0.262490
      0.254847     0.247204     0.239561     0.231918     0.224275     0.216631     0.208988     0.201345
 NY phased data points follow
  -1.12967E+02 -1.13197E+02 -1.11464E+02 -1.03170E+02 -1.01637E+02 -8.83907E+01 -8.61297E+01 -8.27849E+01 -7.65698E+01 -6.80770E+01
  -6.78644E+01 -6.96671E+01 -6.78763E+01 -7.33799E+01 -7.67604E+01 -8.26107E+01 -8.66494E+01 -8.95743E+01 -8.78700E+01 -9.27138E+01
  -8.37489E+01 -8.44199E+01 -8.62958E+01 -8.50574E+01 -8.02823E+01 -7.31302E+01 -7.19527E+01 -7.10983E+01 -7.17371E+01 -6.52868E+01
  -6.80157E+01 -6.75218E+01 -6.31685E+01 -6.23059E+01 -6.89142E+01 -6.36343E+01 -6.88779E+01 -6.26221E+01 -6.02533E+01 -6.07211E+01
  -6.15023E+01 -6.72633E+01 -5.98333E+01 -6.07484E+01 -5.99688E+01 -5.40398E+01 -5.15247E+01 -5.52078E+01 -4.87731E+01 -5.23134E+01
  -4.89375E+01 -5.68409E+01 -5.59347E+01 -5.39575E+01 -5.45159E+01 -5.03829E+01 -5.46541E+01 -4.99486E+01 -5.36566E+01 -5.20938E+01
  -5.41667E+01 -5.34677E+01 -5.39601E+01 -5.61509E+01 -5.12650E+01 -5.05666E+01 -5.35530E+01 -5.34375E+01 -5.24536E+01 -4.87271E+01
  -4.54351E+01 -4.60756E+01 -4.61614E+01 -4.76924E+01 -4.81953E+01 -4.74836E+01 -4.76515E+01 -4.24037E+01 -4.74934E+01 -4.96608E+01
  -4.53238E+01 -4.43831E+01 -4.16266E+01 -4.11494E+01 -4.12932E+01 -4.14729E+01 -4.35681E+01 -4.33840E+01 -4.00793E+01 -4.09508E+01
  -3.96017E+01 -3.63303E+01 -4.11966E+01 -3.84237E+01 -3.44460E+01 -3.16745E+01 -3.29747E+01 -3.26364E+01 -3.15333E+01 -2.66479E+01
  -1.84604E+01 -1.31644E+01 -4.29308E+00 -5.70455E+00 -3.78563E+00 -9.01570E+00 -1.83703E+01 -2.02210E+01 -2.55719E+01 -2.41753E+01
  -2.69424E+01 -2.86369E+01 -3.26155E+01 -3.34478E+01 -3.23460E+01 -3.17786E+01 -3.22862E+01 -3.01642E+01 -3.09966E+01 -3.40034E+01
  -3.25058E+01 -2.70153E+01 -2.09209E+01 -1.29635E+01 -4.15191E+00  7.61580E+00  1.75167E+01  1.50392E+01  2.06598E+01  8.93960E+00
  -3.96580E-01 -8.38898E+00 -1.49461E+01 -1.81130E+01 -2.53848E+01 -2.61675E+01 -2.82158E+01 -2.86134E+01 -2.53295E+01 -2.48243E+01
  -2.74461E+01 -2.67108E+01 -2.56136E+01 -2.11365E+01 -2.67309E+01 -2.71852E+01 -2.68802E+01 -2.60725E+01 -2.65709E+01 -2.64512E+01
  -2.22484E+01 -3.25666E+01 -2.92996E+01 -2.61249E+01 -3.22310E+01 -2.40786E+01 -2.48802E+01 -1.96710E+01 -2.31205E+01 -2.46151E+01
  -2.49609E+01 -2.60777E+01 -2.95844E+01 -2.79056E+01 -2.57949E+01 -2.05278E+01 -2.17776E+01 -2.38620E+01 -2.58102E+01 -2.24513E+01
  -2.16523E+01 -2.68072E+01 -3.36449E+01 -3.26913E+01 -3.01308E+01 -3.46384E+01 -3.32801E+01 -2.94330E+01 -2.95358E+01 -3.11894E+01
  -2.18954E+01 -3.22841E+01 -2.82753E+01 -2.32697E+01 -2.78698E+01 -2.81798E+01 -2.31650E+01 -2.51035E+01 -2.47177E+01 -1.92248E+01
  -1.75532E+01 -1.41052E+01 -1.34196E+01 -1.77760E+01 -1.71466E+01 -1.50451E+01 -1.46481E+01 -2.12881E+01 -1.72795E+01 -1.91342E+01
  -2.00779E+01 -1.87561E+01 -1.53208E+01 -1.45769E+01 -1.70063E+01 -1.40682E+01 -1.35940E+01 -1.75588E+01 -1.86878E+01 -1.94678E+01
  -2.35567E+01 -1.63456E+01 -1.56905E+01 -1.11233E+01 -5.42156E+00 -1.21104E+01 -1.11263E+01 -4.97099E+00 -1.28602E+01 -1.52472E+01
  -1.58320E+01 -1.84793E+01 -1.57209E+01 -1.63843E+01 -1.48312E+01 -9.69947E+00 -1.23641E+01 -1.11763E+01 -5.08086E+00 -7.14496E+00
  -8.13237E+00 -1.03091E+01 -9.40142E+00 -9.50242E+00 -1.05547E+01 -1.30996E+01 -5.67598E+00 -7.11692E+00 -9.34186E+00 -1.46369E+01
  -1.18577E+01 -1.60876E+01 -9.07541E+00 -1.16205E+01 -8.72698E+00 -4.78145E+00 -6.00352E+00 -1.01823E+01 -1.31286E+01 -5.24056E+00
  -3.97573E+00 -2.96356E+00 -1.79373E+00  5.84472E+00  8.80407E+00  1.15518E+01  1.66152E+01  2.38260E+01  4.54186E+01  5.85938E+01
   5.97554E+01  6.17270E+01  5.22422E+01  3.16381E+01  2.36494E+01  8.21572E+00  5.44423E+00  7.11026E-01 -4.25272E-01 -7.75686E+00
  -7.87958E+00 -5.94095E+00 -8.52698E+00 -6.80625E+00 -6.73196E+00 -5.72933E+00 -4.46462E+00 -6.16359E+00 -1.04966E+01 -8.64723E+00
  -1.07126E+01 -1.46070E+01 -1.24145E+01 -5.70895E+00 -7.11140E+00 -1.53765E+01 -9.32799E+00 -1.28103E+01 -1.12742E+01 -8.98902E+00
  -1.26450E+01 -8.96735E+00 -8.40950E+00 -8.18817E+00 -5.34142E+00 -7.94193E+00 -7.60322E+00 -5.31592E+00 -2.28943E+00 -7.33679E+00
  -4.43599E+00 -5.18207E+00 -3.57911E+00 -3.35403E-02 -1.27910E+00  1.55917E+00 -6.70006E-01 -4.38214E-01 -1.47001E+00 -7.90078E+00
   3.49426E+00  2.67358E+00  7.33157E+00  6.78291E+00  4.87247E+00  6.95286E+00  2.01509E+00  1.16426E+00  4.31555E+00  2.31544E+00
  -2.30282E-01 -2.55094E-01 -7.59402E-01 -4.42132E+00  2.25011E+00 -5.44357E+00 -5.84252E-01 -5.94994E+00 -5.90126E+00 -2.48119E+00
  -1.34754E+00 -4.20938E+00 -1.70770E+00 -2.79340E+00 -3.34535E+00 -1.22294E+00  4.24298E+00  2.11606E+00 -1.11907E+00  3.46055E+00
  -5.98546E-01  7.34061E-01  3.52629E+00  4.19121E+00  7.41564E+00  5.58464E+00  8.07050E+00  1.98081E+00  4.25502E+00  8.45248E+00
   6.49701E+00  4.96193E+00  6.87857E+00  5.94633E+00  1.99579E+00  7.59755E+00  7.46168E+00  5.49529E+00  6.21800E+00  3.53675E+00
   5.27309E+00  6.02874E+00 -4.06463E-01  2.08717E+00  5.48273E-01  5.32227E-01 -1.40942E+00  2.12391E+00  6.48500E+00 -5.58022E-01
   3.88161E+00  2.60627E+00  4.92076E+00 -2.68813E+00  1.75802E+00 -6.45124E-01  1.34418E+00 -2.78523E+00  1.49398E+00 -1.93049E+00
  -2.24005E+00 -1.58420E+00 -1.72424E+00 -1.23837E+00 -2.36272E+00 -6.29203E-01 -1.59756E+00 -3.05710E+00 -1.32412E+00 -2.48255E-01
   7.00483E-01 -2.74234E+00 -2.36115E+00  1.65097E+00 -4.88862E-02  1.61668E+00  4.09824E+00  1.72219E+00  9.42778E-01  3.82674E-01
   7.55932E+00  1.60514E+00  2.41892E+00  4.00560E+00  6.36432E+00  9.23033E+00  7.71961E+00  6.19446E+00  8.55145E+00  7.76473E+00
   1.04547E+01  9.89514E+00  5.74453E+00  3.84336E+00  7.30715E+00  5.29573E+00  5.35298E+00  6.98668E+00 -3.02077E+00  3.52775E+00
   3.03677E-01  1.44796E+00  2.71494E+00  2.48040E-01  3.39145E+00 -1.96432E+00  2.61588E+00  4.39310E+00  1.22635E-01 -2.10065E+00
  -1.38527E+00  8.11279E-01 -6.86484E-01  4.67261E+00  2.27724E+00 -1.85418E+00  1.65804E-02  7.27717E+00  1.96136E+00 -1.10846E-01
  -2.88872E+00 -3.51610E-01  2.11049E+00  1.16246E+00  1.03371E+00  1.25283E-01  1.11993E+00 -7.25417E-01  1.26721E-02 -2.86622E+00
   1.16169E+00  2.21009E+00  7.70615E-02  8.17449E-01 -1.23820E+00 -2.46580E+00  3.12444E+00 -6.10530E+00 -1.47272E+00  1.28420E-01
  -6.35300E-01  3.93613E+00 -4.21736E+00  2.27030E+00 -2.09574E+00 -1.01911E-01  2.26590E+00  1.71675E+00 -2.70605E+00 -4.66444E+00
   1.15548E+00 -6.21573E+00 -3.20325E+00  5.71319E-01  3.03637E-01  8.84763E-01 -5.88723E-01  1.47237E+00 -5.10729E-01 -8.71317E+00
   1.85876E+00  3.58868E+00  5.09146E-01 -8.18353E-01  6.75357E-01 -4.93868E+00  3.87146E-01  2.55869E+00  3.47869E+00 -1.65498E+00
   2.13469E+00 -2.97783E-01  1.69367E+00 -2.21117E-01  6.80081E-01  3.72755E+00  4.23240E-01 -1.12443E-02
 NY points of the fit to the data follow
  -1.03083E+02 -1.02579E+02 -1.01755E+02 -1.00179E+02 -9.73642E+01 -9.32142E+01 -8.75908E+01 -8.09756E+01 -7.45440E+01 -6.96844E+01
  -6.74502E+01 -6.81446E+01 -7.10607E+01 -7.48652E+01 -7.83530E+01 -8.10285E+01 -8.30426E+01 -8.42589E+01 -8.46325E+01 -8.44413E+01
  -8.38688E+01 -8.32260E+01 -8.26242E+01 -8.18449E+01 -8.05491E+01 -7.87461E+01 -7.62292E+01 -7.29736E+01 -6.95367E+01 -6.66021E+01
  -6.46089E+01 -6.38190E+01 -6.41885E+01 -6.52174E+01 -6.63385E+01 -6.74069E+01 -6.85451E+01 -6.93738E+01 -6.94769E+01 -6.91892E+01
  -6.85034E+01 -6.71595E+01 -6.50977E+01 -6.24351E+01 -5.93454E+01 -5.61838E+01 -5.36670E+01 -5.24432E+01 -5.26632E+01 -5.40939E+01
  -5.60592E+01 -5.77590E+01 -5.87785E+01 -5.91406E+01 -5.89561E+01 -5.81306E+01 -5.66881E+01 -5.49786E+01 -5.33641E+01 -5.21080E+01
  -5.13997E+01 -5.12733E+01 -5.15783E+01 -5.19737E+01 -5.21374E+01 -5.19232E+01 -5.13340E+01 -5.04450E+01 -4.93827E+01 -4.82418E+01
  -4.71284E+01 -4.61833E+01 -4.54410E+01 -4.49184E+01 -4.46156E+01 -4.44611E+01 -4.43832E+01 -4.43138E+01 -4.42451E+01 -4.40881E+01
  -4.36942E+01 -4.30921E+01 -4.24423E+01 -4.18109E+01 -4.13022E+01 -4.11032E+01 -4.12487E+01 -4.15920E+01 -4.19234E+01 -4.20191E+01
  -4.17084E+01 -4.10734E+01 -4.03411E+01 -3.96819E+01 -3.91018E+01 -3.85372E+01 -3.77547E+01 -3.57166E+01 -3.19514E+01 -2.64010E+01
  -1.90419E+01 -1.12027E+01 -5.19779E+00 -2.72975E+00 -4.27037E+00 -9.14082E+00 -1.54413E+01 -2.11748E+01 -2.54793E+01 -2.87547E+01
  -3.14382E+01 -3.28251E+01 -3.30805E+01 -3.30216E+01 -3.28773E+01 -3.27083E+01 -3.25215E+01 -3.23126E+01 -3.20369E+01 -3.15904E+01
  -3.05365E+01 -2.73679E+01 -2.16607E+01 -1.35545E+01 -3.08516E+00  7.80535E+00  1.58603E+01  1.88998E+01  1.63757E+01  9.31556E+00
   4.44288E-01 -7.61931E+00 -1.39528E+01 -1.92916E+01 -2.41829E+01 -2.71643E+01 -2.81904E+01 -2.82496E+01 -2.76492E+01 -2.67257E+01
  -2.58286E+01 -2.51338E+01 -2.47250E+01 -2.46385E+01 -2.47552E+01 -2.49473E+01 -2.51544E+01 -2.53311E+01 -2.55032E+01 -2.56433E+01
  -2.57392E+01 -2.58120E+01 -2.58373E+01 -2.57744E+01 -2.56210E+01 -2.54528E+01 -2.53449E+01 -2.53467E+01 -2.55163E+01 -2.57711E+01
  -2.59544E+01 -2.59488E+01 -2.57016E+01 -2.53095E+01 -2.49824E+01 -2.48921E+01 -2.50650E+01 -2.53823E+01 -2.56628E+01 -2.58554E+01
  -2.60265E+01 -2.62539E+01 -2.65382E+01 -2.68191E+01 -2.70282E+01 -2.70997E+01 -2.69670E+01 -2.66533E+01 -2.63022E+01 -2.60555E+01
  -2.59360E+01 -2.58965E+01 -2.58310E+01 -2.55904E+01 -2.51852E+01 -2.45997E+01 -2.36107E+01 -2.21628E+01 -2.04251E+01 -1.87609E+01
  -1.75946E+01 -1.71308E+01 -1.73311E+01 -1.79511E+01 -1.86774E+01 -1.92995E+01 -1.96349E+01 -1.95168E+01 -1.89282E+01 -1.79612E+01
  -1.67540E+01 -1.55173E+01 -1.44572E+01 -1.37628E+01 -1.36584E+01 -1.42038E+01 -1.53073E+01 -1.67534E+01 -1.81527E+01 -1.90597E+01
  -1.91635E+01 -1.84317E+01 -1.68853E+01 -1.47882E+01 -1.27246E+01 -1.13522E+01 -1.10997E+01 -1.20670E+01 -1.40343E+01 -1.63477E+01
  -1.82865E+01 -1.93395E+01 -1.92946E+01 -1.81759E+01 -1.61769E+01 -1.39584E+01 -1.21750E+01 -1.10862E+01 -1.06279E+01 -1.05458E+01
  -1.06244E+01 -1.06183E+01 -1.02831E+01 -9.59544E+00 -8.78871E+00 -8.15286E+00 -7.95137E+00 -8.29439E+00 -9.02388E+00 -9.94132E+00
  -1.07757E+01 -1.11860E+01 -1.09457E+01 -1.01339E+01 -9.03427E+00 -7.86716E+00 -6.89263E+00 -6.31654E+00 -6.08654E+00 -5.83565E+00
  -5.08803E+00 -3.80996E+00 -1.91839E+00  7.37426E-01  4.86316E+00  1.16271E+01  2.04249E+01  3.15479E+01  4.42956E+01  5.52660E+01
   6.07500E+01  5.90127E+01  5.01770E+01  3.69339E+01  2.37576E+01  1.33254E+01  5.65741E+00 -7.14838E-01 -5.46461E+00 -7.22774E+00
  -7.79896E+00 -8.05971E+00 -8.15086E+00 -8.17251E+00 -8.21262E+00 -8.29355E+00 -8.42370E+00 -8.58396E+00 -8.74087E+00 -8.86825E+00
  -8.96259E+00 -9.02346E+00 -9.04789E+00 -9.04347E+00 -9.03039E+00 -9.02365E+00 -9.01627E+00 -8.99276E+00 -8.94228E+00 -8.85740E+00
  -8.72808E+00 -8.54827E+00 -8.31998E+00 -8.05026E+00 -7.73920E+00 -7.38257E+00 -6.97321E+00 -6.50147E+00 -5.96175E+00 -5.35265E+00
  -4.67420E+00 -3.93522E+00 -3.15219E+00 -2.34525E+00 -1.53545E+00 -7.43719E-01  7.53655E-03  6.94520E-01  1.29735E+00  1.79805E+00
   2.18156E+00  2.43831E+00  2.56437E+00  2.56183E+00  2.43891E+00  2.20963E+00  1.89312E+00  1.51284E+00  1.09574E+00  6.72570E-01
   2.82084E-01 -2.76302E-02 -2.66617E-01 -4.66340E-01 -6.55530E-01 -9.16248E-01 -1.32131E+00 -1.86001E+00 -2.45883E+00 -2.97265E+00
  -3.23815E+00 -3.18561E+00 -2.79973E+00 -2.13242E+00 -1.28949E+00 -3.69192E-01  4.77918E-01  1.12626E+00  1.58317E+00  1.93376E+00
   2.27094E+00  2.63660E+00  2.99796E+00  3.36236E+00  3.75685E+00  4.11821E+00  4.39089E+00  4.56159E+00  4.65160E+00  4.71829E+00
   4.81877E+00  4.98367E+00  5.21816E+00  5.48850E+00  5.73988E+00  5.93396E+00  6.02012E+00  5.95548E+00  5.75618E+00  5.46383E+00
   5.11540E+00  4.72276E+00  4.28580E+00  3.83238E+00  3.37979E+00  2.92613E+00  2.47465E+00  2.03082E+00  1.60034E+00  1.18847E+00
   7.99714E-01  4.37781E-01  1.05568E-01 -1.94710E-01 -4.61553E-01 -6.94051E-01 -8.91854E-01 -1.05492E+00 -1.18343E+00 -1.27758E+00
  -1.33766E+00 -1.36387E+00 -1.35635E+00 -1.31501E+00 -1.23954E+00 -1.12936E+00 -9.83807E-01 -8.02114E-01 -5.83568E-01 -3.27498E-01
  -3.35051E-02  2.98384E-01  6.67405E-01  1.07194E+00  1.50927E+00  1.97556E+00  2.46562E+00  2.97283E+00  3.48914E+00  4.00522E+00
   4.51068E+00  4.99447E+00  5.44514E+00  5.85137E+00  6.20241E+00  6.48871E+00  6.70236E+00  6.83761E+00  6.89104E+00  6.86184E+00
   6.75178E+00  6.56522E+00  6.30885E+00  5.99134E+00  5.62276E+00  5.21414E+00  4.77689E+00  4.32241E+00  3.86149E+00  3.40403E+00
   2.95858E+00  2.53229E+00  2.13072E+00  1.75802E+00  1.41684E+00  1.10853E+00  8.33270E-01  5.90326E-01  3.78244E-01  1.95135E-01
   3.87285E-02 -9.34111E-02 -2.03847E-01 -2.95037E-01 -3.69337E-01 -4.28868E-01 -4.75623E-01 -5.11377E-01 -5.37762E-01 -5.56141E-01
  -5.67719E-01 -5.73477E-01 -5.74334E-01 -5.71058E-01 -5.64354E-01 -5.54755E-01 -5.42740E-01 -5.28681E-01 -5.12973E-01 -4.95934E-01
  -4.77869E-01 -4.58968E-01 -4.39431E-01 -4.19393E-01 -3.99013E-01 -3.78378E-01 -3.57588E-01 -3.36653E-01 -3.15629E-01 -2.94540E-01
  -2.73469E-01 -2.52432E-01 -2.31454E-01 -2.10495E-01 -1.89578E-01 -1.68699E-01 -1.47910E-01 -1.27186E-01 -1.06521E-01 -8.58558E-02
  -6.52054E-02 -4.45536E-02 -2.39270E-02 -3.27041E-03  1.74366E-02  3.82552E-02  5.91669E-02  8.01958E-02  1.01332E-01  1.22649E-01
   1.44174E-01  1.65962E-01  1.87996E-01  2.10312E-01  2.32920E-01  2.55905E-01  2.79292E-01  3.03130E-01  3.27403E-01  3.52164E-01
   3.77438E-01  4.03318E-01  4.29824E-01  4.57006E-01  4.84858E-01  5.13455E-01  5.42841E-01  5.73116E-01
 NY background values follow
    -1.059E+02   -1.050E+02   -1.041E+02   -1.032E+02   -1.023E+02   -1.014E+02   -1.005E+02   -9.955E+01   -9.865E+01   -9.775E+01
    -9.685E+01   -9.596E+01   -9.506E+01   -9.417E+01   -9.328E+01   -9.239E+01   -9.150E+01   -9.062E+01   -8.974E+01   -8.886E+01
    -8.799E+01   -8.711E+01   -8.625E+01   -8.538E+01   -8.452E+01   -8.366E+01   -8.281E+01   -8.196E+01   -8.112E+01   -8.028E+01
    -7.945E+01   -7.862E+01   -7.779E+01   -7.698E+01   -7.616E+01   -7.536E+01   -7.456E+01   -7.376E+01   -7.298E+01   -7.220E+01
    -7.142E+01   -7.066E+01   -6.990E+01   -6.914E+01   -6.840E+01   -6.766E+01   -6.693E+01   -6.621E+01   -6.550E+01   -6.479E+01
    -6.410E+01   -6.341E+01   -6.273E+01   -6.205E+01   -6.139E+01   -6.073E+01   -6.008E+01   -5.943E+01   -5.880E+01   -5.817E+01
    -5.755E+01   -5.694E+01   -5.633E+01   -5.574E+01   -5.515E+01   -5.456E+01   -5.399E+01   -5.342E+01   -5.286E+01   -5.231E+01
    -5.176E+01   -5.122E+01   -5.069E+01   -5.017E+01   -4.965E+01   -4.914E+01   -4.864E+01   -4.814E+01   -4.766E+01   -4.717E+01
    -4.670E+01   -4.623E+01   -4.577E+01   -4.532E+01   -4.487E+01   -4.443E+01   -4.400E+01   -4.357E+01   -4.316E+01   -4.274E+01
    -4.234E+01   -4.194E+01   -4.155E+01   -4.116E+01   -4.078E+01   -4.041E+01   -4.004E+01   -3.968E+01   -3.933E+01   -3.898E+01
    -3.864E+01   -3.830E+01   -3.797E+01   -3.765E+01   -3.733E+01   -3.701E+01   -3.670E+01   -3.640E+01   -3.610E+01   -3.581E+01
    -3.552E+01   -3.524E+01   -3.496E+01   -3.469E+01   -3.442E+01   -3.416E+01   -3.390E+01   -3.364E+01   -3.339E+01   -3.314E+01
    -3.290E+01   -3.266E+01   -3.243E+01   -3.220E+01   -3.197E+01   -3.175E+01   -3.153E+01   -3.132E+01   -3.110E+01   -3.089E+01
    -3.069E+01   -3.049E+01   -3.029E+01   -3.009E+01   -2.990E+01   -2.971E+01   -2.952E+01   -2.934E+01   -2.915E+01   -2.897E+01
    -2.880E+01   -2.862E+01   -2.845E+01   -2.828E+01   -2.811E+01   -2.794E+01   -2.777E+01   -2.761E+01   -2.745E+01   -2.729E+01
    -2.713E+01   -2.697E+01   -2.682E+01   -2.666E+01   -2.651E+01   -2.636E+01   -2.621E+01   -2.606E+01   -2.591E+01   -2.576E+01
    -2.561E+01   -2.546E+01   -2.532E+01   -2.517E+01   -2.502E+01   -2.488E+01   -2.473E+01   -2.458E+01   -2.444E+01   -2.429E+01
    -2.414E+01   -2.400E+01   -2.385E+01   -2.370E+01   -2.355E+01   -2.340E+01   -2.325E+01   -2.310E+01   -2.295E+01   -2.280E+01
    -2.265E+01   -2.249E+01   -2.234E+01   -2.218E+01   -2.202E+01   -2.186E+01   -2.170E+01   -2.154E+01   -2.138E+01   -2.122E+01
    -2.105E+01   -2.089E+01   -2.073E+01   -2.056E+01   -2.040E+01   -2.023E+01   -2.007E+01   -1.991E+01   -1.974E+01   -1.958E+01
    -1.942E+01   -1.925E+01   -1.909E+01   -1.893E+01   -1.877E+01   -1.861E+01   -1.845E+01   -1.829E+01   -1.813E+01   -1.798E+01
    -1.782E+01   -1.767E+01   -1.751E+01   -1.736E+01   -1.721E+01   -1.707E+01   -1.692E+01   -1.678E+01   -1.663E+01   -1.649E+01
    -1.635E+01   -1.622E+01   -1.608E+01   -1.595E+01   -1.582E+01   -1.570E+01   -1.557E+01   -1.545E+01   -1.533E+01   -1.522E+01
    -1.510E+01   -1.499E+01   -1.488E+01   -1.478E+01   -1.467E+01   -1.457E+01   -1.447E+01   -1.437E+01   -1.428E+01   -1.418E+01
    -1.409E+01   -1.400E+01   -1.391E+01   -1.383E+01   -1.374E+01   -1.366E+01   -1.358E+01   -1.350E+01   -1.342E+01   -1.334E+01
    -1.326E+01   -1.319E+01   -1.312E+01   -1.304E+01   -1.297E+01   -1.290E+01   -1.283E+01   -1.276E+01   -1.269E+01   -1.263E+01
    -1.256E+01   -1.249E+01   -1.243E+01   -1.236E+01   -1.230E+01   -1.223E+01   -1.217E+01   -1.210E+01   -1.204E+01   -1.198E+01
    -1.191E+01   -1.185E+01   -1.179E+01   -1.172E+01   -1.166E+01   -1.160E+01   -1.153E+01   -1.147E+01   -1.141E+01   -1.134E+01
    -1.128E+01   -1.121E+01   -1.115E+01   -1.109E+01   -1.102E+01   -1.096E+01   -1.089E+01   -1.083E+01   -1.077E+01   -1.070E+01
    -1.064E+01   -1.057E+01   -1.051E+01   -1.045E+01   -1.038E+01   -1.032E+01   -1.025E+01   -1.019E+01   -1.013E+01   -1.006E+01
    -9.998E+00   -9.934E+00   -9.871E+00   -9.807E+00   -9.743E+00   -9.679E+00   -9.616E+00   -9.552E+00   -9.489E+00   -9.425E+00
    -9.362E+00   -9.298E+00   -9.235E+00   -9.172E+00   -9.108E+00   -9.045E+00   -8.982E+00   -8.919E+00   -8.857E+00   -8.794E+00
    -8.731E+00   -8.668E+00   -8.606E+00   -8.543E+00   -8.480E+00   -8.418E+00   -8.355E+00   -8.293E+00   -8.230E+00   -8.168E+00
    -8.106E+00   -8.043E+00   -7.981E+00   -7.918E+00   -7.856E+00   -7.793E+00   -7.730E+00   -7.668E+00   -7.605E+00   -7.542E+00
    -7.480E+00   -7.417E+00   -7.354E+00   -7.291E+00   -7.228E+00   -7.165E+00   -7.101E+00   -7.038E+00   -6.975E+00   -6.911E+00
    -6.847E+00   -6.784E+00   -6.720E+00   -6.656E+00   -6.591E+00   -6.527E+00   -6.462E+00   -6.398E+00   -6.333E+00   -6.268E+00
    -6.203E+00   -6.137E+00   -6.072E+00   -6.006E+00   -5.940E+00   -5.874E+00   -5.807E+00   -5.741E+00   -5.674E+00   -5.608E+00
    -5.541E+00   -5.474E+00   -5.407E+00   -5.339E+00   -5.272E+00   -5.205E+00   -5.137E+00   -5.070E+00   -5.002E+00   -4.934E+00
    -4.867E+00   -4.799E+00   -4.731E+00   -4.663E+00   -4.595E+00   -4.528E+00   -4.460E+00   -4.392E+00   -4.324E+00   -4.256E+00
    -4.189E+00   -4.121E+00   -4.053E+00   -3.986E+00   -3.918E+00   -3.851E+00   -3.784E+00   -3.716E+00   -3.649E+00   -3.582E+00
    -3.515E+00   -3.449E+00   -3.382E+00   -3.315E+00   -3.249E+00   -3.183E+00   -3.117E+00   -3.051E+00   -2.986E+00   -2.920E+00
    -2.855E+00   -2.790E+00   -2.726E+00   -2.661E+00   -2.597E+00   -2.533E+00   -2.470E+00   -2.407E+00   -2.344E+00   -2.282E+00
    -2.220E+00   -2.159E+00   -2.098E+00   -2.037E+00   -1.977E+00   -1.918E+00   -1.859E+00   -1.800E+00   -1.742E+00   -1.685E+00
    -1.628E+00   -1.572E+00   -1.517E+00   -1.462E+00   -1.408E+00   -1.354E+00   -1.301E+00   -1.249E+00   -1.198E+00   -1.147E+00
    -1.098E+00   -1.049E+00   -1.000E+00   -9.531E-01   -9.066E-01   -8.610E-01   -8.162E-01   -7.724E-01   -7.294E-01   -6.875E-01
    -6.464E-01   -6.064E-01   -5.673E-01   -5.293E-01   -4.922E-01   -4.560E-01   -4.207E-01   -3.863E-01   -3.527E-01   -3.199E-01
    -2.878E-01   -2.565E-01   -2.258E-01   -1.957E-01   -1.663E-01   -1.374E-01   -1.090E-01   -8.111E-02   -5.368E-02   -2.665E-02
    -9.257E-06    2.630E-02    5.230E-02    7.803E-02    1.035E-01    1.288E-01    1.540E-01    1.790E-01    2.040E-01    2.289E-01
     2.538E-01    2.787E-01    3.037E-01    3.288E-01    3.540E-01    3.794E-01    4.050E-01    4.309E-01    4.570E-01    4.835E-01
     5.103E-01    5.375E-01    5.651E-01    5.932E-01    6.218E-01    6.510E-01    6.807E-01    7.111E-01
 Ala      Conc. = 1.05E+02
