 LCModel (Version 6.3-1L) Copyright: S.W. Provencher.          Ref.: Magn. Reson. Med. 30:672-679 (1993).                
 Slice#3 Row#11 Col#7  PD_24_press_2_raw_act
 36 lines in following concentration table = NCONC+1
    Conc.  %SD /Cr+PCr  Metabolite                                         
    0.000 999%   0.000 Ala                                                 
   69.616 116%   0.178 Asp                                                 
  391.304  12%   1.000 Cr                                                  
    0.000 999%   0.000 PCr                                                 
   42.669 117%   0.109 GABA                                                
   40.691 122%   0.104 Glc                                                 
   29.334 769% 7.5E-02 Gln                                                 
  314.398  81%   0.803 Glu                                                 
    0.000 999%   0.000 GPC                                                 
  120.020  14%   0.307 PCh                                                 
   45.025 136%   0.115 GSH                                                 
 1.17E+03  19%   2.992 Ins                                                 
    0.000 999%   0.000 Lac                                                 
  582.818   8%   1.489 NAA                                                 
    0.000 999%   0.000 NAAG                                                
   43.535  32%   0.111 Scyllo                                              
  128.558  62%   0.329 Tau                                                 
  456.561  16%   1.167 -CrCH2                                              
  120.020  14%   0.307 GPC+PCh                                             
  582.818   8%   1.489 NAA+NAAG                                            
  391.304  12%   1.000 Cr+PCr                                              
  343.732 115%   0.878 Glu+Gln                                             
    0.000 999%   0.000 Lip13a                                              
   23.617 294% 6.0E-02 Lip13b                                              
    0.000 999%   0.000 Lip09                                               
  213.328  48%   0.545 MM09                                                
    3.384 800% 8.6E-03 Lip20                                               
  331.812  49%   0.848 MM20                                                
   62.725  60%   0.160 MM12                                                
  253.904  43%   0.649 MM14                                                
  152.830  46%   0.391 MM17                                                
   23.617 294% 6.0E-02 Lip13a+Lip13b                                       
  340.246  46%   0.870 MM14+Lip13a+Lip13b+MM12                             
  213.328  48%   0.545 MM09+Lip09                                          
  335.197  49%   0.857 MM20+Lip20                                          
   6 lines in following misc. output table
  FWHM = 0.069 ppm    S/N =   3                                            
  Data shift = 0.031 ppm                                                   
  Ph: -41 deg      -9.3 deg/ppm                                            
  alphaB,S = 7.3E-01,   4.6E+00                                            
   14 spline knots.   Ns = 8(1)                                            
  (13)14 infls.   (16) 8 extrs.                                            
  498 points on ppm-axis = NY
      4.000000     3.992357     3.984714     3.977070     3.969427     3.961784     3.954141     3.946497     3.938854     3.931211
      3.923568     3.915925     3.908281     3.900638     3.892995     3.885352     3.877708     3.870065     3.862422     3.854779
      3.847136     3.839492     3.831849     3.824206     3.816563     3.808919     3.801276     3.793633     3.785990     3.778347
      3.770703     3.763060     3.755417     3.747774     3.740130     3.732487     3.724844     3.717201     3.709558     3.701914
      3.694271     3.686628     3.678985     3.671341     3.663698     3.656055     3.648412     3.640769     3.633125     3.625482
      3.617839     3.610196     3.602552     3.594909     3.587266     3.579623     3.571980     3.564336     3.556693     3.549050
      3.541407     3.533763     3.526120     3.518477     3.510834     3.503191     3.495547     3.487904     3.480261     3.472618
      3.464974     3.457331     3.449688     3.442045     3.434402     3.426758     3.419115     3.411472     3.403829     3.396185
      3.388542     3.380899     3.373256     3.365613     3.357969     3.350326     3.342683     3.335040     3.327396     3.319753
      3.312110     3.304467     3.296824     3.289180     3.281537     3.273894     3.266251     3.258607     3.250964     3.243321
      3.235678     3.228034     3.220391     3.212748     3.205105     3.197462     3.189818     3.182175     3.174532     3.166889
      3.159245     3.151602     3.143959     3.136316     3.128673     3.121029     3.113386     3.105743     3.098100     3.090456
      3.082813     3.075170     3.067527     3.059884     3.052240     3.044597     3.036954     3.029311     3.021667     3.014024
      3.006381     2.998738     2.991095     2.983451     2.975808     2.968165     2.960522     2.952878     2.945235     2.937592
      2.929949     2.922306     2.914662     2.907019     2.899376     2.891733     2.884089     2.876446     2.868803     2.861160
      2.853517     2.845873     2.838230     2.830587     2.822944     2.815300     2.807657     2.800014     2.792371     2.784728
      2.777084     2.769441     2.761798     2.754155     2.746511     2.738868     2.731225     2.723582     2.715939     2.708295
      2.700652     2.693009     2.685366     2.677722     2.670079     2.662436     2.654793     2.647150     2.639506     2.631863
      2.624220     2.616577     2.608933     2.601290     2.593647     2.586004     2.578361     2.570717     2.563074     2.555431
      2.547788     2.540144     2.532501     2.524858     2.517215     2.509572     2.501928     2.494285     2.486642     2.478999
      2.471355     2.463712     2.456069     2.448426     2.440783     2.433139     2.425496     2.417853     2.410210     2.402566
      2.394923     2.387280     2.379637     2.371994     2.364350     2.356707     2.349064     2.341421     2.333777     2.326134
      2.318491     2.310848     2.303205     2.295561     2.287918     2.280275     2.272632     2.264988     2.257345     2.249702
      2.242059     2.234416     2.226772     2.219129     2.211486     2.203843     2.196199     2.188556     2.180913     2.173270
      2.165627     2.157983     2.150340     2.142697     2.135054     2.127410     2.119767     2.112124     2.104481     2.096838
      2.089194     2.081551     2.073908     2.066265     2.058621     2.050978     2.043335     2.035692     2.028049     2.020405
      2.012762     2.005119     1.997476     1.989833     1.982190     1.974546     1.966903     1.959260     1.951617     1.943974
      1.936331     1.928688     1.921045     1.913402     1.905759     1.898115     1.890472     1.882829     1.875186     1.867543
      1.859900     1.852257     1.844614     1.836971     1.829327     1.821684     1.814041     1.806398     1.798755     1.791112
      1.783469     1.775826     1.768183     1.760540     1.752896     1.745253     1.737610     1.729967     1.722324     1.714681
      1.707038     1.699395     1.691752     1.684108     1.676465     1.668822     1.661179     1.653536     1.645893     1.638250
      1.630607     1.622964     1.615321     1.607677     1.600034     1.592391     1.584748     1.577105     1.569462     1.561819
      1.554176     1.546533     1.538890     1.531246     1.523603     1.515960     1.508317     1.500674     1.493031     1.485388
      1.477745     1.470102     1.462458     1.454815     1.447172     1.439529     1.431886     1.424243     1.416600     1.408957
      1.401314     1.393671     1.386027     1.378384     1.370741     1.363098     1.355455     1.347812     1.340169     1.332526
      1.324883     1.317240     1.309596     1.301953     1.294310     1.286667     1.279024     1.271381     1.263738     1.256095
      1.248452     1.240808     1.233165     1.225522     1.217879     1.210236     1.202593     1.194950     1.187307     1.179664
      1.172021     1.164377     1.156734     1.149091     1.141448     1.133805     1.126162     1.118519     1.110876     1.103233
      1.095590     1.087946     1.080303     1.072660     1.065017     1.057374     1.049731     1.042088     1.034445     1.026802
      1.019158     1.011515     1.003872     0.996229     0.988586     0.980943     0.973300     0.965657     0.958014     0.950371
      0.942727     0.935084     0.927441     0.919798     0.912155     0.904512     0.896869     0.889226     0.881583     0.873940
      0.866296     0.858653     0.851010     0.843367     0.835724     0.828081     0.820438     0.812795     0.805152     0.797508
      0.789865     0.782222     0.774579     0.766936     0.759293     0.751650     0.744007     0.736364     0.728721     0.721077
      0.713434     0.705791     0.698148     0.690505     0.682862     0.675219     0.667576     0.659933     0.652290     0.644646
      0.637003     0.629360     0.621717     0.614074     0.606431     0.598788     0.591145     0.583502     0.575858     0.568215
      0.560572     0.552929     0.545286     0.537643     0.530000     0.522357     0.514714     0.507071     0.499427     0.491784
      0.484141     0.476498     0.468855     0.461212     0.453569     0.445925     0.438282     0.430639     0.422996     0.415353
      0.407710     0.400067     0.392424     0.384780     0.377137     0.369494     0.361851     0.354208     0.346565     0.338922
      0.331278     0.323635     0.315992     0.308349     0.300706     0.293063     0.285420     0.277777     0.270133     0.262490
      0.254847     0.247204     0.239561     0.231918     0.224275     0.216631     0.208988     0.201345
 NY phased data points follow
  -4.32577E+01 -4.45609E+01 -4.05845E+01 -4.70674E+01 -3.56749E+01 -4.20346E+01 -3.41923E+01 -3.83127E+01 -3.18760E+01 -3.47082E+01
  -3.10019E+01 -3.31528E+01 -2.50932E+01 -3.19453E+01 -3.14495E+01 -3.11272E+01 -2.88602E+01 -3.43474E+01 -3.26030E+01 -3.48398E+01
  -2.85829E+01 -3.44194E+01 -2.93865E+01 -3.27024E+01 -2.92983E+01 -2.91963E+01 -2.74285E+01 -2.89394E+01 -2.58451E+01 -2.85740E+01
  -2.40149E+01 -2.65778E+01 -2.49130E+01 -2.79817E+01 -2.28276E+01 -2.93227E+01 -2.19279E+01 -2.82830E+01 -2.14113E+01 -2.45198E+01
  -2.51761E+01 -2.52094E+01 -2.26479E+01 -2.29197E+01 -1.76854E+01 -2.20840E+01 -1.85575E+01 -2.46331E+01 -1.59923E+01 -1.90364E+01
  -2.15094E+01 -2.04651E+01 -1.69875E+01 -2.21631E+01 -1.81647E+01 -2.54908E+01 -2.10895E+01 -1.83259E+01 -2.09936E+01 -2.05654E+01
  -1.42184E+01 -1.95707E+01 -1.99745E+01 -2.09117E+01 -2.02082E+01 -2.33902E+01 -1.76518E+01 -2.03448E+01 -1.73860E+01 -1.87709E+01
  -1.45842E+01 -2.04181E+01 -1.57512E+01 -1.81392E+01 -1.54608E+01 -1.79095E+01 -1.35440E+01 -2.25275E+01 -1.73979E+01 -1.83583E+01
  -1.50441E+01 -1.75726E+01 -1.39408E+01 -1.88302E+01 -1.48261E+01 -1.89364E+01 -1.23008E+01 -1.63408E+01 -1.44653E+01 -1.56466E+01
  -1.73765E+01 -1.35655E+01 -1.72376E+01 -1.76766E+01 -1.12576E+01 -1.45810E+01 -1.68554E+01 -1.57777E+01 -1.54934E+01 -1.06346E+01
  -8.94586E+00 -1.03129E+01 -1.01716E+01 -7.01786E+00 -7.45108E+00 -6.89778E+00 -5.08976E+00 -1.21679E+01 -1.00951E+01 -1.19501E+01
  -1.16755E+01 -1.99763E+01 -1.25604E+01 -1.40182E+01 -1.43438E+01 -1.48495E+01 -1.05529E+01 -1.33960E+01 -1.35899E+01 -1.14875E+01
  -1.08900E+01 -1.09828E+01 -6.24286E+00 -7.23654E+00 -4.61515E+00 -4.52271E+00 -2.29984E+00 -2.14922E+00 -2.43058E+00 -5.59153E+00
  -2.74236E+00 -6.08415E+00 -7.78699E+00 -1.22361E+01 -8.11651E+00 -1.13017E+01 -9.62585E+00 -1.15918E+01 -1.12335E+01 -1.21917E+01
  -6.88751E+00 -1.23045E+01 -8.87880E+00 -1.44736E+01 -1.11164E+01 -1.15999E+01 -1.28220E+01 -8.00480E+00 -8.99814E+00 -1.10723E+01
  -9.79274E+00 -9.32361E+00 -9.39638E+00 -1.28147E+01 -8.39547E+00 -1.09691E+01 -1.09892E+01 -1.06424E+01 -1.00566E+01 -9.32218E+00
  -1.04714E+01 -1.21043E+01 -8.14407E+00 -1.04881E+01 -1.07829E+01 -1.29603E+01 -1.17987E+01 -8.84484E+00 -7.46548E+00 -5.93740E+00
  -9.40850E+00 -1.25437E+01 -9.86054E+00 -1.24979E+01 -1.00596E+01 -1.07881E+01 -9.02453E+00 -1.05829E+01 -8.17494E+00 -8.90135E+00
  -9.18029E+00 -5.65575E+00 -7.04366E+00 -7.22868E+00 -8.02866E+00 -1.15788E+01 -1.23860E+01 -1.25563E+01 -6.97581E+00 -9.10077E+00
  -7.09597E+00 -6.36670E+00 -6.32637E+00 -8.81274E+00 -3.60274E+00 -1.10875E+01 -6.44737E+00 -7.39632E+00 -3.93459E+00 -7.19266E+00
  -3.62497E+00 -4.77999E+00 -7.03925E+00 -3.96437E+00 -4.70550E+00 -7.23450E+00 -6.65977E+00 -7.11113E+00 -5.66554E+00 -7.30229E+00
  -5.22418E+00 -3.21294E+00 -4.20080E+00 -7.09883E+00 -5.42357E+00 -6.65893E+00 -5.71617E+00 -3.57648E+00 -5.08477E+00 -6.16864E+00
  -1.95136E+00 -7.16478E+00 -5.75748E+00 -8.99794E+00 -5.36962E+00 -7.85455E+00 -5.44018E+00 -2.25874E+00 -3.54084E+00 -4.39830E+00
  -4.86477E+00 -1.78909E+00 -3.07588E+00 -3.92270E+00 -4.52447E+00 -1.57726E+00 -1.45962E+00 -3.35479E+00 -2.18641E+00 -4.62280E+00
  -2.69663E+00 -3.45485E+00 -1.25620E-01 -2.27984E+00 -3.02483E-01 -2.07609E-01 -2.82830E+00 -3.65439E+00 -9.11597E-01 -5.31937E+00
   7.19876E-01 -1.30424E+00 -8.04189E-01  2.40463E-01  2.34738E+00  6.32999E+00  5.37615E+00  1.24341E+01  1.62982E+01  1.61008E+01
   1.61898E+01  7.13692E+00  7.91107E+00  8.95854E+00  5.24460E+00  6.27412E+00  2.08912E+00 -7.19876E-01 -1.41180E+00 -3.17359E+00
  -2.04103E+00 -3.14558E+00 -4.85230E+00 -4.43919E+00 -3.45887E+00 -1.83189E+00  3.75176E-01 -6.20116E+00 -3.75815E+00 -2.16095E+00
  -2.73245E+00 -3.13354E+00 -4.04700E+00 -3.31245E+00 -2.86447E+00 -3.85686E+00 -1.10632E-01 -3.34140E+00 -3.39243E+00  7.36582E-01
  -1.76293E+00  2.33049E+00  1.64989E+00  3.06702E+00  1.64270E+00 -4.77272E-01  6.28398E+00  3.17440E+00  2.02062E+00 -7.61575E-01
   2.84780E-01 -1.70460E+00 -4.09877E-01  1.28586E+00 -2.15345E+00 -1.18923E+00 -1.21479E+00 -2.24087E+00 -2.72356E+00 -4.22853E+00
  -8.40177E-01 -2.83235E+00 -4.17493E+00 -1.26586E+00 -5.02125E-01 -1.14500E+00 -1.09422E+00 -1.59639E+00  5.43272E-01 -5.60486E+00
  -3.02255E+00 -3.09097E+00 -7.09764E-01  2.47059E-01 -2.44361E+00 -2.63327E+00 -4.68716E+00 -2.06078E+00  9.13400E-02 -9.62823E-03
   1.98376E+00  7.79952E+00  1.32220E+00  2.57147E+00  2.30616E+00  1.96063E+00  3.34798E+00  3.13309E+00 -2.54493E+00 -3.62964E-01
  -1.24274E+00 -4.75852E-01 -3.06014E+00 -3.74082E+00 -5.92315E+00 -1.22534E+00 -3.64816E+00 -2.49268E+00  4.24722E-01  1.65588E+00
   3.52430E+00 -1.26602E+00  2.93318E-02 -2.84791E+00  1.53720E+00  1.84239E+00 -5.84371E-01 -1.29946E+00 -6.26505E+00 -3.29169E+00
  -4.36501E+00 -3.45887E+00  1.93681E+00 -1.84572E+00  1.03612E+00 -2.21388E+00  1.27130E-01  2.96408E+00  2.97200E-01 -4.42632E-01
   1.90313E+00  2.78596E-01 -1.54386E+00 -2.14588E+00 -5.36555E-01 -2.56570E+00 -1.70469E+00 -4.17535E+00 -3.04905E+00 -6.77789E+00
  -5.36560E+00 -5.94367E+00 -3.91783E+00 -4.20231E+00  1.36297E+00 -7.27552E+00 -3.69794E+00 -5.24702E+00 -2.59011E+00 -5.77925E+00
  -5.44239E+00 -7.65989E+00 -2.05145E+00 -3.14582E+00 -1.00869E+00 -2.44754E+00 -1.13965E+00 -2.08784E+00 -9.15836E-01 -6.18781E-01
  -1.67451E+00 -3.63966E+00 -9.56262E-01  1.81170E+00  2.71258E-01 -5.68867E-02  1.16705E+00  2.69506E+00  3.42160E-01  7.32496E-01
  -1.16763E+00 -3.88735E+00  4.28302E+00 -5.34499E+00 -3.04941E+00 -3.35899E+00 -2.03324E+00 -3.09153E+00 -2.42328E-01 -4.49861E+00
  -1.72416E+00 -5.14843E-01  1.38006E+00 -7.60437E-01 -4.12501E+00 -1.11587E+00  8.09535E-01 -3.04891E+00 -2.19352E+00  1.00521E+00
  -9.96290E-01 -1.72466E+00  1.90420E+00 -4.84450E+00  1.14211E+00 -1.00434E+00 -2.11872E+00 -5.26710E-01 -2.11186E+00 -2.71726E-01
   3.26468E-01 -2.26266E+00  1.13833E+00 -1.27245E+00 -2.45660E+00 -4.97453E+00  2.01389E+00 -3.38731E+00  1.54134E+00  7.88115E-01
  -7.03974E-01  4.86855E+00  5.13700E-01  1.09215E+00 -5.12548E+00 -4.57278E-02  3.85671E+00 -1.40093E+00 -1.30234E+00 -1.06519E+00
   9.27101E-02  2.23809E-01 -3.02011E+00 -2.26400E+00  8.36786E-01  3.58225E+00 -4.73752E+00 -7.88638E-01 -2.10442E+00 -3.11309E+00
  -1.24269E+00 -2.75674E+00 -2.62331E+00 -4.72098E-01 -3.22446E+00 -1.98927E+00  5.32044E-01  1.63163E-01 -3.56868E+00 -3.05563E+00
   3.64311E-01 -3.21232E+00 -7.33415E-01 -2.71664E+00 -1.14714E+00  3.89262E-01 -8.38048E-01 -1.45960E+00 -3.27308E-01 -3.41041E+00
  -5.80588E-02 -2.77417E+00 -1.32986E+00 -5.41873E-01 -9.13292E-01  7.51385E-01 -1.11041E+00 -2.30986E+00
 NY points of the fit to the data follow
  -3.62482E+01 -3.61429E+01 -3.72350E+01 -3.85626E+01 -3.78691E+01 -3.91368E+01 -3.74191E+01 -3.71271E+01 -3.58328E+01 -3.34292E+01
  -3.22136E+01 -3.11103E+01 -3.01472E+01 -3.04557E+01 -2.92530E+01 -2.85920E+01 -2.83222E+01 -3.01978E+01 -3.06177E+01 -3.18637E+01
  -3.03345E+01 -3.00955E+01 -2.98461E+01 -2.97702E+01 -2.91608E+01 -2.88725E+01 -2.83215E+01 -2.79545E+01 -2.74780E+01 -2.69854E+01
  -2.64947E+01 -2.64289E+01 -2.60026E+01 -2.60292E+01 -2.59695E+01 -2.59679E+01 -2.61221E+01 -2.64785E+01 -2.63157E+01 -2.57110E+01
  -2.48351E+01 -2.41554E+01 -2.27910E+01 -2.16770E+01 -2.06730E+01 -1.99883E+01 -1.93792E+01 -1.92439E+01 -1.99248E+01 -2.09716E+01
  -2.15103E+01 -2.19456E+01 -2.23457E+01 -2.26304E+01 -2.29004E+01 -2.33180E+01 -2.19097E+01 -2.08372E+01 -2.02571E+01 -1.98882E+01
  -1.98916E+01 -1.98573E+01 -1.98453E+01 -2.01167E+01 -1.97171E+01 -1.98018E+01 -1.95444E+01 -1.94661E+01 -1.89265E+01 -1.85155E+01
  -1.78898E+01 -1.75436E+01 -1.72243E+01 -1.73059E+01 -1.72319E+01 -1.73420E+01 -1.74176E+01 -1.74270E+01 -1.69791E+01 -1.75224E+01
  -1.71401E+01 -1.70237E+01 -1.70951E+01 -1.72499E+01 -1.72652E+01 -1.74654E+01 -1.75917E+01 -1.80406E+01 -1.78442E+01 -1.78816E+01
  -1.77647E+01 -1.74650E+01 -1.74397E+01 -1.74640E+01 -1.68342E+01 -1.56539E+01 -1.39078E+01 -1.42996E+01 -1.18294E+01 -1.10892E+01
  -9.64178E+00 -8.37630E+00 -7.80938E+00 -7.42811E+00 -7.65562E+00 -9.13353E+00 -9.14415E+00 -1.04881E+01 -1.12355E+01 -1.23370E+01
  -1.34608E+01 -1.55454E+01 -1.45013E+01 -1.41397E+01 -1.43104E+01 -1.43736E+01 -1.42231E+01 -1.40949E+01 -1.37283E+01 -1.22340E+01
  -1.06509E+01 -1.03336E+01 -6.98355E+00 -6.38707E+00 -4.16957E+00 -2.99808E+00 -2.43717E+00 -2.04276E+00 -2.99332E+00 -4.80413E+00
  -4.86713E+00 -6.97496E+00 -7.85559E+00 -9.28311E+00 -1.11397E+01 -1.30299E+01 -1.12229E+01 -1.13816E+01 -1.15023E+01 -1.14435E+01
  -1.13346E+01 -1.12308E+01 -1.10684E+01 -1.09861E+01 -1.08757E+01 -1.08215E+01 -1.07703E+01 -1.07641E+01 -1.06773E+01 -1.06323E+01
  -1.05389E+01 -1.04925E+01 -1.04415E+01 -1.04680E+01 -1.03650E+01 -1.03770E+01 -1.03329E+01 -1.02595E+01 -1.02878E+01 -1.01580E+01
  -1.01005E+01 -1.00160E+01 -9.83275E+00 -9.79459E+00 -9.68772E+00 -9.63040E+00 -9.62752E+00 -9.54229E+00 -9.52148E+00 -9.55527E+00
  -9.56399E+00 -9.66375E+00 -9.62995E+00 -9.62299E+00 -9.47370E+00 -9.45407E+00 -9.36540E+00 -9.21630E+00 -9.13927E+00 -9.13352E+00
  -8.90926E+00 -8.84793E+00 -8.61589E+00 -8.37528E+00 -8.20793E+00 -8.11082E+00 -7.81502E+00 -7.54268E+00 -7.14436E+00 -6.97486E+00
  -6.92410E+00 -6.68036E+00 -6.62238E+00 -6.48153E+00 -6.34044E+00 -6.36979E+00 -6.32008E+00 -6.26149E+00 -6.08934E+00 -5.96123E+00
  -5.77521E+00 -5.67538E+00 -5.68312E+00 -5.59334E+00 -5.76043E+00 -5.84014E+00 -5.82347E+00 -6.02205E+00 -5.79224E+00 -5.92655E+00
  -5.68226E+00 -5.55679E+00 -5.34994E+00 -5.16938E+00 -5.13169E+00 -5.20927E+00 -5.31036E+00 -5.59953E+00 -5.72986E+00 -5.87880E+00
  -5.88631E+00 -5.89662E+00 -5.83145E+00 -5.71587E+00 -5.18626E+00 -4.83588E+00 -4.62011E+00 -4.31980E+00 -4.13685E+00 -3.81214E+00
  -3.73367E+00 -3.84348E+00 -3.80645E+00 -3.64364E+00 -3.60819E+00 -3.62569E+00 -3.50122E+00 -3.51945E+00 -3.42477E+00 -3.43755E+00
  -3.39658E+00 -3.33836E+00 -3.22837E+00 -3.14136E+00 -2.99782E+00 -2.93538E+00 -2.78940E+00 -2.66767E+00 -2.54579E+00 -2.49606E+00
  -2.27946E+00 -1.73623E+00  7.24924E-01  2.09624E+00  3.51395E+00  7.52960E+00  8.55101E+00  1.16078E+01  1.29178E+01  1.36046E+01
   1.38341E+01  1.17148E+01  9.67509E+00  8.83847E+00  5.86789E+00  4.41770E+00  2.17931E+00 -1.20182E+00 -3.00699E+00 -8.90563E-01
  -1.46854E+00 -1.81369E+00 -1.85506E+00 -1.84394E+00 -1.88306E+00 -1.89993E+00 -1.89050E+00 -1.91036E+00 -1.93802E+00 -1.95968E+00
  -1.98847E+00 -2.02434E+00 -2.00668E+00 -2.00436E+00 -1.96970E+00 -1.92634E+00 -1.87050E+00 -1.81995E+00 -1.74736E+00 -1.69384E+00
  -1.62490E+00 -1.56465E+00 -1.49637E+00 -1.44385E+00 -1.37515E+00 -1.31707E+00 -1.25823E+00 -1.21521E+00 -1.16412E+00 -1.13422E+00
  -1.10406E+00 -1.09139E+00 -1.07921E+00 -1.08820E+00 -1.09421E+00 -1.11971E+00 -1.13970E+00 -1.17617E+00 -1.20360E+00 -1.24393E+00
  -1.27257E+00 -1.31044E+00 -1.33271E+00 -1.36164E+00 -1.37292E+00 -1.38890E+00 -1.38626E+00 -1.38727E+00 -1.36914E+00 -1.35455E+00
  -1.32140E+00 -1.29281E+00 -1.24711E+00 -1.20737E+00 -1.15232E+00 -1.10517E+00 -1.04527E+00 -9.95870E-01 -9.36360E-01 -8.89820E-01
  -8.35743E-01 -7.97037E-01 -7.53429E-01 -7.27323E-01 -6.98031E-01 -6.87418E-01 -6.74567E-01 -6.80835E-01 -6.84999E-01 -7.07612E-01
  -7.26915E-01 -7.62696E-01 -7.92948E-01 -8.36983E-01 -8.72468E-01 -9.18179E-01 -9.51812E-01 -9.92221E-01 -1.01795E+00 -1.04877E+00
  -1.06452E+00 -1.08614E+00 -1.09505E+00 -1.11336E+00 -1.12344E+00 -1.14731E+00 -1.16666E+00 -1.20194E+00 -1.23330E+00 -1.27943E+00
  -1.31922E+00 -1.37022E+00 -1.41101E+00 -1.45926E+00 -1.49453E+00 -1.53548E+00 -1.56284E+00 -1.59592E+00 -1.61605E+00 -1.64273E+00
  -1.65761E+00 -1.68002E+00 -1.69148E+00 -1.71079E+00 -1.71924E+00 -1.73535E+00 -1.74042E+00 -1.75274E+00 -1.75355E+00 -1.76077E+00
  -1.75571E+00 -1.75619E+00 -1.74366E+00 -1.73579E+00 -1.71399E+00 -1.69573E+00 -1.66258E+00 -1.63203E+00 -1.58593E+00 -1.54172E+00
  -1.48147E+00 -1.42277E+00 -1.34823E+00 -1.27588E+00 -1.18894E+00 -1.10580E+00 -1.01029E+00 -9.21271E-01 -8.23355E-01 -7.35803E-01
  -6.43621E-01 -5.66046E-01 -4.88158E-01 -4.28948E-01 -3.73297E-01 -3.39506E-01 -3.11708E-01 -3.07122E-01 -3.09031E-01 -3.33653E-01
  -3.63497E-01 -4.13768E-01 -4.66243E-01 -5.35413E-01 -6.02844E-01 -6.82840E-01 -7.57122E-01 -8.40015E-01 -9.13595E-01 -9.92537E-01
  -1.05962E+00 -1.13003E+00 -1.18718E+00 -1.24660E+00 -1.29222E+00 -1.33989E+00 -1.37407E+00 -1.41081E+00 -1.43478E+00 -1.46197E+00
  -1.47720E+00 -1.49647E+00 -1.50473E+00 -1.51784E+00 -1.52073E+00 -1.52903E+00 -1.52772E+00 -1.53234E+00 -1.52795E+00 -1.52991E+00
  -1.52322E+00 -1.52306E+00 -1.51456E+00 -1.51285E+00 -1.50312E+00 -1.50031E+00 -1.48961E+00 -1.48585E+00 -1.47440E+00 -1.47004E+00
  -1.45817E+00 -1.45339E+00 -1.44114E+00 -1.43598E+00 -1.42351E+00 -1.41818E+00 -1.40562E+00 -1.40012E+00 -1.38740E+00 -1.38172E+00
  -1.36895E+00 -1.36324E+00 -1.35047E+00 -1.34465E+00 -1.33179E+00 -1.32589E+00 -1.31307E+00 -1.30719E+00 -1.29437E+00 -1.28840E+00
  -1.27553E+00 -1.26954E+00 -1.25675E+00 -1.25077E+00 -1.23796E+00 -1.23188E+00 -1.21906E+00 -1.21299E+00 -1.20024E+00 -1.19416E+00
  -1.18136E+00 -1.17518E+00 -1.16239E+00 -1.15624E+00 -1.14350E+00 -1.13728E+00 -1.12447E+00 -1.11818E+00 -1.10539E+00 -1.09911E+00
  -1.08634E+00 -1.07996E+00 -1.06711E+00 -1.06067E+00 -1.04786E+00 -1.04143E+00 -1.02859E+00 -1.02203E+00
 NY background values follow
    -3.594E+01   -3.573E+01   -3.551E+01   -3.530E+01   -3.508E+01   -3.487E+01   -3.466E+01   -3.444E+01   -3.423E+01   -3.401E+01
    -3.380E+01   -3.359E+01   -3.337E+01   -3.316E+01   -3.294E+01   -3.273E+01   -3.252E+01   -3.231E+01   -3.209E+01   -3.188E+01
    -3.167E+01   -3.146E+01   -3.124E+01   -3.103E+01   -3.082E+01   -3.061E+01   -3.040E+01   -3.019E+01   -2.998E+01   -2.977E+01
    -2.956E+01   -2.936E+01   -2.915E+01   -2.894E+01   -2.873E+01   -2.853E+01   -2.832E+01   -2.812E+01   -2.791E+01   -2.771E+01
    -2.751E+01   -2.730E+01   -2.710E+01   -2.690E+01   -2.670E+01   -2.650E+01   -2.630E+01   -2.610E+01   -2.590E+01   -2.571E+01
    -2.551E+01   -2.532E+01   -2.512E+01   -2.493E+01   -2.473E+01   -2.454E+01   -2.435E+01   -2.416E+01   -2.397E+01   -2.378E+01
    -2.359E+01   -2.340E+01   -2.322E+01   -2.303E+01   -2.285E+01   -2.266E+01   -2.248E+01   -2.230E+01   -2.212E+01   -2.194E+01
    -2.176E+01   -2.158E+01   -2.140E+01   -2.122E+01   -2.105E+01   -2.087E+01   -2.070E+01   -2.053E+01   -2.036E+01   -2.019E+01
    -2.002E+01   -1.985E+01   -1.968E+01   -1.951E+01   -1.935E+01   -1.918E+01   -1.902E+01   -1.886E+01   -1.870E+01   -1.854E+01
    -1.838E+01   -1.822E+01   -1.806E+01   -1.791E+01   -1.775E+01   -1.760E+01   -1.745E+01   -1.730E+01   -1.715E+01   -1.700E+01
    -1.685E+01   -1.670E+01   -1.656E+01   -1.641E+01   -1.627E+01   -1.612E+01   -1.598E+01   -1.584E+01   -1.570E+01   -1.556E+01
    -1.543E+01   -1.529E+01   -1.515E+01   -1.502E+01   -1.489E+01   -1.475E+01   -1.462E+01   -1.449E+01   -1.436E+01   -1.423E+01
    -1.411E+01   -1.398E+01   -1.386E+01   -1.373E+01   -1.361E+01   -1.348E+01   -1.336E+01   -1.324E+01   -1.312E+01   -1.300E+01
    -1.289E+01   -1.277E+01   -1.265E+01   -1.254E+01   -1.243E+01   -1.231E+01   -1.220E+01   -1.209E+01   -1.198E+01   -1.187E+01
    -1.176E+01   -1.165E+01   -1.155E+01   -1.144E+01   -1.134E+01   -1.123E+01   -1.113E+01   -1.103E+01   -1.092E+01   -1.082E+01
    -1.072E+01   -1.062E+01   -1.053E+01   -1.043E+01   -1.033E+01   -1.023E+01   -1.014E+01   -1.004E+01   -9.950E+00   -9.857E+00
    -9.765E+00   -9.673E+00   -9.582E+00   -9.492E+00   -9.402E+00   -9.313E+00   -9.225E+00   -9.137E+00   -9.050E+00   -8.964E+00
    -8.878E+00   -8.793E+00   -8.709E+00   -8.625E+00   -8.542E+00   -8.459E+00   -8.377E+00   -8.295E+00   -8.215E+00   -8.134E+00
    -8.055E+00   -7.975E+00   -7.897E+00   -7.818E+00   -7.741E+00   -7.664E+00   -7.587E+00   -7.511E+00   -7.436E+00   -7.361E+00
    -7.287E+00   -7.213E+00   -7.140E+00   -7.067E+00   -6.995E+00   -6.923E+00   -6.852E+00   -6.782E+00   -6.712E+00   -6.642E+00
    -6.573E+00   -6.505E+00   -6.437E+00   -6.370E+00   -6.304E+00   -6.238E+00   -6.172E+00   -6.107E+00   -6.043E+00   -5.979E+00
    -5.916E+00   -5.853E+00   -5.791E+00   -5.729E+00   -5.668E+00   -5.608E+00   -5.548E+00   -5.489E+00   -5.430E+00   -5.372E+00
    -5.314E+00   -5.257E+00   -5.201E+00   -5.145E+00   -5.090E+00   -5.035E+00   -4.981E+00   -4.927E+00   -4.874E+00   -4.822E+00
    -4.770E+00   -4.719E+00   -4.668E+00   -4.618E+00   -4.568E+00   -4.519E+00   -4.471E+00   -4.423E+00   -4.376E+00   -4.329E+00
    -4.282E+00   -4.237E+00   -4.192E+00   -4.147E+00   -4.103E+00   -4.060E+00   -4.017E+00   -3.974E+00   -3.932E+00   -3.891E+00
    -3.850E+00   -3.810E+00   -3.770E+00   -3.731E+00   -3.693E+00   -3.654E+00   -3.617E+00   -3.580E+00   -3.543E+00   -3.507E+00
    -3.472E+00   -3.437E+00   -3.402E+00   -3.368E+00   -3.335E+00   -3.302E+00   -3.270E+00   -3.238E+00   -3.207E+00   -3.176E+00
    -3.145E+00   -3.116E+00   -3.086E+00   -3.057E+00   -3.029E+00   -3.001E+00   -2.974E+00   -2.947E+00   -2.921E+00   -2.895E+00
    -2.870E+00   -2.845E+00   -2.821E+00   -2.797E+00   -2.773E+00   -2.751E+00   -2.728E+00   -2.707E+00   -2.685E+00   -2.664E+00
    -2.644E+00   -2.624E+00   -2.605E+00   -2.586E+00   -2.568E+00   -2.550E+00   -2.532E+00   -2.515E+00   -2.499E+00   -2.483E+00
    -2.468E+00   -2.453E+00   -2.438E+00   -2.425E+00   -2.411E+00   -2.398E+00   -2.386E+00   -2.374E+00   -2.362E+00   -2.351E+00
    -2.341E+00   -2.331E+00   -2.321E+00   -2.312E+00   -2.303E+00   -2.295E+00   -2.288E+00   -2.280E+00   -2.274E+00   -2.268E+00
    -2.262E+00   -2.257E+00   -2.252E+00   -2.247E+00   -2.243E+00   -2.239E+00   -2.236E+00   -2.233E+00   -2.231E+00   -2.228E+00
    -2.226E+00   -2.225E+00   -2.224E+00   -2.223E+00   -2.222E+00   -2.221E+00   -2.221E+00   -2.221E+00   -2.222E+00   -2.222E+00
    -2.223E+00   -2.224E+00   -2.225E+00   -2.226E+00   -2.228E+00   -2.229E+00   -2.231E+00   -2.233E+00   -2.235E+00   -2.237E+00
    -2.239E+00   -2.241E+00   -2.244E+00   -2.246E+00   -2.248E+00   -2.251E+00   -2.253E+00   -2.256E+00   -2.258E+00   -2.261E+00
    -2.263E+00   -2.265E+00   -2.268E+00   -2.270E+00   -2.272E+00   -2.274E+00   -2.276E+00   -2.278E+00   -2.280E+00   -2.282E+00
    -2.283E+00   -2.285E+00   -2.286E+00   -2.288E+00   -2.289E+00   -2.290E+00   -2.290E+00   -2.291E+00   -2.292E+00   -2.292E+00
    -2.292E+00   -2.292E+00   -2.292E+00   -2.291E+00   -2.291E+00   -2.290E+00   -2.289E+00   -2.287E+00   -2.286E+00   -2.284E+00
    -2.282E+00   -2.280E+00   -2.277E+00   -2.274E+00   -2.271E+00   -2.268E+00   -2.264E+00   -2.260E+00   -2.256E+00   -2.252E+00
    -2.247E+00   -2.241E+00   -2.236E+00   -2.230E+00   -2.224E+00   -2.217E+00   -2.210E+00   -2.203E+00   -2.195E+00   -2.187E+00
    -2.179E+00   -2.170E+00   -2.161E+00   -2.152E+00   -2.143E+00   -2.133E+00   -2.122E+00   -2.112E+00   -2.101E+00   -2.090E+00
    -2.079E+00   -2.068E+00   -2.056E+00   -2.044E+00   -2.032E+00   -2.020E+00   -2.008E+00   -1.995E+00   -1.983E+00   -1.970E+00
    -1.957E+00   -1.944E+00   -1.931E+00   -1.917E+00   -1.904E+00   -1.891E+00   -1.877E+00   -1.864E+00   -1.850E+00   -1.836E+00
    -1.823E+00   -1.809E+00   -1.796E+00   -1.782E+00   -1.768E+00   -1.755E+00   -1.741E+00   -1.728E+00   -1.714E+00   -1.701E+00
    -1.688E+00   -1.675E+00   -1.661E+00   -1.649E+00   -1.636E+00   -1.623E+00   -1.610E+00   -1.598E+00   -1.585E+00   -1.573E+00
    -1.561E+00   -1.549E+00   -1.537E+00   -1.525E+00   -1.513E+00   -1.501E+00   -1.489E+00   -1.477E+00   -1.466E+00   -1.454E+00
    -1.443E+00   -1.431E+00   -1.420E+00   -1.409E+00   -1.397E+00   -1.386E+00   -1.375E+00   -1.364E+00   -1.352E+00   -1.341E+00
    -1.330E+00   -1.319E+00   -1.308E+00   -1.297E+00   -1.286E+00   -1.275E+00   -1.264E+00   -1.253E+00   -1.242E+00   -1.230E+00
    -1.219E+00   -1.208E+00   -1.197E+00   -1.186E+00   -1.175E+00   -1.164E+00   -1.153E+00   -1.141E+00
 Asp      Conc. = 6.96E+01
