 LCModel (Version 6.3-1L) Copyright: S.W. Provencher.          Ref.: Magn. Reson. Med. 30:672-679 (1993).                
 Slice#3 Row#4 Col#12  PD_24_press_2_raw_act
 36 lines in following concentration table = NCONC+1
    Conc.  %SD /Cr+PCr  Metabolite                                         
  151.212  37%   2.005 Ala                                                 
   22.724  94%   0.301 Asp                                                 
   75.411  40%   1.000 Cr                                                  
    0.000 999%   0.000 PCr                                                 
   12.795 100%   0.170 GABA                                                
   13.509  96%   0.179 Glc                                                 
   25.188 349%   0.334 Gln                                                 
  224.929  48%   2.983 Glu                                                 
    0.000 999%   0.000 GPC                                                 
   52.371  25%   0.694 PCh                                                 
   50.289  72%   0.667 GSH                                                 
    0.000 999%   0.000 Ins                                                 
    1.324 999% 1.8E-02 Lac                                                 
  198.140  22%   2.627 NAA                                                 
    0.000 999%   0.000 NAAG                                                
    5.285  79% 7.0E-02 Scyllo                                              
   26.286  80%   0.349 Tau                                                 
   14.328 141%   0.190 -CrCH2                                              
   52.371  25%   0.694 GPC+PCh                                             
  198.140  22%   2.627 NAA+NAAG                                            
   75.411  40%   1.000 Cr+PCr                                              
  250.117  51%   3.317 Glu+Gln                                             
 4.73E+03  12%  62.724 Lip13a                                              
    0.000 999%   0.000 Lip13b                                              
 1.65E+03  15%  21.932 Lip09                                               
   73.557 299%   0.975 MM09                                                
  818.782  24%  10.858 Lip20                                               
    0.000 999%   0.000 MM20                                                
    0.000 999%   0.000 MM12                                                
    0.000 999%   0.000 MM14                                                
  349.490  54%   4.634 MM17                                                
 4.73E+03  12%  62.724 Lip13a+Lip13b                                       
 4.73E+03  12%  62.724 MM14+Lip13a+Lip13b+MM12                             
 1.73E+03  13%  22.908 MM09+Lip09                                          
  818.782  24%  10.858 MM20+Lip20                                          
   6 lines in following misc. output table
  FWHM = 0.038 ppm    S/N =   2                                            
  Data shift = 0.015 ppm                                                   
  Ph:-131 deg     -32.5 deg/ppm                                            
  alphaB,S = 8.5E+01,   3.2E+00                                            
   14 spline knots.   Ns = 5(1)                                            
   2 inflections.     3 extrema                                            
  498 points on ppm-axis = NY
      4.000000     3.992357     3.984714     3.977070     3.969427     3.961784     3.954141     3.946497     3.938854     3.931211
      3.923568     3.915925     3.908281     3.900638     3.892995     3.885352     3.877708     3.870065     3.862422     3.854779
      3.847136     3.839492     3.831849     3.824206     3.816563     3.808919     3.801276     3.793633     3.785990     3.778347
      3.770703     3.763060     3.755417     3.747774     3.740130     3.732487     3.724844     3.717201     3.709558     3.701914
      3.694271     3.686628     3.678985     3.671341     3.663698     3.656055     3.648412     3.640769     3.633125     3.625482
      3.617839     3.610196     3.602552     3.594909     3.587266     3.579623     3.571980     3.564336     3.556693     3.549050
      3.541407     3.533763     3.526120     3.518477     3.510834     3.503191     3.495547     3.487904     3.480261     3.472618
      3.464974     3.457331     3.449688     3.442045     3.434402     3.426758     3.419115     3.411472     3.403829     3.396185
      3.388542     3.380899     3.373256     3.365613     3.357969     3.350326     3.342683     3.335040     3.327396     3.319753
      3.312110     3.304467     3.296824     3.289180     3.281537     3.273894     3.266251     3.258607     3.250964     3.243321
      3.235678     3.228034     3.220391     3.212748     3.205105     3.197462     3.189818     3.182175     3.174532     3.166889
      3.159245     3.151602     3.143959     3.136316     3.128673     3.121029     3.113386     3.105743     3.098100     3.090456
      3.082813     3.075170     3.067527     3.059884     3.052240     3.044597     3.036954     3.029311     3.021667     3.014024
      3.006381     2.998738     2.991095     2.983451     2.975808     2.968165     2.960522     2.952878     2.945235     2.937592
      2.929949     2.922306     2.914662     2.907019     2.899376     2.891733     2.884089     2.876446     2.868803     2.861160
      2.853517     2.845873     2.838230     2.830587     2.822944     2.815300     2.807657     2.800014     2.792371     2.784728
      2.777084     2.769441     2.761798     2.754155     2.746511     2.738868     2.731225     2.723582     2.715939     2.708295
      2.700652     2.693009     2.685366     2.677722     2.670079     2.662436     2.654793     2.647150     2.639506     2.631863
      2.624220     2.616577     2.608933     2.601290     2.593647     2.586004     2.578361     2.570717     2.563074     2.555431
      2.547788     2.540144     2.532501     2.524858     2.517215     2.509572     2.501928     2.494285     2.486642     2.478999
      2.471355     2.463712     2.456069     2.448426     2.440783     2.433139     2.425496     2.417853     2.410210     2.402566
      2.394923     2.387280     2.379637     2.371994     2.364350     2.356707     2.349064     2.341421     2.333777     2.326134
      2.318491     2.310848     2.303205     2.295561     2.287918     2.280275     2.272632     2.264988     2.257345     2.249702
      2.242059     2.234416     2.226772     2.219129     2.211486     2.203843     2.196199     2.188556     2.180913     2.173270
      2.165627     2.157983     2.150340     2.142697     2.135054     2.127410     2.119767     2.112124     2.104481     2.096838
      2.089194     2.081551     2.073908     2.066265     2.058621     2.050978     2.043335     2.035692     2.028049     2.020405
      2.012762     2.005119     1.997476     1.989833     1.982190     1.974546     1.966903     1.959260     1.951617     1.943974
      1.936331     1.928688     1.921045     1.913402     1.905759     1.898115     1.890472     1.882829     1.875186     1.867543
      1.859900     1.852257     1.844614     1.836971     1.829327     1.821684     1.814041     1.806398     1.798755     1.791112
      1.783469     1.775826     1.768183     1.760540     1.752896     1.745253     1.737610     1.729967     1.722324     1.714681
      1.707038     1.699395     1.691752     1.684108     1.676465     1.668822     1.661179     1.653536     1.645893     1.638250
      1.630607     1.622964     1.615321     1.607677     1.600034     1.592391     1.584748     1.577105     1.569462     1.561819
      1.554176     1.546533     1.538890     1.531246     1.523603     1.515960     1.508317     1.500674     1.493031     1.485388
      1.477745     1.470102     1.462458     1.454815     1.447172     1.439529     1.431886     1.424243     1.416600     1.408957
      1.401314     1.393671     1.386027     1.378384     1.370741     1.363098     1.355455     1.347812     1.340169     1.332526
      1.324883     1.317240     1.309596     1.301953     1.294310     1.286667     1.279024     1.271381     1.263738     1.256095
      1.248452     1.240808     1.233165     1.225522     1.217879     1.210236     1.202593     1.194950     1.187307     1.179664
      1.172021     1.164377     1.156734     1.149091     1.141448     1.133805     1.126162     1.118519     1.110876     1.103233
      1.095590     1.087946     1.080303     1.072660     1.065017     1.057374     1.049731     1.042088     1.034445     1.026802
      1.019158     1.011515     1.003872     0.996229     0.988586     0.980943     0.973300     0.965657     0.958014     0.950371
      0.942727     0.935084     0.927441     0.919798     0.912155     0.904512     0.896869     0.889226     0.881583     0.873940
      0.866296     0.858653     0.851010     0.843367     0.835724     0.828081     0.820438     0.812795     0.805152     0.797508
      0.789865     0.782222     0.774579     0.766936     0.759293     0.751650     0.744007     0.736364     0.728721     0.721077
      0.713434     0.705791     0.698148     0.690505     0.682862     0.675219     0.667576     0.659933     0.652290     0.644646
      0.637003     0.629360     0.621717     0.614074     0.606431     0.598788     0.591145     0.583502     0.575858     0.568215
      0.560572     0.552929     0.545286     0.537643     0.530000     0.522357     0.514714     0.507071     0.499427     0.491784
      0.484141     0.476498     0.468855     0.461212     0.453569     0.445925     0.438282     0.430639     0.422996     0.415353
      0.407710     0.400067     0.392424     0.384780     0.377137     0.369494     0.361851     0.354208     0.346565     0.338922
      0.331278     0.323635     0.315992     0.308349     0.300706     0.293063     0.285420     0.277777     0.270133     0.262490
      0.254847     0.247204     0.239561     0.231918     0.224275     0.216631     0.208988     0.201345
 NY phased data points follow
  -6.28179E+00 -7.26415E+00 -1.55245E+00  1.64498E+00 -3.87141E-01 -2.98626E+00 -2.49316E+00 -6.94135E+00 -5.96743E-01  9.96366E-01
   2.28278E+00 -6.21788E+00  2.28565E+00 -9.22963E-01 -2.71253E-01 -6.94643E+00 -4.19319E+00 -3.75249E+00 -1.73726E+00 -6.15889E+00
  -5.78715E+00  2.95823E+00 -6.86605E-01  5.26331E+00 -1.74463E+00  2.38797E+00 -5.25220E+00 -3.25469E+00  5.01403E-01 -3.32173E+00
   1.87083E+00  1.32570E-01  3.27161E-01  3.09987E+00 -1.76732E+00 -2.33988E+00 -4.92090E+00 -1.64981E+00 -4.39644E+00 -4.65308E+00
   1.11759E+00 -4.85496E+00 -6.63600E+00 -2.20889E-01  1.35182E+00 -1.03203E+01  5.56989E-01  1.81760E+00 -3.97342E+00 -5.37103E+00
  -3.40188E+00 -2.34028E+00 -2.51051E+00 -7.00346E+00 -1.45385E+00  1.59766E+00  2.50699E+00  3.99964E+00 -1.34598E+00 -1.36860E-01
  -7.27184E+00 -1.48993E+00 -1.73132E+00 -2.57701E+00  1.53278E-01  1.51150E+00  2.54962E+00 -3.18263E+00  1.12924E+00 -1.93339E-01
   3.23652E+00  3.49888E+00  2.52150E+00  4.72896E+00  2.41381E+00 -1.04867E+00  5.89432E+00 -2.09641E+00 -1.41428E+00 -5.15566E+00
  -2.32989E+00 -1.81690E+00 -3.61381E+00  2.05082E+00 -2.09717E+00  5.28268E+00  4.71723E+00 -3.29929E-01 -4.33152E+00 -6.54683E-01
   6.04674E+00  9.50550E-01 -2.05977E+00 -1.33702E+00 -1.68093E+00  6.54710E-01 -1.00293E+01  2.60233E+00 -3.66881E+00 -1.98783E+00
   4.49819E+00  3.59465E+00  1.28534E+01  1.21139E+01  6.08974E+00  4.38942E-01 -8.31235E-01  1.36715E+00 -9.73807E-02 -1.26986E+00
  -3.10502E+00 -2.00525E+00 -3.87126E+00 -8.51826E-02 -5.29363E-02  1.15092E+00  1.79044E+00 -1.85446E+00 -3.15436E+00 -7.88099E-01
   3.87601E+00 -3.54117E-01 -4.59979E+00 -2.76761E-01 -3.67120E+00  8.90460E+00  1.53486E-02  4.89068E+00  6.27161E+00  6.06041E+00
   3.80529E+00  1.70446E+00  2.88183E+00  8.77308E-01  3.00169E+00 -3.62710E+00 -1.55599E+00  4.46626E+00 -2.97745E+00 -1.58967E+00
   3.36311E+00  4.64659E+00  6.06355E+00  3.50611E+00  8.05650E+00  2.56079E+00  1.20518E+00  3.77398E+00  1.28232E+00  3.66684E+00
   4.70470E+00 -1.99828E+00  4.47135E+00 -5.20021E-01  2.06143E+00  8.10341E+00  1.86320E+00 -3.48257E-01 -4.17730E+00  5.12719E+00
   2.82359E+00 -1.90079E+00 -3.16943E+00  1.21624E+00  3.95328E+00  4.19777E+00  4.27771E+00  2.51801E+00 -1.44619E-02 -1.34184E+00
  -4.37852E+00  5.32030E-01  9.67328E-01  4.98867E+00  4.76852E+00 -2.21206E+00  2.37595E+00  6.80585E+00  2.12830E+00  8.77972E-01
   1.24437E+01  1.81917E+00  2.67732E+00  3.47203E+00  5.83922E+00  7.43912E+00  3.38129E+00  2.42247E+00  4.69928E+00  1.55252E+00
   4.51516E-01  5.93698E+00  2.20201E+00  4.38479E+00  3.61750E+00  2.55344E+00  2.48273E+00 -1.60769E+00  2.28875E+00 -2.50752E+00
   2.80058E+00 -1.75243E-01  8.86524E+00 -1.98352E+00  4.10277E+00  4.10598E+00  3.91368E-01  4.48994E-01  2.78869E+00  9.86196E-01
   7.83238E-01  4.62967E+00  3.83202E+00  2.87472E+00  6.24440E+00  2.98837E+00  6.72685E+00  9.15680E+00  5.40006E+00  9.30394E-01
  -6.05939E+00 -3.06469E+00 -1.46654E+00  6.74556E+00  4.33839E+00 -1.00665E+00 -3.61997E+00  3.88745E+00 -2.08074E-01  1.14733E+00
   4.43027E+00  3.98986E+00  5.69498E+00  7.89459E+00  5.22468E+00  2.06713E+00 -2.24075E+00  3.02094E+00  7.44478E-01  5.41577E+00
  -2.31111E+00 -1.48390E+00  6.34449E+00  5.96074E-01  4.47976E+00 -3.32150E+00  9.97704E-01  8.39788E+00 -5.32493E-02  6.60087E+00
  -1.73782E+00  7.45984E+00  4.81955E+00  2.72024E+00  5.13440E-01  6.51300E+00  1.25531E+00  7.35791E+00  1.42317E+01  1.03565E+01
   1.64077E+01  1.77007E+01  1.37158E+01  1.18905E+01 -2.60897E-01  3.60507E+00  4.99891E+00  2.74553E-01  2.94405E+00  4.02318E+00
  -4.29671E-01  4.63042E+00  5.30985E+00  1.47349E+00 -2.15284E+00  2.71442E-01  2.88146E-01  5.62268E+00  1.83890E+00  1.74744E+00
  -2.67815E-02  4.51308E+00  5.31704E+00  5.61851E+00  6.48804E+00  2.26271E-01  3.71127E+00  8.57308E+00 -7.32177E-01  6.97102E+00
   6.98583E+00  6.68566E-01  6.05372E+00 -6.90869E-01  1.46529E+00  8.21771E+00 -2.66822E+00  3.93950E+00  4.93323E+00  8.75275E+00
   2.97212E+00  7.17632E+00 -3.41334E-01 -2.15879E-02  2.58545E+00  3.91670E+00  1.00789E+01  1.18545E+01  7.50334E+00  1.07747E+01
   4.11531E+00  7.97533E+00  7.06924E+00  7.15905E+00  3.36423E+00  8.95573E+00  7.65945E+00  8.62551E+00  6.34814E+00  7.67850E+00
   8.21409E+00  4.25378E+00  4.48861E+00  8.72978E+00  8.24446E+00  7.94775E+00  1.05247E+01  3.37925E+00  6.95995E+00  4.51408E+00
   4.47982E+00  8.07208E-01  8.75213E-01  4.57022E+00  1.18776E+01  1.09713E+01  8.90715E+00  8.19603E+00  1.54243E+01  1.18704E+01
   1.35182E+01  1.29907E+01  1.59797E+01  1.25009E+01  1.53096E+01  1.20425E+01  1.64018E+01  1.29943E+01  1.84775E+01  1.50844E+01
   1.31726E+01  1.47131E+01  7.82606E+00  1.00453E+01  8.59496E+00  1.13976E+01  1.27654E+01  7.17752E+00  9.64295E+00  1.34884E+01
   1.06339E+01  1.41230E+01  1.70172E+01  1.34158E+01  1.65807E+01  1.17884E+01  1.62546E+01  8.35342E+00  1.39399E+01  1.72544E+01
   1.55099E+01  1.11659E+01  1.10376E+01  1.65604E+01  1.23170E+01  1.00977E+01  1.04288E+01  2.14890E+01  1.18232E+01  1.13269E+01
   1.41603E+01  1.55251E+01  1.41234E+01  1.61497E+01  1.65357E+01  1.30728E+01  1.59664E+01  1.69392E+01  5.23656E+00  9.20920E+00
   1.93883E+01  1.93925E+01  1.27209E+01  1.97630E+01  1.05168E+01  1.63085E+01  1.28602E+01  1.62059E+01  1.44812E+01  1.46278E+01
   1.10965E+01  1.11043E+01  1.41480E+01  1.32365E+01  1.23480E+01  6.64163E+00  1.30421E+01  1.28423E+01  1.47605E+01  1.36569E+01
   8.33578E+00  1.29620E+01  1.50468E+01  1.64314E+01  7.06024E+00  8.63310E+00  6.93155E+00 -2.02230E+00  1.72980E+01  7.00347E+00
   1.16497E+01  4.57114E+00  7.48814E+00  9.60112E+00  1.05478E+01  8.86249E+00  8.76255E+00  1.02888E+01  5.01429E+00  7.32108E+00
   8.39445E+00  7.65084E+00  9.87902E+00  1.04281E+01  9.41227E+00  4.01381E+00  1.03819E+01  3.70244E+00  5.96984E+00  7.93665E+00
   8.16879E+00  3.35678E+00  6.70530E+00  1.86130E+00 -2.74813E-01  8.72818E+00 -1.84015E+00  7.98534E+00  3.35573E+00  3.04682E+00
   1.06958E-01  7.38739E+00  4.13976E+00  4.04297E-01  3.89051E+00  6.61663E+00  5.57944E+00  2.11417E+00 -1.70245E+00  5.72528E+00
   4.48512E+00  6.07431E+00  4.25392E+00  3.55368E+00 -9.94784E-01  2.87870E+00  3.43590E+00  4.38386E+00  3.90421E+00 -5.99974E+00
   4.74370E+00  1.75367E-01  7.14490E+00  2.09868E+00  1.17065E+00  5.09238E+00 -3.07695E+00  2.18764E+00  1.29129E+00 -2.49174E+00
   7.40653E+00  3.49828E+00  3.87987E+00  4.20201E+00  7.64081E+00  4.59046E+00 -1.56512E+00  4.92075E+00  1.93763E+00  3.56401E+00
  -8.87910E-01  3.60628E+00 -2.88767E+00  3.83380E+00  1.11659E+00 -1.09497E+00  3.69250E+00  3.53547E-02
 NY points of the fit to the data follow
  -1.48577E+00 -1.47057E+00 -1.43500E+00 -1.34205E+00 -1.23061E+00 -1.40987E+00 -2.11274E+00 -2.45292E+00 -1.36950E+00  1.14205E-01
   1.00415E+00  1.44153E+00  1.40742E+00  8.40246E-01 -2.41139E-01 -1.43630E+00 -1.93060E+00 -1.83933E+00 -1.61912E+00 -1.37625E+00
  -1.12608E+00 -6.45780E-01  2.70949E-02  3.92499E-01 -7.13510E-03 -1.14542E+00 -1.93546E+00 -1.72564E+00 -1.40172E+00 -1.01694E+00
   1.02115E-01  1.35957E+00  1.80575E+00  1.35415E+00  4.61106E-01 -4.73269E-01 -1.17726E+00 -1.62860E+00 -1.71193E+00 -1.41565E+00
  -1.03312E+00 -8.20565E-01 -7.89628E-01 -8.63244E-01 -9.27508E-01 -9.55320E-01 -9.17493E-01 -9.36238E-01 -9.89094E-01 -9.75599E-01
  -9.36129E-01 -8.88725E-01 -8.20937E-01 -7.73258E-01 -7.56770E-01 -7.83710E-01 -8.35605E-01 -8.65781E-01 -8.66943E-01 -8.59831E-01
  -8.48365E-01 -8.34941E-01 -8.14753E-01 -7.62053E-01 -7.27619E-01 -7.00940E-01 -6.68020E-01 -6.86408E-01 -7.36917E-01 -7.64919E-01
  -8.21061E-01 -8.46627E-01 -7.17925E-01 -5.18657E-01 -3.86213E-01 -3.33625E-01 -3.81461E-01 -5.24818E-01 -6.80068E-01 -7.74547E-01
  -7.84624E-01 -7.86919E-01 -6.58386E-01 -3.13917E-01 -1.47803E-02  9.79107E-02  9.23884E-02 -1.35156E-02 -1.49016E-01 -2.91950E-01
  -4.34373E-01 -5.08225E-01 -5.37294E-01 -6.06540E-01 -6.83185E-01 -6.16422E-01 -4.84379E-01 -7.39146E-01 -1.98380E+00 -1.03727E+00
   3.36502E+00  7.23855E+00  8.95875E+00  9.20826E+00  7.73022E+00  5.07627E+00  1.72368E+00 -7.58000E-01 -1.16780E+00 -5.86804E-01
  -2.34996E-01 -1.86089E-01 -1.85776E-01 -1.78878E-01 -1.60025E-01 -1.23106E-01 -1.03592E-01 -1.17403E-01 -1.23892E-01 -1.32709E-01
  -1.75503E-01 -3.12331E-01 -8.81766E-01 -7.20853E-01  1.30650E+00  3.46119E+00  4.53185E+00  4.85129E+00  4.30583E+00  3.09954E+00
   1.73051E+00  6.70155E-01  4.03525E-01  5.60731E-01  5.11124E-01  1.72412E-01 -8.53631E-02 -1.54139E-01  7.03537E-02  5.18957E-01
   9.20185E-01  1.16460E+00  1.28528E+00  1.27959E+00  1.20804E+00  1.13336E+00  1.12242E+00  1.14812E+00  1.17594E+00  1.19485E+00
   1.21695E+00  1.23660E+00  1.24204E+00  1.26145E+00  1.31037E+00  1.38511E+00  1.48939E+00  1.49543E+00  1.34042E+00  1.15546E+00
   1.00680E+00  1.02009E+00  1.19932E+00  1.35472E+00  1.45657E+00  1.48741E+00  1.38575E+00  1.22290E+00  1.06297E+00  9.72553E-01
   9.69376E-01  1.00251E+00  9.48670E-01  7.07850E-01  5.06054E-01  4.95267E-01  5.99994E-01  6.79092E-01  6.46295E-01  5.89258E-01
   5.92471E-01  5.83269E-01  5.70871E-01  4.93821E-01  3.51756E-01  2.85572E-01  3.28421E-01  4.94778E-01  8.41666E-01  1.25594E+00
   1.54276E+00  1.60819E+00  1.47075E+00  1.32344E+00  1.09663E+00  7.75231E-01  6.05151E-01  6.22206E-01  6.97167E-01  8.16866E-01
   1.06871E+00  1.47804E+00  1.91214E+00  2.12918E+00  2.11479E+00  2.08052E+00  1.78228E+00  1.16489E+00  6.84342E-01  3.19401E-01
   7.87976E-02  1.11447E-01  1.05482E+00  2.65372E+00  3.78301E+00  4.19385E+00  4.14017E+00  3.60286E+00  2.38726E+00  4.33226E-01
  -1.02675E+00 -1.13872E+00 -4.68555E-01  5.26938E-01  1.78049E+00  3.02268E+00  3.90375E+00  4.07934E+00  3.56822E+00  2.98612E+00
   2.65553E+00  2.52200E+00  2.51318E+00  2.67269E+00  3.12418E+00  3.70542E+00  3.95814E+00  3.81450E+00  3.56587E+00  3.12093E+00
   2.52907E+00  2.18360E+00  2.29407E+00  2.71028E+00  3.27401E+00  3.84872E+00  4.25461E+00  4.27512E+00  3.96545E+00  3.62293E+00
   3.48686E+00  3.54971E+00  3.76047E+00  4.09065E+00  4.07543E+00  2.61891E+00  1.84238E+00  6.07973E+00  1.19091E+01  1.51265E+01
   1.63669E+01  1.55946E+01  1.26203E+01  8.46321E+00  4.38089E+00  2.73124E+00  3.06325E+00  3.51818E+00  3.48463E+00  3.34055E+00
   3.23786E+00  3.20610E+00  3.23530E+00  3.31052E+00  3.38002E+00  3.41029E+00  3.38306E+00  3.28687E+00  3.17292E+00  3.09206E+00
   3.03870E+00  3.01021E+00  3.01833E+00  3.05947E+00  3.11713E+00  3.17465E+00  3.23484E+00  3.30269E+00  3.37429E+00  3.45218E+00
   3.54075E+00  3.64159E+00  3.75423E+00  3.87619E+00  4.00809E+00  4.15109E+00  4.30171E+00  4.45789E+00  4.61688E+00  4.77671E+00
   4.93583E+00  5.09139E+00  5.24032E+00  5.38029E+00  5.50881E+00  5.62439E+00  5.72589E+00  5.81330E+00  5.88737E+00  5.94891E+00
   5.99893E+00  6.03937E+00  6.07274E+00  6.10210E+00  6.13069E+00  6.16209E+00  6.19991E+00  6.24780E+00  6.30866E+00  6.38324E+00
   6.46320E+00  6.49938E+00  6.51633E+00  7.65639E+00  9.65216E+00  1.03249E+01  9.54949E+00  8.28423E+00  6.70035E+00  5.19252E+00
   3.37122E+00  2.02282E+00  3.29293E+00  6.06312E+00  8.44855E+00  1.04517E+01  1.19668E+01  1.26956E+01  1.25518E+01  1.16853E+01
   1.11079E+01  1.11920E+01  1.15452E+01  1.18809E+01  1.22068E+01  1.25181E+01  1.28112E+01  1.30917E+01  1.33578E+01  1.36079E+01
   1.38351E+01  1.40498E+01  1.42658E+01  1.44646E+01  1.46294E+01  1.47594E+01  1.48519E+01  1.49054E+01  1.49185E+01  1.48958E+01
   1.48464E+01  1.47725E+01  1.46723E+01  1.45465E+01  1.43981E+01  1.42302E+01  1.40462E+01  1.38495E+01  1.36437E+01  1.34325E+01
   1.32197E+01  1.30088E+01  1.28033E+01  1.26068E+01  1.24225E+01  1.22534E+01  1.21025E+01  1.19722E+01  1.18649E+01  1.17827E+01
   1.17271E+01  1.16997E+01  1.17010E+01  1.17317E+01  1.17915E+01  1.18800E+01  1.19958E+01  1.21371E+01  1.23012E+01  1.24849E+01
   1.26842E+01  1.28945E+01  1.31106E+01  1.33268E+01  1.35367E+01  1.37343E+01  1.39130E+01  1.40667E+01  1.41893E+01  1.42757E+01
   1.43212E+01  1.43223E+01  1.42764E+01  1.41824E+01  1.40401E+01  1.38506E+01  1.36162E+01  1.33404E+01  1.30274E+01  1.26823E+01
   1.23106E+01  1.19180E+01  1.15105E+01  1.10939E+01  1.06737E+01  1.02550E+01  9.84214E+00  9.43918E+00  9.04930E+00  8.67515E+00
   8.31860E+00  7.98100E+00  7.66306E+00  7.36518E+00  7.08723E+00  6.82887E+00  6.58935E+00  6.36785E+00  6.16333E+00  5.97482E+00
   5.80121E+00  5.64144E+00  5.49436E+00  5.35898E+00  5.23427E+00  5.11942E+00  5.01352E+00  4.91584E+00  4.82556E+00  4.74209E+00
   4.66481E+00  4.59326E+00  4.52690E+00  4.46531E+00  4.40802E+00  4.35474E+00  4.30512E+00  4.25894E+00  4.21586E+00  4.17568E+00
   4.13810E+00  4.10301E+00  4.07020E+00  4.03958E+00  4.01091E+00  3.98409E+00  3.95894E+00  3.93544E+00  3.91344E+00  3.89289E+00
   3.87362E+00  3.85558E+00  3.83868E+00  3.82293E+00  3.80821E+00  3.79449E+00  3.78165E+00  3.76968E+00  3.75850E+00  3.74816E+00
   3.73855E+00  3.72966E+00  3.72138E+00  3.71374E+00  3.70670E+00  3.70028E+00  3.69439E+00  3.68903E+00  3.68410E+00  3.67967E+00
   3.67570E+00  3.67220E+00  3.66908E+00  3.66635E+00  3.66396E+00  3.66197E+00  3.66033E+00  3.65906E+00  3.65806E+00  3.65737E+00
   3.65694E+00  3.65685E+00  3.65702E+00  3.65749E+00  3.65816E+00  3.65907E+00  3.66020E+00  3.66162E+00
 NY background values follow
    -1.619E+00   -1.610E+00   -1.600E+00   -1.591E+00   -1.581E+00   -1.571E+00   -1.562E+00   -1.552E+00   -1.542E+00   -1.533E+00
    -1.523E+00   -1.513E+00   -1.504E+00   -1.494E+00   -1.485E+00   -1.475E+00   -1.465E+00   -1.456E+00   -1.446E+00   -1.436E+00
    -1.427E+00   -1.417E+00   -1.407E+00   -1.398E+00   -1.388E+00   -1.379E+00   -1.369E+00   -1.359E+00   -1.350E+00   -1.340E+00
    -1.330E+00   -1.321E+00   -1.311E+00   -1.301E+00   -1.292E+00   -1.282E+00   -1.273E+00   -1.263E+00   -1.253E+00   -1.244E+00
    -1.234E+00   -1.224E+00   -1.215E+00   -1.205E+00   -1.195E+00   -1.186E+00   -1.176E+00   -1.167E+00   -1.157E+00   -1.147E+00
    -1.138E+00   -1.128E+00   -1.118E+00   -1.109E+00   -1.099E+00   -1.089E+00   -1.080E+00   -1.070E+00   -1.061E+00   -1.051E+00
    -1.041E+00   -1.032E+00   -1.022E+00   -1.012E+00   -1.003E+00   -9.931E-01   -9.835E-01   -9.738E-01   -9.642E-01   -9.546E-01
    -9.449E-01   -9.353E-01   -9.257E-01   -9.160E-01   -9.064E-01   -8.968E-01   -8.871E-01   -8.775E-01   -8.679E-01   -8.582E-01
    -8.486E-01   -8.390E-01   -8.293E-01   -8.197E-01   -8.100E-01   -8.004E-01   -7.908E-01   -7.811E-01   -7.715E-01   -7.619E-01
    -7.522E-01   -7.426E-01   -7.330E-01   -7.233E-01   -7.137E-01   -7.041E-01   -6.944E-01   -6.848E-01   -6.752E-01   -6.655E-01
    -6.559E-01   -6.463E-01   -6.366E-01   -6.270E-01   -6.173E-01   -6.077E-01   -5.981E-01   -5.884E-01   -5.788E-01   -5.692E-01
    -5.595E-01   -5.499E-01   -5.403E-01   -5.306E-01   -5.210E-01   -5.114E-01   -5.017E-01   -4.921E-01   -4.825E-01   -4.728E-01
    -4.632E-01   -4.536E-01   -4.439E-01   -4.343E-01   -4.247E-01   -4.150E-01   -4.054E-01   -3.957E-01   -3.861E-01   -3.765E-01
    -3.668E-01   -3.572E-01   -3.476E-01   -3.379E-01   -3.283E-01   -3.187E-01   -3.090E-01   -2.994E-01   -2.898E-01   -2.801E-01
    -2.705E-01   -2.609E-01   -2.512E-01   -2.416E-01   -2.320E-01   -2.223E-01   -2.127E-01   -2.031E-01   -1.934E-01   -1.838E-01
    -1.742E-01   -1.645E-01   -1.549E-01   -1.453E-01   -1.356E-01   -1.260E-01   -1.164E-01   -1.067E-01   -9.709E-02   -8.746E-02
    -7.782E-02   -6.819E-02   -5.855E-02   -4.892E-02   -3.929E-02   -2.965E-02   -2.002E-02   -1.039E-02   -7.520E-04    8.882E-03
     1.852E-02    2.815E-02    3.778E-02    4.742E-02    5.705E-02    6.668E-02    7.632E-02    8.595E-02    9.558E-02    1.052E-01
     1.149E-01    1.245E-01    1.341E-01    1.438E-01    1.534E-01    1.630E-01    1.727E-01    1.823E-01    1.919E-01    2.016E-01
     2.112E-01    2.208E-01    2.305E-01    2.401E-01    2.497E-01    2.593E-01    2.690E-01    2.786E-01    2.882E-01    2.979E-01
     3.075E-01    3.171E-01    3.268E-01    3.364E-01    3.460E-01    3.557E-01    3.653E-01    3.749E-01    3.846E-01    3.942E-01
     4.038E-01    4.135E-01    4.231E-01    4.327E-01    4.424E-01    4.520E-01    4.616E-01    4.713E-01    4.809E-01    4.905E-01
     5.002E-01    5.098E-01    5.194E-01    5.291E-01    5.387E-01    5.483E-01    5.580E-01    5.676E-01    5.772E-01    5.869E-01
     5.965E-01    6.061E-01    6.158E-01    6.254E-01    6.350E-01    6.447E-01    6.543E-01    6.639E-01    6.736E-01    6.832E-01
     6.928E-01    7.024E-01    7.121E-01    7.217E-01    7.313E-01    7.410E-01    7.506E-01    7.602E-01    7.699E-01    7.795E-01
     7.891E-01    7.988E-01    8.084E-01    8.180E-01    8.277E-01    8.373E-01    8.469E-01    8.566E-01    8.662E-01    8.758E-01
     8.855E-01    8.951E-01    9.047E-01    9.144E-01    9.240E-01    9.336E-01    9.432E-01    9.529E-01    9.625E-01    9.721E-01
     9.818E-01    9.914E-01    1.001E+00    1.011E+00    1.020E+00    1.030E+00    1.040E+00    1.049E+00    1.059E+00    1.068E+00
     1.078E+00    1.088E+00    1.097E+00    1.107E+00    1.117E+00    1.126E+00    1.136E+00    1.146E+00    1.155E+00    1.165E+00
     1.174E+00    1.184E+00    1.194E+00    1.203E+00    1.213E+00    1.223E+00    1.232E+00    1.242E+00    1.251E+00    1.261E+00
     1.271E+00    1.280E+00    1.290E+00    1.300E+00    1.309E+00    1.319E+00    1.329E+00    1.338E+00    1.348E+00    1.357E+00
     1.367E+00    1.377E+00    1.386E+00    1.396E+00    1.406E+00    1.415E+00    1.425E+00    1.434E+00    1.444E+00    1.454E+00
     1.463E+00    1.473E+00    1.483E+00    1.492E+00    1.502E+00    1.511E+00    1.521E+00    1.531E+00    1.540E+00    1.550E+00
     1.560E+00    1.569E+00    1.579E+00    1.589E+00    1.598E+00    1.608E+00    1.617E+00    1.627E+00    1.637E+00    1.646E+00
     1.656E+00    1.666E+00    1.675E+00    1.685E+00    1.694E+00    1.704E+00    1.714E+00    1.723E+00    1.733E+00    1.743E+00
     1.752E+00    1.762E+00    1.772E+00    1.781E+00    1.791E+00    1.800E+00    1.810E+00    1.820E+00    1.829E+00    1.839E+00
     1.849E+00    1.858E+00    1.868E+00    1.877E+00    1.887E+00    1.897E+00    1.906E+00    1.916E+00    1.926E+00    1.935E+00
     1.945E+00    1.954E+00    1.964E+00    1.974E+00    1.983E+00    1.993E+00    2.003E+00    2.012E+00    2.022E+00    2.032E+00
     2.041E+00    2.051E+00    2.060E+00    2.070E+00    2.080E+00    2.089E+00    2.099E+00    2.109E+00    2.118E+00    2.128E+00
     2.137E+00    2.147E+00    2.157E+00    2.166E+00    2.176E+00    2.186E+00    2.195E+00    2.205E+00    2.215E+00    2.224E+00
     2.234E+00    2.243E+00    2.253E+00    2.263E+00    2.272E+00    2.282E+00    2.292E+00    2.301E+00    2.311E+00    2.320E+00
     2.330E+00    2.340E+00    2.349E+00    2.359E+00    2.369E+00    2.378E+00    2.388E+00    2.397E+00    2.407E+00    2.417E+00
     2.426E+00    2.436E+00    2.446E+00    2.455E+00    2.465E+00    2.475E+00    2.484E+00    2.494E+00    2.503E+00    2.513E+00
     2.523E+00    2.532E+00    2.542E+00    2.552E+00    2.561E+00    2.571E+00    2.580E+00    2.590E+00    2.600E+00    2.609E+00
     2.619E+00    2.629E+00    2.638E+00    2.648E+00    2.657E+00    2.667E+00    2.677E+00    2.686E+00    2.696E+00    2.706E+00
     2.715E+00    2.725E+00    2.735E+00    2.744E+00    2.754E+00    2.763E+00    2.773E+00    2.783E+00    2.792E+00    2.802E+00
     2.812E+00    2.821E+00    2.831E+00    2.840E+00    2.850E+00    2.860E+00    2.869E+00    2.879E+00    2.889E+00    2.898E+00
     2.908E+00    2.917E+00    2.927E+00    2.937E+00    2.946E+00    2.956E+00    2.966E+00    2.975E+00    2.985E+00    2.994E+00
     3.004E+00    3.014E+00    3.023E+00    3.033E+00    3.043E+00    3.052E+00    3.062E+00    3.072E+00    3.081E+00    3.091E+00
     3.100E+00    3.110E+00    3.120E+00    3.129E+00    3.139E+00    3.149E+00    3.158E+00    3.168E+00
 Ala      Conc. = 1.51E+02
