 LCModel (Version 6.3-1L) Copyright: S.W. Provencher.          Ref.: Magn. Reson. Med. 30:672-679 (1993).                
 Slice#2 Row#10 Col#7  PD_24_press_2_raw_act
 36 lines in following concentration table = NCONC+1
    Conc.  %SD /Cr+PCr  Metabolite                                         
    0.000 999%   0.000 Ala                                                 
    0.000 999%   0.000 Asp                                                 
  604.086  50%   0.261 Cr                                                  
 1.71E+03  19%   0.739 PCr                                                 
    0.000 999%   0.000 GABA                                                
   92.716 216% 4.0E-02 Glc                                                 
 1.03E+03  28%   0.444 Gln                                                 
 1.91E+03  17%   0.825 Glu                                                 
  603.359   5%   0.261 GPC                                                 
    0.000 999%   0.000 PCh                                                 
  520.096  18%   0.225 GSH                                                 
 2.09E+03  16%   0.903 Ins                                                 
    0.000 999%   0.000 Lac                                                 
 3.32E+03   5%   1.433 NAA                                                 
   95.552 178% 4.1E-02 NAAG                                                
  183.720  19% 7.9E-02 Scyllo                                              
  434.807  64%   0.188 Tau                                                 
  348.389  41%   0.150 -CrCH2                                              
  603.359   5%   0.261 GPC+PCh                                             
 3.41E+03   3%   1.474 NAA+NAAG                                            
 2.32E+03   3%   1.000 Cr+PCr                                              
 2.94E+03  16%   1.270 Glu+Gln                                             
 1.73E+03  34%   0.748 Lip13a                                              
    0.000 999%   0.000 Lip13b                                              
  153.311 197% 6.6E-02 Lip09                                               
 1.63E+03  21%   0.704 MM09                                                
  225.211  94% 9.7E-02 Lip20                                               
 3.15E+03  16%   1.360 MM20                                                
  543.598  37%   0.235 MM12                                                
  997.966  41%   0.431 MM14                                                
 1.46E+03  12%   0.630 MM17                                                
 1.73E+03  34%   0.748 Lip13a+Lip13b                                       
 3.27E+03  17%   1.413 MM14+Lip13a+Lip13b+MM12                             
 1.78E+03  15%   0.770 MM09+Lip09                                          
 3.37E+03  14%   1.457 MM20+Lip20                                          
   6 lines in following misc. output table
  FWHM = 0.054 ppm    S/N =  14                                            
  Data shift = 0.023 ppm                                                   
  Ph: -42 deg     -11.7 deg/ppm                                            
  alphaB,S = 8.9E-01,   1.5E+02                                            
   14 spline knots.   Ns = 7(1)                                            
  (13) 2 infls.   ( 7) 1 extrs.                                            
  498 points on ppm-axis = NY
      4.000000     3.992357     3.984714     3.977070     3.969427     3.961784     3.954141     3.946497     3.938854     3.931211
      3.923568     3.915925     3.908281     3.900638     3.892995     3.885352     3.877708     3.870065     3.862422     3.854779
      3.847136     3.839492     3.831849     3.824206     3.816563     3.808919     3.801276     3.793633     3.785990     3.778347
      3.770703     3.763060     3.755417     3.747774     3.740130     3.732487     3.724844     3.717201     3.709558     3.701914
      3.694271     3.686628     3.678985     3.671341     3.663698     3.656055     3.648412     3.640769     3.633125     3.625482
      3.617839     3.610196     3.602552     3.594909     3.587266     3.579623     3.571980     3.564336     3.556693     3.549050
      3.541407     3.533763     3.526120     3.518477     3.510834     3.503191     3.495547     3.487904     3.480261     3.472618
      3.464974     3.457331     3.449688     3.442045     3.434402     3.426758     3.419115     3.411472     3.403829     3.396185
      3.388542     3.380899     3.373256     3.365613     3.357969     3.350326     3.342683     3.335040     3.327396     3.319753
      3.312110     3.304467     3.296824     3.289180     3.281537     3.273894     3.266251     3.258607     3.250964     3.243321
      3.235678     3.228034     3.220391     3.212748     3.205105     3.197462     3.189818     3.182175     3.174532     3.166889
      3.159245     3.151602     3.143959     3.136316     3.128673     3.121029     3.113386     3.105743     3.098100     3.090456
      3.082813     3.075170     3.067527     3.059884     3.052240     3.044597     3.036954     3.029311     3.021667     3.014024
      3.006381     2.998738     2.991095     2.983451     2.975808     2.968165     2.960522     2.952878     2.945235     2.937592
      2.929949     2.922306     2.914662     2.907019     2.899376     2.891733     2.884089     2.876446     2.868803     2.861160
      2.853517     2.845873     2.838230     2.830587     2.822944     2.815300     2.807657     2.800014     2.792371     2.784728
      2.777084     2.769441     2.761798     2.754155     2.746511     2.738868     2.731225     2.723582     2.715939     2.708295
      2.700652     2.693009     2.685366     2.677722     2.670079     2.662436     2.654793     2.647150     2.639506     2.631863
      2.624220     2.616577     2.608933     2.601290     2.593647     2.586004     2.578361     2.570717     2.563074     2.555431
      2.547788     2.540144     2.532501     2.524858     2.517215     2.509572     2.501928     2.494285     2.486642     2.478999
      2.471355     2.463712     2.456069     2.448426     2.440783     2.433139     2.425496     2.417853     2.410210     2.402566
      2.394923     2.387280     2.379637     2.371994     2.364350     2.356707     2.349064     2.341421     2.333777     2.326134
      2.318491     2.310848     2.303205     2.295561     2.287918     2.280275     2.272632     2.264988     2.257345     2.249702
      2.242059     2.234416     2.226772     2.219129     2.211486     2.203843     2.196199     2.188556     2.180913     2.173270
      2.165627     2.157983     2.150340     2.142697     2.135054     2.127410     2.119767     2.112124     2.104481     2.096838
      2.089194     2.081551     2.073908     2.066265     2.058621     2.050978     2.043335     2.035692     2.028049     2.020405
      2.012762     2.005119     1.997476     1.989833     1.982190     1.974546     1.966903     1.959260     1.951617     1.943974
      1.936331     1.928688     1.921045     1.913402     1.905759     1.898115     1.890472     1.882829     1.875186     1.867543
      1.859900     1.852257     1.844614     1.836971     1.829327     1.821684     1.814041     1.806398     1.798755     1.791112
      1.783469     1.775826     1.768183     1.760540     1.752896     1.745253     1.737610     1.729967     1.722324     1.714681
      1.707038     1.699395     1.691752     1.684108     1.676465     1.668822     1.661179     1.653536     1.645893     1.638250
      1.630607     1.622964     1.615321     1.607677     1.600034     1.592391     1.584748     1.577105     1.569462     1.561819
      1.554176     1.546533     1.538890     1.531246     1.523603     1.515960     1.508317     1.500674     1.493031     1.485388
      1.477745     1.470102     1.462458     1.454815     1.447172     1.439529     1.431886     1.424243     1.416600     1.408957
      1.401314     1.393671     1.386027     1.378384     1.370741     1.363098     1.355455     1.347812     1.340169     1.332526
      1.324883     1.317240     1.309596     1.301953     1.294310     1.286667     1.279024     1.271381     1.263738     1.256095
      1.248452     1.240808     1.233165     1.225522     1.217879     1.210236     1.202593     1.194950     1.187307     1.179664
      1.172021     1.164377     1.156734     1.149091     1.141448     1.133805     1.126162     1.118519     1.110876     1.103233
      1.095590     1.087946     1.080303     1.072660     1.065017     1.057374     1.049731     1.042088     1.034445     1.026802
      1.019158     1.011515     1.003872     0.996229     0.988586     0.980943     0.973300     0.965657     0.958014     0.950371
      0.942727     0.935084     0.927441     0.919798     0.912155     0.904512     0.896869     0.889226     0.881583     0.873940
      0.866296     0.858653     0.851010     0.843367     0.835724     0.828081     0.820438     0.812795     0.805152     0.797508
      0.789865     0.782222     0.774579     0.766936     0.759293     0.751650     0.744007     0.736364     0.728721     0.721077
      0.713434     0.705791     0.698148     0.690505     0.682862     0.675219     0.667576     0.659933     0.652290     0.644646
      0.637003     0.629360     0.621717     0.614074     0.606431     0.598788     0.591145     0.583502     0.575858     0.568215
      0.560572     0.552929     0.545286     0.537643     0.530000     0.522357     0.514714     0.507071     0.499427     0.491784
      0.484141     0.476498     0.468855     0.461212     0.453569     0.445925     0.438282     0.430639     0.422996     0.415353
      0.407710     0.400067     0.392424     0.384780     0.377137     0.369494     0.361851     0.354208     0.346565     0.338922
      0.331278     0.323635     0.315992     0.308349     0.300706     0.293063     0.285420     0.277777     0.270133     0.262490
      0.254847     0.247204     0.239561     0.231918     0.224275     0.216631     0.208988     0.201345
 NY phased data points follow
  -5.51669E+01 -4.46523E+01 -4.42264E+01 -4.41255E+01 -4.13589E+01 -3.04170E+01 -2.50400E+01 -1.34609E+01 -1.02880E+01 -5.82026E+00
  -6.42656E+00  1.78890E-01 -3.99682E+00 -1.38827E+01 -1.84185E+01 -2.76540E+01 -2.87939E+01 -3.58060E+01 -4.36768E+01 -4.10965E+01
  -4.16044E+01 -4.01439E+01 -4.40208E+01 -3.89445E+01 -3.79068E+01 -3.34922E+01 -3.32058E+01 -2.94173E+01 -2.69900E+01 -2.66535E+01
  -2.33667E+01 -2.49048E+01 -2.43950E+01 -2.15934E+01 -2.82479E+01 -2.78444E+01 -3.12703E+01 -3.10656E+01 -3.00949E+01 -2.77385E+01
  -2.72980E+01 -2.49996E+01 -2.14608E+01 -2.20088E+01 -1.88363E+01 -1.68834E+01 -1.64809E+01 -1.47142E+01 -1.12871E+01 -1.89720E+01
  -2.07092E+01 -2.75125E+01 -2.82159E+01 -2.38856E+01 -2.21432E+01 -1.96247E+01 -2.26222E+01 -2.27065E+01 -2.73959E+01 -1.97018E+01
  -2.72381E+01 -3.02495E+01 -2.69670E+01 -2.72393E+01 -2.98611E+01 -3.10586E+01 -2.73666E+01 -3.10074E+01 -2.84910E+01 -2.36481E+01
  -2.34392E+01 -2.17005E+01 -1.92712E+01 -1.91501E+01 -2.44443E+01 -1.47688E+01 -2.24973E+01 -1.65720E+01 -2.09620E+01 -2.07219E+01
  -2.34383E+01 -2.12160E+01 -2.30752E+01 -1.28765E+01 -1.84772E+01 -1.10007E+01 -1.89408E+01 -1.09884E+01 -1.79981E+01 -1.45703E+01
  -1.76563E+01 -1.15943E+01 -1.46425E+01 -1.24874E+01 -1.37924E+01 -6.07623E+00 -8.52915E+00 -7.93852E+00 -1.94596E+00  1.61180E-01
   1.74621E+01  2.06951E+01  3.29295E+01  3.64264E+01  2.98554E+01  2.66511E+01  1.10070E+01  9.58221E+00  1.62045E+00 -1.81418E+00
  -6.97908E+00 -4.15069E+00 -1.11096E+01 -1.11769E+01 -7.87408E+00 -1.35205E+01 -6.29249E+00 -8.01861E+00 -9.70477E+00 -4.51089E+00
  -9.90102E+00 -4.81036E-01  9.47909E+00  1.47216E+01  3.04222E+01  3.52648E+01  5.24045E+01  6.16181E+01  5.90762E+01  5.58579E+01
   3.26441E+01  2.38980E+01  1.80370E+01  7.00989E+00  2.54812E+00 -6.39659E+00 -4.70032E+00 -1.08886E+01 -1.02370E+01 -9.21709E+00
  -1.08956E+01 -8.87135E+00 -9.99962E+00 -1.73255E+01 -1.31557E+01 -1.27756E+01 -8.07373E+00 -1.30900E+01 -7.69848E+00 -7.73646E+00
  -3.59097E+00 -1.26703E+01 -1.15367E+01 -1.18832E+01 -1.49217E+01 -1.05825E+01 -1.33570E+01 -8.81134E+00 -1.18147E+01 -8.16402E+00
  -1.10006E+01 -1.41873E+01 -1.59001E+01 -1.70086E+01 -9.26806E+00 -1.22492E+01 -1.28992E+01 -9.08713E+00 -1.09257E+01 -1.74766E+01
  -1.83209E+01 -2.38870E+01 -1.84976E+01 -1.99966E+01 -1.73304E+01 -2.66319E+01 -2.32866E+01 -1.82240E+01 -2.31392E+01 -2.07157E+01
  -1.75319E+01 -2.19828E+01 -2.12289E+01 -2.09727E+01 -2.22780E+01 -1.56281E+01 -1.52175E+01 -1.39864E+01 -1.80423E+01 -9.02998E+00
  -7.23373E+00 -5.82235E+00 -4.16988E+00 -3.13269E+00  5.34536E-01 -4.57017E+00 -8.86813E-01 -4.14827E+00 -5.07248E+00 -2.29672E+00
  -7.79646E+00 -1.67025E+00  6.43094E+00  6.50653E+00  2.58814E+00 -1.75129E+00 -1.35559E+00 -7.00337E+00 -2.74350E+00 -7.58949E+00
  -4.58519E+00 -3.17800E-01 -2.67118E-01  5.55031E+00  4.89331E+00  1.15846E+01  1.18186E+01  9.60150E+00  5.95261E+00  1.85451E+00
   3.68805E-01 -2.34048E+00 -1.07632E+01 -2.54327E+00 -1.90152E+00 -1.34016E+00  4.00250E+00  7.15423E+00  5.29441E+00  5.99909E+00
   6.98168E+00  1.05951E+01  6.68902E+00  5.60463E+00  4.37233E+00  4.87021E+00 -8.34366E-01  4.30600E+00  6.09254E+00  4.96195E+00
   4.59028E+00  1.53848E+00  4.72159E+00  8.59577E+00  6.57970E+00  5.41223E+00  2.87702E+00  1.14458E+01  9.94351E+00  1.68333E+01
   1.11843E+01  1.90099E+01  1.69602E+01  2.78944E+01  3.20354E+01  4.40951E+01  4.99337E+01  6.81755E+01  8.49694E+01  9.96535E+01
   1.09901E+02  1.20000E+02  1.12251E+02  8.92933E+01  6.32757E+01  4.73338E+01  3.91394E+01  2.64502E+01  1.49528E+01  1.61644E+01
   1.50395E+01  1.06407E+01  9.21376E+00  4.02096E+00  1.16825E+01  1.47973E+01  6.40256E+00  4.97652E+00  3.08542E+00  8.70721E+00
   5.72463E+00  4.23317E+00  3.27618E+00  3.73034E+00 -1.20131E+00 -2.12385E+00  2.06292E+00 -1.70260E+00 -1.48935E-02  3.92205E+00
   6.22004E+00  4.15246E+00  3.31180E+00  7.85169E+00  3.69874E+00  6.43882E+00  6.91062E+00  4.98964E+00  5.33375E+00  4.77262E+00
   4.34146E+00  1.02882E+01  8.24397E+00  3.83756E+00  1.31987E+01  1.23666E+01  1.84275E+01  1.31060E+01  1.47999E+01  1.19433E+01
   1.82793E+01  1.52358E+01  2.20078E+01  1.99519E+01  2.08425E+01  2.07241E+01  2.03002E+01  1.44836E+01  1.32158E+01  1.15538E+01
   8.68774E+00  9.46577E+00  8.26078E+00  1.31312E+01  1.05809E+01  1.14306E+01  5.57203E+00  7.97749E+00  8.94087E+00  8.66387E+00
   6.51055E+00  5.66352E+00  1.44684E+01  1.02870E+01  8.76271E+00  1.00041E+01  1.86592E+01  1.35180E+01  1.62145E+01  7.56776E+00
   9.63969E+00  9.76557E+00  9.99786E+00  1.38766E+01  9.42016E+00  1.55764E+01  1.06739E+01  1.96855E+01  2.11481E+01  1.57321E+01
   1.50108E+01  1.71679E+01  1.10180E+01  1.17011E+01  1.64672E+01  1.48842E+01  2.01887E+01  1.50306E+01  1.45185E+01  1.35608E+01
   1.34588E+01  1.48398E+01  1.22308E+01  2.34596E+01  1.10117E+01  1.14948E+01  1.18165E+01  2.15796E+01  1.25606E+01  6.56527E+00
   1.26695E+01  1.45888E+01  1.68468E+01  1.13249E+01  1.03224E+01  1.26010E+01  1.15542E+01  1.06777E+01  1.16214E+01  7.93482E+00
   8.96518E+00  1.10068E+01  1.21736E+01  7.41918E+00  8.51495E+00  1.17938E+01  8.65439E+00  4.57329E+00  1.72679E+01  1.18033E+01
   1.06065E+01  1.56164E+01  7.90530E+00  1.73713E+01  1.16811E+01  1.30442E+01  1.47991E+01  1.33945E+01  1.22845E+01  1.35854E+01
   1.20096E+01  1.88394E+01  1.78123E+01  1.87983E+01  2.20824E+01  2.39775E+01  1.80264E+01  2.50443E+01  2.19116E+01  1.26825E+01
   1.93220E+01  1.54368E+01  1.68523E+01  1.73813E+01  1.72616E+01  1.63501E+01  1.26872E+01  1.36999E+01  7.94190E+00  1.35767E+01
   1.20033E+01  1.32293E+01  6.93082E+00  8.16630E+00  9.25008E+00  9.77602E+00  8.10655E+00  1.33179E+01  6.91238E+00  6.86008E+00
   8.29595E+00  1.05909E+01  6.87550E+00  9.21887E+00  8.27370E+00  1.15924E+01  6.25636E+00  6.22838E+00  9.00487E+00  1.19740E+01
   6.97368E+00  4.04165E+00  2.36765E+00  1.45383E+01  7.86419E+00  7.83570E+00  1.20908E+01  4.21778E+00  6.36905E+00  1.04647E+01
   4.02965E+00  8.12304E+00  6.04995E+00  9.18141E+00  1.29978E+01  1.03543E+01  5.22067E+00  9.36968E+00  5.36905E+00  9.23386E+00
   3.67627E+00  7.36822E+00  1.00953E+01  4.15030E+00  8.28539E+00  1.15579E+01  9.77262E+00  9.74358E+00  1.04122E+00  4.03982E+00
   1.14355E+01  1.08839E+01  5.46548E+00  8.17355E+00  5.75800E+00  9.52547E+00  5.50250E+00  3.21809E+00  8.35157E+00  8.82250E+00
   1.13772E+01  8.04171E+00  7.93041E+00  1.20260E+01  9.05663E+00  6.85031E+00  9.49649E+00  1.27112E+01  1.22647E+01  7.13499E+00
   4.16332E+00  5.45729E+00  1.17070E+01  1.00592E+01  5.12542E+00  8.82303E+00  1.28901E+01  7.09922E+00
 NY points of the fit to the data follow
  -4.54729E+01 -4.52413E+01 -4.38083E+01 -4.06824E+01 -3.62861E+01 -3.09534E+01 -2.47952E+01 -1.79344E+01 -1.09536E+01 -5.02919E+00
  -1.76428E+00 -2.45370E+00 -7.01112E+00 -1.36580E+01 -2.01682E+01 -2.54128E+01 -2.95291E+01 -3.30392E+01 -3.56601E+01 -3.70020E+01
  -3.75136E+01 -3.76952E+01 -3.77347E+01 -3.73185E+01 -3.65831E+01 -3.55624E+01 -3.40518E+01 -3.18684E+01 -2.90571E+01 -2.59370E+01
  -2.30494E+01 -2.12277E+01 -2.11193E+01 -2.25223E+01 -2.47614E+01 -2.72296E+01 -2.95268E+01 -3.15768E+01 -3.29724E+01 -3.29455E+01
  -3.15185E+01 -2.92794E+01 -2.67607E+01 -2.40454E+01 -2.12327E+01 -1.86713E+01 -1.68159E+01 -1.63064E+01 -1.75656E+01 -2.02585E+01
  -2.34442E+01 -2.59858E+01 -2.73897E+01 -2.80255E+01 -2.82088E+01 -2.78198E+01 -2.67708E+01 -2.54307E+01 -2.42334E+01 -2.33662E+01
  -2.29891E+01 -2.32306E+01 -2.39186E+01 -2.46768E+01 -2.50667E+01 -2.49426E+01 -2.44516E+01 -2.37532E+01 -2.29030E+01 -2.19711E+01
  -2.10799E+01 -2.03567E+01 -1.98480E+01 -1.95877E+01 -1.95581E+01 -1.96290E+01 -1.97575E+01 -2.00409E+01 -2.04603E+01 -2.07628E+01
  -2.04448E+01 -1.97203E+01 -1.88149E+01 -1.77823E+01 -1.66575E+01 -1.55353E+01 -1.46497E+01 -1.43049E+01 -1.46620E+01 -1.55739E+01
  -1.66231E+01 -1.73086E+01 -1.75261E+01 -1.75911E+01 -1.75912E+01 -1.65604E+01 -1.27964E+01 -7.39718E+00 -1.24178E+00  6.04717E+00
   1.45267E+01  2.33292E+01  3.08011E+01  3.46797E+01  3.30994E+01  2.61532E+01  1.64633E+01  7.46848E+00  6.49431E-01 -4.69636E+00
  -9.48506E+00 -1.32590E+01 -1.48541E+01 -1.52117E+01 -1.52312E+01 -1.51091E+01 -1.48902E+01 -1.45155E+01 -1.38573E+01 -1.23026E+01
  -7.82571E+00 -5.98023E-01  7.64966E+00  1.71332E+01  2.83544E+01  4.05610E+01  5.18145E+01  5.91728E+01  5.95032E+01  5.18454E+01
   3.89874E+01  2.58070E+01  1.53159E+01  7.14375E+00 -2.40446E-01 -6.87217E+00 -1.07780E+01 -1.19967E+01 -1.21029E+01 -1.16352E+01
  -1.09490E+01 -1.03175E+01 -9.86513E+00 -9.64534E+00 -9.68625E+00 -9.88812E+00 -1.01372E+01 -1.04080E+01 -1.06782E+01 -1.09176E+01
  -1.11022E+01 -1.12084E+01 -1.12586E+01 -1.12722E+01 -1.13500E+01 -1.14893E+01 -1.16192E+01 -1.17418E+01 -1.18526E+01 -1.20454E+01
  -1.23417E+01 -1.25595E+01 -1.25139E+01 -1.21848E+01 -1.17628E+01 -1.15610E+01 -1.17922E+01 -1.23876E+01 -1.30785E+01 -1.36890E+01
  -1.42593E+01 -1.47371E+01 -1.51584E+01 -1.55622E+01 -1.59104E+01 -1.61487E+01 -1.61426E+01 -1.58114E+01 -1.52812E+01 -1.48048E+01
  -1.46443E+01 -1.47090E+01 -1.46031E+01 -1.41274E+01 -1.33618E+01 -1.25073E+01 -1.15887E+01 -1.03327E+01 -8.62079E+00 -6.69764E+00
  -5.05093E+00 -4.15522E+00 -4.00895E+00 -4.32542E+00 -4.78131E+00 -5.16050E+00 -5.34497E+00 -5.07042E+00 -4.22860E+00 -2.93504E+00
  -1.36029E+00  2.20483E-01  1.33383E+00  1.57069E+00  1.02599E+00 -3.20020E-01 -2.52752E+00 -5.24147E+00 -7.62694E+00 -8.80527E+00
  -8.53712E+00 -7.01841E+00 -4.51200E+00 -1.42694E+00  1.56997E+00  3.78403E+00  4.64148E+00  3.87998E+00  1.57439E+00 -1.73368E+00
  -4.81854E+00 -6.90400E+00 -7.76577E+00 -7.19435E+00 -5.18331E+00 -2.11288E+00  1.04888E+00  3.42835E+00  4.80588E+00  5.45652E+00
   5.76146E+00  5.77623E+00  5.60835E+00  5.67963E+00  6.22751E+00  6.98375E+00  7.70264E+00  8.33241E+00  8.73568E+00  8.66175E+00
   7.97668E+00  7.01016E+00  6.28998E+00  6.13005E+00  6.56803E+00  7.51900E+00  8.84023E+00  1.01874E+01  1.13610E+01  1.24923E+01
   1.37110E+01  1.49999E+01  1.68806E+01  2.19498E+01  3.16791E+01  4.29820E+01  5.52559E+01  6.95914E+01  8.56999E+01  1.01420E+02
   1.13126E+02  1.16141E+02  1.07583E+02  8.96118E+01  6.90297E+01  5.18119E+01  3.88039E+01  2.78259E+01  1.78543E+01  1.10396E+01
   8.53722E+00  7.51123E+00  6.93368E+00  6.62252E+00  6.43431E+00  6.24002E+00  6.00356E+00  5.70733E+00  5.37781E+00  5.05241E+00
   4.74554E+00  4.45465E+00  4.20238E+00  4.01417E+00  3.88051E+00  3.77788E+00  3.69658E+00  3.64303E+00  3.62647E+00  3.64870E+00
   3.71103E+00  3.82610E+00  4.00300E+00  4.24701E+00  4.56150E+00  4.95097E+00  5.42121E+00  5.97636E+00  6.61793E+00  7.34459E+00
   8.15033E+00  9.02507E+00  9.95289E+00  1.09121E+01  1.18769E+01  1.28189E+01  1.37089E+01  1.45179E+01  1.52190E+01  1.57892E+01
   1.62098E+01  1.64677E+01  1.65578E+01  1.64825E+01  1.62518E+01  1.58826E+01  1.53969E+01  1.48212E+01  1.41846E+01  1.35169E+01
   1.28474E+01  1.22024E+01  1.16043E+01  1.10708E+01  1.06152E+01  1.02458E+01  9.96608E+00  9.77523E+00  9.66886E+00  9.64003E+00
   9.68042E+00  9.78078E+00  9.93153E+00  1.01231E+01  1.03468E+01  1.05950E+01  1.08616E+01  1.11417E+01  1.14314E+01  1.17275E+01
   1.20279E+01  1.23311E+01  1.26361E+01  1.29417E+01  1.32467E+01  1.35489E+01  1.38463E+01  1.41362E+01  1.44153E+01  1.46795E+01
   1.49243E+01  1.51447E+01  1.53358E+01  1.54929E+01  1.56117E+01  1.56880E+01  1.57187E+01  1.57014E+01  1.56353E+01  1.55205E+01
   1.53585E+01  1.51516E+01  1.49033E+01  1.46180E+01  1.43013E+01  1.39592E+01  1.35978E+01  1.32236E+01  1.28430E+01  1.24623E+01
   1.20879E+01  1.17253E+01  1.13798E+01  1.10560E+01  1.07580E+01  1.04897E+01  1.02546E+01  1.00555E+01  9.89494E+00  9.77524E+00
   9.69870E+00  9.66751E+00  9.68382E+00  9.74944E+00  9.86617E+00  1.00356E+01  1.02594E+01  1.05386E+01  1.08737E+01  1.12641E+01
   1.17083E+01  1.22034E+01  1.27454E+01  1.33282E+01  1.39439E+01  1.45826E+01  1.52326E+01  1.58809E+01  1.65130E+01  1.71138E+01
   1.76675E+01  1.81589E+01  1.85740E+01  1.89004E+01  1.91282E+01  1.92502E+01  1.92624E+01  1.91644E+01  1.89591E+01  1.86530E+01
   1.82554E+01  1.77778E+01  1.72336E+01  1.66374E+01  1.60043E+01  1.53492E+01  1.46862E+01  1.40278E+01  1.33852E+01  1.27677E+01
   1.21827E+01  1.16354E+01  1.11295E+01  1.06666E+01  1.02471E+01  9.87025E+00  9.53459E+00  9.23768E+00  8.97667E+00  8.74842E+00
   8.54988E+00  8.37803E+00  8.23001E+00  8.10296E+00  7.99432E+00  7.90170E+00  7.82322E+00  7.75710E+00  7.70184E+00  7.65595E+00
   7.61822E+00  7.58761E+00  7.56338E+00  7.54479E+00  7.53121E+00  7.52193E+00  7.51649E+00  7.51445E+00  7.51562E+00  7.51962E+00
   7.52619E+00  7.53492E+00  7.54569E+00  7.55831E+00  7.57276E+00  7.58880E+00  7.60629E+00  7.62499E+00  7.64489E+00  7.66594E+00
   7.68814E+00  7.71129E+00  7.73531E+00  7.76006E+00  7.78562E+00  7.81194E+00  7.83904E+00  7.86672E+00  7.89494E+00  7.92365E+00
   7.95295E+00  7.98279E+00  8.01316E+00  8.04389E+00  8.07500E+00  8.10647E+00  8.13841E+00  8.17075E+00  8.20344E+00  8.23636E+00
   8.26955E+00  8.30304E+00  8.33692E+00  8.37108E+00  8.40548E+00  8.44002E+00  8.47482E+00  8.50989E+00  8.54528E+00  8.58087E+00
   8.61663E+00  8.65252E+00  8.68868E+00  8.72509E+00  8.76180E+00  8.79866E+00  8.83569E+00  8.87289E+00
 NY background values follow
    -5.175E+01   -5.141E+01   -5.107E+01   -5.073E+01   -5.039E+01   -5.005E+01   -4.971E+01   -4.937E+01   -4.903E+01   -4.869E+01
    -4.835E+01   -4.801E+01   -4.767E+01   -4.733E+01   -4.699E+01   -4.666E+01   -4.632E+01   -4.598E+01   -4.564E+01   -4.530E+01
    -4.497E+01   -4.463E+01   -4.429E+01   -4.396E+01   -4.362E+01   -4.329E+01   -4.295E+01   -4.262E+01   -4.229E+01   -4.196E+01
    -4.162E+01   -4.129E+01   -4.096E+01   -4.063E+01   -4.030E+01   -3.998E+01   -3.965E+01   -3.932E+01   -3.900E+01   -3.867E+01
    -3.835E+01   -3.803E+01   -3.770E+01   -3.738E+01   -3.706E+01   -3.675E+01   -3.643E+01   -3.611E+01   -3.580E+01   -3.548E+01
    -3.517E+01   -3.486E+01   -3.455E+01   -3.424E+01   -3.393E+01   -3.362E+01   -3.332E+01   -3.301E+01   -3.271E+01   -3.241E+01
    -3.211E+01   -3.181E+01   -3.152E+01   -3.122E+01   -3.093E+01   -3.063E+01   -3.034E+01   -3.006E+01   -2.977E+01   -2.948E+01
    -2.920E+01   -2.892E+01   -2.864E+01   -2.836E+01   -2.808E+01   -2.781E+01   -2.754E+01   -2.726E+01   -2.700E+01   -2.673E+01
    -2.646E+01   -2.620E+01   -2.594E+01   -2.568E+01   -2.542E+01   -2.517E+01   -2.492E+01   -2.467E+01   -2.442E+01   -2.417E+01
    -2.393E+01   -2.369E+01   -2.345E+01   -2.321E+01   -2.298E+01   -2.275E+01   -2.252E+01   -2.229E+01   -2.206E+01   -2.184E+01
    -2.162E+01   -2.140E+01   -2.118E+01   -2.097E+01   -2.076E+01   -2.055E+01   -2.034E+01   -2.013E+01   -1.993E+01   -1.973E+01
    -1.953E+01   -1.933E+01   -1.913E+01   -1.894E+01   -1.875E+01   -1.856E+01   -1.837E+01   -1.818E+01   -1.800E+01   -1.782E+01
    -1.764E+01   -1.746E+01   -1.729E+01   -1.711E+01   -1.694E+01   -1.677E+01   -1.660E+01   -1.643E+01   -1.627E+01   -1.611E+01
    -1.595E+01   -1.579E+01   -1.563E+01   -1.547E+01   -1.532E+01   -1.517E+01   -1.502E+01   -1.487E+01   -1.472E+01   -1.458E+01
    -1.443E+01   -1.429E+01   -1.415E+01   -1.401E+01   -1.387E+01   -1.374E+01   -1.360E+01   -1.347E+01   -1.333E+01   -1.320E+01
    -1.307E+01   -1.294E+01   -1.281E+01   -1.269E+01   -1.256E+01   -1.243E+01   -1.231E+01   -1.218E+01   -1.206E+01   -1.194E+01
    -1.181E+01   -1.169E+01   -1.157E+01   -1.145E+01   -1.133E+01   -1.121E+01   -1.109E+01   -1.097E+01   -1.085E+01   -1.073E+01
    -1.061E+01   -1.049E+01   -1.037E+01   -1.025E+01   -1.013E+01   -1.001E+01   -9.894E+00   -9.774E+00   -9.654E+00   -9.533E+00
    -9.412E+00   -9.291E+00   -9.169E+00   -9.047E+00   -8.924E+00   -8.801E+00   -8.678E+00   -8.554E+00   -8.430E+00   -8.306E+00
    -8.182E+00   -8.058E+00   -7.934E+00   -7.810E+00   -7.686E+00   -7.561E+00   -7.437E+00   -7.314E+00   -7.190E+00   -7.067E+00
    -6.944E+00   -6.821E+00   -6.698E+00   -6.576E+00   -6.455E+00   -6.334E+00   -6.213E+00   -6.093E+00   -5.974E+00   -5.855E+00
    -5.737E+00   -5.620E+00   -5.503E+00   -5.388E+00   -5.273E+00   -5.159E+00   -5.046E+00   -4.934E+00   -4.823E+00   -4.713E+00
    -4.605E+00   -4.497E+00   -4.391E+00   -4.285E+00   -4.182E+00   -4.079E+00   -3.978E+00   -3.878E+00   -3.780E+00   -3.682E+00
    -3.587E+00   -3.492E+00   -3.399E+00   -3.307E+00   -3.216E+00   -3.127E+00   -3.039E+00   -2.952E+00   -2.866E+00   -2.781E+00
    -2.697E+00   -2.615E+00   -2.534E+00   -2.453E+00   -2.374E+00   -2.295E+00   -2.218E+00   -2.142E+00   -2.066E+00   -1.992E+00
    -1.918E+00   -1.845E+00   -1.773E+00   -1.702E+00   -1.632E+00   -1.563E+00   -1.494E+00   -1.426E+00   -1.359E+00   -1.293E+00
    -1.227E+00   -1.162E+00   -1.097E+00   -1.034E+00   -9.703E-01   -9.077E-01   -8.456E-01   -7.841E-01   -7.231E-01   -6.626E-01
    -6.026E-01   -5.431E-01   -4.840E-01   -4.253E-01   -3.670E-01   -3.091E-01   -2.517E-01   -1.947E-01   -1.381E-01   -8.188E-02
    -2.607E-02    2.934E-02    8.436E-02    1.390E-01    1.932E-01    2.471E-01    3.006E-01    3.537E-01    4.065E-01    4.589E-01
     5.109E-01    5.626E-01    6.140E-01    6.650E-01    7.156E-01    7.660E-01    8.159E-01    8.656E-01    9.149E-01    9.640E-01
     1.013E+00    1.061E+00    1.109E+00    1.157E+00    1.204E+00    1.252E+00    1.298E+00    1.345E+00    1.391E+00    1.438E+00
     1.483E+00    1.529E+00    1.574E+00    1.619E+00    1.664E+00    1.708E+00    1.753E+00    1.796E+00    1.840E+00    1.884E+00
     1.927E+00    1.970E+00    2.013E+00    2.055E+00    2.098E+00    2.140E+00    2.182E+00    2.223E+00    2.265E+00    2.306E+00
     2.347E+00    2.388E+00    2.428E+00    2.468E+00    2.508E+00    2.548E+00    2.588E+00    2.627E+00    2.666E+00    2.705E+00
     2.744E+00    2.782E+00    2.821E+00    2.859E+00    2.897E+00    2.934E+00    2.972E+00    3.009E+00    3.046E+00    3.083E+00
     3.119E+00    3.156E+00    3.192E+00    3.228E+00    3.264E+00    3.299E+00    3.335E+00    3.370E+00    3.405E+00    3.439E+00
     3.474E+00    3.508E+00    3.543E+00    3.577E+00    3.610E+00    3.644E+00    3.678E+00    3.711E+00    3.744E+00    3.777E+00
     3.810E+00    3.843E+00    3.876E+00    3.908E+00    3.941E+00    3.973E+00    4.005E+00    4.038E+00    4.070E+00    4.102E+00
     4.134E+00    4.166E+00    4.199E+00    4.231E+00    4.263E+00    4.295E+00    4.327E+00    4.359E+00    4.391E+00    4.423E+00
     4.456E+00    4.488E+00    4.520E+00    4.553E+00    4.585E+00    4.618E+00    4.651E+00    4.684E+00    4.717E+00    4.750E+00
     4.783E+00    4.817E+00    4.850E+00    4.884E+00    4.918E+00    4.952E+00    4.986E+00    5.021E+00    5.055E+00    5.090E+00
     5.125E+00    5.161E+00    5.196E+00    5.232E+00    5.268E+00    5.304E+00    5.340E+00    5.377E+00    5.413E+00    5.450E+00
     5.487E+00    5.524E+00    5.561E+00    5.598E+00    5.636E+00    5.674E+00    5.711E+00    5.749E+00    5.787E+00    5.826E+00
     5.864E+00    5.902E+00    5.941E+00    5.979E+00    6.018E+00    6.057E+00    6.096E+00    6.135E+00    6.174E+00    6.214E+00
     6.253E+00    6.292E+00    6.332E+00    6.371E+00    6.411E+00    6.451E+00    6.491E+00    6.530E+00    6.570E+00    6.610E+00
     6.650E+00    6.690E+00    6.730E+00    6.770E+00    6.811E+00    6.851E+00    6.891E+00    6.931E+00    6.972E+00    7.012E+00
     7.052E+00    7.093E+00    7.133E+00    7.174E+00    7.214E+00    7.255E+00    7.295E+00    7.336E+00    7.376E+00    7.417E+00
     7.457E+00    7.498E+00    7.539E+00    7.580E+00    7.620E+00    7.661E+00    7.702E+00    7.743E+00    7.783E+00    7.824E+00
     7.865E+00    7.906E+00    7.947E+00    7.988E+00    8.029E+00    8.070E+00    8.111E+00    8.152E+00    8.193E+00    8.234E+00
     8.275E+00    8.316E+00    8.357E+00    8.398E+00    8.439E+00    8.480E+00    8.521E+00    8.562E+00
 Cr       Conc. = 6.04E+02
