 LCModel (Version 6.3-1L) Copyright: S.W. Provencher.          Ref.: Magn. Reson. Med. 30:672-679 (1993).                
 Slice#1 Row#9 Col#6  PD_24_press_2_raw_act
 36 lines in following concentration table = NCONC+1
    Conc.  %SD /Cr+PCr  Metabolite                                         
  266.977  63%   0.134 Ala                                                 
  334.336  93%   0.168 Asp                                                 
  793.233  37%   0.399 Cr                                                  
 1.19E+03  25%   0.601 PCr                                                 
    0.000 999%   0.000 GABA                                                
   53.245 383% 2.7E-02 Glc                                                 
  578.211  60%   0.291 Gln                                                 
 2.29E+03  17%   1.150 Glu                                                 
  449.273   6%   0.226 GPC                                                 
    0.000 999%   0.000 PCh                                                 
  709.813  15%   0.357 GSH                                                 
 2.12E+03  16%   1.068 Ins                                                 
  116.189 157% 5.8E-02 Lac                                                 
 3.50E+03   6%   1.763 NAA                                                 
  172.195 134% 8.7E-02 NAAG                                                
  143.533  25% 7.2E-02 Scyllo                                              
    0.000 999%   0.000 Tau                                                 
    0.000 999%   0.000 -CrCH2                                              
  449.273   6%   0.226 GPC+PCh                                             
 3.68E+03   3%   1.850 NAA+NAAG                                            
 1.99E+03   4%   1.000 Cr+PCr                                              
 2.86E+03  20%   1.441 Glu+Gln                                             
 2.78E+03  20%   1.400 Lip13a                                              
    0.000 999%   0.000 Lip13b                                              
  608.809  68%   0.306 Lip09                                               
 2.18E+03  20%   1.096 MM09                                                
  175.025 171% 8.8E-02 Lip20                                               
 2.81E+03  19%   1.416 MM20                                                
  832.458  39%   0.419 MM12                                                
    0.000 999%   0.000 MM14                                                
 3.65E+03   5%   1.836 MM17                                                
 2.78E+03  20%   1.400 Lip13a+Lip13b                                       
 3.61E+03  12%   1.819 MM14+Lip13a+Lip13b+MM12                             
 2.79E+03   9%   1.402 MM09+Lip09                                          
 2.99E+03  17%   1.504 MM20+Lip20                                          
   6 lines in following misc. output table
  FWHM = 0.054 ppm    S/N =  12                                            
  Data shift = 0.015 ppm                                                   
  Ph:  -9 deg       4.0 deg/ppm                                            
  alphaB,S = 4.6E+00,   7.1E+01                                            
   14 spline knots.   Ns = 7(1)                                            
  (12) 6 infls.   (13) 1 extrs.                                            
  498 points on ppm-axis = NY
      4.000000     3.992357     3.984714     3.977070     3.969427     3.961784     3.954141     3.946497     3.938854     3.931211
      3.923568     3.915925     3.908281     3.900638     3.892995     3.885352     3.877708     3.870065     3.862422     3.854779
      3.847136     3.839492     3.831849     3.824206     3.816563     3.808919     3.801276     3.793633     3.785990     3.778347
      3.770703     3.763060     3.755417     3.747774     3.740130     3.732487     3.724844     3.717201     3.709558     3.701914
      3.694271     3.686628     3.678985     3.671341     3.663698     3.656055     3.648412     3.640769     3.633125     3.625482
      3.617839     3.610196     3.602552     3.594909     3.587266     3.579623     3.571980     3.564336     3.556693     3.549050
      3.541407     3.533763     3.526120     3.518477     3.510834     3.503191     3.495547     3.487904     3.480261     3.472618
      3.464974     3.457331     3.449688     3.442045     3.434402     3.426758     3.419115     3.411472     3.403829     3.396185
      3.388542     3.380899     3.373256     3.365613     3.357969     3.350326     3.342683     3.335040     3.327396     3.319753
      3.312110     3.304467     3.296824     3.289180     3.281537     3.273894     3.266251     3.258607     3.250964     3.243321
      3.235678     3.228034     3.220391     3.212748     3.205105     3.197462     3.189818     3.182175     3.174532     3.166889
      3.159245     3.151602     3.143959     3.136316     3.128673     3.121029     3.113386     3.105743     3.098100     3.090456
      3.082813     3.075170     3.067527     3.059884     3.052240     3.044597     3.036954     3.029311     3.021667     3.014024
      3.006381     2.998738     2.991095     2.983451     2.975808     2.968165     2.960522     2.952878     2.945235     2.937592
      2.929949     2.922306     2.914662     2.907019     2.899376     2.891733     2.884089     2.876446     2.868803     2.861160
      2.853517     2.845873     2.838230     2.830587     2.822944     2.815300     2.807657     2.800014     2.792371     2.784728
      2.777084     2.769441     2.761798     2.754155     2.746511     2.738868     2.731225     2.723582     2.715939     2.708295
      2.700652     2.693009     2.685366     2.677722     2.670079     2.662436     2.654793     2.647150     2.639506     2.631863
      2.624220     2.616577     2.608933     2.601290     2.593647     2.586004     2.578361     2.570717     2.563074     2.555431
      2.547788     2.540144     2.532501     2.524858     2.517215     2.509572     2.501928     2.494285     2.486642     2.478999
      2.471355     2.463712     2.456069     2.448426     2.440783     2.433139     2.425496     2.417853     2.410210     2.402566
      2.394923     2.387280     2.379637     2.371994     2.364350     2.356707     2.349064     2.341421     2.333777     2.326134
      2.318491     2.310848     2.303205     2.295561     2.287918     2.280275     2.272632     2.264988     2.257345     2.249702
      2.242059     2.234416     2.226772     2.219129     2.211486     2.203843     2.196199     2.188556     2.180913     2.173270
      2.165627     2.157983     2.150340     2.142697     2.135054     2.127410     2.119767     2.112124     2.104481     2.096838
      2.089194     2.081551     2.073908     2.066265     2.058621     2.050978     2.043335     2.035692     2.028049     2.020405
      2.012762     2.005119     1.997476     1.989833     1.982190     1.974546     1.966903     1.959260     1.951617     1.943974
      1.936331     1.928688     1.921045     1.913402     1.905759     1.898115     1.890472     1.882829     1.875186     1.867543
      1.859900     1.852257     1.844614     1.836971     1.829327     1.821684     1.814041     1.806398     1.798755     1.791112
      1.783469     1.775826     1.768183     1.760540     1.752896     1.745253     1.737610     1.729967     1.722324     1.714681
      1.707038     1.699395     1.691752     1.684108     1.676465     1.668822     1.661179     1.653536     1.645893     1.638250
      1.630607     1.622964     1.615321     1.607677     1.600034     1.592391     1.584748     1.577105     1.569462     1.561819
      1.554176     1.546533     1.538890     1.531246     1.523603     1.515960     1.508317     1.500674     1.493031     1.485388
      1.477745     1.470102     1.462458     1.454815     1.447172     1.439529     1.431886     1.424243     1.416600     1.408957
      1.401314     1.393671     1.386027     1.378384     1.370741     1.363098     1.355455     1.347812     1.340169     1.332526
      1.324883     1.317240     1.309596     1.301953     1.294310     1.286667     1.279024     1.271381     1.263738     1.256095
      1.248452     1.240808     1.233165     1.225522     1.217879     1.210236     1.202593     1.194950     1.187307     1.179664
      1.172021     1.164377     1.156734     1.149091     1.141448     1.133805     1.126162     1.118519     1.110876     1.103233
      1.095590     1.087946     1.080303     1.072660     1.065017     1.057374     1.049731     1.042088     1.034445     1.026802
      1.019158     1.011515     1.003872     0.996229     0.988586     0.980943     0.973300     0.965657     0.958014     0.950371
      0.942727     0.935084     0.927441     0.919798     0.912155     0.904512     0.896869     0.889226     0.881583     0.873940
      0.866296     0.858653     0.851010     0.843367     0.835724     0.828081     0.820438     0.812795     0.805152     0.797508
      0.789865     0.782222     0.774579     0.766936     0.759293     0.751650     0.744007     0.736364     0.728721     0.721077
      0.713434     0.705791     0.698148     0.690505     0.682862     0.675219     0.667576     0.659933     0.652290     0.644646
      0.637003     0.629360     0.621717     0.614074     0.606431     0.598788     0.591145     0.583502     0.575858     0.568215
      0.560572     0.552929     0.545286     0.537643     0.530000     0.522357     0.514714     0.507071     0.499427     0.491784
      0.484141     0.476498     0.468855     0.461212     0.453569     0.445925     0.438282     0.430639     0.422996     0.415353
      0.407710     0.400067     0.392424     0.384780     0.377137     0.369494     0.361851     0.354208     0.346565     0.338922
      0.331278     0.323635     0.315992     0.308349     0.300706     0.293063     0.285420     0.277777     0.270133     0.262490
      0.254847     0.247204     0.239561     0.231918     0.224275     0.216631     0.208988     0.201345
 NY phased data points follow
   1.99645E+01  1.19937E+01  2.29043E+01  2.16645E+01  2.77783E+01  2.85035E+01  3.82641E+01  4.41279E+01  5.38549E+01  4.64662E+01
   5.48425E+01  4.57324E+01  5.06409E+01  4.18476E+01  4.27302E+01  3.05714E+01  3.31774E+01  2.14660E+01  2.47485E+01  2.32116E+01
   2.07842E+01  1.71382E+01  1.49274E+01  2.06568E+01  2.13816E+01  2.07387E+01  2.68703E+01  1.60991E+01  2.67653E+01  2.82404E+01
   3.11519E+01  2.43380E+01  2.72865E+01  2.54002E+01  2.36278E+01  1.74790E+01  2.27134E+01  2.07712E+01  3.22366E+01  2.09496E+01
   1.70828E+01  1.97502E+01  2.66136E+01  1.90884E+01  2.15856E+01  2.09754E+01  3.07356E+01  2.30809E+01  2.75339E+01  1.74519E+01
   2.31765E+01  1.68833E+01  2.20319E+01  1.46455E+01  2.14026E+01  1.28911E+01  2.02137E+01  7.82396E+00  2.10413E+01  2.50068E+01
   2.04268E+01  1.11120E+01  1.54147E+01  7.03695E+00  1.47109E+01  1.39765E+01  1.56253E+01  8.77858E+00  1.27081E+01  1.51612E+00
   6.26989E+00  7.10730E+00  9.54457E+00  1.17019E+01  1.27876E+01  1.11358E+01  1.25368E+01  1.17187E+01  1.34986E+01  7.94545E+00
   6.42478E+00  7.26911E+00  1.10287E+01  8.90693E+00  1.99027E+01  1.41360E+01  1.46903E+01  6.79444E+00  1.80241E+01  1.13635E+01
   1.36628E+01  1.18963E+01  1.25470E+01  1.14436E+01  1.16854E+01  9.87337E+00  1.47075E+01  1.25074E+01  1.51580E+01  1.79647E+01
   2.43975E+01  3.03381E+01  4.72928E+01  4.45453E+01  3.91980E+01  4.31915E+01  3.78585E+01  3.06900E+01  2.40304E+01  1.83517E+01
   1.41553E+01  1.45188E+01  1.15620E+01  5.77669E+00  1.46990E+01  7.31407E+00  1.18843E+01  1.07756E+01  8.39265E+00  1.55056E+01
   9.96231E+00  1.43228E+01  2.59800E+01  2.49973E+01  4.29060E+01  5.30333E+01  6.79539E+01  6.72546E+01  7.21390E+01  5.63802E+01
   5.48512E+01  4.32640E+01  3.51601E+01  2.57736E+01  1.81197E+01  1.77932E+01  1.86735E+01  1.41650E+01  1.51689E+01  1.47279E+01
   1.29681E+01  1.79090E+01  9.05311E+00  6.54319E+00  9.73185E+00  5.73454E+00  5.57199E+00  3.54153E+00  3.51132E+00  3.36304E+00
   6.36640E+00  1.90668E+00  3.90067E+00 -9.70696E-01  6.39020E+00  8.81478E-01  7.67069E+00  8.47759E+00  3.79119E+00 -1.77850E+00
   7.45143E+00  3.10748E+00  7.59542E-01  5.09976E-01  3.21992E+00 -2.00475E+00  4.81165E-01 -3.09714E+00  1.85761E+00  2.10294E-01
  -4.33047E+00 -1.13444E+01 -1.10753E+00 -9.52339E+00 -1.05925E+01 -1.57979E+01 -4.07155E+00 -6.37895E+00 -9.97195E+00 -7.24590E+00
   5.80691E-01 -1.16546E+01  2.35138E+00 -4.11161E+00  7.47335E+00  1.61823E+00 -3.30441E+00 -9.14260E-01  5.64569E+00 -3.21277E+00
   1.83698E+00  2.81029E+00 -5.10235E-01 -1.22593E+00 -1.20642E+00  1.96836E-01 -3.49409E+00 -4.34042E+00 -5.97749E+00 -1.16362E+00
   1.37147E-01  4.41185E+00  1.08406E+01  2.25309E+00  4.27147E+00  4.32263E+00  1.15164E+01  2.62561E+00  4.55552E+00  9.58418E+00
   6.74142E+00  9.85024E+00  1.34349E+01  1.39870E+01  1.91060E+01  1.88763E+01  2.28044E+01  1.09876E+01  1.30322E+01  6.44645E+00
   1.48814E+00 -2.12868E-01 -6.14647E+00  4.92127E+00  3.11271E+00  6.25048E+00  2.81083E+00  3.86820E+00  5.76597E+00  1.14848E+01
   1.21478E+01  1.38117E+01  1.16109E+01  5.08713E+00  1.21694E+01  8.33781E+00  7.73101E+00  9.73601E+00  6.08028E+00  5.41494E+00
   7.41581E+00  6.95631E+00  4.84164E+00  4.59219E+00  8.90674E+00  1.36105E+01  7.13221E+00  1.28637E+01  1.34224E+01  1.68349E+01
   2.13833E+01  2.03596E+01  2.36501E+01  2.54898E+01  3.29108E+01  3.85409E+01  5.91303E+01  8.28464E+01  1.04507E+02  1.30965E+02
   1.29025E+02  1.11424E+02  1.05990E+02  9.33363E+01  7.49405E+01  5.11931E+01  3.21618E+01  2.59321E+01  2.38130E+01  2.03987E+01
   8.25131E+00  7.80384E+00  9.18142E+00  5.20714E+00  6.52266E+00  8.78521E+00  8.09953E+00 -9.92100E-01  6.06220E+00  6.88633E+00
   5.24641E+00 -2.88176E+00  8.89524E+00  3.73288E+00  1.82186E+00  2.06338E+00  5.19536E+00  2.85513E+00  1.28293E+01  7.85546E+00
   1.21419E+01  3.89821E+00  1.05787E+01  5.44974E+00  7.47630E+00  1.59115E+01  1.25431E+01  1.52180E+01  1.71431E+01  1.01372E+01
   1.92743E+01  2.52463E+01  3.02072E+01  1.69513E+01  2.82497E+01  3.19548E+01  3.52800E+01  3.43166E+01  4.51990E+01  3.54959E+01
   3.86506E+01  3.58609E+01  3.66655E+01  2.58753E+01  3.14648E+01  3.27804E+01  1.72254E+01  1.73843E+01  1.18534E+01  1.13579E+01
   7.63119E+00  6.59334E+00  3.50812E+00 -1.47557E+00  7.23561E+00 -3.07670E+00  2.09324E-01  4.32216E+00  2.88259E-01 -4.66282E+00
  -1.75543E+00 -5.92866E+00 -1.62863E+00 -2.61180E+00  1.44595E+00  9.58742E-02 -2.47811E+00  4.29320E+00  1.11831E+01  6.15142E+00
   1.29738E+01  9.26932E+00  9.22556E+00  1.43831E+01  1.13636E+01  1.76954E+01  2.02139E+01  1.07539E+01  1.33487E+01  1.37396E+01
   1.36994E+01  1.34756E+01  1.89078E+01  1.70859E+01  1.91522E+01  1.82621E+01  1.77978E+01  1.70235E+01  1.24826E+01  1.80867E+01
   1.75677E+01  1.89325E+01  1.41922E+01  1.56461E+01  2.18618E+01  9.76979E+00  2.06978E+01  1.49785E+01  1.96792E+01  1.56589E+01
   1.48520E+01  8.51680E+00  1.32694E+01  1.04222E+01  6.06797E+00  9.48518E+00  4.23121E+00  1.02290E+01  7.87993E+00  9.94133E+00
   1.09596E+01  3.61370E+00  1.01108E+01  7.02931E+00  4.10364E+00  8.02100E+00  1.01265E+01  1.12981E+01  5.91593E+00  7.86145E+00
   7.99451E+00  1.13617E+01  1.00437E+01  1.05688E+01  1.09283E+01  1.42910E+01  1.38375E+01  9.09023E+00  1.54540E+01  1.45956E+01
   1.61721E+01  1.85926E+01  2.09521E+01  1.66021E+01  2.09320E+01  2.04056E+01  2.22042E+01  2.23870E+01  2.24261E+01  2.44852E+01
   2.43306E+01  1.95357E+01  1.87365E+01  2.06230E+01  2.26267E+01  2.01049E+01  1.47181E+01  1.13537E+01  1.59790E+01  5.05625E+00
   1.08946E+01  7.69448E+00  9.12964E+00  4.36618E+00  4.86564E+00  3.25070E+00  8.74380E+00  6.16167E+00 -2.14114E+00  1.75059E-01
  -5.61549E+00  2.22232E+00 -1.76569E+00 -1.97380E-01 -4.31435E-01  9.28707E-01 -7.58277E-01  2.32737E+00  5.14462E+00 -4.06782E+00
  -6.45653E+00  9.43292E-01 -1.16211E+00 -3.31854E-01  2.57549E+00 -3.49574E+00 -3.24830E+00 -5.40446E+00 -3.25616E+00 -3.71569E+00
   2.00122E+00 -5.10183E+00  4.35713E+00  1.56124E+00  3.38168E+00  1.83839E+00  2.69201E+00  1.15707E-02 -1.24657E+00 -5.38670E-01
   6.80320E+00 -1.86720E+00  1.92069E+00 -2.35274E+00  3.51112E+00  6.43403E-01  5.25724E+00 -2.55909E+00  2.12360E+00 -4.43286E+00
   1.28275E+00 -1.03157E+00 -2.93337E+00 -4.12481E-01  2.17035E+00 -1.22282E+00 -4.79539E-01  3.36150E+00  1.96356E+00  4.09118E+00
   4.21301E+00  2.74603E+00  4.37055E+00  5.41668E-01  5.29162E+00 -6.07798E+00  2.64085E+00 -5.85019E+00  2.75469E+00  4.14943E+00
   2.12083E+00 -3.32906E+00 -3.38614E+00 -3.24298E+00 -2.74561E+00  6.22800E-01  3.66133E+00  3.97134E+00
 NY points of the fit to the data follow
   1.78368E+01  1.72902E+01  1.81726E+01  2.02300E+01  2.30127E+01  2.76635E+01  3.41413E+01  4.11474E+01  4.70507E+01  5.05940E+01
   5.18988E+01  5.11658E+01  4.79636E+01  4.27633E+01  3.71071E+01  3.21274E+01  2.76289E+01  2.30403E+01  1.97742E+01  1.83368E+01
   1.71385E+01  1.62602E+01  1.62972E+01  1.70113E+01  1.77402E+01  1.88171E+01  2.08677E+01  2.39978E+01  2.72287E+01  2.91180E+01
   2.96463E+01  2.96403E+01  2.89465E+01  2.69606E+01  2.38766E+01  2.07778E+01  1.84989E+01  1.63655E+01  1.44780E+01  1.38209E+01
   1.41141E+01  1.51560E+01  1.66996E+01  1.88769E+01  2.18207E+01  2.49057E+01  2.70231E+01  2.71377E+01  2.52938E+01  2.28135E+01
   2.04032E+01  1.78103E+01  1.52516E+01  1.35265E+01  1.28144E+01  1.26222E+01  1.28639E+01  1.38262E+01  1.51000E+01  1.58686E+01
   1.58617E+01  1.52207E+01  1.42708E+01  1.32505E+01  1.23361E+01  1.18237E+01  1.17486E+01  1.19158E+01  1.23055E+01  1.29168E+01
   1.35566E+01  1.40142E+01  1.41022E+01  1.39331E+01  1.36678E+01  1.33092E+01  1.28651E+01  1.24090E+01  1.20950E+01  1.20380E+01
   1.21858E+01  1.24188E+01  1.28603E+01  1.36167E+01  1.43809E+01  1.45548E+01  1.37614E+01  1.24184E+01  1.12921E+01  1.06088E+01
   1.00794E+01  9.59759E+00  9.43119E+00  9.60998E+00  9.65694E+00  9.52426E+00  1.02465E+01  1.25569E+01  1.56138E+01  2.00936E+01
   2.70544E+01  3.57702E+01  4.33712E+01  4.64143E+01  4.45217E+01  4.05424E+01  3.62170E+01  3.09619E+01  2.46528E+01  1.89063E+01
   1.51422E+01  1.22480E+01  9.31606E+00  8.20432E+00  8.04388E+00  8.08176E+00  8.18058E+00  8.35736E+00  8.71614E+00  9.65623E+00
   1.23566E+01  1.70964E+01  2.33045E+01  3.19249E+01  4.37504E+01  5.69404E+01  6.70164E+01  7.00888E+01  6.68898E+01  6.11073E+01
   5.43216E+01  4.57379E+01  3.56453E+01  2.63585E+01  1.94262E+01  1.36870E+01  9.37613E+00  7.71884E+00  7.67339E+00  8.16160E+00
   8.66454E+00  8.89194E+00  9.01274E+00  9.10502E+00  8.96769E+00  8.58947E+00  8.05947E+00  7.44098E+00  6.85921E+00  6.26470E+00
   5.75699E+00  5.36957E+00  5.07147E+00  4.83621E+00  4.56535E+00  4.30413E+00  3.96819E+00  3.42187E+00  2.73609E+00  2.00700E+00
   1.62106E+00  1.79786E+00  2.25044E+00  2.54671E+00  2.49178E+00  2.24294E+00  1.97220E+00  1.61082E+00  1.10559E+00  5.05626E-01
  -1.76278E-01 -7.81620E-01 -1.50120E+00 -2.38821E+00 -3.03527E+00 -3.18485E+00 -2.88929E+00 -2.63127E+00 -2.75603E+00 -3.04674E+00
  -3.12207E+00 -2.82812E+00 -2.50659E+00 -2.36516E+00 -1.99651E+00 -1.08576E+00  4.30324E-01  2.46663E+00  4.49195E+00  6.11565E+00
   7.06565E+00  7.31348E+00  7.08503E+00  6.49396E+00  5.72465E+00  5.04534E+00  4.55599E+00  4.62909E+00  5.33688E+00  6.43429E+00
   7.76397E+00  9.27278E+00  1.05743E+01  1.09841E+01  1.03750E+01  8.89392E+00  6.73814E+00  4.24370E+00  2.01321E+00  7.98863E-01
   7.89022E-01  1.82856E+00  4.12552E+00  7.56055E+00  1.08404E+01  1.23360E+01  1.14640E+01  9.18977E+00  6.30346E+00  2.40032E+00
  -1.70763E+00 -4.31172E+00 -4.48566E+00 -2.69826E+00 -4.54283E-01  2.06413E+00  4.90946E+00  7.41319E+00  8.90212E+00  9.37938E+00
   9.73483E+00  1.02999E+01  1.06955E+01  1.09561E+01  1.14535E+01  1.20154E+01  1.21338E+01  1.15625E+01  1.05661E+01  9.56016E+00
   8.59540E+00  7.88054E+00  7.92861E+00  8.89224E+00  1.02217E+01  1.12827E+01  1.22285E+01  1.31190E+01  1.37455E+01  1.41837E+01
   1.47839E+01  1.59928E+01  1.83182E+01  2.44621E+01  3.40462E+01  4.50070E+01  6.04525E+01  8.24503E+01  1.06893E+02  1.23706E+02
   1.25489E+02  1.16246E+02  1.04288E+02  9.10257E+01  7.40168E+01  5.53026E+01  4.05288E+01  3.07284E+01  2.08667E+01  1.30858E+01
   1.04955E+01  9.42995E+00  8.79233E+00  8.37203E+00  8.03645E+00  7.65123E+00  7.27798E+00  6.89532E+00  6.46084E+00  6.00810E+00
   5.62276E+00  5.30834E+00  5.03773E+00  4.82625E+00  4.70122E+00  4.67472E+00  4.73871E+00  4.89613E+00  5.18010E+00  5.62304E+00
   6.23160E+00  7.02329E+00  8.01366E+00  9.21527E+00  1.06287E+01  1.22472E+01  1.40572E+01  1.60347E+01  1.81465E+01  2.03483E+01
   2.25786E+01  2.47700E+01  2.68503E+01  2.87442E+01  3.03777E+01  3.16848E+01  3.26124E+01  3.31233E+01  3.31947E+01  3.28256E+01
   3.20342E+01  3.08547E+01  2.93381E+01  2.75479E+01  2.55555E+01  2.34358E+01  2.12645E+01  1.91151E+01  1.70593E+01  1.51743E+01
   1.35529E+01  1.21602E+01  1.09327E+01  9.94511E+00  9.11991E+00  8.19681E+00  6.90605E+00  5.23754E+00  3.60336E+00  2.37682E+00
   1.44465E+00  7.89688E-01  7.02092E-01  1.42338E+00  2.71509E+00  3.97452E+00  5.03722E+00  6.06390E+00  7.01191E+00  7.82305E+00
   8.46344E+00  9.03214E+00  9.69311E+00  1.04113E+01  1.10729E+01  1.17512E+01  1.22948E+01  1.26585E+01  1.30245E+01  1.35029E+01
   1.40392E+01  1.46393E+01  1.54088E+01  1.63987E+01  1.74325E+01  1.82419E+01  1.88192E+01  1.92455E+01  1.94625E+01  1.94258E+01
   1.91423E+01  1.87034E+01  1.81726E+01  1.75014E+01  1.67401E+01  1.59588E+01  1.51521E+01  1.43249E+01  1.34890E+01  1.26572E+01
   1.18419E+01  1.10543E+01  1.03040E+01  9.59923E+00  8.94678E+00  8.35208E+00  7.81932E+00  7.35171E+00  6.95188E+00  6.62218E+00
   6.36492E+00  6.18243E+00  6.07713E+00  6.05172E+00  6.10929E+00  6.25331E+00  6.48739E+00  6.81494E+00  7.23879E+00  7.76095E+00
   8.38215E+00  9.10135E+00  9.91504E+00  1.08167E+01  1.17965E+01  1.28408E+01  1.39326E+01  1.50511E+01  1.61724E+01  1.72697E+01
   1.83147E+01  1.92782E+01  2.01323E+01  2.08505E+01  2.14100E+01  2.17923E+01  2.19842E+01  2.19791E+01  2.17769E+01  2.13838E+01
   2.08121E+01  2.00794E+01  1.92074E+01  1.82213E+01  1.71478E+01  1.60141E+01  1.48465E+01  1.36696E+01  1.25054E+01  1.13727E+01
   1.02868E+01  9.25923E+00  8.29811E+00  7.40826E+00  6.59180E+00  5.84849E+00  5.17611E+00  4.57097E+00  4.02845E+00  3.54342E+00
   3.11055E+00  2.72449E+00  2.37999E+00  2.07208E+00  1.79622E+00  1.54841E+00  1.32512E+00  1.12319E+00  9.39776E-01  7.72422E-01
   6.19077E-01  4.78051E-01  3.47877E-01  2.27227E-01  1.14912E-01  9.94260E-03 -8.84610E-02 -1.80935E-01 -2.68075E-01 -3.50467E-01
  -4.28642E-01 -5.03010E-01 -5.73858E-01 -6.41437E-01 -7.06041E-01 -7.67988E-01 -8.27547E-01 -8.84883E-01 -9.40104E-01 -9.93339E-01
  -1.04478E+00 -1.09462E+00 -1.14300E+00 -1.18996E+00 -1.23554E+00 -1.27983E+00 -1.32298E+00 -1.36512E+00 -1.40630E+00 -1.44651E+00
  -1.48577E+00 -1.52416E+00 -1.56182E+00 -1.59880E+00 -1.63510E+00 -1.67069E+00 -1.70561E+00 -1.73996E+00 -1.77383E+00 -1.80724E+00
  -1.84015E+00 -1.87254E+00 -1.90447E+00 -1.93604E+00 -1.96730E+00 -1.99823E+00 -2.02879E+00 -2.05898E+00 -2.08888E+00 -2.11858E+00
  -2.14810E+00 -2.17738E+00 -2.20640E+00 -2.23520E+00 -2.26388E+00 -2.29248E+00 -2.32101E+00 -2.34940E+00
 NY background values follow
     9.791E+00    9.753E+00    9.716E+00    9.678E+00    9.640E+00    9.603E+00    9.565E+00    9.527E+00    9.489E+00    9.452E+00
     9.414E+00    9.376E+00    9.338E+00    9.301E+00    9.263E+00    9.225E+00    9.187E+00    9.150E+00    9.112E+00    9.074E+00
     9.036E+00    8.999E+00    8.961E+00    8.923E+00    8.885E+00    8.848E+00    8.810E+00    8.772E+00    8.734E+00    8.697E+00
     8.659E+00    8.621E+00    8.584E+00    8.546E+00    8.508E+00    8.470E+00    8.433E+00    8.395E+00    8.357E+00    8.319E+00
     8.282E+00    8.244E+00    8.206E+00    8.169E+00    8.131E+00    8.093E+00    8.056E+00    8.018E+00    7.980E+00    7.943E+00
     7.905E+00    7.867E+00    7.830E+00    7.792E+00    7.755E+00    7.717E+00    7.679E+00    7.642E+00    7.604E+00    7.567E+00
     7.529E+00    7.492E+00    7.454E+00    7.417E+00    7.379E+00    7.342E+00    7.304E+00    7.267E+00    7.230E+00    7.192E+00
     7.155E+00    7.118E+00    7.080E+00    7.043E+00    7.006E+00    6.968E+00    6.931E+00    6.894E+00    6.857E+00    6.820E+00
     6.783E+00    6.745E+00    6.708E+00    6.671E+00    6.634E+00    6.597E+00    6.560E+00    6.523E+00    6.486E+00    6.450E+00
     6.413E+00    6.376E+00    6.339E+00    6.302E+00    6.266E+00    6.229E+00    6.192E+00    6.156E+00    6.119E+00    6.083E+00
     6.046E+00    6.010E+00    5.973E+00    5.937E+00    5.900E+00    5.864E+00    5.828E+00    5.792E+00    5.755E+00    5.719E+00
     5.683E+00    5.647E+00    5.611E+00    5.575E+00    5.539E+00    5.503E+00    5.467E+00    5.431E+00    5.396E+00    5.360E+00
     5.324E+00    5.288E+00    5.253E+00    5.217E+00    5.182E+00    5.146E+00    5.111E+00    5.076E+00    5.040E+00    5.005E+00
     4.970E+00    4.934E+00    4.899E+00    4.864E+00    4.829E+00    4.794E+00    4.759E+00    4.724E+00    4.690E+00    4.655E+00
     4.620E+00    4.585E+00    4.551E+00    4.516E+00    4.482E+00    4.447E+00    4.413E+00    4.379E+00    4.344E+00    4.310E+00
     4.276E+00    4.242E+00    4.208E+00    4.174E+00    4.140E+00    4.106E+00    4.073E+00    4.039E+00    4.005E+00    3.972E+00
     3.938E+00    3.905E+00    3.871E+00    3.838E+00    3.805E+00    3.772E+00    3.738E+00    3.705E+00    3.672E+00    3.640E+00
     3.607E+00    3.574E+00    3.541E+00    3.509E+00    3.476E+00    3.444E+00    3.411E+00    3.379E+00    3.347E+00    3.315E+00
     3.283E+00    3.251E+00    3.219E+00    3.187E+00    3.155E+00    3.123E+00    3.092E+00    3.060E+00    3.029E+00    2.998E+00
     2.966E+00    2.935E+00    2.904E+00    2.873E+00    2.842E+00    2.811E+00    2.780E+00    2.749E+00    2.719E+00    2.688E+00
     2.658E+00    2.627E+00    2.597E+00    2.567E+00    2.536E+00    2.506E+00    2.476E+00    2.446E+00    2.416E+00    2.386E+00
     2.357E+00    2.327E+00    2.297E+00    2.268E+00    2.238E+00    2.209E+00    2.180E+00    2.151E+00    2.121E+00    2.092E+00
     2.063E+00    2.034E+00    2.005E+00    1.977E+00    1.948E+00    1.919E+00    1.891E+00    1.862E+00    1.834E+00    1.806E+00
     1.777E+00    1.749E+00    1.721E+00    1.693E+00    1.665E+00    1.637E+00    1.609E+00    1.581E+00    1.554E+00    1.526E+00
     1.499E+00    1.471E+00    1.444E+00    1.416E+00    1.389E+00    1.362E+00    1.335E+00    1.308E+00    1.281E+00    1.254E+00
     1.227E+00    1.201E+00    1.174E+00    1.147E+00    1.121E+00    1.094E+00    1.068E+00    1.042E+00    1.016E+00    9.895E-01
     9.634E-01    9.375E-01    9.116E-01    8.857E-01    8.600E-01    8.343E-01    8.087E-01    7.832E-01    7.577E-01    7.324E-01
     7.071E-01    6.818E-01    6.567E-01    6.316E-01    6.066E-01    5.817E-01    5.568E-01    5.321E-01    5.074E-01    4.827E-01
     4.582E-01    4.337E-01    4.093E-01    3.850E-01    3.607E-01    3.365E-01    3.124E-01    2.884E-01    2.644E-01    2.406E-01
     2.168E-01    1.930E-01    1.694E-01    1.458E-01    1.223E-01    9.881E-02    7.545E-02    5.215E-02    2.893E-02    5.787E-03
    -1.729E-02   -4.029E-02   -6.321E-02   -8.607E-02   -1.088E-01   -1.316E-01   -1.542E-01   -1.768E-01   -1.992E-01   -2.217E-01
    -2.440E-01   -2.663E-01   -2.885E-01   -3.106E-01   -3.327E-01   -3.546E-01   -3.765E-01   -3.984E-01   -4.201E-01   -4.418E-01
    -4.635E-01   -4.850E-01   -5.065E-01   -5.279E-01   -5.493E-01   -5.705E-01   -5.917E-01   -6.129E-01   -6.339E-01   -6.549E-01
    -6.759E-01   -6.967E-01   -7.176E-01   -7.383E-01   -7.590E-01   -7.796E-01   -8.001E-01   -8.206E-01   -8.410E-01   -8.614E-01
    -8.816E-01   -9.019E-01   -9.220E-01   -9.421E-01   -9.622E-01   -9.822E-01   -1.002E+00   -1.022E+00   -1.042E+00   -1.061E+00
    -1.081E+00   -1.101E+00   -1.120E+00   -1.140E+00   -1.159E+00   -1.179E+00   -1.198E+00   -1.217E+00   -1.237E+00   -1.256E+00
    -1.275E+00   -1.294E+00   -1.313E+00   -1.332E+00   -1.351E+00   -1.370E+00   -1.388E+00   -1.407E+00   -1.426E+00   -1.445E+00
    -1.463E+00   -1.482E+00   -1.500E+00   -1.519E+00   -1.537E+00   -1.555E+00   -1.574E+00   -1.592E+00   -1.610E+00   -1.628E+00
    -1.646E+00   -1.664E+00   -1.682E+00   -1.700E+00   -1.718E+00   -1.736E+00   -1.754E+00   -1.772E+00   -1.789E+00   -1.807E+00
    -1.825E+00   -1.842E+00   -1.860E+00   -1.878E+00   -1.895E+00   -1.912E+00   -1.930E+00   -1.947E+00   -1.964E+00   -1.982E+00
    -1.999E+00   -2.016E+00   -2.033E+00   -2.050E+00   -2.068E+00   -2.085E+00   -2.102E+00   -2.119E+00   -2.135E+00   -2.152E+00
    -2.169E+00   -2.186E+00   -2.203E+00   -2.220E+00   -2.236E+00   -2.253E+00   -2.270E+00   -2.286E+00   -2.303E+00   -2.319E+00
    -2.336E+00   -2.352E+00   -2.369E+00   -2.385E+00   -2.402E+00   -2.418E+00   -2.434E+00   -2.451E+00   -2.467E+00   -2.483E+00
    -2.499E+00   -2.516E+00   -2.532E+00   -2.548E+00   -2.564E+00   -2.580E+00   -2.596E+00   -2.612E+00   -2.628E+00   -2.644E+00
    -2.660E+00   -2.676E+00   -2.692E+00   -2.708E+00   -2.724E+00   -2.740E+00   -2.756E+00   -2.772E+00   -2.787E+00   -2.803E+00
    -2.819E+00   -2.835E+00   -2.850E+00   -2.866E+00   -2.882E+00   -2.898E+00   -2.913E+00   -2.929E+00   -2.944E+00   -2.960E+00
    -2.976E+00   -2.991E+00   -3.007E+00   -3.022E+00   -3.038E+00   -3.054E+00   -3.069E+00   -3.085E+00   -3.100E+00   -3.116E+00
    -3.131E+00   -3.147E+00   -3.162E+00   -3.178E+00   -3.193E+00   -3.209E+00   -3.224E+00   -3.239E+00   -3.255E+00   -3.270E+00
    -3.286E+00   -3.301E+00   -3.317E+00   -3.332E+00   -3.347E+00   -3.363E+00   -3.378E+00   -3.394E+00   -3.409E+00   -3.424E+00
    -3.440E+00   -3.455E+00   -3.470E+00   -3.486E+00   -3.501E+00   -3.517E+00   -3.532E+00   -3.547E+00
 Ala      Conc. = 2.67E+02
