 LCModel (Version 6.3-1L) Copyright: S.W. Provencher.          Ref.: Magn. Reson. Med. 30:672-679 (1993).                
 Slice#3 Row#8 Col#12  PD_24_press_2_raw_act
 36 lines in following concentration table = NCONC+1
    Conc.  %SD /Cr+PCr  Metabolite                                         
    0.000 999%   0.000 Ala                                                 
   20.633  40%   0.126 Asp                                                 
    0.000 999%   0.000 Cr                                                  
  163.903  43%   1.000 PCr                                                 
   12.413  40% 7.6E-02 GABA                                                
   12.452  40% 7.6E-02 Glc                                                 
    0.000 999%   0.000 Gln                                                 
 6.06E+03  13%  36.953 Glu                                                 
    0.000 999%   0.000 GPC                                                 
   83.367  33%   0.509 PCh                                                 
    0.000 999%   0.000 GSH                                                 
  862.050  40%   5.260 Ins                                                 
    0.000 999%   0.000 Lac                                                 
    0.000 999%   0.000 NAA                                                 
    0.000 999%   0.000 NAAG                                                
    4.191  40% 2.6E-02 Scyllo                                              
   21.033  39%   0.128 Tau                                                 
   15.531  74% 9.5E-02 -CrCH2                                              
   83.367  33%   0.509 GPC+PCh                                             
    0.000 999%   0.000 NAA+NAAG                                            
  163.903  43%   1.000 Cr+PCr                                              
 6.06E+03  13%  36.953 Glu+Gln                                             
 1.50E+04  10%  91.650 Lip13a                                              
    0.000 999%   0.000 Lip13b                                              
 4.36E+03  12%  26.617 Lip09                                               
    0.000 999%   0.000 MM09                                                
 2.27E+03  21%  13.852 Lip20                                               
  312.725 127%   1.908 MM20                                                
    0.000 999%   0.000 MM12                                                
    0.000 999%   0.000 MM14                                                
 9.62E+03   5%  58.717+MM17                                                
 1.50E+04  10%  91.650 Lip13a+Lip13b                                       
 1.50E+04  10%  91.650 MM14+Lip13a+Lip13b+MM12                             
 4.36E+03  12%  26.617 MM09+Lip09                                          
 2.58E+03  16%  15.760 MM20+Lip20                                          
   6 lines in following misc. output table
  FWHM = 0.168 ppm    S/N =  12                                            
  Data shift = 0.183 ppm                                                   
  Ph:  57 deg      17.3 deg/ppm                                            
  alphaB,S = 6.7E+00,   9.3E+01                                            
    6 spline knots.   Ns = 9(2)                                            
  (12) 5 infls.   ( 8) 2 extrs.                                            
  498 points on ppm-axis = NY
      4.000000     3.992357     3.984714     3.977070     3.969427     3.961784     3.954141     3.946497     3.938854     3.931211
      3.923568     3.915925     3.908281     3.900638     3.892995     3.885352     3.877708     3.870065     3.862422     3.854779
      3.847136     3.839492     3.831849     3.824206     3.816563     3.808919     3.801276     3.793633     3.785990     3.778347
      3.770703     3.763060     3.755417     3.747774     3.740130     3.732487     3.724844     3.717201     3.709558     3.701914
      3.694271     3.686628     3.678985     3.671341     3.663698     3.656055     3.648412     3.640769     3.633125     3.625482
      3.617839     3.610196     3.602552     3.594909     3.587266     3.579623     3.571980     3.564336     3.556693     3.549050
      3.541407     3.533763     3.526120     3.518477     3.510834     3.503191     3.495547     3.487904     3.480261     3.472618
      3.464974     3.457331     3.449688     3.442045     3.434402     3.426758     3.419115     3.411472     3.403829     3.396185
      3.388542     3.380899     3.373256     3.365613     3.357969     3.350326     3.342683     3.335040     3.327396     3.319753
      3.312110     3.304467     3.296824     3.289180     3.281537     3.273894     3.266251     3.258607     3.250964     3.243321
      3.235678     3.228034     3.220391     3.212748     3.205105     3.197462     3.189818     3.182175     3.174532     3.166889
      3.159245     3.151602     3.143959     3.136316     3.128673     3.121029     3.113386     3.105743     3.098100     3.090456
      3.082813     3.075170     3.067527     3.059884     3.052240     3.044597     3.036954     3.029311     3.021667     3.014024
      3.006381     2.998738     2.991095     2.983451     2.975808     2.968165     2.960522     2.952878     2.945235     2.937592
      2.929949     2.922306     2.914662     2.907019     2.899376     2.891733     2.884089     2.876446     2.868803     2.861160
      2.853517     2.845873     2.838230     2.830587     2.822944     2.815300     2.807657     2.800014     2.792371     2.784728
      2.777084     2.769441     2.761798     2.754155     2.746511     2.738868     2.731225     2.723582     2.715939     2.708295
      2.700652     2.693009     2.685366     2.677722     2.670079     2.662436     2.654793     2.647150     2.639506     2.631863
      2.624220     2.616577     2.608933     2.601290     2.593647     2.586004     2.578361     2.570717     2.563074     2.555431
      2.547788     2.540144     2.532501     2.524858     2.517215     2.509572     2.501928     2.494285     2.486642     2.478999
      2.471355     2.463712     2.456069     2.448426     2.440783     2.433139     2.425496     2.417853     2.410210     2.402566
      2.394923     2.387280     2.379637     2.371994     2.364350     2.356707     2.349064     2.341421     2.333777     2.326134
      2.318491     2.310848     2.303205     2.295561     2.287918     2.280275     2.272632     2.264988     2.257345     2.249702
      2.242059     2.234416     2.226772     2.219129     2.211486     2.203843     2.196199     2.188556     2.180913     2.173270
      2.165627     2.157983     2.150340     2.142697     2.135054     2.127410     2.119767     2.112124     2.104481     2.096838
      2.089194     2.081551     2.073908     2.066265     2.058621     2.050978     2.043335     2.035692     2.028049     2.020405
      2.012762     2.005119     1.997476     1.989833     1.982190     1.974546     1.966903     1.959260     1.951617     1.943974
      1.936331     1.928688     1.921045     1.913402     1.905759     1.898115     1.890472     1.882829     1.875186     1.867543
      1.859900     1.852257     1.844614     1.836971     1.829327     1.821684     1.814041     1.806398     1.798755     1.791112
      1.783469     1.775826     1.768183     1.760540     1.752896     1.745253     1.737610     1.729967     1.722324     1.714681
      1.707038     1.699395     1.691752     1.684108     1.676465     1.668822     1.661179     1.653536     1.645893     1.638250
      1.630607     1.622964     1.615321     1.607677     1.600034     1.592391     1.584748     1.577105     1.569462     1.561819
      1.554176     1.546533     1.538890     1.531246     1.523603     1.515960     1.508317     1.500674     1.493031     1.485388
      1.477745     1.470102     1.462458     1.454815     1.447172     1.439529     1.431886     1.424243     1.416600     1.408957
      1.401314     1.393671     1.386027     1.378384     1.370741     1.363098     1.355455     1.347812     1.340169     1.332526
      1.324883     1.317240     1.309596     1.301953     1.294310     1.286667     1.279024     1.271381     1.263738     1.256095
      1.248452     1.240808     1.233165     1.225522     1.217879     1.210236     1.202593     1.194950     1.187307     1.179664
      1.172021     1.164377     1.156734     1.149091     1.141448     1.133805     1.126162     1.118519     1.110876     1.103233
      1.095590     1.087946     1.080303     1.072660     1.065017     1.057374     1.049731     1.042088     1.034445     1.026802
      1.019158     1.011515     1.003872     0.996229     0.988586     0.980943     0.973300     0.965657     0.958014     0.950371
      0.942727     0.935084     0.927441     0.919798     0.912155     0.904512     0.896869     0.889226     0.881583     0.873940
      0.866296     0.858653     0.851010     0.843367     0.835724     0.828081     0.820438     0.812795     0.805152     0.797508
      0.789865     0.782222     0.774579     0.766936     0.759293     0.751650     0.744007     0.736364     0.728721     0.721077
      0.713434     0.705791     0.698148     0.690505     0.682862     0.675219     0.667576     0.659933     0.652290     0.644646
      0.637003     0.629360     0.621717     0.614074     0.606431     0.598788     0.591145     0.583502     0.575858     0.568215
      0.560572     0.552929     0.545286     0.537643     0.530000     0.522357     0.514714     0.507071     0.499427     0.491784
      0.484141     0.476498     0.468855     0.461212     0.453569     0.445925     0.438282     0.430639     0.422996     0.415353
      0.407710     0.400067     0.392424     0.384780     0.377137     0.369494     0.361851     0.354208     0.346565     0.338922
      0.331278     0.323635     0.315992     0.308349     0.300706     0.293063     0.285420     0.277777     0.270133     0.262490
      0.254847     0.247204     0.239561     0.231918     0.224275     0.216631     0.208988     0.201345
 NY phased data points follow
   5.28304E+00 -1.21366E+00  1.50091E+00 -8.33651E-01  9.54897E-01 -9.90465E-01  9.28699E-01  9.93637E-01  1.22017E+00  1.74154E-01
  -2.52537E+00  6.64227E-01 -4.87542E-02  6.52363E-01  3.04397E+00  1.44994E+00  3.73567E-01  6.11910E-01  2.63959E+00  5.16159E-01
   8.58717E-01 -1.05674E+00 -1.14554E+00  1.44462E+00  4.44185E+00  8.36701E-01  3.71500E+00 -1.96321E+00  1.33451E+00  5.37227E-01
   2.43150E-01 -2.87490E+00  9.09560E-01 -1.29447E-01  3.28807E+00  2.66167E+00 -1.97576E+00  3.91395E+00  1.92044E+00 -6.22260E-01
   2.06419E+00 -1.21396E+00  1.78445E+00 -5.07244E-01  4.32942E+00 -6.34084E-01  3.19313E+00  2.53735E+00  1.45927E+00  1.39796E+00
   2.46399E+00  3.59351E+00  2.82331E+00 -2.85496E-01  1.32105E+00 -9.55064E-01  2.05906E+00 -1.13340E+00 -2.70964E+00  2.52512E+00
   6.66794E-01 -1.55737E+00  7.38861E-01  1.77298E+00  4.70136E-01  1.48046E+00  1.21477E+00  3.86190E+00  1.29360E-01  8.57489E-02
   3.39690E+00  3.70942E+00  3.06213E+00  2.49339E+00  1.92943E+00 -7.61548E-01  1.09168E+00 -9.52389E-01 -4.11514E+00 -7.63680E-01
   1.36821E+00  1.26864E+00  5.19743E-01  6.30722E-01 -4.26277E-01 -3.94832E+00 -3.56739E+00 -2.34530E+00  8.59580E-01 -8.47942E-01
   5.55340E-01 -1.20488E+00  1.16621E+00  1.25898E+00  2.68424E+00  2.53026E+00  1.20862E+00  1.01195E+00  1.81258E+00  5.53835E-01
  -3.66660E+00  9.89243E-02 -1.97936E-02  1.11475E+00  5.26821E+00  2.60843E+00  2.75509E+00  2.64009E+00 -2.81762E-01 -9.76939E-01
   4.10864E+00  1.12631E+00 -1.51309E+00  3.54833E+00 -5.97739E-01 -2.79101E+00  2.95760E+00  1.23983E+00  4.32326E+00  3.99642E+00
   2.79517E+00  7.82008E-02  2.35317E+00 -3.72083E+00  2.93231E+00  3.95651E+00  7.13951E-01  1.56786E+00  1.62911E-01  3.87851E+00
  -1.22423E+00  1.78070E+00  1.04657E+00  3.81556E+00  2.08106E+00 -1.16820E+00  3.77962E+00  2.71097E+00  1.88125E+00  1.86429E+00
   7.36836E-01  2.19648E+00  4.12982E+00 -5.09584E-01  2.39479E+00  5.87924E+00  3.11538E+00  2.62348E+00  1.85418E+00  1.78359E+00
   4.07621E+00  1.55615E+00  5.46122E+00  3.16449E-01  2.52731E+00  4.48582E+00  1.62139E+00  4.00881E+00  5.04079E+00  5.16391E+00
   1.18923E+00  1.07057E-01  4.14789E+00  2.20584E+00  1.65533E+00  2.54321E+00  3.24378E+00  3.93480E+00  2.99691E+00  3.16572E+00
   6.88972E+00  2.49697E+00  3.10816E+00  3.66761E+00  3.06191E+00 -2.05957E+00 -2.07819E+00 -2.10326E-01  3.59740E+00  1.81903E+00
   2.10826E+00  2.11827E+00  4.98370E+00  1.55972E+00  2.02853E+00  3.67064E+00  2.38692E+00 -9.47041E-01  1.71326E+00  5.13809E-01
   1.06986E+00  1.65561E+00  4.39573E+00  7.08510E+00  6.13532E+00  8.27364E+00  3.76915E+00  1.50516E+00  4.14564E+00  2.25042E+00
   3.63679E+00  1.95453E+00  3.59579E+00  5.14911E+00  3.27955E+00  7.47640E+00  4.72330E+00  3.55525E+00  3.28276E+00  5.19751E+00
   2.54997E+00 -2.60915E-01  1.91496E+00  1.12161E+00  3.72245E+00  2.89181E+00 -2.42024E+00  3.46262E+00  2.31517E-01  6.55541E-01
   8.97331E-01  3.49529E+00  3.75552E+00  2.54659E+00  2.46129E+00  6.01746E+00  6.41222E+00  2.61740E+00  3.68749E+00  1.02878E+00
   5.02525E+00  2.97406E+00  3.00893E-01  4.46492E+00  2.02219E+00  8.76099E+00  1.53571E+01  1.83171E+01  2.23761E+01  2.30116E+01
   1.62259E+01  1.26380E+01  1.46408E+01  8.58442E+00  9.48971E+00  8.23736E+00  1.15525E+01  5.89128E+00  1.04652E+01  8.29060E+00
   6.17931E+00  1.05895E+01  1.22839E+01  9.82674E+00  1.36787E+01  1.42564E+01  1.19895E+01  1.07829E+01  1.40666E+01  1.35321E+01
   1.29787E+01  1.15075E+01  1.56397E+01  1.27837E+01  1.15286E+01  1.37441E+01  1.04213E+01  1.37690E+01  1.27938E+01  9.81323E+00
   1.42441E+01  1.22874E+01  1.38623E+01  1.22251E+01  1.45725E+01  1.22809E+01  1.67986E+01  1.47169E+01  1.41665E+01  1.54145E+01
   1.62946E+01  1.22766E+01  1.37102E+01  1.35867E+01  1.38808E+01  1.59798E+01  1.71418E+01  1.11849E+01  1.80937E+01  1.78755E+01
   1.75323E+01  1.78312E+01  2.16325E+01  2.20342E+01  2.14188E+01  2.64604E+01  2.80490E+01  2.89845E+01  3.31633E+01  3.47384E+01
   3.70226E+01  4.29685E+01  4.66756E+01  5.18366E+01  5.40383E+01  5.37543E+01  6.44474E+01  6.34404E+01  6.80641E+01  6.18428E+01
   6.34995E+01  6.53369E+01  6.55248E+01  6.79006E+01  6.52150E+01  6.34953E+01  6.14752E+01  5.42740E+01  5.86038E+01  5.00278E+01
   5.21961E+01  4.83728E+01  5.07210E+01  4.17351E+01  4.22494E+01  3.81305E+01  3.40061E+01  3.52739E+01  3.47058E+01  2.91916E+01
   2.98112E+01  2.98873E+01  3.09495E+01  2.91336E+01  3.09834E+01  2.77980E+01  3.04008E+01  2.43225E+01  2.62372E+01  2.58220E+01
   2.62094E+01  2.84296E+01  2.76518E+01  2.55706E+01  2.87381E+01  2.85333E+01  2.93947E+01  2.93395E+01  2.91481E+01  2.77056E+01
   3.28100E+01  2.87383E+01  2.92974E+01  3.39337E+01  2.85412E+01  3.12383E+01  3.45658E+01  3.47049E+01  3.38173E+01  3.34511E+01
   3.07807E+01  3.16346E+01  3.64249E+01  3.51251E+01  3.34512E+01  3.44156E+01  3.47614E+01  3.48949E+01  3.24243E+01  3.41341E+01
   3.40033E+01  3.03591E+01  3.30757E+01  3.17431E+01  2.99187E+01  3.27084E+01  3.32586E+01  3.23957E+01  3.14537E+01  3.07455E+01
   2.81436E+01  2.97789E+01  2.89444E+01  2.80396E+01  3.05161E+01  2.50895E+01  2.59041E+01  2.49601E+01  3.01950E+01  2.62350E+01
   2.68124E+01  2.67659E+01  2.70288E+01  2.49022E+01  2.67832E+01  2.89148E+01  2.30094E+01  2.18020E+01  2.49131E+01  2.44980E+01
   2.28610E+01  2.29867E+01  2.38629E+01  1.96417E+01  2.13292E+01  2.13504E+01  1.97504E+01  2.16901E+01  1.97862E+01  2.03979E+01
   1.87481E+01  1.96732E+01  2.10186E+01  2.08915E+01  1.68482E+01  1.91418E+01  1.86004E+01  1.73646E+01  1.78788E+01  1.63109E+01
   1.73770E+01  1.86865E+01  1.80062E+01  1.61667E+01  1.37489E+01  1.35909E+01  1.37620E+01  1.31911E+01  1.72056E+01  1.74075E+01
   1.68045E+01  1.37487E+01  1.39057E+01  1.45065E+01  1.41547E+01  1.02595E+01  1.19792E+01  7.38926E+00  1.17946E+01  1.26829E+01
   9.70021E+00  7.41493E+00  8.34220E+00  1.00032E+01  9.85614E+00  9.08086E+00  8.53900E+00  2.44583E+00  7.21113E+00  7.98724E+00
   5.85471E+00  8.23620E+00  3.32504E+00  4.70120E+00  6.27465E+00  6.54336E+00  5.30775E+00  1.16230E+00  6.13906E-01  1.42831E+00
   2.27195E+00  1.23028E+00 -6.19594E-01 -5.60421E-01  3.82611E+00 -2.60815E-01  2.17578E-01  1.83863E+00  3.65765E+00  9.24343E-01
   7.91643E-01 -2.39068E+00 -1.12869E+00 -4.67184E+00 -2.91678E+00 -1.10670E+00 -2.44318E+00 -5.96667E+00 -2.55125E+00 -2.98790E+00
  -3.27542E+00  3.76052E-01 -4.71081E+00 -2.71361E+00 -4.61412E+00 -3.97454E+00 -5.37168E+00 -4.36580E+00 -3.57599E+00 -3.28617E+00
  -5.81908E+00 -4.92328E+00 -3.54006E+00 -6.40715E+00 -5.10550E+00 -6.89288E+00 -6.68142E+00 -5.61842E+00
 NY points of the fit to the data follow
   1.79636E-01  2.34897E-01  9.83321E-02  8.06915E-02 -1.00860E-01 -1.54236E-01 -2.83344E-01 -2.68705E-01 -2.47592E-01 -1.70689E-01
  -1.45453E-01  4.97949E-02 -3.63094E-02  3.76428E-01  2.55916E-01  7.81123E-01  5.50170E-01  1.19093E+00  6.61289E-01  1.44138E+00
   7.99371E-01  1.76339E+00  1.24425E+00  2.25843E+00  1.64598E+00  2.49167E+00  1.50700E+00  2.27807E+00  1.29807E+00  2.24016E+00
   1.64935E+00  2.62207E+00  2.26066E+00  3.07790E+00  2.54311E+00  3.08821E+00  2.49799E+00  2.82222E+00  2.43633E+00  2.65028E+00
   2.68743E+00  2.73705E+00  3.19858E+00  2.98113E+00  3.56694E+00  2.79321E+00  2.79681E+00  1.53421E+00  9.18494E-01  3.71043E-02
   4.56818E-01  4.66302E-01  1.58608E+00  1.92489E+00  2.40519E+00  2.06413E+00  1.45962E+00  8.38664E-01  3.35234E-01 -1.79683E-01
  -1.04872E-01 -4.62502E-01 -4.65442E-01 -7.91059E-01 -6.71853E-01 -7.41132E-01 -3.74715E-01 -2.64308E-01  1.46271E-01  3.80780E-02
   1.72169E-01 -1.27097E-01 -6.73007E-02 -4.10688E-01 -4.07644E-01 -7.32125E-01 -7.32789E-01 -9.62018E-01 -8.91840E-01 -1.02216E+00
  -8.65161E-01 -1.01054E+00 -9.11319E-01 -1.10206E+00 -1.08504E+00 -1.17884E+00 -1.16089E+00 -1.14168E+00 -1.05274E+00 -9.48132E-01
  -7.29381E-01 -5.35287E-01 -1.78053E-01 -7.95298E-03  3.65518E-01  4.00424E-01  7.56409E-01  6.62064E-01  9.92895E-01  8.97246E-01
   1.25798E+00  1.24714E+00  1.63351E+00  1.57602E+00  1.90264E+00  1.68591E+00  1.90032E+00  1.53853E+00  1.70146E+00  1.38476E+00
   1.60153E+00  1.34133E+00  1.57923E+00  1.36413E+00  1.55867E+00  1.33838E+00  1.33899E+00  1.15870E+00  9.41447E-01  9.53044E-01
   7.07909E-01  1.13627E+00  1.03200E+00  1.70746E+00  1.67391E+00  2.07324E+00  1.93239E+00  2.28774E+00  2.11114E+00  2.40794E+00
   2.22330E+00  2.48484E+00  2.31220E+00  2.54914E+00  2.37523E+00  2.54301E+00  2.36520E+00  2.44351E+00  2.24715E+00  2.16092E+00
   1.99208E+00  1.79157E+00  1.74075E+00  1.58846E+00  1.72774E+00  1.83151E+00  2.08083E+00  2.37513E+00  2.52332E+00  2.64200E+00
   2.74395E+00  2.84247E+00  2.92277E+00  3.00050E+00  3.06016E+00  3.11571E+00  3.15444E+00  3.18790E+00  3.20172E+00  3.21391E+00
   3.20234E+00  3.19223E+00  3.15749E+00  3.12834E+00  3.07784E+00  3.03284E+00  2.96892E+00  2.90998E+00  2.83480E+00  2.76653E+00
   2.68871E+00  2.61741E+00  2.54400E+00  2.47496E+00  2.40989E+00  2.34562E+00  2.29289E+00  2.23632E+00  2.19835E+00  2.15426E+00
   2.13662E+00  2.11340E+00  2.11971E+00  2.12303E+00  2.15751E+00  2.20077E+00  2.28003E+00  2.38738E+00  2.53217E+00  2.65693E+00
   2.84675E+00  2.96982E+00  3.08299E+00  3.21111E+00  3.19413E+00  3.33905E+00  3.22559E+00  3.55319E+00  3.58016E+00  4.09142E+00
   4.28891E+00  4.92926E+00  5.44522E+00  6.03316E+00  6.80882E+00  6.82206E+00  7.45089E+00  6.74176E+00  6.69422E+00  5.42325E+00
   4.70029E+00  3.34549E+00  2.82507E+00  2.00171E+00  2.21156E+00  1.96903E+00  2.40624E+00  2.39279E+00  2.58318E+00  2.55023E+00
   2.53421E+00  2.59958E+00  3.00971E+00  3.36977E+00  4.09440E+00  4.36444E+00  4.71934E+00  4.40219E+00  3.32333E+00  2.95940E+00
   1.27068E+00  1.74904E+00  1.52333E+00  3.54006E+00  6.12064E+00  8.89473E+00  1.25898E+01  1.38756E+01  1.54622E+01  1.45916E+01
   1.43749E+01  1.18022E+01  1.11075E+01  8.96475E+00  9.74764E+00  9.20087E+00  1.01917E+01  9.92787E+00  1.08883E+01  1.05652E+01
   1.13457E+01  1.11192E+01  1.18377E+01  1.20316E+01  1.26145E+01  1.32819E+01  1.32384E+01  1.42071E+01  1.33135E+01  1.43149E+01
   1.28437E+01  1.36428E+01  1.24154E+01  1.33678E+01  1.26436E+01  1.38825E+01  1.33364E+01  1.41667E+01  1.34773E+01  1.38181E+01
   1.29425E+01  1.30276E+01  1.25066E+01  1.27752E+01  1.24576E+01  1.25303E+01  1.19478E+01  1.18963E+01  1.12779E+01  1.13532E+01
   1.13666E+01  1.16758E+01  1.21200E+01  1.24261E+01  1.31327E+01  1.35100E+01  1.41773E+01  1.47919E+01  1.56065E+01  1.63799E+01
   1.74073E+01  1.85537E+01  2.00091E+01  2.17261E+01  2.37752E+01  2.60327E+01  2.85198E+01  3.12330E+01  3.41059E+01  3.71657E+01
   4.03164E+01  4.35599E+01  4.68380E+01  5.00790E+01  5.32053E+01  5.61453E+01  5.88173E+01  6.11554E+01  6.30919E+01  6.45756E+01
   6.55743E+01  6.60569E+01  6.60226E+01  6.54803E+01  6.44597E+01  6.30000E+01  6.11587E+01  5.89972E+01  5.65887E+01  5.40048E+01
   5.13196E+01  4.86035E+01  4.59182E+01  4.33220E+01  4.08578E+01  3.85631E+01  3.64637E+01  3.45779E+01  3.29137E+01  3.14737E+01
   3.02524E+01  2.92417E+01  2.84280E+01  2.77974E+01  2.73330E+01  2.70190E+01  2.68382E+01  2.67757E+01  2.68156E+01  2.69452E+01
   2.71507E+01  2.74213E+01  2.77457E+01  2.81149E+01  2.85191E+01  2.89511E+01  2.94021E+01  2.98660E+01  3.03348E+01  3.08033E+01
   3.12642E+01  3.17127E+01  3.21423E+01  3.25488E+01  3.29264E+01  3.32716E+01  3.35795E+01  3.38475E+01  3.40716E+01  3.42502E+01
   3.43807E+01  3.44626E+01  3.44942E+01  3.44766E+01  3.44092E+01  3.42942E+01  3.41323E+01  3.39267E+01  3.36791E+01  3.33936E+01
   3.30727E+01  3.27211E+01  3.23419E+01  3.19401E+01  3.15190E+01  3.10838E+01  3.06377E+01  3.01859E+01  2.97314E+01  2.92788E+01
   2.88307E+01  2.83915E+01  2.79629E+01  2.75488E+01  2.71502E+01  2.67702E+01  2.64093E+01  2.60696E+01  2.57509E+01  2.54545E+01
   2.51796E+01  2.49266E+01  2.46938E+01  2.44812E+01  2.42864E+01  2.41084E+01  2.39444E+01  2.37930E+01  2.36508E+01  2.35159E+01
   2.33845E+01  2.32548E+01  2.31228E+01  2.29864E+01  2.28418E+01  2.26871E+01  2.25189E+01  2.23357E+01  2.21344E+01  2.19142E+01
   2.16726E+01  2.14094E+01  2.11230E+01  2.08140E+01  2.04815E+01  2.01267E+01  1.97494E+01  1.93516E+01  1.89338E+01  1.84984E+01
   1.80462E+01  1.75801E+01  1.71012E+01  1.66125E+01  1.61151E+01  1.56121E+01  1.51047E+01  1.45956E+01  1.40859E+01  1.35781E+01
   1.30730E+01  1.25728E+01  1.20779E+01  1.15903E+01  1.11101E+01  1.06390E+01  1.01767E+01  9.72460E+00  9.28218E+00  8.85070E+00
   8.42929E+00  8.01907E+00  7.61899E+00  7.23002E+00  6.85099E+00  6.48277E+00  6.12409E+00  5.77573E+00  5.43639E+00  5.10681E+00
   4.78565E+00  4.47364E+00  4.16940E+00  3.87366E+00  3.58508E+00  3.30436E+00  3.03016E+00  2.76322E+00  2.50221E+00  2.24787E+00
   1.99890E+00  1.75607E+00  1.51810E+00  1.28577E+00  1.05783E+00  8.35064E-01  6.16253E-01  4.02209E-01  1.91720E-01 -1.43896E-02
  -2.17307E-01 -4.16188E-01 -6.12197E-01 -8.04484E-01 -9.94200E-01 -1.18047E+00 -1.36445E+00 -1.54523E+00 -1.72396E+00 -1.89973E+00
  -2.07368E+00 -2.24489E+00 -2.41448E+00 -2.58152E+00 -2.74712E+00 -2.91037E+00 -3.07236E+00 -3.23216E+00 -3.39087E+00 -3.54755E+00
  -3.70330E+00 -3.85719E+00 -4.01030E+00 -4.16170E+00 -4.31248E+00 -4.46171E+00 -4.61049E+00 -4.75790E+00
 NY background values follow
    -5.899E+00   -5.866E+00   -5.832E+00   -5.799E+00   -5.766E+00   -5.732E+00   -5.699E+00   -5.666E+00   -5.632E+00   -5.599E+00
    -5.566E+00   -5.533E+00   -5.500E+00   -5.467E+00   -5.434E+00   -5.401E+00   -5.369E+00   -5.336E+00   -5.303E+00   -5.271E+00
    -5.238E+00   -5.205E+00   -5.173E+00   -5.141E+00   -5.108E+00   -5.076E+00   -5.044E+00   -5.011E+00   -4.979E+00   -4.947E+00
    -4.915E+00   -4.883E+00   -4.851E+00   -4.819E+00   -4.787E+00   -4.755E+00   -4.723E+00   -4.692E+00   -4.660E+00   -4.628E+00
    -4.597E+00   -4.565E+00   -4.534E+00   -4.502E+00   -4.471E+00   -4.439E+00   -4.408E+00   -4.377E+00   -4.345E+00   -4.314E+00
    -4.283E+00   -4.252E+00   -4.221E+00   -4.190E+00   -4.159E+00   -4.128E+00   -4.097E+00   -4.066E+00   -4.036E+00   -4.005E+00
    -3.974E+00   -3.944E+00   -3.913E+00   -3.882E+00   -3.852E+00   -3.821E+00   -3.791E+00   -3.761E+00   -3.730E+00   -3.700E+00
    -3.670E+00   -3.640E+00   -3.609E+00   -3.579E+00   -3.549E+00   -3.519E+00   -3.489E+00   -3.459E+00   -3.429E+00   -3.399E+00
    -3.370E+00   -3.340E+00   -3.310E+00   -3.280E+00   -3.251E+00   -3.221E+00   -3.192E+00   -3.162E+00   -3.132E+00   -3.103E+00
    -3.074E+00   -3.044E+00   -3.015E+00   -2.986E+00   -2.956E+00   -2.927E+00   -2.898E+00   -2.869E+00   -2.840E+00   -2.811E+00
    -2.782E+00   -2.753E+00   -2.724E+00   -2.695E+00   -2.666E+00   -2.637E+00   -2.608E+00   -2.580E+00   -2.551E+00   -2.522E+00
    -2.493E+00   -2.465E+00   -2.436E+00   -2.408E+00   -2.379E+00   -2.351E+00   -2.322E+00   -2.294E+00   -2.266E+00   -2.237E+00
    -2.209E+00   -2.181E+00   -2.153E+00   -2.124E+00   -2.096E+00   -2.068E+00   -2.040E+00   -2.012E+00   -1.984E+00   -1.956E+00
    -1.928E+00   -1.900E+00   -1.872E+00   -1.844E+00   -1.817E+00   -1.789E+00   -1.761E+00   -1.733E+00   -1.706E+00   -1.678E+00
    -1.650E+00   -1.623E+00   -1.595E+00   -1.568E+00   -1.540E+00   -1.513E+00   -1.485E+00   -1.458E+00   -1.431E+00   -1.403E+00
    -1.376E+00   -1.349E+00   -1.321E+00   -1.294E+00   -1.267E+00   -1.240E+00   -1.213E+00   -1.186E+00   -1.159E+00   -1.132E+00
    -1.105E+00   -1.078E+00   -1.051E+00   -1.024E+00   -9.967E-01   -9.699E-01   -9.430E-01   -9.162E-01   -8.894E-01   -8.626E-01
    -8.359E-01   -8.093E-01   -7.826E-01   -7.561E-01   -7.295E-01   -7.031E-01   -6.767E-01   -6.503E-01   -6.240E-01   -5.978E-01
    -5.717E-01   -5.457E-01   -5.197E-01   -4.938E-01   -4.680E-01   -4.423E-01   -4.167E-01   -3.912E-01   -3.658E-01   -3.405E-01
    -3.153E-01   -2.902E-01   -2.652E-01   -2.404E-01   -2.157E-01   -1.911E-01   -1.666E-01   -1.423E-01   -1.181E-01   -9.409E-02
    -7.019E-02   -4.644E-02   -2.285E-02    5.953E-04    2.388E-02    4.700E-02    6.995E-02    9.273E-02    1.153E-01    1.378E-01
     1.600E-01    1.821E-01    2.040E-01    2.257E-01    2.471E-01    2.684E-01    2.895E-01    3.104E-01    3.311E-01    3.516E-01
     3.718E-01    3.919E-01    4.117E-01    4.312E-01    4.506E-01    4.697E-01    4.886E-01    5.072E-01    5.256E-01    5.438E-01
     5.617E-01    5.793E-01    5.967E-01    6.138E-01    6.307E-01    6.473E-01    6.636E-01    6.796E-01    6.954E-01    7.109E-01
     7.260E-01    7.409E-01    7.556E-01    7.699E-01    7.839E-01    7.976E-01    8.110E-01    8.241E-01    8.368E-01    8.493E-01
     8.614E-01    8.733E-01    8.847E-01    8.959E-01    9.067E-01    9.172E-01    9.273E-01    9.371E-01    9.465E-01    9.556E-01
     9.644E-01    9.727E-01    9.807E-01    9.884E-01    9.957E-01    1.003E+00    1.009E+00    1.015E+00    1.021E+00    1.026E+00
     1.031E+00    1.036E+00    1.040E+00    1.044E+00    1.047E+00    1.050E+00    1.053E+00    1.055E+00    1.057E+00    1.058E+00
     1.059E+00    1.059E+00    1.059E+00    1.059E+00    1.058E+00    1.057E+00    1.055E+00    1.053E+00    1.050E+00    1.047E+00
     1.044E+00    1.040E+00    1.035E+00    1.030E+00    1.025E+00    1.019E+00    1.012E+00    1.006E+00    9.982E-01    9.903E-01
     9.820E-01    9.732E-01    9.638E-01    9.540E-01    9.437E-01    9.328E-01    9.215E-01    9.096E-01    8.972E-01    8.842E-01
     8.708E-01    8.568E-01    8.423E-01    8.273E-01    8.117E-01    7.955E-01    7.789E-01    7.616E-01    7.438E-01    7.255E-01
     7.066E-01    6.871E-01    6.671E-01    6.465E-01    6.253E-01    6.036E-01    5.813E-01    5.584E-01    5.349E-01    5.108E-01
     4.861E-01    4.608E-01    4.350E-01    4.085E-01    3.814E-01    3.538E-01    3.255E-01    2.967E-01    2.672E-01    2.372E-01
     2.067E-01    1.755E-01    1.438E-01    1.115E-01    7.861E-02    4.518E-02    1.119E-02   -2.336E-02   -5.847E-02   -9.413E-02
    -1.303E-01   -1.671E-01   -2.044E-01   -2.422E-01   -2.806E-01   -3.195E-01   -3.590E-01   -3.990E-01   -4.395E-01   -4.805E-01
    -5.221E-01   -5.641E-01   -6.067E-01   -6.498E-01   -6.934E-01   -7.376E-01   -7.822E-01   -8.273E-01   -8.729E-01   -9.191E-01
    -9.657E-01   -1.013E+00   -1.060E+00   -1.108E+00   -1.157E+00   -1.206E+00   -1.256E+00   -1.306E+00   -1.356E+00   -1.407E+00
    -1.458E+00   -1.510E+00   -1.562E+00   -1.615E+00   -1.668E+00   -1.722E+00   -1.776E+00   -1.831E+00   -1.886E+00   -1.941E+00
    -1.997E+00   -2.053E+00   -2.110E+00   -2.167E+00   -2.225E+00   -2.283E+00   -2.341E+00   -2.400E+00   -2.459E+00   -2.519E+00
    -2.579E+00   -2.639E+00   -2.700E+00   -2.761E+00   -2.823E+00   -2.885E+00   -2.948E+00   -3.010E+00   -3.074E+00   -3.137E+00
    -3.201E+00   -3.265E+00   -3.330E+00   -3.395E+00   -3.461E+00   -3.526E+00   -3.592E+00   -3.659E+00   -3.726E+00   -3.793E+00
    -3.861E+00   -3.929E+00   -3.997E+00   -4.065E+00   -4.134E+00   -4.203E+00   -4.273E+00   -4.343E+00   -4.413E+00   -4.484E+00
    -4.555E+00   -4.626E+00   -4.697E+00   -4.769E+00   -4.841E+00   -4.914E+00   -4.986E+00   -5.059E+00   -5.133E+00   -5.206E+00
    -5.280E+00   -5.354E+00   -5.429E+00   -5.504E+00   -5.579E+00   -5.654E+00   -5.730E+00   -5.805E+00   -5.881E+00   -5.958E+00
    -6.034E+00   -6.111E+00   -6.189E+00   -6.266E+00   -6.344E+00   -6.421E+00   -6.500E+00   -6.578E+00   -6.657E+00   -6.735E+00
    -6.814E+00   -6.894E+00   -6.973E+00   -7.053E+00   -7.133E+00   -7.213E+00   -7.294E+00   -7.374E+00   -7.455E+00   -7.536E+00
    -7.617E+00   -7.699E+00   -7.780E+00   -7.862E+00   -7.944E+00   -8.026E+00   -8.109E+00   -8.191E+00   -8.274E+00   -8.357E+00
    -8.440E+00   -8.523E+00   -8.607E+00   -8.690E+00   -8.774E+00   -8.858E+00   -8.942E+00   -9.026E+00   -9.110E+00   -9.195E+00
    -9.280E+00   -9.364E+00   -9.449E+00   -9.534E+00   -9.620E+00   -9.705E+00   -9.790E+00   -9.876E+00
 Asp      Conc. = 2.06E+01
