 LCModel (Version 6.3-1L) Copyright: S.W. Provencher.          Ref.: Magn. Reson. Med. 30:672-679 (1993).                
 Slice#1 Row#12 Col#3  PD_24_press_2_raw_act
 36 lines in following concentration table = NCONC+1
    Conc.  %SD /Cr+PCr  Metabolite                                         
    0.000 999%   0.000 Ala                                                 
   42.346  90%   0.699 Asp                                                 
   53.331 429%   0.881 Cr                                                  
    7.235 999%   0.119 PCr                                                 
   23.172 100%   0.383 GABA                                                
   20.701 111%   0.342 Glc                                                 
  893.222  38%  14.748 Gln                                                 
 2.23E+03  18%  36.791 Glu                                                 
    0.000 999%   0.000 GPC                                                 
    0.000 999%   0.000 PCh                                                 
    0.000 999%   0.000 GSH                                                 
   97.281 180%   1.606 Ins                                                 
    0.000 999%   0.000 Lac                                                 
  626.909  19%  10.351 NAA                                                 
   90.479 148%   1.494 NAAG                                                
    2.091 350% 3.5E-02 Scyllo                                              
   25.078 150%   0.414 Tau                                                 
    0.950 999% 1.6E-02 -CrCH2                                              
    0.000 999%   0.000 GPC+PCh                                             
  717.388   7%  11.845 NAA+NAAG                                            
   60.566  64%   1.000 Cr+PCr                                              
 3.12E+03  19%  51.539 Glu+Gln                                             
    0.000 999%   0.000 Lip13a                                              
    0.000 999%   0.000 Lip13b                                              
    0.000 999%   0.000 Lip09                                               
    0.266 999% 4.4E-03 MM09                                                
 4.29E-03 999% 7.1E-05 Lip20                                               
    0.813 999% 1.3E-02 MM20                                                
    0.000 999%   0.000 MM12                                                
    0.000 999%   0.000 MM14                                                
    1.568 381% 2.6E-02 MM17                                                
    0.000 999%   0.000 Lip13a+Lip13b                                       
    0.000 999%   0.000 MM14+Lip13a+Lip13b+MM12                             
    0.266 999% 4.4E-03 MM09+Lip09                                          
    0.817 999% 1.3E-02 MM20+Lip20                                          
   6 lines in following misc. output table
  FWHM = 0.122 ppm    S/N =   3                                            
  Data shift = 0.336 ppm                                                   
  Ph:   7 deg      75.2 deg/ppm                                            
  alphaB,S = 7.5E-01,   1.0E+02                                            
   14 spline knots.   Ns =11(1)                                            
  (21) 4 infls.   (21) 1 extrs.                                            
  498 points on ppm-axis = NY
      4.000000     3.992357     3.984714     3.977070     3.969427     3.961784     3.954141     3.946497     3.938854     3.931211
      3.923568     3.915925     3.908281     3.900638     3.892995     3.885352     3.877708     3.870065     3.862422     3.854779
      3.847136     3.839492     3.831849     3.824206     3.816563     3.808919     3.801276     3.793633     3.785990     3.778347
      3.770703     3.763060     3.755417     3.747774     3.740130     3.732487     3.724844     3.717201     3.709558     3.701914
      3.694271     3.686628     3.678985     3.671341     3.663698     3.656055     3.648412     3.640769     3.633125     3.625482
      3.617839     3.610196     3.602552     3.594909     3.587266     3.579623     3.571980     3.564336     3.556693     3.549050
      3.541407     3.533763     3.526120     3.518477     3.510834     3.503191     3.495547     3.487904     3.480261     3.472618
      3.464974     3.457331     3.449688     3.442045     3.434402     3.426758     3.419115     3.411472     3.403829     3.396185
      3.388542     3.380899     3.373256     3.365613     3.357969     3.350326     3.342683     3.335040     3.327396     3.319753
      3.312110     3.304467     3.296824     3.289180     3.281537     3.273894     3.266251     3.258607     3.250964     3.243321
      3.235678     3.228034     3.220391     3.212748     3.205105     3.197462     3.189818     3.182175     3.174532     3.166889
      3.159245     3.151602     3.143959     3.136316     3.128673     3.121029     3.113386     3.105743     3.098100     3.090456
      3.082813     3.075170     3.067527     3.059884     3.052240     3.044597     3.036954     3.029311     3.021667     3.014024
      3.006381     2.998738     2.991095     2.983451     2.975808     2.968165     2.960522     2.952878     2.945235     2.937592
      2.929949     2.922306     2.914662     2.907019     2.899376     2.891733     2.884089     2.876446     2.868803     2.861160
      2.853517     2.845873     2.838230     2.830587     2.822944     2.815300     2.807657     2.800014     2.792371     2.784728
      2.777084     2.769441     2.761798     2.754155     2.746511     2.738868     2.731225     2.723582     2.715939     2.708295
      2.700652     2.693009     2.685366     2.677722     2.670079     2.662436     2.654793     2.647150     2.639506     2.631863
      2.624220     2.616577     2.608933     2.601290     2.593647     2.586004     2.578361     2.570717     2.563074     2.555431
      2.547788     2.540144     2.532501     2.524858     2.517215     2.509572     2.501928     2.494285     2.486642     2.478999
      2.471355     2.463712     2.456069     2.448426     2.440783     2.433139     2.425496     2.417853     2.410210     2.402566
      2.394923     2.387280     2.379637     2.371994     2.364350     2.356707     2.349064     2.341421     2.333777     2.326134
      2.318491     2.310848     2.303205     2.295561     2.287918     2.280275     2.272632     2.264988     2.257345     2.249702
      2.242059     2.234416     2.226772     2.219129     2.211486     2.203843     2.196199     2.188556     2.180913     2.173270
      2.165627     2.157983     2.150340     2.142697     2.135054     2.127410     2.119767     2.112124     2.104481     2.096838
      2.089194     2.081551     2.073908     2.066265     2.058621     2.050978     2.043335     2.035692     2.028049     2.020405
      2.012762     2.005119     1.997476     1.989833     1.982190     1.974546     1.966903     1.959260     1.951617     1.943974
      1.936331     1.928688     1.921045     1.913402     1.905759     1.898115     1.890472     1.882829     1.875186     1.867543
      1.859900     1.852257     1.844614     1.836971     1.829327     1.821684     1.814041     1.806398     1.798755     1.791112
      1.783469     1.775826     1.768183     1.760540     1.752896     1.745253     1.737610     1.729967     1.722324     1.714681
      1.707038     1.699395     1.691752     1.684108     1.676465     1.668822     1.661179     1.653536     1.645893     1.638250
      1.630607     1.622964     1.615321     1.607677     1.600034     1.592391     1.584748     1.577105     1.569462     1.561819
      1.554176     1.546533     1.538890     1.531246     1.523603     1.515960     1.508317     1.500674     1.493031     1.485388
      1.477745     1.470102     1.462458     1.454815     1.447172     1.439529     1.431886     1.424243     1.416600     1.408957
      1.401314     1.393671     1.386027     1.378384     1.370741     1.363098     1.355455     1.347812     1.340169     1.332526
      1.324883     1.317240     1.309596     1.301953     1.294310     1.286667     1.279024     1.271381     1.263738     1.256095
      1.248452     1.240808     1.233165     1.225522     1.217879     1.210236     1.202593     1.194950     1.187307     1.179664
      1.172021     1.164377     1.156734     1.149091     1.141448     1.133805     1.126162     1.118519     1.110876     1.103233
      1.095590     1.087946     1.080303     1.072660     1.065017     1.057374     1.049731     1.042088     1.034445     1.026802
      1.019158     1.011515     1.003872     0.996229     0.988586     0.980943     0.973300     0.965657     0.958014     0.950371
      0.942727     0.935084     0.927441     0.919798     0.912155     0.904512     0.896869     0.889226     0.881583     0.873940
      0.866296     0.858653     0.851010     0.843367     0.835724     0.828081     0.820438     0.812795     0.805152     0.797508
      0.789865     0.782222     0.774579     0.766936     0.759293     0.751650     0.744007     0.736364     0.728721     0.721077
      0.713434     0.705791     0.698148     0.690505     0.682862     0.675219     0.667576     0.659933     0.652290     0.644646
      0.637003     0.629360     0.621717     0.614074     0.606431     0.598788     0.591145     0.583502     0.575858     0.568215
      0.560572     0.552929     0.545286     0.537643     0.530000     0.522357     0.514714     0.507071     0.499427     0.491784
      0.484141     0.476498     0.468855     0.461212     0.453569     0.445925     0.438282     0.430639     0.422996     0.415353
      0.407710     0.400067     0.392424     0.384780     0.377137     0.369494     0.361851     0.354208     0.346565     0.338922
      0.331278     0.323635     0.315992     0.308349     0.300706     0.293063     0.285420     0.277777     0.270133     0.262490
      0.254847     0.247204     0.239561     0.231918     0.224275     0.216631     0.208988     0.201345
 NY phased data points follow
  -3.12773E-01 -1.70278E+00 -7.31636E-01 -8.97359E-01 -1.39646E+00 -2.64086E+00 -2.56150E-01 -9.10910E-01  9.85399E-01 -1.22644E+00
  -1.25246E+00  1.90320E-01 -3.14589E+00 -3.27989E+00  1.16352E+00 -2.32986E+00 -1.02888E-01 -9.67914E-01  2.31232E-02 -2.85040E+00
  -2.10918E-01 -8.73967E-02 -1.80945E+00 -6.35068E-01 -2.00743E+00 -1.25954E+00  5.27709E-01 -2.76151E+00 -2.69433E+00 -1.34896E+00
  -2.20098E+00 -1.42566E+00 -4.10905E+00 -5.69173E-01 -2.80278E+00 -2.59584E+00 -6.78490E-01  1.64964E+00 -2.89463E+00 -9.25377E-02
  -1.24845E+00 -3.18629E+00 -4.68593E+00 -3.46687E+00 -2.07161E+00  2.13542E-01 -2.94359E+00 -1.79927E+00 -2.27292E+00 -1.44273E+00
  -3.44264E+00 -1.37582E-01 -1.04225E+00 -2.14328E+00 -1.28220E+00  7.01182E-01 -1.31309E+00 -2.19627E-01 -2.40814E+00 -4.26001E+00
  -4.09446E+00 -3.47835E+00 -4.82426E+00 -3.07423E+00 -8.20321E-01 -1.06370E+00 -1.92651E+00 -1.72444E+00 -2.28825E+00 -3.05699E+00
  -3.48675E+00 -2.45168E+00 -5.65797E-02 -2.16100E-01 -2.61402E+00 -3.03734E+00 -2.84722E+00 -1.16901E+00 -4.31291E-01  1.07461E+00
  -7.71345E-01 -9.91797E-01 -2.52792E+00 -4.34768E+00 -5.99205E+00 -4.67922E+00 -5.57615E+00 -5.03459E+00 -4.51750E+00 -2.33249E+00
  -2.06910E+00 -2.87040E+00 -1.49363E+00 -4.34280E+00 -1.81833E+00 -1.84065E+00 -4.34672E+00 -3.68587E+00 -1.86826E+00 -1.74802E+00
  -3.36615E+00  2.97384E-01 -2.50661E+00 -8.73376E-01 -2.22625E-01 -3.64082E+00 -2.80062E+00 -2.99401E+00 -1.35165E-01 -2.35102E+00
  -4.78023E+00 -2.71749E+00 -2.03815E+00 -8.32536E-01 -2.98636E+00 -2.46324E+00 -3.22058E+00  1.05109E+00 -4.39886E-01 -9.93635E-01
   6.36887E-02 -2.84407E+00 -2.13028E+00 -1.76553E+00 -1.03293E+00 -2.97010E+00 -3.90080E+00 -6.56221E-01 -2.18168E+00 -5.37107E-01
  -6.14558E-01  1.97315E+00 -1.00969E+00 -8.06370E-01  2.89748E-01 -1.20404E+00  1.03024E+00 -3.21808E+00 -2.08502E+00 -6.72036E-01
  -2.85042E+00 -2.08234E+00 -5.83822E-01 -1.60373E+00 -3.44107E+00 -1.42162E+00 -3.14652E+00 -1.38935E+00 -4.52063E+00 -1.83245E+00
  -1.81500E+00 -6.14851E-01 -2.22723E+00 -1.37019E+00 -2.65676E+00  1.03342E-01 -1.77553E+00 -1.91071E+00 -2.11473E+00 -1.45216E+00
  -2.95266E+00 -4.36060E-01 -1.14523E+00 -1.14037E+00 -1.19337E+00 -7.21484E-02 -7.53881E-01 -2.43560E+00 -4.60357E-01 -2.63965E-01
  -1.54489E+00 -2.22762E+00 -7.82818E-01 -2.28807E+00 -8.33061E-01 -1.91578E+00 -1.26418E+00 -1.49384E+00 -9.71246E-01 -1.60856E+00
  -7.35040E-02  1.34605E+00 -1.33144E+00  6.78995E-01 -2.39658E+00  7.54297E-01 -1.91991E+00 -7.28210E-01 -1.28060E-01 -2.57067E-01
  -1.30812E+00 -5.07689E-01  2.63835E+00 -2.30438E+00  5.53584E-01 -3.12470E-01 -4.04557E-01  3.77346E-01 -2.64680E-01  3.18044E+00
   8.69259E-01 -4.55749E-01  2.45536E+00  9.21952E-01  2.24436E+00  2.80050E+00  3.53513E-01  1.09270E-01  1.10775E+00  1.18184E+00
  -8.41099E-01  5.55827E-01 -9.15668E-01 -2.87613E+00 -3.69043E+00 -4.07120E+00 -5.49798E+00 -5.36838E+00 -5.53089E+00 -2.37684E+00
  -8.22235E-01  1.82649E-01 -9.16607E-01  1.80621E+00 -1.18470E+00 -1.45873E+00 -2.68322E+00 -2.23287E+00  1.02021E-01 -1.97242E+00
   2.30333E-02 -2.10409E-02 -7.82501E-01 -1.14890E+00 -1.66677E+00 -5.92584E-01 -3.46241E-01  6.30046E-01  8.62148E-01  2.93395E-01
  -1.31831E-01 -6.74612E-01 -2.18772E+00  3.38256E-01 -2.39731E+00 -1.87866E+00 -2.91665E+00  2.22956E-01 -6.20404E-01 -9.50250E-01
  -1.37367E+00 -1.11411E+00  1.57750E+00  3.09913E+00  4.24075E+00  4.55621E+00  6.38529E+00  8.09231E+00  7.90232E+00  1.05571E+01
   1.11334E+01  9.89964E+00  9.26159E+00  1.02749E+01  1.14194E+01  1.46237E+01  1.29182E+01  1.18258E+01  1.00970E+01  8.77491E+00
   4.69368E+00  6.82061E+00  6.94988E+00  6.76543E+00  4.27698E+00  4.63956E+00  1.28822E+00 -2.64950E-01  1.46574E+00  1.15192E+00
   1.13587E+00  5.46178E+00  4.23048E+00  4.45977E+00  6.61477E+00  7.14546E+00  1.03672E+01  7.25680E+00  7.20985E+00  9.98435E+00
   6.47992E+00  8.31686E+00  6.69607E+00  8.87979E+00  9.36769E+00  7.09476E+00  6.34854E+00  6.86265E+00  9.43937E+00  5.76090E+00
   7.14613E+00  7.79454E+00  4.64126E+00  6.64480E+00  4.73086E+00  5.95576E+00  3.00327E+00  4.91587E+00  4.01917E+00  4.41262E+00
   3.46162E+00  1.95028E+00  4.71272E+00  4.02729E+00  3.93257E+00  6.64904E+00  1.76960E+00  4.69112E-01  1.29925E+00  1.51941E+00
  -1.21065E+00  1.82434E+00 -2.04734E+00 -2.28843E+00  1.76230E+00 -4.61288E-01 -2.11492E+00 -2.95739E-01 -2.32968E+00  2.22285E-01
  -2.47316E-01 -2.14518E-01 -1.18191E-01 -1.23321E+00 -1.91796E+00 -2.07445E+00 -2.83686E+00 -1.05383E+00 -5.27977E-01 -2.34928E+00
  -2.34705E+00  7.85541E-01 -2.18245E+00 -3.11027E+00 -2.76432E+00 -3.36551E+00 -4.90720E-01 -2.40344E-01 -1.23305E+00 -7.20226E-01
  -1.35177E+00 -2.51843E+00 -4.14859E+00 -1.38135E+00 -6.85722E-01 -1.47561E+00  1.28139E+00 -1.16317E+00  1.01520E-02  5.28996E-01
  -2.67733E+00 -9.86254E-01 -1.02587E+00 -2.49284E+00 -2.80970E+00 -2.61791E+00 -2.42463E+00 -1.26355E+00 -8.91354E-01  2.53595E-01
  -1.83049E+00 -8.22964E-01 -1.34580E+00 -2.00401E+00 -2.18916E+00 -6.01552E-01 -1.88350E+00 -1.32167E+00 -1.43794E+00 -7.04386E-01
   1.40796E+00 -6.56145E-01  8.46251E-01 -5.71995E-01 -1.74737E+00  4.41964E-01 -2.24495E+00 -5.00929E-01  2.43346E-01 -1.55644E+00
  -1.09384E+00 -1.68708E+00 -1.17012E+00 -6.92870E-01 -1.29017E+00 -1.01729E+00 -1.97290E-01 -5.65853E-01 -1.18309E+00 -6.52502E-02
   9.54039E-01 -1.78665E+00 -2.37172E+00 -4.08123E-01 -4.56384E+00 -1.01571E+00 -1.03795E+00 -2.41119E+00  1.57727E-01 -1.59304E+00
  -3.17645E+00 -2.77901E+00 -3.32082E+00  3.52063E-01 -9.88991E-02 -1.01909E+00 -2.80479E-01 -2.14952E+00 -1.52146E+00 -6.87893E-01
  -1.67325E+00 -1.83153E+00  5.37620E-01 -1.18081E+00 -5.46664E-01 -9.58415E-01 -8.60440E-01 -5.10844E-01  1.22225E-01 -1.50890E+00
  -1.72876E+00 -3.77731E+00 -5.92462E-01 -1.52262E+00 -2.21436E+00 -3.32178E+00 -1.86208E+00 -2.07808E+00 -2.58238E+00 -1.25704E+00
  -7.98240E-01 -1.17506E+00 -2.40231E+00 -1.06684E+00 -1.37290E-01 -2.77739E+00  1.91527E-01  5.80714E-01  1.80004E-01 -2.17781E+00
  -1.66486E+00 -1.97959E+00 -3.13714E+00 -2.64880E+00 -6.10839E-01 -1.23038E+00 -2.11325E+00 -2.28805E+00 -6.29071E-01 -2.34500E+00
  -8.59051E-01 -1.26481E+00 -7.50843E-01 -1.30121E+00  1.74118E-01 -2.36580E+00 -1.90018E+00 -5.54654E-01 -2.01770E+00  1.91305E+00
  -1.31850E+00  5.57970E-01 -2.61498E+00 -3.72916E-01 -4.96186E-01 -3.40151E-01 -2.81142E+00 -1.12401E-01 -6.76917E-01  6.47040E-01
  -1.97465E+00 -4.00641E-01 -2.65141E-01 -2.17201E+00  3.54803E-01 -8.40573E-01  4.06619E-01 -2.66674E+00  5.12630E-01 -1.02412E+00
  -3.49131E+00  3.55716E-01  1.22172E+00 -2.56931E+00  6.01630E-01 -2.75094E+00 -1.80039E+00 -1.72463E+00
 NY points of the fit to the data follow
  -2.38585E+00 -2.29837E+00 -2.22682E+00 -2.16728E+00 -2.11583E+00 -2.05414E+00 -1.96435E+00 -1.86832E+00 -1.78800E+00 -1.71935E+00
  -1.64986E+00 -1.56512E+00 -1.44262E+00 -1.25364E+00 -9.84916E-01 -7.36468E-01 -7.73385E-01 -1.05295E+00 -1.38258E+00 -1.62023E+00
  -1.65763E+00 -1.43267E+00 -1.05003E+00 -7.59139E-01 -6.40695E-01 -6.22826E-01 -6.25908E-01 -5.52289E-01 -3.31618E-01 -1.90853E-01
  -4.42614E-01 -1.04012E+00 -1.66454E+00 -1.98635E+00 -1.77235E+00 -1.03978E+00 -2.03087E-01  2.17282E-01  1.10194E-01 -3.18767E-01
  -1.01459E+00 -1.63761E+00 -1.87033E+00 -1.79334E+00 -1.72064E+00 -1.72554E+00 -1.66308E+00 -1.57079E+00 -1.51902E+00 -1.42819E+00
  -1.35425E+00 -1.47293E+00 -1.68778E+00 -1.86093E+00 -2.00543E+00 -2.12292E+00 -2.20572E+00 -2.25611E+00 -2.28586E+00 -2.31402E+00
  -2.33869E+00 -2.33803E+00 -2.31098E+00 -2.27275E+00 -2.23139E+00 -2.19504E+00 -2.17325E+00 -2.16563E+00 -2.16519E+00 -2.16264E+00
  -2.15368E+00 -2.14231E+00 -2.13179E+00 -2.12245E+00 -2.11324E+00 -2.09884E+00 -2.08534E+00 -2.07754E+00 -2.07547E+00 -2.07757E+00
  -2.08411E+00 -2.09685E+00 -2.11279E+00 -2.13296E+00 -2.15451E+00 -2.16485E+00 -2.16334E+00 -2.15743E+00 -2.14513E+00 -2.13035E+00
  -2.12247E+00 -2.12299E+00 -2.12682E+00 -2.12723E+00 -2.11851E+00 -2.10023E+00 -2.07939E+00 -2.06196E+00 -2.04896E+00 -2.03119E+00
  -2.00694E+00 -1.98041E+00 -1.95704E+00 -1.93933E+00 -1.92654E+00 -1.91459E+00 -1.90173E+00 -1.88760E+00 -1.87130E+00 -1.85242E+00
  -1.83223E+00 -1.81151E+00 -1.78885E+00 -1.76828E+00 -1.74632E+00 -1.70259E+00 -1.59205E+00 -1.44084E+00 -1.30256E+00 -1.18992E+00
  -1.09552E+00 -9.98683E-01 -8.87363E-01 -7.77071E-01 -6.97333E-01 -6.58046E-01 -6.54663E-01 -6.75814E-01 -6.91108E-01 -6.62188E-01
  -5.86169E-01 -5.18408E-01 -5.23430E-01 -6.12461E-01 -7.43997E-01 -8.73199E-01 -9.76405E-01 -1.05277E+00 -1.13752E+00 -1.24981E+00
  -1.31502E+00 -1.32160E+00 -1.31287E+00 -1.30173E+00 -1.29272E+00 -1.28544E+00 -1.27678E+00 -1.26303E+00 -1.24279E+00 -1.22237E+00
  -1.22325E+00 -1.25104E+00 -1.28432E+00 -1.30513E+00 -1.29866E+00 -1.28237E+00 -1.28702E+00 -1.31540E+00 -1.35278E+00 -1.37986E+00
  -1.38615E+00 -1.37787E+00 -1.37605E+00 -1.40364E+00 -1.47227E+00 -1.57431E+00 -1.67403E+00 -1.71874E+00 -1.70981E+00 -1.68951E+00
  -1.71170E+00 -1.79284E+00 -1.88483E+00 -1.93609E+00 -1.94554E+00 -1.94358E+00 -1.96028E+00 -2.00272E+00 -2.02538E+00 -2.01556E+00
  -1.97574E+00 -1.89040E+00 -1.76935E+00 -1.65536E+00 -1.58536E+00 -1.53919E+00 -1.50805E+00 -1.46634E+00 -1.41378E+00 -1.39258E+00
  -1.42085E+00 -1.39472E+00 -1.23374E+00 -9.33387E-01 -5.48781E-01 -1.37610E-01  2.06302E-01  4.91101E-01  6.42347E-01  5.57253E-01
   1.63858E-01 -3.36418E-01 -7.29715E-01 -9.38343E-01 -7.86006E-01 -2.70839E-01  2.98259E-01  8.25712E-01  1.29821E+00  1.69786E+00
   1.84140E+00  1.48450E+00  5.95048E-01 -6.02569E-01 -1.85629E+00 -2.83142E+00 -3.29205E+00 -3.18277E+00 -2.52880E+00 -1.57592E+00
  -8.71221E-01 -5.48979E-01 -5.09963E-01 -7.61634E-01 -1.47451E+00 -2.38650E+00 -3.14796E+00 -3.50225E+00 -3.17922E+00 -2.24748E+00
  -1.20646E+00 -3.47096E-01  2.35921E-01  7.22522E-01  1.15909E+00  1.22535E+00  9.54041E-01  6.97606E-01  4.26492E-01 -2.55472E-02
  -6.15418E-01 -1.16226E+00 -1.49833E+00 -1.61653E+00 -1.63052E+00 -1.58668E+00 -1.62458E+00 -1.80097E+00 -1.90711E+00 -1.61362E+00
  -5.72381E-01  8.58329E-01  2.21000E+00  3.20551E+00  4.01780E+00  5.08477E+00  6.53783E+00  8.12747E+00  9.56405E+00  1.05537E+01
   1.09102E+01  1.07814E+01  1.06691E+01  1.10539E+01  1.19063E+01  1.26761E+01  1.27630E+01  1.19896E+01  1.06518E+01  9.30343E+00
   8.28808E+00  7.46207E+00  6.35668E+00  4.96144E+00  4.08822E+00  3.58427E+00  3.27090E+00  3.13695E+00  3.05465E+00  2.98389E+00
   2.91466E+00  2.83453E+00  2.74599E+00  2.66020E+00  2.56332E+00  2.44544E+00  2.32808E+00  2.23171E+00  2.15339E+00  2.08469E+00
   2.01943E+00  1.95999E+00  1.91076E+00  1.86196E+00  1.81090E+00  1.76054E+00  1.71310E+00  1.66927E+00  1.62681E+00  1.58684E+00
   1.54995E+00  1.51320E+00  1.47645E+00  1.44098E+00  1.40577E+00  1.37157E+00  1.33975E+00  1.30989E+00  1.28076E+00  1.25160E+00
   1.22263E+00  1.19449E+00  1.16675E+00  1.13910E+00  1.11138E+00  1.08333E+00  1.05566E+00  1.02855E+00  1.00185E+00  9.75431E-01
   9.49338E-01  9.23583E-01  8.98175E-01  8.73117E-01  8.48375E-01  8.23915E-01  7.99736E-01  7.75830E-01  7.52195E-01  7.28827E-01
   7.05708E-01  6.82811E-01  6.60122E-01  6.37645E-01  6.15386E-01  5.93337E-01  5.71481E-01  5.49800E-01  5.28292E-01  5.06967E-01
   4.85829E-01  4.64863E-01  4.44055E-01  4.23396E-01  4.02895E-01  3.82559E-01  3.62388E-01  3.42368E-01  3.22488E-01  3.02748E-01
   2.83159E-01  2.63725E-01  2.44440E-01  2.25295E-01  2.06285E-01  1.87416E-01  1.68698E-01  1.50132E-01  1.31710E-01  1.13424E-01
   9.52770E-02  7.72758E-02  5.94290E-02  4.17318E-02  2.41753E-02  6.75309E-03 -1.05309E-02 -2.76712E-02 -4.46655E-02 -6.15214E-02
  -7.82465E-02 -9.48429E-02 -1.11304E-01 -1.27626E-01 -1.43810E-01 -1.59863E-01 -1.75791E-01 -1.91591E-01 -2.07257E-01 -2.22786E-01
  -2.38182E-01 -2.53452E-01 -2.68597E-01 -2.83611E-01 -2.98487E-01 -3.13227E-01 -3.27835E-01 -3.42315E-01 -3.56665E-01 -3.70877E-01
  -3.84948E-01 -3.98880E-01 -4.12679E-01 -4.26346E-01 -4.39877E-01 -4.53268E-01 -4.66518E-01 -4.79635E-01 -4.92624E-01 -5.05486E-01
  -5.18219E-01 -5.30822E-01 -5.43299E-01 -5.55660E-01 -5.67909E-01 -5.80044E-01 -5.92063E-01 -6.03967E-01 -6.15761E-01 -6.27452E-01
  -6.39038E-01 -6.50515E-01 -6.61880E-01 -6.73133E-01 -6.84278E-01 -6.95315E-01 -7.06239E-01 -7.17045E-01 -7.27729E-01 -7.38294E-01
  -7.48743E-01 -7.59074E-01 -7.69285E-01 -7.79368E-01 -7.89324E-01 -7.99159E-01 -8.08874E-01 -8.18470E-01 -8.27941E-01 -8.37285E-01
  -8.46505E-01 -8.55608E-01 -8.64593E-01 -8.73460E-01 -8.82205E-01 -8.90830E-01 -8.99338E-01 -9.07732E-01 -9.16009E-01 -9.24168E-01
  -9.32208E-01 -9.40133E-01 -9.47947E-01 -9.55653E-01 -9.63249E-01 -9.70731E-01 -9.78101E-01 -9.85359E-01 -9.92510E-01 -9.99555E-01
  -1.00649E+00 -1.01332E+00 -1.02004E+00 -1.02667E+00 -1.03319E+00 -1.03962E+00 -1.04594E+00 -1.05217E+00 -1.05831E+00 -1.06436E+00
  -1.07032E+00 -1.07619E+00 -1.08197E+00 -1.08767E+00 -1.09329E+00 -1.09884E+00 -1.10432E+00 -1.10973E+00 -1.11507E+00 -1.12035E+00
  -1.12556E+00 -1.13073E+00 -1.13584E+00 -1.14091E+00 -1.14594E+00 -1.15094E+00 -1.15592E+00 -1.16088E+00 -1.16582E+00 -1.17077E+00
  -1.17571E+00 -1.18068E+00 -1.18568E+00 -1.19073E+00 -1.19583E+00 -1.20100E+00 -1.20627E+00 -1.21165E+00 -1.21717E+00 -1.22285E+00
  -1.22871E+00 -1.23481E+00 -1.24117E+00 -1.24783E+00 -1.25486E+00 -1.26231E+00 -1.27025E+00 -1.27877E+00
 NY background values follow
    -3.515E+00   -3.501E+00   -3.487E+00   -3.472E+00   -3.458E+00   -3.443E+00   -3.429E+00   -3.414E+00   -3.399E+00   -3.384E+00
    -3.370E+00   -3.355E+00   -3.339E+00   -3.324E+00   -3.309E+00   -3.294E+00   -3.279E+00   -3.263E+00   -3.248E+00   -3.232E+00
    -3.216E+00   -3.201E+00   -3.185E+00   -3.169E+00   -3.153E+00   -3.137E+00   -3.121E+00   -3.105E+00   -3.089E+00   -3.072E+00
    -3.056E+00   -3.040E+00   -3.023E+00   -3.007E+00   -2.990E+00   -2.973E+00   -2.957E+00   -2.940E+00   -2.923E+00   -2.906E+00
    -2.889E+00   -2.872E+00   -2.855E+00   -2.837E+00   -2.820E+00   -2.803E+00   -2.785E+00   -2.768E+00   -2.750E+00   -2.732E+00
    -2.715E+00   -2.697E+00   -2.679E+00   -2.661E+00   -2.643E+00   -2.625E+00   -2.607E+00   -2.589E+00   -2.571E+00   -2.553E+00
    -2.534E+00   -2.516E+00   -2.498E+00   -2.479E+00   -2.461E+00   -2.442E+00   -2.423E+00   -2.405E+00   -2.386E+00   -2.367E+00
    -2.348E+00   -2.330E+00   -2.311E+00   -2.292E+00   -2.273E+00   -2.254E+00   -2.235E+00   -2.216E+00   -2.196E+00   -2.177E+00
    -2.158E+00   -2.139E+00   -2.119E+00   -2.100E+00   -2.081E+00   -2.061E+00   -2.042E+00   -2.022E+00   -2.003E+00   -1.983E+00
    -1.964E+00   -1.944E+00   -1.924E+00   -1.905E+00   -1.885E+00   -1.865E+00   -1.846E+00   -1.826E+00   -1.806E+00   -1.787E+00
    -1.767E+00   -1.747E+00   -1.727E+00   -1.707E+00   -1.688E+00   -1.668E+00   -1.648E+00   -1.628E+00   -1.608E+00   -1.588E+00
    -1.569E+00   -1.549E+00   -1.529E+00   -1.509E+00   -1.489E+00   -1.470E+00   -1.450E+00   -1.430E+00   -1.410E+00   -1.391E+00
    -1.371E+00   -1.351E+00   -1.332E+00   -1.312E+00   -1.292E+00   -1.273E+00   -1.253E+00   -1.234E+00   -1.214E+00   -1.195E+00
    -1.175E+00   -1.156E+00   -1.137E+00   -1.117E+00   -1.098E+00   -1.079E+00   -1.060E+00   -1.041E+00   -1.022E+00   -1.003E+00
    -9.838E-01   -9.649E-01   -9.461E-01   -9.273E-01   -9.086E-01   -8.900E-01   -8.715E-01   -8.530E-01   -8.346E-01   -8.163E-01
    -7.980E-01   -7.799E-01   -7.618E-01   -7.439E-01   -7.260E-01   -7.082E-01   -6.905E-01   -6.729E-01   -6.554E-01   -6.380E-01
    -6.207E-01   -6.036E-01   -5.865E-01   -5.695E-01   -5.527E-01   -5.360E-01   -5.194E-01   -5.029E-01   -4.866E-01   -4.704E-01
    -4.543E-01   -4.383E-01   -4.225E-01   -4.068E-01   -3.913E-01   -3.759E-01   -3.607E-01   -3.456E-01   -3.306E-01   -3.158E-01
    -3.011E-01   -2.866E-01   -2.723E-01   -2.581E-01   -2.441E-01   -2.302E-01   -2.165E-01   -2.030E-01   -1.896E-01   -1.764E-01
    -1.633E-01   -1.504E-01   -1.377E-01   -1.252E-01   -1.128E-01   -1.006E-01   -8.852E-02   -7.664E-02   -6.494E-02   -5.340E-02
    -4.204E-02   -3.084E-02   -1.983E-02   -8.983E-03    1.686E-03    1.218E-02    2.250E-02    3.264E-02    4.260E-02    5.238E-02
     6.199E-02    7.141E-02    8.066E-02    8.972E-02    9.861E-02    1.073E-01    1.158E-01    1.242E-01    1.323E-01    1.403E-01
     1.481E-01    1.557E-01    1.631E-01    1.703E-01    1.774E-01    1.842E-01    1.909E-01    1.974E-01    2.037E-01    2.098E-01
     2.157E-01    2.214E-01    2.269E-01    2.323E-01    2.374E-01    2.424E-01    2.471E-01    2.516E-01    2.560E-01    2.601E-01
     2.641E-01    2.678E-01    2.713E-01    2.747E-01    2.778E-01    2.807E-01    2.834E-01    2.859E-01    2.882E-01    2.903E-01
     2.921E-01    2.938E-01    2.952E-01    2.964E-01    2.975E-01    2.982E-01    2.988E-01    2.992E-01    2.993E-01    2.993E-01
     2.990E-01    2.985E-01    2.977E-01    2.968E-01    2.956E-01    2.942E-01    2.926E-01    2.907E-01    2.887E-01    2.864E-01
     2.839E-01    2.811E-01    2.782E-01    2.750E-01    2.716E-01    2.680E-01    2.641E-01    2.601E-01    2.558E-01    2.513E-01
     2.466E-01    2.417E-01    2.366E-01    2.313E-01    2.258E-01    2.201E-01    2.143E-01    2.082E-01    2.019E-01    1.954E-01
     1.888E-01    1.819E-01    1.749E-01    1.677E-01    1.603E-01    1.528E-01    1.450E-01    1.371E-01    1.291E-01    1.208E-01
     1.124E-01    1.039E-01    9.514E-02    8.626E-02    7.722E-02    6.802E-02    5.868E-02    4.918E-02    3.954E-02    2.975E-02
     1.982E-02    9.751E-03   -4.574E-04   -1.080E-02   -2.128E-02   -3.189E-02   -4.263E-02   -5.349E-02   -6.448E-02   -7.559E-02
    -8.681E-02   -9.814E-02   -1.096E-01   -1.211E-01   -1.327E-01   -1.445E-01   -1.563E-01   -1.682E-01   -1.802E-01   -1.922E-01
    -2.043E-01   -2.165E-01   -2.288E-01   -2.411E-01   -2.534E-01   -2.658E-01   -2.783E-01   -2.908E-01   -3.033E-01   -3.159E-01
    -3.285E-01   -3.411E-01   -3.537E-01   -3.664E-01   -3.791E-01   -3.918E-01   -4.044E-01   -4.171E-01   -4.298E-01   -4.425E-01
    -4.552E-01   -4.678E-01   -4.805E-01   -4.931E-01   -5.057E-01   -5.182E-01   -5.308E-01   -5.433E-01   -5.557E-01   -5.681E-01
    -5.805E-01   -5.928E-01   -6.051E-01   -6.173E-01   -6.295E-01   -6.416E-01   -6.536E-01   -6.656E-01   -6.775E-01   -6.894E-01
    -7.012E-01   -7.129E-01   -7.245E-01   -7.361E-01   -7.477E-01   -7.591E-01   -7.705E-01   -7.818E-01   -7.931E-01   -8.043E-01
    -8.154E-01   -8.264E-01   -8.373E-01   -8.482E-01   -8.590E-01   -8.697E-01   -8.803E-01   -8.909E-01   -9.013E-01   -9.117E-01
    -9.220E-01   -9.322E-01   -9.424E-01   -9.524E-01   -9.624E-01   -9.722E-01   -9.820E-01   -9.917E-01   -1.001E+00   -1.011E+00
    -1.020E+00   -1.029E+00   -1.039E+00   -1.048E+00   -1.057E+00   -1.066E+00   -1.075E+00   -1.083E+00   -1.092E+00   -1.100E+00
    -1.109E+00   -1.117E+00   -1.125E+00   -1.133E+00   -1.141E+00   -1.149E+00   -1.157E+00   -1.165E+00   -1.172E+00   -1.180E+00
    -1.187E+00   -1.195E+00   -1.202E+00   -1.209E+00   -1.216E+00   -1.223E+00   -1.229E+00   -1.236E+00   -1.242E+00   -1.249E+00
    -1.255E+00   -1.261E+00   -1.267E+00   -1.273E+00   -1.279E+00   -1.285E+00   -1.290E+00   -1.296E+00   -1.301E+00   -1.307E+00
    -1.312E+00   -1.317E+00   -1.322E+00   -1.327E+00   -1.331E+00   -1.336E+00   -1.340E+00   -1.345E+00   -1.349E+00   -1.353E+00
    -1.357E+00   -1.361E+00   -1.365E+00   -1.368E+00   -1.372E+00   -1.375E+00   -1.378E+00   -1.382E+00   -1.385E+00   -1.387E+00
    -1.390E+00   -1.393E+00   -1.396E+00   -1.398E+00   -1.400E+00   -1.402E+00   -1.405E+00   -1.407E+00   -1.408E+00   -1.410E+00
    -1.412E+00   -1.413E+00   -1.415E+00   -1.416E+00   -1.417E+00   -1.418E+00   -1.419E+00   -1.419E+00   -1.420E+00   -1.421E+00
    -1.421E+00   -1.421E+00   -1.421E+00   -1.421E+00   -1.421E+00   -1.421E+00   -1.421E+00   -1.420E+00   -1.420E+00   -1.419E+00
    -1.418E+00   -1.417E+00   -1.416E+00   -1.415E+00   -1.414E+00   -1.412E+00   -1.411E+00   -1.409E+00
 Asp      Conc. = 4.23E+01
