 LCModel (Version 6.3-1L) Copyright: S.W. Provencher.          Ref.: Magn. Reson. Med. 30:672-679 (1993).                
 Slice#2 Row#8 Col#4  PD_24_press_2_raw_act
 36 lines in following concentration table = NCONC+1
    Conc.  %SD /Cr+PCr  Metabolite                                         
    0.000 999%   0.000 Ala                                                 
    0.000 999%   0.000 Asp                                                 
 2.13E+03  21%   0.563 Cr                                                  
 1.65E+03  27%   0.437 PCr                                                 
   33.246 999% 8.8E-03 GABA                                                
    0.000 999%   0.000 Glc                                                 
  976.481  47%   0.258 Gln                                                 
 3.40E+03  16%   0.899 Glu                                                 
 1.18E+03   4%   0.313 GPC                                                 
    0.000 999%   0.000 PCh                                                 
  803.388  17%   0.213 GSH                                                 
 2.31E+03  22%   0.611 Ins                                                 
  910.078  27%   0.241 Lac                                                 
 5.52E+03   5%   1.460 NAA                                                 
  722.088  37%   0.191 NAAG                                                
  229.985  23% 6.1E-02 Scyllo                                              
    0.000 999%   0.000 Tau                                                 
    0.000 999%   0.000 -CrCH2                                              
 1.18E+03   4%   0.313 GPC+PCh                                             
 6.24E+03   3%   1.652 NAA+NAAG                                            
 3.78E+03   3%   1.000 Cr+PCr                                              
 4.37E+03  18%   1.158 Glu+Gln                                             
 5.36E+03  17%   1.419 Lip13a                                              
    0.000 999%   0.000 Lip13b                                              
    0.000 999%   0.000 Lip09                                               
 3.98E+03  11%   1.053 MM09                                                
 1.40E+03  35%   0.371 Lip20                                               
 1.05E+04   8%   2.777 MM20                                                
 1.23E+03  28%   0.326 MM12                                                
    0.000 999%   0.000 MM14                                                
 4.29E+03  14%   1.134 MM17                                                
 5.36E+03  17%   1.419 Lip13a+Lip13b                                       
 6.59E+03  14%   1.745 MM14+Lip13a+Lip13b+MM12                             
 3.98E+03  11%   1.053 MM09+Lip09                                          
 1.19E+04   8%   3.148 MM20+Lip20                                          
   6 lines in following misc. output table
  FWHM = 0.054 ppm    S/N =  17                                            
  Data shift = 0.008 ppm                                                   
  Ph:  -6 deg      -0.5 deg/ppm                                            
  alphaB,S = 7.1E-01,   2.1E+02                                            
   14 spline knots.   Ns = 7(1)                                            
  (12) 4 infls.   ( 7) 1 extrs.                                            
  498 points on ppm-axis = NY
      4.000000     3.992357     3.984714     3.977070     3.969427     3.961784     3.954141     3.946497     3.938854     3.931211
      3.923568     3.915925     3.908281     3.900638     3.892995     3.885352     3.877708     3.870065     3.862422     3.854779
      3.847136     3.839492     3.831849     3.824206     3.816563     3.808919     3.801276     3.793633     3.785990     3.778347
      3.770703     3.763060     3.755417     3.747774     3.740130     3.732487     3.724844     3.717201     3.709558     3.701914
      3.694271     3.686628     3.678985     3.671341     3.663698     3.656055     3.648412     3.640769     3.633125     3.625482
      3.617839     3.610196     3.602552     3.594909     3.587266     3.579623     3.571980     3.564336     3.556693     3.549050
      3.541407     3.533763     3.526120     3.518477     3.510834     3.503191     3.495547     3.487904     3.480261     3.472618
      3.464974     3.457331     3.449688     3.442045     3.434402     3.426758     3.419115     3.411472     3.403829     3.396185
      3.388542     3.380899     3.373256     3.365613     3.357969     3.350326     3.342683     3.335040     3.327396     3.319753
      3.312110     3.304467     3.296824     3.289180     3.281537     3.273894     3.266251     3.258607     3.250964     3.243321
      3.235678     3.228034     3.220391     3.212748     3.205105     3.197462     3.189818     3.182175     3.174532     3.166889
      3.159245     3.151602     3.143959     3.136316     3.128673     3.121029     3.113386     3.105743     3.098100     3.090456
      3.082813     3.075170     3.067527     3.059884     3.052240     3.044597     3.036954     3.029311     3.021667     3.014024
      3.006381     2.998738     2.991095     2.983451     2.975808     2.968165     2.960522     2.952878     2.945235     2.937592
      2.929949     2.922306     2.914662     2.907019     2.899376     2.891733     2.884089     2.876446     2.868803     2.861160
      2.853517     2.845873     2.838230     2.830587     2.822944     2.815300     2.807657     2.800014     2.792371     2.784728
      2.777084     2.769441     2.761798     2.754155     2.746511     2.738868     2.731225     2.723582     2.715939     2.708295
      2.700652     2.693009     2.685366     2.677722     2.670079     2.662436     2.654793     2.647150     2.639506     2.631863
      2.624220     2.616577     2.608933     2.601290     2.593647     2.586004     2.578361     2.570717     2.563074     2.555431
      2.547788     2.540144     2.532501     2.524858     2.517215     2.509572     2.501928     2.494285     2.486642     2.478999
      2.471355     2.463712     2.456069     2.448426     2.440783     2.433139     2.425496     2.417853     2.410210     2.402566
      2.394923     2.387280     2.379637     2.371994     2.364350     2.356707     2.349064     2.341421     2.333777     2.326134
      2.318491     2.310848     2.303205     2.295561     2.287918     2.280275     2.272632     2.264988     2.257345     2.249702
      2.242059     2.234416     2.226772     2.219129     2.211486     2.203843     2.196199     2.188556     2.180913     2.173270
      2.165627     2.157983     2.150340     2.142697     2.135054     2.127410     2.119767     2.112124     2.104481     2.096838
      2.089194     2.081551     2.073908     2.066265     2.058621     2.050978     2.043335     2.035692     2.028049     2.020405
      2.012762     2.005119     1.997476     1.989833     1.982190     1.974546     1.966903     1.959260     1.951617     1.943974
      1.936331     1.928688     1.921045     1.913402     1.905759     1.898115     1.890472     1.882829     1.875186     1.867543
      1.859900     1.852257     1.844614     1.836971     1.829327     1.821684     1.814041     1.806398     1.798755     1.791112
      1.783469     1.775826     1.768183     1.760540     1.752896     1.745253     1.737610     1.729967     1.722324     1.714681
      1.707038     1.699395     1.691752     1.684108     1.676465     1.668822     1.661179     1.653536     1.645893     1.638250
      1.630607     1.622964     1.615321     1.607677     1.600034     1.592391     1.584748     1.577105     1.569462     1.561819
      1.554176     1.546533     1.538890     1.531246     1.523603     1.515960     1.508317     1.500674     1.493031     1.485388
      1.477745     1.470102     1.462458     1.454815     1.447172     1.439529     1.431886     1.424243     1.416600     1.408957
      1.401314     1.393671     1.386027     1.378384     1.370741     1.363098     1.355455     1.347812     1.340169     1.332526
      1.324883     1.317240     1.309596     1.301953     1.294310     1.286667     1.279024     1.271381     1.263738     1.256095
      1.248452     1.240808     1.233165     1.225522     1.217879     1.210236     1.202593     1.194950     1.187307     1.179664
      1.172021     1.164377     1.156734     1.149091     1.141448     1.133805     1.126162     1.118519     1.110876     1.103233
      1.095590     1.087946     1.080303     1.072660     1.065017     1.057374     1.049731     1.042088     1.034445     1.026802
      1.019158     1.011515     1.003872     0.996229     0.988586     0.980943     0.973300     0.965657     0.958014     0.950371
      0.942727     0.935084     0.927441     0.919798     0.912155     0.904512     0.896869     0.889226     0.881583     0.873940
      0.866296     0.858653     0.851010     0.843367     0.835724     0.828081     0.820438     0.812795     0.805152     0.797508
      0.789865     0.782222     0.774579     0.766936     0.759293     0.751650     0.744007     0.736364     0.728721     0.721077
      0.713434     0.705791     0.698148     0.690505     0.682862     0.675219     0.667576     0.659933     0.652290     0.644646
      0.637003     0.629360     0.621717     0.614074     0.606431     0.598788     0.591145     0.583502     0.575858     0.568215
      0.560572     0.552929     0.545286     0.537643     0.530000     0.522357     0.514714     0.507071     0.499427     0.491784
      0.484141     0.476498     0.468855     0.461212     0.453569     0.445925     0.438282     0.430639     0.422996     0.415353
      0.407710     0.400067     0.392424     0.384780     0.377137     0.369494     0.361851     0.354208     0.346565     0.338922
      0.331278     0.323635     0.315992     0.308349     0.300706     0.293063     0.285420     0.277777     0.270133     0.262490
      0.254847     0.247204     0.239561     0.231918     0.224275     0.216631     0.208988     0.201345
 NY phased data points follow
   3.92050E+01  2.73477E+01  4.23847E+01  3.39666E+01  4.80723E+01  5.36921E+01  7.06296E+01  6.68479E+01  1.03496E+02  1.03070E+02
   1.21861E+02  1.18047E+02  1.23071E+02  1.04765E+02  1.07723E+02  8.61332E+01  8.31588E+01  7.28115E+01  5.96949E+01  4.18727E+01
   5.45093E+01  4.63640E+01  4.86562E+01  3.17435E+01  4.18007E+01  3.71608E+01  4.44645E+01  4.39877E+01  4.73000E+01  4.66156E+01
   5.73406E+01  5.44113E+01  5.96675E+01  4.74904E+01  5.52008E+01  4.42672E+01  3.98240E+01  3.95095E+01  3.81350E+01  3.94687E+01
   4.49868E+01  3.99684E+01  3.56588E+01  4.12944E+01  4.46620E+01  4.85455E+01  5.16348E+01  4.70828E+01  5.55569E+01  5.21154E+01
   4.57455E+01  3.97178E+01  3.90026E+01  3.48410E+01  3.87242E+01  2.63536E+01  4.34931E+01  3.21735E+01  4.27792E+01  3.18776E+01
   3.76210E+01  2.40358E+01  2.78332E+01  2.26658E+01  1.93615E+01  1.36260E+01  1.73790E+01  8.19694E+00  1.37731E+01  1.17319E+01
   1.58219E+01  1.19044E+01  1.25685E+01  8.69025E+00  1.48541E+01  1.66829E+01  2.08101E+01  1.02409E+01  1.73886E+01  6.36748E+00
   1.51425E+01  1.29206E+01  1.54763E+01  1.84426E+01  2.20207E+01  1.99204E+01  2.32168E+01  1.36559E+01  2.32604E+01  1.16790E+01
   2.02105E+01  1.64923E+01  1.64290E+01  1.58703E+01  2.10185E+01  1.59914E+01  1.85191E+01  1.93270E+01  3.46096E+01  3.54848E+01
   6.58416E+01  7.69228E+01  9.82368E+01  1.13876E+02  1.09895E+02  1.00132E+02  9.04939E+01  6.65841E+01  5.44405E+01  4.23969E+01
   3.55072E+01  2.46064E+01  1.97806E+01  1.78322E+01  1.46102E+01  1.67284E+01  8.27111E+00  1.52578E+01  7.65627E+00  5.27671E+00
   1.34732E+01  2.03098E+01  2.13573E+01  3.62674E+01  6.21853E+01  8.54880E+01  1.17569E+02  1.28905E+02  1.37166E+02  1.17358E+02
   1.00327E+02  7.22846E+01  5.83580E+01  5.45122E+01  4.58348E+01  2.87740E+01  1.40781E+01  1.31723E+01  1.00718E+01  5.41770E+00
   1.31102E+01  1.60757E+00  3.40959E+00  1.99713E-02  2.34067E+00 -4.48056E-01  6.34761E+00 -5.09619E-01  3.18698E+00  2.87502E+00
  -3.93735E+00 -2.19870E+00  5.22700E+00 -2.38592E+00  1.41925E+00 -2.11324E+00  2.60491E+00 -2.06911E+00  5.12999E+00 -5.61097E+00
   1.30963E+00 -3.93295E+00 -4.48038E+00 -1.09523E+01 -6.55405E+00 -1.18177E+01 -1.88323E+00 -6.89918E-01 -1.05698E+01 -1.30310E+01
  -2.52506E+00 -1.10617E+01 -1.40716E+01 -2.55909E+01 -2.16003E+01 -2.90105E+01 -2.78562E+01 -3.09353E+01 -2.85364E+01 -2.54746E+01
  -2.24869E+01 -2.62873E+01 -2.35668E+01 -2.27977E+01 -3.00982E+01 -2.66775E+01 -1.32999E+01 -1.89964E+01 -1.89668E+01 -1.58118E+01
  -6.24338E+00 -4.52829E+00  5.63190E+00  3.73561E+00  6.45013E+00 -6.19886E-01 -2.76568E+00 -1.53651E+00 -2.10090E+00 -1.55121E+01
  -7.07147E+00 -1.12432E+01 -6.06131E+00  1.14739E+00 -4.28773E+00 -3.60270E+00 -8.44779E+00 -1.00138E+01 -3.66386E+00 -1.92256E+01
  -1.38134E+01 -1.21224E+01 -6.89431E+00  2.11906E+00  1.28520E+01  1.33521E+01  1.48375E+01  7.29438E+00  6.81030E+00  1.98189E+00
  -3.75507E+00 -1.17453E+01 -1.28873E+01 -1.34045E+01 -2.11658E+00  2.04958E+00  1.29287E+01  4.34326E+00  4.54362E+00  4.19939E+00
   1.44966E+01  9.55185E+00  1.19591E+01  9.83820E+00  2.00805E+01  1.33273E+01  1.56140E+01  1.21532E+01  1.94593E+01  1.24815E+01
   7.43383E+00  1.17806E+01  1.31854E+01  1.17876E+01  2.23709E+01  1.51534E+01  2.64225E+01  2.75104E+01  2.65417E+01  4.00573E+01
   4.22709E+01  3.58072E+01  5.18863E+01  6.02403E+01  7.11997E+01  8.57537E+01  1.06484E+02  1.30377E+02  1.66398E+02  1.99607E+02
   2.21213E+02  2.07877E+02  1.80389E+02  1.46623E+02  1.09669E+02  8.33930E+01  7.34177E+01  4.81747E+01  2.82912E+01  1.27059E+01
   1.99172E+01  1.20123E+01  1.69248E+01  1.40257E+01  1.23041E+01  1.35018E+01  1.31328E+01  1.00134E+01  6.30053E+00  1.21443E+01
  -6.92761E-02  1.10387E+01  8.30529E+00  8.29084E+00  7.46765E+00  5.60850E-01  6.66537E-01  6.67217E+00  8.29530E+00  1.11821E+01
   1.70969E+01  1.00538E+01  2.54570E+00  1.22069E+01  1.56115E+01  1.17191E+01  1.13923E+01  1.03633E+01  1.27536E+01  1.14400E+01
   1.67717E+01  1.24241E+01  8.90643E+00  1.54555E+01  1.09846E+01  8.63495E+00  9.79838E+00  3.74430E+00  6.62137E+00  1.77537E+00
   2.29699E+00  1.13459E+00 -7.44066E+00 -5.12652E+00 -1.62907E+01 -1.94216E+01 -2.25386E+01 -2.57831E+01 -2.46975E+01 -3.29953E+01
  -3.20445E+01 -2.64889E+01 -3.37982E+01 -2.85863E+01 -2.97439E+01 -2.74461E+01 -2.73239E+01 -2.23330E+01 -2.13904E+01 -2.70582E+01
  -1.39318E+01 -1.64783E+01 -1.05511E+00 -1.00614E+01 -2.81511E+00 -3.56373E+00  3.75685E+00  4.41380E+00  1.00360E+00  4.92923E+00
   1.00586E+01  7.58580E+00  1.35147E+01  1.38428E+01  7.85852E+00  8.31680E+00  2.09191E+01  9.20143E+00  8.65978E+00  1.15603E+01
   5.07959E+00  4.16952E+00  2.88558E+00  7.23915E+00  7.46714E+00  1.42783E+01  1.38500E+01  1.30080E+01  8.52443E+00  1.32401E+01
   9.94418E+00  1.27334E+01  1.72212E+01  5.54405E+00  8.33176E+00  6.14771E+00 -5.79384E-01  3.75548E+00  2.59528E+00  1.05534E+00
   2.95147E+00 -2.88979E+00 -7.56990E-01 -5.87183E+00  1.73128E+00 -2.89099E+00 -1.44170E+00 -7.99596E+00 -7.11418E+00 -1.64169E+00
  -7.42428E+00 -1.24545E+01 -1.18826E+00 -1.19802E+01 -1.57397E+00 -4.78540E+00 -2.75322E+00 -6.57378E+00 -2.14554E+00 -1.42987E+00
  -5.02386E+00 -6.87003E+00 -3.82362E+00 -1.74953E+00  6.25181E+00  4.02537E+00  1.73099E+00  7.76178E+00  6.50867E+00  5.61637E+00
   4.67311E+00  5.23825E+00  4.89476E+00  8.17307E+00  9.81893E+00  1.18489E+01  1.92026E+01  5.31873E+00  7.89454E+00  9.50533E+00
   9.48876E+00  4.49574E+00  4.10050E+00  3.88350E+00 -1.97612E+00 -1.03980E+01  2.26312E+00 -1.18978E+01 -1.14459E+01 -4.97611E+00
  -1.02534E+01 -9.75293E+00 -1.24057E+00 -1.54252E+01 -8.61806E+00 -1.03627E+01 -8.80654E+00 -1.50663E+01 -1.43056E+01 -1.60150E+01
  -1.13850E+01 -6.93599E+00 -1.02461E+01 -1.05187E+01 -1.18421E+01 -1.70812E+01 -1.15658E+01 -1.36799E+01 -1.14240E+01 -7.50063E+00
  -6.57026E+00 -1.29041E+01 -7.37817E+00 -2.28292E+01 -8.55755E+00 -9.75673E+00 -1.02375E+01 -8.48194E+00 -7.55462E+00 -1.34257E+01
  -8.80914E+00 -1.38503E+01 -8.42066E+00 -8.74239E+00 -9.34155E+00 -7.71117E+00 -1.14953E+01 -1.26857E+01 -1.03723E+01 -1.63689E+01
  -9.98318E+00 -9.11061E+00 -1.33115E+01 -6.62548E+00 -1.96516E+00 -5.58338E+00 -7.14479E+00 -9.17695E+00 -1.25385E+01 -1.30978E+01
  -4.09095E+00 -1.05274E+01 -8.63390E+00 -4.44349E+00 -8.29440E+00 -9.77002E+00 -1.02754E+01 -9.47875E+00 -4.88372E+00 -1.14551E+01
  -7.70341E+00 -6.89292E+00 -4.75916E+00 -1.57252E+01 -3.87443E+00 -1.35651E+01 -8.88787E+00 -8.56727E+00 -7.10667E+00 -4.08724E+00
  -1.22951E+01 -2.87229E+00 -1.29153E+01 -1.32521E+01 -5.18055E+00 -1.29352E+01 -6.23125E+00 -1.28738E+01
 NY points of the fit to the data follow
   4.19801E+01  4.07691E+01  4.06760E+01  4.21937E+01  4.58057E+01  5.26638E+01  6.28588E+01  7.60271E+01  9.10763E+01  1.05504E+02
   1.16079E+02  1.20232E+02  1.17320E+02  1.08956E+02  9.80269E+01  8.69567E+01  7.68261E+01  6.76289E+01  5.94270E+01  5.27735E+01
   4.78839E+01  4.51473E+01  4.32103E+01  4.15488E+01  4.02331E+01  3.94136E+01  3.96504E+01  4.15302E+01  4.51567E+01  4.98290E+01
   5.42560E+01  5.70818E+01  5.74293E+01  5.53629E+01  5.16632E+01  4.73896E+01  4.33275E+01  3.96346E+01  3.65815E+01  3.48363E+01
   3.46195E+01  3.54312E+01  3.70312E+01  3.94207E+01  4.24792E+01  4.56014E+01  4.79501E+01  4.86597E+01  4.73422E+01  4.44911E+01
   4.08126E+01  3.71142E+01  3.40945E+01  3.17857E+01  2.98367E+01  2.84120E+01  2.79699E+01  2.83762E+01  2.89786E+01  2.92590E+01
   2.89663E+01  2.79660E+01  2.63803E+01  2.45501E+01  2.29322E+01  2.18422E+01  2.12394E+01  2.09810E+01  2.10220E+01  2.12716E+01
   2.15748E+01  2.17614E+01  2.16565E+01  2.12163E+01  2.05004E+01  1.96390E+01  1.87916E+01  1.80268E+01  1.73560E+01  1.68609E+01
   1.67827E+01  1.71293E+01  1.78846E+01  1.90621E+01  2.04218E+01  2.14587E+01  2.16115E+01  2.06211E+01  1.87362E+01  1.65915E+01
   1.47764E+01  1.35430E+01  1.27206E+01  1.19275E+01  1.10449E+01  1.06822E+01  1.26949E+01  1.82773E+01  2.74634E+01  4.13505E+01
   6.02954E+01  8.19625E+01  1.01350E+02  1.12726E+02  1.12821E+02  1.02768E+02  8.69435E+01  7.03054E+01  5.58975E+01  4.36026E+01
   3.18499E+01  2.08770E+01  1.36766E+01  1.09617E+01  9.82583E+00  9.16785E+00  8.72724E+00  8.43616E+00  8.33150E+00  8.70151E+00
   1.11875E+01  1.79098E+01  2.87177E+01  4.45466E+01  6.60267E+01  9.09352E+01  1.13953E+02  1.28519E+02  1.30368E+02  1.20174E+02
   1.02782E+02  8.39605E+01  6.73801E+01  5.29928E+01  3.87153E+01  2.45398E+01  1.42665E+01  1.01588E+01  8.79328E+00  8.56277E+00
   8.79289E+00  8.99991E+00  8.98817E+00  8.76419E+00  8.29427E+00  7.59806E+00  6.77880E+00  5.85891E+00  4.84439E+00  3.80679E+00
   2.78402E+00  1.88515E+00  1.12474E+00  4.96914E-01 -6.53367E-02 -6.12324E-01 -1.21613E+00 -2.01736E+00 -3.03999E+00 -4.22580E+00
  -5.33306E+00 -5.98192E+00 -6.05737E+00 -5.86656E+00 -5.90759E+00 -6.56169E+00 -7.84265E+00 -9.37999E+00 -1.07555E+01 -1.18972E+01
  -1.30683E+01 -1.43667E+01 -1.58116E+01 -1.72639E+01 -1.84219E+01 -1.91298E+01 -1.93000E+01 -1.90290E+01 -1.87015E+01 -1.86629E+01
  -1.89504E+01 -1.92646E+01 -1.92360E+01 -1.88052E+01 -1.81341E+01 -1.73008E+01 -1.60117E+01 -1.37852E+01 -1.07028E+01 -7.41450E+00
  -4.77191E+00 -3.34268E+00 -3.04432E+00 -3.44819E+00 -4.21609E+00 -5.19152E+00 -6.22338E+00 -6.83214E+00 -6.60838E+00 -5.48415E+00
  -3.59269E+00 -1.30449E+00  7.28759E-01  1.69729E+00  1.26208E+00 -6.29933E-01 -3.81155E+00 -7.78056E+00 -1.14689E+01 -1.36456E+01
  -1.38107E+01 -1.19803E+01 -8.28023E+00 -3.19581E+00  1.98246E+00  5.57037E+00  6.29961E+00  3.95936E+00 -7.90168E-01 -6.78541E+00
  -1.21606E+01 -1.55361E+01 -1.63698E+01 -1.45106E+01 -1.03814E+01 -4.90295E+00  3.89915E-01  4.40999E+00  7.06718E+00  8.73548E+00
   9.76859E+00  1.02626E+01  1.05553E+01  1.12898E+01  1.27247E+01  1.44645E+01  1.59967E+01  1.69657E+01  1.72020E+01  1.67748E+01
   1.59350E+01  1.52780E+01  1.55353E+01  1.69839E+01  1.92997E+01  2.19241E+01  2.44950E+01  2.67709E+01  2.88521E+01  3.13138E+01
   3.45023E+01  3.86823E+01  4.44108E+01  5.39865E+01  6.90659E+01  8.80322E+01  1.11401E+02  1.39947E+02  1.70873E+02  1.97125E+02
   2.10072E+02  2.04484E+02  1.82063E+02  1.50276E+02  1.18191E+02  9.15517E+01  6.94830E+01  4.85707E+01  2.89040E+01  1.56677E+01
   1.05563E+01  8.17854E+00  6.66452E+00  5.62648E+00  4.76877E+00  3.91016E+00  3.08325E+00  2.32508E+00  1.70321E+00  1.28249E+00
   1.08980E+00  1.11699E+00  1.38634E+00  1.91996E+00  2.68740E+00  3.63126E+00  4.71128E+00  5.91777E+00  7.23660E+00  8.62343E+00
   1.00201E+01  1.13777E+01  1.26336E+01  1.37128E+01  1.45469E+01  1.50905E+01  1.53168E+01  1.52132E+01  1.47787E+01  1.40219E+01
   1.29659E+01  1.16462E+01  1.00961E+01  8.35300E+00  6.46349E+00  4.48089E+00  2.45885E+00  4.44664E-01 -1.52022E+00 -3.39418E+00
  -5.14603E+00 -6.75405E+00 -8.20282E+00 -9.48409E+00 -1.05965E+01 -1.15442E+01 -1.23356E+01 -1.29811E+01 -1.34923E+01 -1.38806E+01
  -1.41574E+01 -1.43336E+01 -1.44188E+01 -1.44206E+01 -1.43438E+01 -1.41912E+01 -1.39640E+01 -1.36623E+01 -1.32838E+01 -1.28245E+01
  -1.22780E+01 -1.16372E+01 -1.08944E+01 -1.00411E+01 -9.06740E+00 -7.96152E+00 -6.70899E+00 -5.29088E+00 -3.67678E+00 -1.80157E+00
   4.74529E-01  3.11236E+00  5.87218E+00  8.64544E+00  1.11246E+01  1.27310E+01  1.28715E+01  1.13097E+01  8.63260E+00  5.87060E+00
   3.91140E+00  3.42886E+00  4.64046E+00  7.19187E+00  1.04035E+01  1.36088E+01  1.62827E+01  1.77839E+01  1.77738E+01  1.67768E+01
   1.53500E+01  1.36665E+01  1.15921E+01  9.14133E+00  6.83465E+00  4.94402E+00  3.28526E+00  1.77439E+00  3.86440E-01 -8.85799E-01
  -2.04352E+00 -3.08612E+00 -4.01284E+00 -4.82307E+00 -5.51649E+00 -6.09305E+00 -6.55308E+00 -6.89720E+00 -7.12605E+00 -7.23998E+00
  -7.23909E+00 -7.12350E+00 -6.89358E+00 -6.55010E+00 -6.09423E+00 -5.52774E+00 -4.85349E+00 -4.07600E+00 -3.20193E+00 -2.24021E+00
  -1.20214E+00 -1.01646E-01  1.04449E+00  2.21645E+00  3.39173E+00  4.54577E+00  5.65276E+00  6.68624E+00  7.61989E+00  8.42842E+00
   9.08881E+00  9.58161E+00  9.89181E+00  1.00094E+01  9.92975E+00  9.65378E+00  9.18821E+00  8.54532E+00  7.74228E+00  6.80001E+00
   5.74215E+00  4.59404E+00  3.38194E+00  2.13190E+00  8.68715E-01 -3.85117E-01 -1.60995E+00 -2.78922E+00 -3.90945E+00 -4.96032E+00
  -5.93478E+00 -6.82888E+00 -7.64130E+00 -8.37276E+00 -9.02549E+00 -9.60299E+00 -1.01098E+01 -1.05514E+01 -1.09333E+01 -1.12611E+01
  -1.15399E+01 -1.17749E+01 -1.19709E+01 -1.21326E+01 -1.22640E+01 -1.23687E+01 -1.24497E+01 -1.25097E+01 -1.25515E+01 -1.25772E+01
  -1.25889E+01 -1.25880E+01 -1.25757E+01 -1.25535E+01 -1.25225E+01 -1.24839E+01 -1.24383E+01 -1.23864E+01 -1.23287E+01 -1.22659E+01
  -1.21986E+01 -1.21275E+01 -1.20526E+01 -1.19742E+01 -1.18926E+01 -1.18082E+01 -1.17215E+01 -1.16325E+01 -1.15412E+01 -1.14479E+01
  -1.13526E+01 -1.12557E+01 -1.11575E+01 -1.10578E+01 -1.09567E+01 -1.08541E+01 -1.07504E+01 -1.06458E+01 -1.05403E+01 -1.04338E+01
  -1.03263E+01 -1.02178E+01 -1.01087E+01 -9.99894E+00 -9.88854E+00 -9.77737E+00 -9.66543E+00 -9.55287E+00 -9.43989E+00 -9.32649E+00
  -9.21255E+00 -9.09797E+00 -8.98279E+00 -8.86720E+00 -8.75131E+00 -8.63503E+00 -8.51821E+00 -8.40079E+00 -8.28288E+00 -8.16463E+00
  -8.04606E+00 -7.92701E+00 -7.80733E+00 -7.68702E+00 -7.56618E+00 -7.44491E+00 -7.32310E+00 -7.20052E+00
 NY background values follow
     3.970E+01    3.936E+01    3.903E+01    3.869E+01    3.835E+01    3.801E+01    3.768E+01    3.734E+01    3.700E+01    3.666E+01
     3.632E+01    3.599E+01    3.565E+01    3.531E+01    3.497E+01    3.463E+01    3.429E+01    3.395E+01    3.361E+01    3.328E+01
     3.294E+01    3.260E+01    3.226E+01    3.192E+01    3.158E+01    3.124E+01    3.090E+01    3.056E+01    3.022E+01    2.988E+01
     2.954E+01    2.920E+01    2.886E+01    2.852E+01    2.818E+01    2.784E+01    2.751E+01    2.717E+01    2.683E+01    2.649E+01
     2.615E+01    2.581E+01    2.547E+01    2.513E+01    2.479E+01    2.446E+01    2.412E+01    2.378E+01    2.344E+01    2.310E+01
     2.277E+01    2.243E+01    2.209E+01    2.176E+01    2.142E+01    2.108E+01    2.075E+01    2.041E+01    2.008E+01    1.975E+01
     1.941E+01    1.908E+01    1.875E+01    1.841E+01    1.808E+01    1.775E+01    1.742E+01    1.709E+01    1.677E+01    1.644E+01
     1.611E+01    1.578E+01    1.546E+01    1.513E+01    1.481E+01    1.449E+01    1.417E+01    1.385E+01    1.353E+01    1.321E+01
     1.289E+01    1.257E+01    1.226E+01    1.194E+01    1.163E+01    1.132E+01    1.101E+01    1.070E+01    1.039E+01    1.008E+01
     9.778E+00    9.474E+00    9.171E+00    8.869E+00    8.569E+00    8.271E+00    7.973E+00    7.677E+00    7.383E+00    7.090E+00
     6.799E+00    6.509E+00    6.221E+00    5.934E+00    5.648E+00    5.365E+00    5.083E+00    4.802E+00    4.523E+00    4.246E+00
     3.970E+00    3.696E+00    3.424E+00    3.153E+00    2.884E+00    2.617E+00    2.352E+00    2.088E+00    1.826E+00    1.566E+00
     1.308E+00    1.051E+00    7.962E-01    5.433E-01    2.923E-01    4.315E-02   -2.041E-01   -4.495E-01   -6.930E-01   -9.345E-01
    -1.174E+00   -1.412E+00   -1.647E+00   -1.881E+00   -2.113E+00   -2.342E+00   -2.570E+00   -2.795E+00   -3.019E+00   -3.240E+00
    -3.459E+00   -3.677E+00   -3.892E+00   -4.105E+00   -4.316E+00   -4.525E+00   -4.732E+00   -4.937E+00   -5.140E+00   -5.341E+00
    -5.540E+00   -5.736E+00   -5.931E+00   -6.123E+00   -6.314E+00   -6.502E+00   -6.688E+00   -6.872E+00   -7.054E+00   -7.234E+00
    -7.412E+00   -7.588E+00   -7.762E+00   -7.933E+00   -8.103E+00   -8.270E+00   -8.435E+00   -8.598E+00   -8.759E+00   -8.918E+00
    -9.075E+00   -9.230E+00   -9.382E+00   -9.533E+00   -9.681E+00   -9.827E+00   -9.971E+00   -1.011E+01   -1.025E+01   -1.039E+01
    -1.053E+01   -1.066E+01   -1.079E+01   -1.092E+01   -1.105E+01   -1.117E+01   -1.130E+01   -1.142E+01   -1.154E+01   -1.165E+01
    -1.177E+01   -1.188E+01   -1.200E+01   -1.211E+01   -1.222E+01   -1.232E+01   -1.243E+01   -1.253E+01   -1.264E+01   -1.274E+01
    -1.284E+01   -1.293E+01   -1.303E+01   -1.313E+01   -1.322E+01   -1.332E+01   -1.341E+01   -1.350E+01   -1.359E+01   -1.368E+01
    -1.377E+01   -1.385E+01   -1.394E+01   -1.402E+01   -1.411E+01   -1.419E+01   -1.427E+01   -1.436E+01   -1.444E+01   -1.452E+01
    -1.460E+01   -1.468E+01   -1.475E+01   -1.483E+01   -1.491E+01   -1.499E+01   -1.506E+01   -1.514E+01   -1.522E+01   -1.529E+01
    -1.537E+01   -1.544E+01   -1.552E+01   -1.559E+01   -1.567E+01   -1.574E+01   -1.582E+01   -1.589E+01   -1.596E+01   -1.604E+01
    -1.611E+01   -1.618E+01   -1.625E+01   -1.632E+01   -1.640E+01   -1.647E+01   -1.654E+01   -1.661E+01   -1.668E+01   -1.675E+01
    -1.682E+01   -1.689E+01   -1.696E+01   -1.703E+01   -1.710E+01   -1.717E+01   -1.724E+01   -1.731E+01   -1.738E+01   -1.745E+01
    -1.752E+01   -1.759E+01   -1.766E+01   -1.773E+01   -1.780E+01   -1.787E+01   -1.794E+01   -1.801E+01   -1.807E+01   -1.814E+01
    -1.821E+01   -1.828E+01   -1.835E+01   -1.842E+01   -1.849E+01   -1.856E+01   -1.863E+01   -1.869E+01   -1.876E+01   -1.883E+01
    -1.890E+01   -1.896E+01   -1.903E+01   -1.910E+01   -1.916E+01   -1.923E+01   -1.929E+01   -1.936E+01   -1.942E+01   -1.948E+01
    -1.955E+01   -1.961E+01   -1.967E+01   -1.973E+01   -1.979E+01   -1.984E+01   -1.990E+01   -1.996E+01   -2.001E+01   -2.006E+01
    -2.012E+01   -2.017E+01   -2.022E+01   -2.027E+01   -2.032E+01   -2.036E+01   -2.041E+01   -2.045E+01   -2.049E+01   -2.053E+01
    -2.057E+01   -2.061E+01   -2.064E+01   -2.068E+01   -2.071E+01   -2.074E+01   -2.077E+01   -2.080E+01   -2.082E+01   -2.085E+01
    -2.087E+01   -2.089E+01   -2.091E+01   -2.092E+01   -2.094E+01   -2.095E+01   -2.096E+01   -2.097E+01   -2.098E+01   -2.098E+01
    -2.099E+01   -2.099E+01   -2.099E+01   -2.099E+01   -2.099E+01   -2.099E+01   -2.098E+01   -2.097E+01   -2.096E+01   -2.095E+01
    -2.094E+01   -2.093E+01   -2.091E+01   -2.089E+01   -2.088E+01   -2.086E+01   -2.083E+01   -2.081E+01   -2.079E+01   -2.076E+01
    -2.073E+01   -2.070E+01   -2.067E+01   -2.064E+01   -2.061E+01   -2.057E+01   -2.054E+01   -2.050E+01   -2.046E+01   -2.042E+01
    -2.038E+01   -2.034E+01   -2.029E+01   -2.024E+01   -2.020E+01   -2.015E+01   -2.010E+01   -2.005E+01   -1.999E+01   -1.994E+01
    -1.989E+01   -1.983E+01   -1.977E+01   -1.971E+01   -1.965E+01   -1.959E+01   -1.953E+01   -1.946E+01   -1.940E+01   -1.933E+01
    -1.926E+01   -1.919E+01   -1.912E+01   -1.905E+01   -1.898E+01   -1.890E+01   -1.883E+01   -1.875E+01   -1.867E+01   -1.859E+01
    -1.851E+01   -1.843E+01   -1.835E+01   -1.826E+01   -1.818E+01   -1.809E+01   -1.800E+01   -1.791E+01   -1.782E+01   -1.773E+01
    -1.764E+01   -1.755E+01   -1.745E+01   -1.735E+01   -1.726E+01   -1.716E+01   -1.706E+01   -1.696E+01   -1.686E+01   -1.676E+01
    -1.665E+01   -1.655E+01   -1.644E+01   -1.633E+01   -1.623E+01   -1.612E+01   -1.601E+01   -1.590E+01   -1.579E+01   -1.568E+01
    -1.556E+01   -1.545E+01   -1.533E+01   -1.522E+01   -1.510E+01   -1.499E+01   -1.487E+01   -1.475E+01   -1.463E+01   -1.452E+01
    -1.440E+01   -1.428E+01   -1.416E+01   -1.404E+01   -1.391E+01   -1.379E+01   -1.367E+01   -1.355E+01   -1.343E+01   -1.330E+01
    -1.318E+01   -1.306E+01   -1.293E+01   -1.281E+01   -1.268E+01   -1.256E+01   -1.244E+01   -1.231E+01   -1.219E+01   -1.206E+01
    -1.194E+01   -1.181E+01   -1.169E+01   -1.156E+01   -1.144E+01   -1.132E+01   -1.119E+01   -1.107E+01   -1.094E+01   -1.082E+01
    -1.070E+01   -1.057E+01   -1.045E+01   -1.032E+01   -1.020E+01   -1.008E+01   -9.954E+00   -9.831E+00   -9.707E+00   -9.584E+00
    -9.461E+00   -9.338E+00   -9.215E+00   -9.092E+00   -8.969E+00   -8.847E+00   -8.724E+00   -8.602E+00   -8.479E+00   -8.357E+00
    -8.235E+00   -8.112E+00   -7.990E+00   -7.868E+00   -7.747E+00   -7.625E+00   -7.503E+00   -7.382E+00   -7.260E+00   -7.139E+00
    -7.018E+00   -6.897E+00   -6.775E+00   -6.655E+00   -6.534E+00   -6.413E+00   -6.293E+00   -6.172E+00
 Cr       Conc. = 2.13E+03
