 LCModel (Version 6.3-1L) Copyright: S.W. Provencher.          Ref.: Magn. Reson. Med. 30:672-679 (1993).                
 Slice#2 Row#7 Col#2  PD_24_press_2_raw_act
 36 lines in following concentration table = NCONC+1
    Conc.  %SD /Cr+PCr  Metabolite                                         
 1.16E+03  31%   0.335 Ala                                                 
   63.886 858% 1.8E-02 Asp                                                 
 1.44E+03  41%   0.415 Cr                                                  
 2.03E+03  29%   0.585 PCr                                                 
  233.511 184% 6.7E-02 GABA                                                
    0.000 999%   0.000 Glc                                                 
 3.17E+03  28%   0.911 Gln                                                 
 4.64E+03  22%   1.336 Glu                                                 
 1.50E+03   4%   0.432 GPC                                                 
    0.000 999%   0.000 PCh                                                 
 1.07E+03  20%   0.309 GSH                                                 
 3.52E+03  21%   1.013 Ins                                                 
    0.000 999%   0.000 Lac                                                 
 5.82E+03   6%   1.675 NAA                                                 
  241.753 137% 7.0E-02 NAAG                                                
  391.182  18%   0.113 Scyllo                                              
    0.000 999%   0.000 Tau                                                 
  274.869 104% 7.9E-02 -CrCH2                                              
 1.50E+03   4%   0.432 GPC+PCh                                             
 6.06E+03   2%   1.744 NAA+NAAG                                            
 3.47E+03   4%   1.000 Cr+PCr                                              
 7.80E+03  21%   2.247 Glu+Gln                                             
    0.000 999%   0.000 Lip13a                                              
  109.616 145% 3.2E-02 Lip13b                                              
    0.000 999%   0.000 Lip09                                               
 1.83E+03  13%   0.528 MM09                                                
    2.722 999% 7.8E-04 Lip20                                               
 2.75E+03  13%   0.793 MM20                                                
  549.763  13%   0.158 MM12                                                
 1.43E+03  13%   0.412 MM14                                                
  728.173  13%   0.210 MM17                                                
  109.616 145% 3.2E-02 Lip13a+Lip13b                                       
 2.09E+03  16%   0.602 MM14+Lip13a+Lip13b+MM12                             
 1.83E+03  13%   0.528 MM09+Lip09                                          
 2.76E+03  14%   0.793 MM20+Lip20                                          
   6 lines in following misc. output table
  FWHM = 0.084 ppm    S/N =  12                                            
  Data shift = 0.000 ppm                                                   
  Ph: -44 deg     -16.6 deg/ppm                                            
  alphaB,S = 1.2E+00,   2.4E+01                                            
   14 spline knots.   Ns =10(1)                                            
  (17)15 infls.   (21) 3 extrs.                                            
  498 points on ppm-axis = NY
      4.000000     3.992357     3.984714     3.977070     3.969427     3.961784     3.954141     3.946497     3.938854     3.931211
      3.923568     3.915925     3.908281     3.900638     3.892995     3.885352     3.877708     3.870065     3.862422     3.854779
      3.847136     3.839492     3.831849     3.824206     3.816563     3.808919     3.801276     3.793633     3.785990     3.778347
      3.770703     3.763060     3.755417     3.747774     3.740130     3.732487     3.724844     3.717201     3.709558     3.701914
      3.694271     3.686628     3.678985     3.671341     3.663698     3.656055     3.648412     3.640769     3.633125     3.625482
      3.617839     3.610196     3.602552     3.594909     3.587266     3.579623     3.571980     3.564336     3.556693     3.549050
      3.541407     3.533763     3.526120     3.518477     3.510834     3.503191     3.495547     3.487904     3.480261     3.472618
      3.464974     3.457331     3.449688     3.442045     3.434402     3.426758     3.419115     3.411472     3.403829     3.396185
      3.388542     3.380899     3.373256     3.365613     3.357969     3.350326     3.342683     3.335040     3.327396     3.319753
      3.312110     3.304467     3.296824     3.289180     3.281537     3.273894     3.266251     3.258607     3.250964     3.243321
      3.235678     3.228034     3.220391     3.212748     3.205105     3.197462     3.189818     3.182175     3.174532     3.166889
      3.159245     3.151602     3.143959     3.136316     3.128673     3.121029     3.113386     3.105743     3.098100     3.090456
      3.082813     3.075170     3.067527     3.059884     3.052240     3.044597     3.036954     3.029311     3.021667     3.014024
      3.006381     2.998738     2.991095     2.983451     2.975808     2.968165     2.960522     2.952878     2.945235     2.937592
      2.929949     2.922306     2.914662     2.907019     2.899376     2.891733     2.884089     2.876446     2.868803     2.861160
      2.853517     2.845873     2.838230     2.830587     2.822944     2.815300     2.807657     2.800014     2.792371     2.784728
      2.777084     2.769441     2.761798     2.754155     2.746511     2.738868     2.731225     2.723582     2.715939     2.708295
      2.700652     2.693009     2.685366     2.677722     2.670079     2.662436     2.654793     2.647150     2.639506     2.631863
      2.624220     2.616577     2.608933     2.601290     2.593647     2.586004     2.578361     2.570717     2.563074     2.555431
      2.547788     2.540144     2.532501     2.524858     2.517215     2.509572     2.501928     2.494285     2.486642     2.478999
      2.471355     2.463712     2.456069     2.448426     2.440783     2.433139     2.425496     2.417853     2.410210     2.402566
      2.394923     2.387280     2.379637     2.371994     2.364350     2.356707     2.349064     2.341421     2.333777     2.326134
      2.318491     2.310848     2.303205     2.295561     2.287918     2.280275     2.272632     2.264988     2.257345     2.249702
      2.242059     2.234416     2.226772     2.219129     2.211486     2.203843     2.196199     2.188556     2.180913     2.173270
      2.165627     2.157983     2.150340     2.142697     2.135054     2.127410     2.119767     2.112124     2.104481     2.096838
      2.089194     2.081551     2.073908     2.066265     2.058621     2.050978     2.043335     2.035692     2.028049     2.020405
      2.012762     2.005119     1.997476     1.989833     1.982190     1.974546     1.966903     1.959260     1.951617     1.943974
      1.936331     1.928688     1.921045     1.913402     1.905759     1.898115     1.890472     1.882829     1.875186     1.867543
      1.859900     1.852257     1.844614     1.836971     1.829327     1.821684     1.814041     1.806398     1.798755     1.791112
      1.783469     1.775826     1.768183     1.760540     1.752896     1.745253     1.737610     1.729967     1.722324     1.714681
      1.707038     1.699395     1.691752     1.684108     1.676465     1.668822     1.661179     1.653536     1.645893     1.638250
      1.630607     1.622964     1.615321     1.607677     1.600034     1.592391     1.584748     1.577105     1.569462     1.561819
      1.554176     1.546533     1.538890     1.531246     1.523603     1.515960     1.508317     1.500674     1.493031     1.485388
      1.477745     1.470102     1.462458     1.454815     1.447172     1.439529     1.431886     1.424243     1.416600     1.408957
      1.401314     1.393671     1.386027     1.378384     1.370741     1.363098     1.355455     1.347812     1.340169     1.332526
      1.324883     1.317240     1.309596     1.301953     1.294310     1.286667     1.279024     1.271381     1.263738     1.256095
      1.248452     1.240808     1.233165     1.225522     1.217879     1.210236     1.202593     1.194950     1.187307     1.179664
      1.172021     1.164377     1.156734     1.149091     1.141448     1.133805     1.126162     1.118519     1.110876     1.103233
      1.095590     1.087946     1.080303     1.072660     1.065017     1.057374     1.049731     1.042088     1.034445     1.026802
      1.019158     1.011515     1.003872     0.996229     0.988586     0.980943     0.973300     0.965657     0.958014     0.950371
      0.942727     0.935084     0.927441     0.919798     0.912155     0.904512     0.896869     0.889226     0.881583     0.873940
      0.866296     0.858653     0.851010     0.843367     0.835724     0.828081     0.820438     0.812795     0.805152     0.797508
      0.789865     0.782222     0.774579     0.766936     0.759293     0.751650     0.744007     0.736364     0.728721     0.721077
      0.713434     0.705791     0.698148     0.690505     0.682862     0.675219     0.667576     0.659933     0.652290     0.644646
      0.637003     0.629360     0.621717     0.614074     0.606431     0.598788     0.591145     0.583502     0.575858     0.568215
      0.560572     0.552929     0.545286     0.537643     0.530000     0.522357     0.514714     0.507071     0.499427     0.491784
      0.484141     0.476498     0.468855     0.461212     0.453569     0.445925     0.438282     0.430639     0.422996     0.415353
      0.407710     0.400067     0.392424     0.384780     0.377137     0.369494     0.361851     0.354208     0.346565     0.338922
      0.331278     0.323635     0.315992     0.308349     0.300706     0.293063     0.285420     0.277777     0.270133     0.262490
      0.254847     0.247204     0.239561     0.231918     0.224275     0.216631     0.208988     0.201345
 NY phased data points follow
  -3.47945E+01 -3.28260E+01 -3.20578E+01 -2.24473E+01 -1.08173E+01 -1.19006E+01 -6.20993E-01 -3.48118E+00  8.82409E+00  6.95434E+00
   1.12572E+01  6.66715E+00  8.98523E+00  3.02581E+00  1.94203E+00 -9.20689E+00 -1.10426E+01 -2.17322E+01 -2.58607E+01 -3.35320E+01
  -2.33220E+01 -2.36125E+01 -2.36550E+01 -2.91860E+01 -2.18205E+01 -2.72963E+01 -2.43823E+01 -2.35896E+01 -1.77758E+01 -1.42170E+01
  -1.81342E+01 -1.18732E+01 -2.11702E+01 -1.18839E+01 -1.82324E+01 -1.49376E+01 -2.20080E+01 -1.30994E+01 -1.40602E+01 -2.08149E+01
  -2.02960E+01 -1.62848E+01 -1.48580E+01 -1.83578E+01 -1.58804E+01 -1.23298E+01 -5.90535E+00 -1.05518E+01 -7.68708E+00 -7.20166E+00
  -1.13156E+01 -1.53205E+01 -1.41795E+01 -1.98236E+01 -2.41898E+01 -2.92411E+01 -1.82775E+01 -2.77573E+01 -1.73065E+01 -1.55714E+01
  -2.76942E+01 -2.79350E+01 -2.67438E+01 -2.82637E+01 -2.72339E+01 -3.26673E+01 -2.83074E+01 -3.10827E+01 -3.08936E+01 -3.35728E+01
  -3.21240E+01 -3.10384E+01 -1.76516E+01 -3.40013E+01 -1.71836E+01 -2.02109E+01 -2.36944E+01 -2.33641E+01 -2.45116E+01 -1.99415E+01
  -2.36788E+01 -1.84139E+01 -1.35287E+01 -1.50072E+01 -1.64170E+01 -1.63907E+01 -1.92331E+01 -1.91467E+01 -1.50856E+01 -1.39210E+01
  -1.18070E+01 -1.24668E+00 -8.40695E+00 -1.19131E+00 -1.03796E+00  6.34038E+00  1.61089E+01  1.74045E+01  3.71442E+01  3.82234E+01
   4.61612E+01  5.05582E+01  6.38948E+01  5.62079E+01  6.63092E+01  6.53170E+01  5.06915E+01  4.35235E+01  3.77769E+01  1.51901E+01
   1.16912E+01  2.25449E+00 -4.07937E+00 -2.46228E+00  2.55373E+00 -6.28533E+00 -4.36058E+00 -3.11208E+00  7.16205E+00  4.87117E+00
   8.94542E+00  1.50388E+01  3.00013E+01  3.51702E+01  4.47817E+01  4.04732E+01  5.26770E+01  6.24598E+01  5.84450E+01  5.62260E+01
   4.88402E+01  3.56208E+01  3.00453E+01  1.13404E+01  6.64321E+00  2.52967E+00 -3.51375E+00 -1.55080E+01 -1.16946E+01 -9.50036E+00
  -1.32624E+01 -7.67771E+00 -1.46468E+01 -1.82996E+01 -1.43559E+01 -1.23595E+01 -9.98721E+00 -1.82299E+01 -1.79054E+01 -1.67946E+01
  -1.36571E+01 -2.38440E+01 -1.34073E+01 -1.43775E+01 -1.01725E+01 -1.81278E+01 -1.05864E+01 -1.82736E+01 -6.07676E+00 -1.63278E+01
  -1.88959E+01 -1.96548E+01 -1.38258E+01 -2.17626E+01 -1.30311E+01 -1.24679E+01 -1.12457E+01 -1.39204E+01 -7.74332E+00 -2.88462E+01
  -1.77020E+01 -2.79188E+01 -2.61405E+01 -2.43852E+01 -2.81829E+01 -2.01728E+01 -2.75935E+01 -2.49558E+01 -2.71605E+01 -3.20324E+01
  -1.74134E+01 -2.23427E+01 -2.27169E+01 -2.92243E+01 -1.24468E+01 -1.30973E+01 -1.78067E+01 -8.99536E+00 -8.73616E+00 -9.58088E+00
  -8.85217E+00  1.66317E+00  2.67772E+00  5.67300E+00  8.03790E+00  5.49596E+00  1.07686E+01  2.27002E+00  4.10204E-01 -7.38810E-01
   1.13549E+00  6.06383E+00  2.26863E+00 -1.63999E+00  3.03009E-01 -7.32316E-01 -4.67108E+00  1.37566E+00 -1.59011E+00 -2.35644E+00
   5.59119E+00  9.02293E+00  4.56475E+00  1.08625E+01  1.21808E+01  5.68959E+00  6.95586E+00  1.53008E+01  9.03746E+00  6.94543E+00
  -2.85191E-01  2.05114E+00  2.47170E+00  1.39510E+00  2.23776E+00  7.78383E+00  8.64701E+00  7.45376E+00  1.31434E+01  5.68836E+00
   1.33073E+01  8.22437E+00  1.05125E+01  1.53065E+01  2.83580E+00  7.54986E+00  8.50447E+00  1.60937E+01  1.70081E+01  8.41142E+00
   4.77909E+00  1.18444E+01  9.89301E+00  8.53510E+00  1.21653E+01  1.40156E+01  2.04857E+01  1.56561E+01  2.94955E+01  3.63020E+01
   3.55755E+01  4.14342E+01  5.91694E+01  6.65224E+01  7.93765E+01  9.74900E+01  1.09706E+02  1.18433E+02  1.33472E+02  1.32861E+02
   1.51208E+02  1.57826E+02  1.38124E+02  1.18637E+02  1.00226E+02  9.09403E+01  6.94142E+01  5.22316E+01  3.85078E+01  4.30264E+01
   2.65517E+01  2.85436E+01  2.52065E+01  2.71257E+01  2.28347E+01  2.02887E+01  1.97853E+01  1.80125E+01  1.53830E+01  1.71526E+01
   1.41075E+01  1.13391E+01  2.18139E+01  1.74563E+01  2.01443E+01  1.41180E+01  1.92285E+01  1.50238E+01  1.55467E+01  2.30493E+01
   1.32001E+01  1.43217E+01  1.41885E+01  2.37734E+01  1.91828E+01  2.61486E+01  1.19817E+01  1.62889E+01  1.35586E+01  2.14115E+01
   2.07557E+01  2.60944E+01  2.78972E+01  2.37778E+01  2.06096E+01  2.93129E+01  2.59329E+01  3.80067E+01  3.00309E+01  3.99059E+01
   3.39225E+01  2.57461E+01  3.30494E+01  3.77912E+01  3.14453E+01  3.13503E+01  3.24786E+01  4.00118E+01  3.26353E+01  3.35530E+01
   2.73760E+01  1.57047E+01  2.97699E+01  1.55595E+01  2.23063E+01  1.75348E+01  1.08611E+01  1.50328E+01  1.44036E+01  7.14516E+00
   9.64101E+00  1.03394E+01  3.27614E+00  8.48818E+00  1.31510E+01  6.35917E+00  1.20098E+01  1.71806E+01  9.20674E+00  9.33117E+00
   1.20564E+01  5.98315E+00  1.05889E+01  1.04530E+01  1.31521E+01  8.60086E+00  1.51516E+01  4.62674E+00  1.55834E+01  1.66006E+01
   2.01198E+01  2.17256E+00  7.83870E+00  1.91842E+01  1.19407E+01  1.41486E+01  1.53321E+01  1.21570E+01  1.37528E+01  1.09601E+01
   1.16483E+01  1.20904E+01  8.42383E+00  1.21798E+01  1.21824E+01  1.35381E+01  8.76064E+00  7.86542E+00  9.62171E+00  9.06264E+00
   1.46970E+01  1.78886E+01  1.32063E+01  7.05061E+00  1.45066E+01  1.08526E+01  1.29829E+01  1.08105E+01  1.21692E+01  1.61648E+01
   9.23850E+00  1.16449E+01  1.22498E+01  1.71076E+01  1.34476E+01  4.75493E+00  1.46124E+01  6.57897E+00  1.25915E+01  8.50588E+00
   1.11106E+01  1.46895E+00  4.89975E+00  1.14061E+01  3.43686E+00  6.48266E+00  8.38467E+00  2.50720E+00  9.28551E+00  7.40300E+00
   1.23456E+01  9.49374E+00  1.17772E+01  1.51400E+00  9.49508E+00  1.18676E+01  1.56337E+01  3.88990E+00  1.06947E+01  6.18642E+00
   9.73611E+00  1.48729E+01  3.66909E+00  1.11097E+01  1.12514E+01  8.19728E+00  9.52521E+00  1.32157E+01  7.34085E+00  6.90091E+00
   7.49263E+00  1.50629E+01  1.01928E+01  3.71167E-01  1.75121E+01  1.62162E+01  3.64199E+00  1.59174E+01  6.80141E+00  5.70204E+00
   2.69091E-01  1.36212E+01  4.31321E+00  5.59238E+00  3.98726E+00  1.83840E+01  2.61635E+00  7.33479E-01  1.49764E+01  1.11269E+01
   3.45469E+00  8.33718E+00  3.31822E+00  1.17107E+01  7.50530E+00  1.17494E+01  7.43146E+00  1.39147E+01  9.27827E+00  7.20367E+00
   1.05272E+01  9.18437E+00  2.24440E+00  1.45296E+01  9.78449E+00  9.50419E+00  5.59522E+00  1.24612E+01  1.09166E+01  1.01303E+01
   8.49440E+00  1.29567E+01  7.72631E+00  9.29253E+00  5.57898E+00  4.14958E+00  6.93930E+00  1.08811E+01  8.69715E+00  7.01256E+00
   1.44662E+01  3.72142E+00  1.05697E+01  1.10967E+01  3.51473E+00  2.13317E+00  8.97182E+00  8.35764E+00  2.33996E+00  5.52511E+00
   6.59699E+00  1.01892E+01  5.14787E+00  1.08864E+01  1.17873E+01  1.30467E+01  1.21143E+01  1.52534E+01  5.49045E+00  7.41511E+00
   9.25286E+00  1.54412E+01  1.48748E+01  1.16326E+01  7.71865E+00  4.97082E+00  9.44924E+00  5.44717E+00
 NY points of the fit to the data follow
  -3.13016E+01 -2.85487E+01 -2.47565E+01 -2.03486E+01 -1.56189E+01 -1.09419E+01 -5.14784E+00 -6.64959E-01  3.18810E+00  7.65196E+00
   9.88387E+00  9.50117E+00  7.35125E+00  3.77510E+00 -1.65381E+00 -7.92663E+00 -1.28395E+01 -1.71601E+01 -2.17780E+01 -2.36755E+01
  -2.42682E+01 -2.49233E+01 -2.56610E+01 -2.65998E+01 -2.53531E+01 -2.35866E+01 -2.30260E+01 -2.14471E+01 -1.96312E+01 -1.82503E+01
  -1.49220E+01 -1.23741E+01 -1.28835E+01 -1.43944E+01 -1.48047E+01 -1.68384E+01 -2.08139E+01 -2.15439E+01 -2.05663E+01 -2.07935E+01
  -2.01774E+01 -1.83937E+01 -1.73296E+01 -1.58559E+01 -1.46457E+01 -1.37774E+01 -1.34499E+01 -1.21815E+01 -1.14589E+01 -1.36427E+01
  -1.59437E+01 -1.74544E+01 -1.93387E+01 -2.17452E+01 -2.33192E+01 -2.39517E+01 -2.39433E+01 -2.35986E+01 -2.38674E+01 -2.43018E+01
  -2.44212E+01 -2.42749E+01 -2.44604E+01 -2.48683E+01 -2.53149E+01 -2.58172E+01 -2.58228E+01 -2.56025E+01 -2.52506E+01 -2.44826E+01
  -2.39623E+01 -2.35852E+01 -2.31607E+01 -2.31572E+01 -2.33055E+01 -2.33556E+01 -2.30462E+01 -2.17214E+01 -2.09146E+01 -2.06569E+01
  -2.01562E+01 -1.90607E+01 -1.74962E+01 -1.68529E+01 -1.60654E+01 -1.52954E+01 -1.44998E+01 -1.33170E+01 -1.31169E+01 -1.44831E+01
  -1.58126E+01 -1.58383E+01 -1.47853E+01 -8.85467E+00  7.33865E-01  6.07142E+00  1.15055E+01  1.95911E+01  3.09193E+01  3.90261E+01
   4.61715E+01  5.35165E+01  5.90396E+01  6.65558E+01  7.13848E+01  6.50507E+01  5.26059E+01  4.21560E+01  3.26266E+01  1.86404E+01
   6.50183E+00  5.16118E-01 -3.97995E+00 -6.89988E+00 -8.22717E+00 -1.42548E+01 -1.42183E+01 -6.13038E+00  6.89879E-01  5.03873E+00
   1.02899E+01  1.90629E+01  2.92600E+01  3.63186E+01  4.32454E+01  4.88051E+01  5.38580E+01  6.05552E+01  6.13132E+01  5.30450E+01
   4.25626E+01  3.52702E+01  2.60825E+01  1.39225E+01  5.84818E+00  1.65127E+00 -3.08418E+00 -4.10158E+00 -7.70604E+00 -1.24712E+01
  -1.31783E+01 -1.26561E+01 -1.20444E+01 -1.17003E+01 -1.15391E+01 -1.19409E+01 -1.22168E+01 -1.23815E+01 -1.26241E+01 -1.26944E+01
  -1.27335E+01 -1.33360E+01 -1.36551E+01 -1.39454E+01 -1.40324E+01 -1.40239E+01 -1.42609E+01 -1.44232E+01 -1.45580E+01 -1.45237E+01
  -1.46329E+01 -1.51462E+01 -1.54219E+01 -1.53475E+01 -1.51954E+01 -1.53118E+01 -1.59047E+01 -1.65957E+01 -1.69334E+01 -1.73344E+01
  -1.80383E+01 -1.92628E+01 -1.95442E+01 -1.92847E+01 -1.93270E+01 -1.94669E+01 -2.01032E+01 -2.04124E+01 -1.95967E+01 -1.84724E+01
  -1.77276E+01 -1.71105E+01 -1.60361E+01 -1.46647E+01 -1.34480E+01 -1.25321E+01 -1.13059E+01 -9.95769E+00 -8.47564E+00 -6.95417E+00
  -5.19610E+00 -3.68711E+00 -2.66347E+00 -1.63640E+00 -2.14569E-01  5.24855E-01  1.48146E+00  2.14961E+00  2.50146E+00  2.86372E+00
   4.00742E+00  5.00750E+00  3.97643E+00  1.95689E+00  1.33343E+00  4.77302E-01 -2.69551E-01 -1.38712E+00 -2.98056E+00 -3.42025E+00
  -1.56451E+00  1.30457E+00  2.27409E+00  2.80292E+00  5.44678E+00  7.86580E+00  8.71379E+00  7.41488E+00  4.88365E+00  2.79651E+00
   1.77333E+00 -1.38740E-01 -2.61039E+00 -3.28418E+00 -1.02635E+00  1.85225E+00  4.91914E+00  7.23635E+00  9.53617E+00  1.17585E+01
   1.28020E+01  1.25666E+01  1.23766E+01  1.26271E+01  1.33944E+01  1.37883E+01  1.40749E+01  1.48935E+01  1.49923E+01  1.43810E+01
   1.38168E+01  1.22983E+01  1.04604E+01  1.00024E+01  1.04600E+01  1.14844E+01  1.43927E+01  1.72801E+01  1.99486E+01  2.45076E+01
   3.77604E+01  5.26055E+01  6.00895E+01  6.90840E+01  8.18486E+01  9.90887E+01  1.11677E+02  1.21282E+02  1.29892E+02  1.36101E+02
   1.45731E+02  1.50354E+02  1.38860E+02  1.20338E+02  1.06267E+02  9.22931E+01  7.14709E+01  5.41272E+01  4.54655E+01  3.82693E+01
   3.39096E+01  3.07142E+01  2.05674E+01  1.68280E+01  1.59630E+01  1.55992E+01  1.51237E+01  1.49431E+01  1.46719E+01  1.43160E+01
   1.38997E+01  1.35484E+01  1.32509E+01  1.30811E+01  1.29933E+01  1.28737E+01  1.28040E+01  1.28118E+01  1.28352E+01  1.29004E+01
   1.30474E+01  1.32251E+01  1.34976E+01  1.38451E+01  1.42576E+01  1.47430E+01  1.53152E+01  1.59647E+01  1.66836E+01  1.74752E+01
   1.83373E+01  1.92466E+01  2.01883E+01  2.11457E+01  2.20937E+01  2.30178E+01  2.38910E+01  2.46973E+01  2.54226E+01  2.60507E+01
   2.65781E+01  2.70020E+01  2.73244E+01  2.75645E+01  2.77578E+01  2.79905E+01  2.84950E+01  2.91261E+01  2.84899E+01  2.77316E+01
   2.70402E+01  2.65071E+01  2.51705E+01  2.29853E+01  2.08369E+01  1.94938E+01  1.82468E+01  1.64207E+01  1.32184E+01  1.04397E+01
   9.30446E+00  8.79200E+00  8.22534E+00  8.22129E+00  9.54314E+00  1.20727E+01  1.42276E+01  1.54413E+01  1.49684E+01  1.53943E+01
   1.57582E+01  1.50089E+01  1.42025E+01  1.38481E+01  1.32734E+01  1.34520E+01  1.31752E+01  1.24946E+01  1.21940E+01  1.21028E+01
   1.21253E+01  1.22175E+01  1.23465E+01  1.24850E+01  1.26075E+01  1.26939E+01  1.27292E+01  1.27073E+01  1.26293E+01  1.25046E+01
   1.23458E+01  1.21690E+01  1.19876E+01  1.18139E+01  1.16542E+01  1.15124E+01  1.13873E+01  1.12769E+01  1.11768E+01  1.10841E+01
   1.09956E+01  1.09103E+01  1.08271E+01  1.07474E+01  1.06719E+01  1.06033E+01  1.05433E+01  1.04951E+01  1.04603E+01  1.04418E+01
   1.04410E+01  1.04605E+01  1.05013E+01  1.05653E+01  1.06529E+01  1.07652E+01  1.09021E+01  1.10644E+01  1.12508E+01  1.14613E+01
   1.16938E+01  1.19472E+01  1.22185E+01  1.25055E+01  1.28040E+01  1.31107E+01  1.34201E+01  1.37280E+01  1.40282E+01  1.43159E+01
   1.45845E+01  1.48288E+01  1.50426E+01  1.52216E+01  1.53604E+01  1.54562E+01  1.55052E+01  1.55063E+01  1.54581E+01  1.53617E+01
   1.52178E+01  1.50296E+01  1.47997E+01  1.45332E+01  1.42341E+01  1.39086E+01  1.35614E+01  1.31990E+01  1.28261E+01  1.24486E+01
   1.20707E+01  1.16977E+01  1.13326E+01  1.09793E+01  1.06398E+01  1.03167E+01  1.00108E+01  9.72404E+00  9.45596E+00  9.20741E+00
   8.97743E+00  8.76633E+00  8.57274E+00  8.39659E+00  8.23615E+00  8.09116E+00  7.95990E+00  7.84213E+00  7.73619E+00  7.64183E+00
   7.55739E+00  7.48274E+00  7.41641E+00  7.35844E+00  7.30746E+00  7.26353E+00  7.22532E+00  7.19307E+00  7.16563E+00  7.14332E+00
   7.12505E+00  7.11111E+00  7.10046E+00  7.09357E+00  7.08951E+00  7.08878E+00  7.09043E+00  7.09493E+00  7.10141E+00  7.11045E+00
   7.12123E+00  7.13434E+00  7.14887E+00  7.16542E+00  7.18317E+00  7.20280E+00  7.22352E+00  7.24594E+00  7.26920E+00  7.29396E+00
   7.31945E+00  7.34639E+00  7.37400E+00  7.40290E+00  7.43228E+00  7.46282E+00  7.49382E+00  7.52597E+00  7.55849E+00  7.59202E+00
   7.62577E+00  7.66048E+00  7.69543E+00  7.73133E+00  7.76740E+00  7.80428E+00  7.84124E+00  7.87902E+00  7.91693E+00  7.95565E+00
   7.99442E+00  8.03391E+00  8.07341E+00  8.11371E+00  8.15410E+00  8.19531E+00  8.23658E+00  8.27865E+00
 NY background values follow
    -5.212E+01   -5.186E+01   -5.159E+01   -5.133E+01   -5.107E+01   -5.080E+01   -5.054E+01   -5.027E+01   -5.001E+01   -4.975E+01
    -4.948E+01   -4.922E+01   -4.896E+01   -4.869E+01   -4.843E+01   -4.817E+01   -4.790E+01   -4.764E+01   -4.738E+01   -4.711E+01
    -4.685E+01   -4.659E+01   -4.632E+01   -4.606E+01   -4.580E+01   -4.554E+01   -4.527E+01   -4.501E+01   -4.475E+01   -4.449E+01
    -4.423E+01   -4.396E+01   -4.370E+01   -4.344E+01   -4.318E+01   -4.292E+01   -4.266E+01   -4.240E+01   -4.214E+01   -4.188E+01
    -4.161E+01   -4.135E+01   -4.109E+01   -4.083E+01   -4.057E+01   -4.032E+01   -4.006E+01   -3.980E+01   -3.954E+01   -3.928E+01
    -3.902E+01   -3.876E+01   -3.850E+01   -3.825E+01   -3.799E+01   -3.773E+01   -3.747E+01   -3.722E+01   -3.696E+01   -3.670E+01
    -3.645E+01   -3.619E+01   -3.593E+01   -3.568E+01   -3.542E+01   -3.517E+01   -3.491E+01   -3.466E+01   -3.440E+01   -3.415E+01
    -3.390E+01   -3.364E+01   -3.339E+01   -3.314E+01   -3.289E+01   -3.263E+01   -3.238E+01   -3.213E+01   -3.188E+01   -3.163E+01
    -3.138E+01   -3.113E+01   -3.088E+01   -3.063E+01   -3.038E+01   -3.013E+01   -2.988E+01   -2.964E+01   -2.939E+01   -2.914E+01
    -2.889E+01   -2.865E+01   -2.840E+01   -2.816E+01   -2.791E+01   -2.767E+01   -2.742E+01   -2.718E+01   -2.694E+01   -2.669E+01
    -2.645E+01   -2.621E+01   -2.596E+01   -2.572E+01   -2.548E+01   -2.524E+01   -2.500E+01   -2.476E+01   -2.452E+01   -2.428E+01
    -2.404E+01   -2.380E+01   -2.356E+01   -2.332E+01   -2.308E+01   -2.284E+01   -2.261E+01   -2.237E+01   -2.213E+01   -2.190E+01
    -2.166E+01   -2.142E+01   -2.119E+01   -2.095E+01   -2.071E+01   -2.048E+01   -2.024E+01   -2.001E+01   -1.977E+01   -1.954E+01
    -1.931E+01   -1.907E+01   -1.884E+01   -1.860E+01   -1.837E+01   -1.814E+01   -1.791E+01   -1.767E+01   -1.744E+01   -1.721E+01
    -1.698E+01   -1.674E+01   -1.651E+01   -1.628E+01   -1.605E+01   -1.582E+01   -1.559E+01   -1.536E+01   -1.513E+01   -1.490E+01
    -1.467E+01   -1.444E+01   -1.421E+01   -1.398E+01   -1.375E+01   -1.352E+01   -1.329E+01   -1.307E+01   -1.284E+01   -1.261E+01
    -1.238E+01   -1.216E+01   -1.193E+01   -1.170E+01   -1.148E+01   -1.125E+01   -1.102E+01   -1.080E+01   -1.057E+01   -1.035E+01
    -1.012E+01   -9.901E+00   -9.677E+00   -9.453E+00   -9.230E+00   -9.007E+00   -8.784E+00   -8.562E+00   -8.340E+00   -8.118E+00
    -7.897E+00   -7.676E+00   -7.455E+00   -7.234E+00   -7.014E+00   -6.795E+00   -6.576E+00   -6.357E+00   -6.139E+00   -5.921E+00
    -5.704E+00   -5.487E+00   -5.272E+00   -5.056E+00   -4.842E+00   -4.628E+00   -4.415E+00   -4.203E+00   -3.991E+00   -3.780E+00
    -3.570E+00   -3.361E+00   -3.153E+00   -2.946E+00   -2.740E+00   -2.535E+00   -2.331E+00   -2.128E+00   -1.926E+00   -1.725E+00
    -1.525E+00   -1.326E+00   -1.129E+00   -9.329E-01   -7.380E-01   -5.444E-01   -3.521E-01   -1.612E-01    2.841E-02    2.166E-01
     4.033E-01    5.886E-01    7.723E-01    9.546E-01    1.135E+00    1.314E+00    1.492E+00    1.668E+00    1.842E+00    2.015E+00
     2.185E+00    2.355E+00    2.522E+00    2.688E+00    2.852E+00    3.014E+00    3.174E+00    3.333E+00    3.489E+00    3.644E+00
     3.797E+00    3.948E+00    4.097E+00    4.244E+00    4.390E+00    4.533E+00    4.674E+00    4.813E+00    4.951E+00    5.086E+00
     5.219E+00    5.350E+00    5.479E+00    5.605E+00    5.730E+00    5.853E+00    5.973E+00    6.091E+00    6.207E+00    6.320E+00
     6.432E+00    6.541E+00    6.648E+00    6.752E+00    6.854E+00    6.954E+00    7.052E+00    7.147E+00    7.239E+00    7.330E+00
     7.417E+00    7.503E+00    7.586E+00    7.666E+00    7.744E+00    7.819E+00    7.892E+00    7.963E+00    8.031E+00    8.097E+00
     8.160E+00    8.221E+00    8.280E+00    8.336E+00    8.390E+00    8.442E+00    8.491E+00    8.538E+00    8.582E+00    8.625E+00
     8.665E+00    8.702E+00    8.738E+00    8.771E+00    8.802E+00    8.831E+00    8.857E+00    8.882E+00    8.904E+00    8.924E+00
     8.942E+00    8.957E+00    8.971E+00    8.982E+00    8.991E+00    8.998E+00    9.003E+00    9.006E+00    9.007E+00    9.006E+00
     9.002E+00    8.997E+00    8.990E+00    8.980E+00    8.969E+00    8.955E+00    8.940E+00    8.922E+00    8.903E+00    8.881E+00
     8.858E+00    8.833E+00    8.807E+00    8.778E+00    8.748E+00    8.716E+00    8.683E+00    8.648E+00    8.612E+00    8.575E+00
     8.536E+00    8.496E+00    8.454E+00    8.412E+00    8.368E+00    8.323E+00    8.277E+00    8.230E+00    8.182E+00    8.133E+00
     8.083E+00    8.033E+00    7.982E+00    7.930E+00    7.877E+00    7.824E+00    7.770E+00    7.716E+00    7.661E+00    7.606E+00
     7.551E+00    7.495E+00    7.439E+00    7.382E+00    7.326E+00    7.269E+00    7.213E+00    7.156E+00    7.100E+00    7.043E+00
     6.987E+00    6.931E+00    6.875E+00    6.819E+00    6.764E+00    6.709E+00    6.654E+00    6.600E+00    6.546E+00    6.493E+00
     6.440E+00    6.388E+00    6.336E+00    6.285E+00    6.234E+00    6.185E+00    6.135E+00    6.087E+00    6.039E+00    5.993E+00
     5.946E+00    5.901E+00    5.857E+00    5.814E+00    5.771E+00    5.730E+00    5.689E+00    5.650E+00    5.611E+00    5.574E+00
     5.538E+00    5.503E+00    5.469E+00    5.437E+00    5.405E+00    5.375E+00    5.347E+00    5.320E+00    5.294E+00    5.269E+00
     5.246E+00    5.225E+00    5.205E+00    5.186E+00    5.169E+00    5.154E+00    5.140E+00    5.128E+00    5.118E+00    5.109E+00
     5.103E+00    5.097E+00    5.093E+00    5.091E+00    5.090E+00    5.091E+00    5.093E+00    5.097E+00    5.102E+00    5.109E+00
     5.117E+00    5.126E+00    5.136E+00    5.148E+00    5.161E+00    5.175E+00    5.191E+00    5.208E+00    5.225E+00    5.244E+00
     5.264E+00    5.285E+00    5.307E+00    5.331E+00    5.355E+00    5.380E+00    5.406E+00    5.433E+00    5.460E+00    5.489E+00
     5.518E+00    5.549E+00    5.580E+00    5.611E+00    5.644E+00    5.677E+00    5.711E+00    5.745E+00    5.780E+00    5.816E+00
     5.852E+00    5.889E+00    5.926E+00    5.964E+00    6.002E+00    6.040E+00    6.079E+00    6.119E+00    6.159E+00    6.199E+00
     6.239E+00    6.280E+00    6.322E+00    6.364E+00    6.406E+00    6.448E+00    6.491E+00    6.534E+00    6.577E+00    6.620E+00
     6.664E+00    6.708E+00    6.752E+00    6.797E+00    6.841E+00    6.886E+00    6.931E+00    6.976E+00    7.022E+00    7.067E+00
     7.113E+00    7.158E+00    7.204E+00    7.250E+00    7.296E+00    7.342E+00    7.388E+00    7.434E+00    7.481E+00    7.527E+00
     7.573E+00    7.619E+00    7.665E+00    7.711E+00    7.757E+00    7.803E+00    7.849E+00    7.895E+00
 Ala      Conc. = 1.16E+03
