 LCModel (Version 6.3-1L) Copyright: S.W. Provencher.          Ref.: Magn. Reson. Med. 30:672-679 (1993).                
 Slice#3 Row#3 Col#5  PD_24_press_2_raw_act
 36 lines in following concentration table = NCONC+1
    Conc.  %SD /Cr+PCr  Metabolite                                         
    0.000 999%   0.000 Ala                                                 
    4.042 999% 2.8E-03 Asp                                                 
 1.34E+03  36%   0.930 Cr                                                  
  101.467 477% 7.0E-02 PCr                                                 
  207.405  95%   0.144 GABA                                                
  143.719 136%   0.100 Glc                                                 
    0.000 999%   0.000 Gln                                                 
  814.037  73%   0.565 Glu                                                 
    0.000 999%   0.000 GPC                                                 
  683.395   7%   0.474 PCh                                                 
    0.000 999%   0.000 GSH                                                 
 1.56E+03  38%   1.083 Ins                                                 
   89.882 323% 6.2E-02 Lac                                                 
 2.15E+03  11%   1.494 NAA                                                 
  340.835  73%   0.237 NAAG                                                
  126.698  39% 8.8E-02 Scyllo                                              
  525.719  57%   0.365 Tau                                                 
  403.485  53%   0.280 -CrCH2                                              
  683.395   7%   0.474 GPC+PCh                                             
 2.49E+03   6%   1.731 NAA+NAAG                                            
 1.44E+03   9%   1.000 Cr+PCr                                              
  814.037  73%   0.565 Glu+Gln                                             
    0.000 999%   0.000 Lip13a                                              
  381.025  57%   0.265 Lip13b                                              
   88.253  79% 6.1E-02 Lip09                                               
 1.58E+03  21%   1.093 MM09                                                
   60.044  70% 4.2E-02 Lip20                                               
 2.37E+03  21%   1.649 MM20                                                
  472.166  21%   0.328 MM12                                                
 1.20E+03  21%   0.836 MM14                                                
  583.762  22%   0.405 MM17                                                
  381.025  57%   0.265 Lip13a+Lip13b                                       
 2.06E+03  20%   1.428 MM14+Lip13a+Lip13b+MM12                             
 1.66E+03  20%   1.155 MM09+Lip09                                          
 2.44E+03  20%   1.690 MM20+Lip20                                          
   6 lines in following misc. output table
  FWHM = 0.061 ppm    S/N =   5                                            
  Data shift = 0.031 ppm                                                   
  Ph:  -3 deg       2.0 deg/ppm                                            
  alphaB,S = 1.9E+00,   5.8E+01                                            
   14 spline knots.   Ns = 7(1)                                            
  (10) 4 infls.   ( 5) 1 extrs.                                            
  498 points on ppm-axis = NY
      4.000000     3.992357     3.984714     3.977070     3.969427     3.961784     3.954141     3.946497     3.938854     3.931211
      3.923568     3.915925     3.908281     3.900638     3.892995     3.885352     3.877708     3.870065     3.862422     3.854779
      3.847136     3.839492     3.831849     3.824206     3.816563     3.808919     3.801276     3.793633     3.785990     3.778347
      3.770703     3.763060     3.755417     3.747774     3.740130     3.732487     3.724844     3.717201     3.709558     3.701914
      3.694271     3.686628     3.678985     3.671341     3.663698     3.656055     3.648412     3.640769     3.633125     3.625482
      3.617839     3.610196     3.602552     3.594909     3.587266     3.579623     3.571980     3.564336     3.556693     3.549050
      3.541407     3.533763     3.526120     3.518477     3.510834     3.503191     3.495547     3.487904     3.480261     3.472618
      3.464974     3.457331     3.449688     3.442045     3.434402     3.426758     3.419115     3.411472     3.403829     3.396185
      3.388542     3.380899     3.373256     3.365613     3.357969     3.350326     3.342683     3.335040     3.327396     3.319753
      3.312110     3.304467     3.296824     3.289180     3.281537     3.273894     3.266251     3.258607     3.250964     3.243321
      3.235678     3.228034     3.220391     3.212748     3.205105     3.197462     3.189818     3.182175     3.174532     3.166889
      3.159245     3.151602     3.143959     3.136316     3.128673     3.121029     3.113386     3.105743     3.098100     3.090456
      3.082813     3.075170     3.067527     3.059884     3.052240     3.044597     3.036954     3.029311     3.021667     3.014024
      3.006381     2.998738     2.991095     2.983451     2.975808     2.968165     2.960522     2.952878     2.945235     2.937592
      2.929949     2.922306     2.914662     2.907019     2.899376     2.891733     2.884089     2.876446     2.868803     2.861160
      2.853517     2.845873     2.838230     2.830587     2.822944     2.815300     2.807657     2.800014     2.792371     2.784728
      2.777084     2.769441     2.761798     2.754155     2.746511     2.738868     2.731225     2.723582     2.715939     2.708295
      2.700652     2.693009     2.685366     2.677722     2.670079     2.662436     2.654793     2.647150     2.639506     2.631863
      2.624220     2.616577     2.608933     2.601290     2.593647     2.586004     2.578361     2.570717     2.563074     2.555431
      2.547788     2.540144     2.532501     2.524858     2.517215     2.509572     2.501928     2.494285     2.486642     2.478999
      2.471355     2.463712     2.456069     2.448426     2.440783     2.433139     2.425496     2.417853     2.410210     2.402566
      2.394923     2.387280     2.379637     2.371994     2.364350     2.356707     2.349064     2.341421     2.333777     2.326134
      2.318491     2.310848     2.303205     2.295561     2.287918     2.280275     2.272632     2.264988     2.257345     2.249702
      2.242059     2.234416     2.226772     2.219129     2.211486     2.203843     2.196199     2.188556     2.180913     2.173270
      2.165627     2.157983     2.150340     2.142697     2.135054     2.127410     2.119767     2.112124     2.104481     2.096838
      2.089194     2.081551     2.073908     2.066265     2.058621     2.050978     2.043335     2.035692     2.028049     2.020405
      2.012762     2.005119     1.997476     1.989833     1.982190     1.974546     1.966903     1.959260     1.951617     1.943974
      1.936331     1.928688     1.921045     1.913402     1.905759     1.898115     1.890472     1.882829     1.875186     1.867543
      1.859900     1.852257     1.844614     1.836971     1.829327     1.821684     1.814041     1.806398     1.798755     1.791112
      1.783469     1.775826     1.768183     1.760540     1.752896     1.745253     1.737610     1.729967     1.722324     1.714681
      1.707038     1.699395     1.691752     1.684108     1.676465     1.668822     1.661179     1.653536     1.645893     1.638250
      1.630607     1.622964     1.615321     1.607677     1.600034     1.592391     1.584748     1.577105     1.569462     1.561819
      1.554176     1.546533     1.538890     1.531246     1.523603     1.515960     1.508317     1.500674     1.493031     1.485388
      1.477745     1.470102     1.462458     1.454815     1.447172     1.439529     1.431886     1.424243     1.416600     1.408957
      1.401314     1.393671     1.386027     1.378384     1.370741     1.363098     1.355455     1.347812     1.340169     1.332526
      1.324883     1.317240     1.309596     1.301953     1.294310     1.286667     1.279024     1.271381     1.263738     1.256095
      1.248452     1.240808     1.233165     1.225522     1.217879     1.210236     1.202593     1.194950     1.187307     1.179664
      1.172021     1.164377     1.156734     1.149091     1.141448     1.133805     1.126162     1.118519     1.110876     1.103233
      1.095590     1.087946     1.080303     1.072660     1.065017     1.057374     1.049731     1.042088     1.034445     1.026802
      1.019158     1.011515     1.003872     0.996229     0.988586     0.980943     0.973300     0.965657     0.958014     0.950371
      0.942727     0.935084     0.927441     0.919798     0.912155     0.904512     0.896869     0.889226     0.881583     0.873940
      0.866296     0.858653     0.851010     0.843367     0.835724     0.828081     0.820438     0.812795     0.805152     0.797508
      0.789865     0.782222     0.774579     0.766936     0.759293     0.751650     0.744007     0.736364     0.728721     0.721077
      0.713434     0.705791     0.698148     0.690505     0.682862     0.675219     0.667576     0.659933     0.652290     0.644646
      0.637003     0.629360     0.621717     0.614074     0.606431     0.598788     0.591145     0.583502     0.575858     0.568215
      0.560572     0.552929     0.545286     0.537643     0.530000     0.522357     0.514714     0.507071     0.499427     0.491784
      0.484141     0.476498     0.468855     0.461212     0.453569     0.445925     0.438282     0.430639     0.422996     0.415353
      0.407710     0.400067     0.392424     0.384780     0.377137     0.369494     0.361851     0.354208     0.346565     0.338922
      0.331278     0.323635     0.315992     0.308349     0.300706     0.293063     0.285420     0.277777     0.270133     0.262490
      0.254847     0.247204     0.239561     0.231918     0.224275     0.216631     0.208988     0.201345
 NY phased data points follow
  -4.16230E+01 -4.73433E+01 -5.04591E+01 -5.05302E+01 -5.29938E+01 -3.55574E+01 -3.88873E+01 -4.04784E+01 -2.52431E+01 -6.45994E+00
  -1.95309E+01 -3.06124E+00 -2.25737E+01 -2.00647E+01 -3.65827E+01 -2.37777E+01 -3.54680E+01 -4.20385E+01 -4.30538E+01 -4.40115E+01
  -4.16209E+01 -4.11158E+01 -3.78398E+01 -4.03480E+01 -4.27464E+01 -3.82292E+01 -3.85382E+01 -3.52718E+01 -3.92236E+01 -3.97714E+01
  -2.75963E+01 -3.30829E+01 -3.10225E+01 -3.08480E+01 -3.92561E+01 -2.48283E+01 -2.36021E+01 -2.60805E+01 -2.91435E+01 -2.55996E+01
  -3.80485E+01 -1.79065E+01 -3.88855E+01 -2.53512E+01 -2.39327E+01 -2.40820E+01 -9.59966E+00 -1.87439E+01 -2.19546E+01 -2.37261E+01
  -2.55752E+01 -1.99579E+01 -1.26942E+01 -2.45890E+01 -2.42706E+01 -2.09315E+01 -3.53369E+01 -2.76095E+01 -2.78586E+01 -1.71501E+01
  -2.54756E+01 -2.90178E+01 -3.09524E+01 -2.86639E+01 -3.16024E+01 -1.83122E+01 -3.01813E+01 -3.05230E+01 -3.20007E+01 -2.92398E+01
  -2.31208E+01 -1.44403E+01 -2.94132E+01 -2.09058E+01 -1.24701E+01 -2.35194E+01 -2.17819E+01 -2.36097E+01 -2.00213E+01 -1.76236E+01
  -9.13188E+00 -2.66321E+01 -2.20336E+01 -1.74356E+01 -1.57455E+01 -2.61068E+01 -1.40105E+01 -1.36005E+01 -2.31131E+01 -1.61406E+01
  -1.79728E+01 -2.98847E+00 -2.19799E+01 -1.03567E+01 -5.89323E+00 -1.56610E+01 -1.58223E+01 -1.20329E+01  1.59618E+00  7.00217E+00
   2.24493E+01  3.35234E+01  4.82929E+01  2.68888E+01  2.59393E+01  3.44905E+01  2.54712E+01  6.07799E+00 -1.22046E+00 -2.89377E+00
  -2.13670E+00 -2.07706E+01 -3.82127E+00 -4.64141E+00 -1.76422E+01 -1.02626E+01 -1.89100E+01 -6.63020E+00 -1.10962E+01 -1.72292E+01
  -1.25985E+01 -1.93653E+01  1.89463E+00 -1.13158E+00  1.74183E+01  1.80581E+01  1.94399E+01  2.24252E+01  2.01755E+01  2.01587E+01
   2.13720E+01  1.15604E+01  1.44308E+00 -8.41866E+00 -4.28373E+00 -1.41047E+01 -1.55892E+01 -5.26656E-01 -7.31073E+00 -2.83109E+01
  -2.16046E+01 -2.92908E+01 -1.72879E+01 -2.00066E+01 -1.20513E+01 -1.36848E+01 -1.99592E+01 -1.28953E+01 -1.93585E+01 -2.47637E+01
  -1.60365E+01 -5.70139E+00 -1.50884E+01 -1.67463E+01 -1.99449E+01 -1.77817E+01 -2.46573E+01 -5.74160E+00 -8.04764E+00 -1.72271E+01
  -2.06118E+01 -1.39526E+01 -2.16788E+01 -1.75327E+01 -9.48953E+00 -1.81733E+01 -1.79316E+01 -9.03282E+00 -2.50283E+01 -1.21434E+01
  -2.59437E+01 -2.03260E+01 -2.40870E+01 -1.13018E+01 -3.55440E+01 -2.92917E+01 -2.18795E+01 -1.84355E+01 -1.86870E+01 -2.68444E+01
  -3.43886E+01 -1.75245E+01 -2.40904E+01 -2.22692E+01 -2.95076E+01 -2.78749E+01 -2.78392E+01 -2.85067E+01 -1.79834E+01 -1.35561E+01
  -1.06631E+01 -1.25953E+01 -1.86924E+01 -1.80593E+01 -5.04427E+00 -6.68478E+00 -1.40594E+01 -1.01578E+01 -1.15236E+01 -9.76954E+00
  -2.05373E+01 -2.21414E+01 -1.75109E+01 -2.37031E+01 -1.99479E+01 -9.23955E+00 -3.16808E+01 -7.58587E+00 -3.17717E+01 -1.67727E+01
  -2.47259E+01 -2.18734E+01 -1.06389E+01 -1.56877E+01 -1.51428E+01 -2.09456E+00 -5.69790E+00 -1.61829E+01 -2.79667E+01 -1.95669E+01
  -1.39160E+01 -1.06148E+01 -2.24320E+01 -1.47258E+01 -1.09639E+01  2.47434E-01 -7.99576E+00 -6.47255E+00 -1.71521E+01 -1.96711E+01
   2.78425E+00  2.70609E+00 -1.21183E+01 -8.12207E+00 -1.39128E+00 -5.65292E+00 -8.80961E+00 -7.41100E+00 -2.56420E+00 -1.14499E+01
  -5.98947E+00 -5.80745E+00 -9.83438E-01 -2.25910E+00 -9.67009E+00 -7.93458E+00 -1.20762E+00 -4.26941E-01  2.51685E+00  3.23974E+00
   1.10086E+01 -6.65522E+00  1.13961E+01  1.32844E+01  8.09149E+00  1.45441E+01  2.26389E+01  4.41866E+01  5.45686E+01  7.16278E+01
   7.52039E+01  5.74392E+01  5.25308E+01  3.97458E+01  2.90917E+01  2.12429E+01  1.38600E+01 -7.89000E+00 -8.73140E+00  1.50187E+01
  -3.70049E-01 -8.95015E-01 -3.25548E+00 -1.67079E+01 -3.67151E+00 -7.37493E+00 -6.51420E+00 -1.26317E+00 -9.69453E+00 -6.11502E+00
  -2.90914E+00 -1.27036E+01 -9.13253E+00 -1.08279E+01 -1.32873E+01 -3.96480E+00 -7.55833E+00 -9.76335E-01 -2.20239E+01 -1.55112E+01
  -2.60260E+00 -1.45424E+01 -1.31072E+01 -2.13662E+01 -2.28917E+01 -9.40442E+00 -1.18229E+01 -1.96571E+01 -1.13473E+01 -9.16098E+00
  -1.20744E+01 -3.22315E+01 -1.18880E+01 -3.25766E+01 -1.60640E+01 -2.28589E+01 -2.71700E+01 -2.78158E+01 -2.39008E+01 -2.21363E+01
  -2.57260E+01 -2.17947E+01 -1.49297E+01 -1.47039E+01 -1.18923E+01 -1.80343E+01 -4.54442E+00 -1.29417E+01 -5.39654E+00  1.40696E+00
   8.14426E+00 -7.72055E+00 -1.30530E+00 -7.50436E+00  1.22418E+01 -1.35779E+00  1.66075E+01  7.35982E+00 -5.14504E+00  9.45372E+00
   4.77246E+00  4.53289E+00  3.75126E+00 -2.83284E+00 -9.51516E+00 -8.26757E+00  4.90894E+00 -7.85774E+00 -1.48363E+01 -1.77756E+01
  -3.59366E+01 -6.75047E+00 -1.07077E+01 -7.79373E+00 -3.93583E+00 -5.36097E+00 -9.05194E+00 -7.86697E+00 -3.63298E+00 -1.51743E+01
  -6.27236E+00 -1.26822E+01 -2.39240E-01 -1.19903E+01 -8.36874E+00 -1.23374E+01  1.37560E+00 -1.55452E+01 -4.52755E+00 -1.86043E+00
  -3.45650E+00 -6.75183E+00  2.54239E+00 -9.88742E+00  5.95678E+00 -1.10743E+01 -1.35899E+00 -1.23941E+00 -1.56368E+01 -1.43417E+01
  -1.57816E+01 -1.62688E+01 -1.68913E+01 -1.81553E+01 -1.42316E+01 -1.09923E+01 -1.26547E+01 -1.79218E+01 -1.19367E+01 -4.80624E+00
  -1.18189E+01 -1.31175E+01 -1.87334E+01 -2.30638E+01 -1.68572E+01 -1.07732E+01 -3.35644E+01 -5.16518E+00 -8.66737E+00 -5.56387E+00
  -1.79192E+01 -1.22883E+01 -9.71509E+00 -1.00628E+01  2.77723E-01 -7.34205E+00 -6.13141E+00 -5.46357E+00 -1.32756E-02 -1.00512E+01
  -3.43355E+00 -1.44639E+01  1.25672E+00  7.77251E+00 -1.07958E+01 -5.80749E+00 -6.50812E-01 -6.19186E+00  1.34688E+00 -9.03157E+00
  -3.66327E+00 -7.18259E+00 -6.81699E+00 -9.15361E+00 -7.76330E+00 -7.79518E+00  1.05584E+00 -1.95731E+00 -9.35762E+00 -6.81681E+00
  -8.40825E+00 -7.72357E+00 -9.66150E+00 -4.83790E+00 -9.01341E+00 -6.45388E+00 -1.27617E+01 -6.99908E+00 -7.52521E+00 -1.78103E+00
  -8.17496E+00 -7.86782E+00 -1.87778E+00 -4.26424E-01  2.53101E+00  9.75162E+00  2.15933E+00  1.25881E+01 -1.87955E-01 -9.74080E+00
  -1.57949E+01 -8.93238E+00 -1.77434E+01  8.42675E+00 -5.27404E+00 -2.01573E+00 -1.80807E+01 -1.37032E+01 -1.68879E+00  3.34858E+00
  -1.18277E+00 -4.73553E+00  2.30927E+00  5.75730E-01 -4.78258E+00 -9.79529E-01  9.32367E-02 -1.04984E+01 -2.30978E+01 -8.58308E+00
   2.34829E+00 -5.33470E-01  1.03058E+01 -7.06182E+00 -5.31777E+00  1.76005E+00 -4.97583E+00 -1.21597E+00 -7.88735E+00  7.41670E-01
  -7.22425E+00  7.15464E-01  1.68707E+00 -1.23217E+01  5.28382E+00 -6.80602E+00 -8.29362E+00  3.49231E+00 -5.09958E+00  3.24181E+00
  -5.73959E-01 -3.05749E+00 -4.73879E+00  5.57256E+00  6.87594E-01  1.18207E-01 -1.27536E+00 -2.86777E+00 -7.96755E+00 -1.02758E+01
  -4.39273E+00  3.70365E+00  9.84056E-01  4.94593E-01 -1.00709E+01 -3.42658E+00 -5.95347E+00  4.36979E+00
 NY points of the fit to the data follow
  -3.82548E+01 -3.89261E+01 -3.95039E+01 -3.99742E+01 -3.99865E+01 -3.91298E+01 -3.68108E+01 -3.22725E+01 -2.59351E+01 -1.98954E+01
  -1.65042E+01 -1.63066E+01 -1.78800E+01 -1.98415E+01 -2.20660E+01 -2.48707E+01 -2.81160E+01 -3.12606E+01 -3.37877E+01 -3.53940E+01
  -3.59282E+01 -3.57500E+01 -3.54167E+01 -3.51214E+01 -3.49787E+01 -3.49920E+01 -3.50234E+01 -3.48640E+01 -3.43986E+01 -3.36593E+01
  -3.27689E+01 -3.18940E+01 -3.12119E+01 -3.07701E+01 -3.05271E+01 -3.04625E+01 -3.06010E+01 -3.09337E+01 -3.13649E+01 -3.17520E+01
  -3.18973E+01 -3.15413E+01 -3.04305E+01 -2.84334E+01 -2.57940E+01 -2.32408E+01 -2.17104E+01 -2.16522E+01 -2.26818E+01 -2.40033E+01
  -2.51871E+01 -2.63013E+01 -2.74164E+01 -2.83317E+01 -2.87676E+01 -2.85301E+01 -2.76021E+01 -2.62267E+01 -2.48954E+01 -2.40430E+01
  -2.37803E+01 -2.39234E+01 -2.41941E+01 -2.44189E+01 -2.45459E+01 -2.45551E+01 -2.44653E+01 -2.42735E+01 -2.38665E+01 -2.31877E+01
  -2.23459E+01 -2.14749E+01 -2.07101E+01 -2.01643E+01 -1.99920E+01 -2.02766E+01 -2.08724E+01 -2.15025E+01 -2.19136E+01 -2.19607E+01
  -2.16274E+01 -2.09558E+01 -1.99625E+01 -1.88074E+01 -1.78920E+01 -1.76482E+01 -1.81536E+01 -1.89627E+01 -1.96215E+01 -2.01205E+01
  -2.06694E+01 -2.12835E+01 -2.17361E+01 -2.17995E+01 -2.13435E+01 -2.00906E+01 -1.71153E+01 -1.18606E+01 -3.55924E+00  8.45903E+00
   2.25644E+01  3.44633E+01  3.99628E+01  3.84973E+01  3.31789E+01  2.68212E+01  1.97547E+01  1.15890E+01  2.82829E+00 -5.31419E+00
  -1.17580E+01 -1.61453E+01 -1.82411E+01 -1.88883E+01 -1.91473E+01 -1.92646E+01 -1.93122E+01 -1.92704E+01 -1.90811E+01 -1.84721E+01
  -1.65683E+01 -1.27890E+01 -6.50644E+00  2.69654E+00  1.34420E+01  2.24113E+01  2.65331E+01  2.54961E+01  2.16576E+01  1.70007E+01
   1.16811E+01  5.44829E+00 -1.23966E+00 -7.40413E+00 -1.22417E+01 -1.55168E+01 -1.70292E+01 -1.74402E+01 -1.75460E+01 -1.75530E+01
  -1.75230E+01 -1.74830E+01 -1.74476E+01 -1.74267E+01 -1.74274E+01 -1.74400E+01 -1.74615E+01 -1.74929E+01 -1.75272E+01 -1.75654E+01
  -1.76124E+01 -1.76602E+01 -1.76823E+01 -1.76593E+01 -1.76193E+01 -1.76155E+01 -1.77221E+01 -1.79982E+01 -1.83833E+01 -1.87115E+01
  -1.87955E+01 -1.85909E+01 -1.82940E+01 -1.81727E+01 -1.83274E+01 -1.86526E+01 -1.89753E+01 -1.92218E+01 -1.94431E+01 -1.97204E+01
  -2.01109E+01 -2.05800E+01 -2.10644E+01 -2.14516E+01 -2.15890E+01 -2.14295E+01 -2.11110E+01 -2.08706E+01 -2.08182E+01 -2.08070E+01
  -2.06443E+01 -2.03009E+01 -1.99313E+01 -1.96803E+01 -1.94580E+01 -1.90353E+01 -1.82872E+01 -1.72976E+01 -1.63252E+01 -1.55222E+01
  -1.48650E+01 -1.42974E+01 -1.37776E+01 -1.33198E+01 -1.30161E+01 -1.29707E+01 -1.31998E+01 -1.35335E+01 -1.37599E+01 -1.37721E+01
  -1.35640E+01 -1.32068E+01 -1.28777E+01 -1.27733E+01 -1.29548E+01 -1.33555E+01 -1.39033E+01 -1.45604E+01 -1.52524E+01 -1.58071E+01
  -1.60546E+01 -1.58083E+01 -1.50207E+01 -1.39555E+01 -1.31553E+01 -1.30026E+01 -1.34682E+01 -1.42726E+01 -1.52274E+01 -1.61822E+01
  -1.68052E+01 -1.67883E+01 -1.61436E+01 -1.51679E+01 -1.41749E+01 -1.32508E+01 -1.24537E+01 -1.18555E+01 -1.14595E+01 -1.11797E+01
  -1.08994E+01 -1.05797E+01 -1.02307E+01 -9.85847E+00 -9.47966E+00 -9.14798E+00 -8.89899E+00 -8.74152E+00 -8.66177E+00 -8.59731E+00
  -8.44130E+00 -8.08143E+00 -7.51577E+00 -6.86554E+00 -6.26076E+00 -5.75791E+00 -5.36644E+00 -5.07993E+00 -4.77298E+00 -4.13967E+00
  -2.98023E+00 -1.11542E+00  1.62540E+00  5.74241E+00  1.17170E+01  1.96245E+01  3.06064E+01  4.46509E+01  5.83484E+01  6.64197E+01
   6.62410E+01  6.00362E+01  5.18298E+01  4.31151E+01  3.35024E+01  2.31338E+01  1.29682E+01  4.26605E+00 -2.23421E+00 -6.18572E+00
  -7.77275E+00 -8.47273E+00 -8.88026E+00 -9.16254E+00 -9.41691E+00 -9.69165E+00 -9.99875E+00 -1.03428E+01 -1.07173E+01 -1.11049E+01
  -1.14763E+01 -1.18063E+01 -1.20781E+01 -1.22848E+01 -1.24364E+01 -1.25481E+01 -1.26338E+01 -1.27000E+01 -1.27466E+01 -1.27748E+01
  -1.27926E+01 -1.28080E+01 -1.28249E+01 -1.28401E+01 -1.28482E+01 -1.28456E+01 -1.28321E+01 -1.28045E+01 -1.27557E+01 -1.26819E+01
  -1.25858E+01 -1.24688E+01 -1.23320E+01 -1.21783E+01 -1.20096E+01 -1.18274E+01 -1.16328E+01 -1.14263E+01 -1.12083E+01 -1.09771E+01
  -1.07304E+01 -1.04661E+01 -1.01822E+01 -9.87656E+00 -9.54768E+00 -9.19451E+00 -8.81658E+00 -8.41429E+00 -7.98936E+00 -7.54521E+00
  -7.08712E+00 -6.62200E+00 -6.15831E+00 -5.70602E+00 -5.27640E+00 -4.88161E+00 -4.53396E+00 -4.24511E+00 -4.02546E+00 -3.88368E+00
  -3.82631E+00 -3.85721E+00 -3.97708E+00 -4.18325E+00 -4.46973E+00 -4.82750E+00 -5.24474E+00 -5.70688E+00 -6.19600E+00 -6.68854E+00
  -7.15084E+00 -7.56198E+00 -7.91575E+00 -8.21233E+00 -8.49559E+00 -8.83375E+00 -9.25038E+00 -9.67448E+00 -9.96365E+00 -1.00257E+01
  -9.84795E+00 -9.41742E+00 -8.73107E+00 -7.86556E+00 -6.98578E+00 -6.26047E+00 -5.76344E+00 -5.51156E+00 -5.52290E+00 -5.78665E+00
  -6.26354E+00 -6.88274E+00 -7.55885E+00 -8.21979E+00 -8.80029E+00 -9.27003E+00 -9.63545E+00 -9.90724E+00 -1.00996E+01 -1.02289E+01
  -1.03107E+01 -1.03583E+01 -1.03814E+01 -1.03867E+01 -1.03777E+01 -1.03559E+01 -1.03210E+01 -1.02719E+01 -1.02065E+01 -1.01224E+01
  -1.00171E+01 -9.88822E+00 -9.73321E+00 -9.54961E+00 -9.33499E+00 -9.08719E+00 -8.80437E+00 -8.48514E+00 -8.12856E+00 -7.73426E+00
  -7.30264E+00 -6.83512E+00 -6.33425E+00 -5.80382E+00 -5.24882E+00 -4.67552E+00 -4.09145E+00 -3.50545E+00 -2.92734E+00 -2.36764E+00
  -1.83716E+00 -1.34670E+00 -9.06598E-01 -5.26407E-01 -2.14319E-01  2.32067E-02  1.81819E-01  2.59360E-01  2.55952E-01  1.73932E-01
   1.78641E-02 -2.05744E-01 -4.88722E-01 -8.21776E-01 -1.19488E+00 -1.59775E+00 -2.02011E+00 -2.45214E+00 -2.88476E+00 -3.30999E+00
  -3.72105E+00 -4.11245E+00 -4.47985E+00 -4.82014E+00 -5.13133E+00 -5.41251E+00 -5.66361E+00 -5.88525E+00 -6.07847E+00 -6.24473E+00
  -6.38575E+00 -6.50350E+00 -6.59995E+00 -6.67704E+00 -6.73658E+00 -6.78030E+00 -6.80985E+00 -6.82680E+00 -6.83252E+00 -6.82823E+00
  -6.81493E+00 -6.79361E+00 -6.76514E+00 -6.73036E+00 -6.68989E+00 -6.64432E+00 -6.59408E+00 -6.53969E+00 -6.48156E+00 -6.42011E+00
  -6.35563E+00 -6.28836E+00 -6.21851E+00 -6.14636E+00 -6.07214E+00 -5.99603E+00 -5.91815E+00 -5.83858E+00 -5.75745E+00 -5.67493E+00
  -5.59114E+00 -5.50619E+00 -5.42007E+00 -5.33287E+00 -5.24465E+00 -5.15555E+00 -5.06564E+00 -4.97495E+00 -4.88346E+00 -4.79124E+00
  -4.69834E+00 -4.60488E+00 -4.51086E+00 -4.41630E+00 -4.32116E+00 -4.22552E+00 -4.12944E+00 -4.03299E+00 -3.93615E+00 -3.83892E+00
  -3.74128E+00 -3.64332E+00 -3.54507E+00 -3.44659E+00 -3.34782E+00 -3.24878E+00 -3.14945E+00 -3.04993E+00 -2.95024E+00 -2.85042E+00
  -2.75039E+00 -2.65017E+00 -2.54978E+00 -2.44932E+00 -2.34878E+00 -2.24817E+00 -2.14742E+00 -2.04657E+00
 NY background values follow
    -4.241E+01   -4.221E+01   -4.201E+01   -4.180E+01   -4.160E+01   -4.140E+01   -4.119E+01   -4.099E+01   -4.079E+01   -4.058E+01
    -4.038E+01   -4.018E+01   -3.997E+01   -3.977E+01   -3.957E+01   -3.937E+01   -3.916E+01   -3.896E+01   -3.876E+01   -3.856E+01
    -3.835E+01   -3.815E+01   -3.795E+01   -3.775E+01   -3.755E+01   -3.735E+01   -3.715E+01   -3.695E+01   -3.675E+01   -3.655E+01
    -3.635E+01   -3.615E+01   -3.595E+01   -3.575E+01   -3.555E+01   -3.536E+01   -3.516E+01   -3.496E+01   -3.477E+01   -3.457E+01
    -3.437E+01   -3.418E+01   -3.398E+01   -3.379E+01   -3.360E+01   -3.341E+01   -3.321E+01   -3.302E+01   -3.283E+01   -3.264E+01
    -3.245E+01   -3.226E+01   -3.207E+01   -3.188E+01   -3.170E+01   -3.151E+01   -3.133E+01   -3.114E+01   -3.096E+01   -3.077E+01
    -3.059E+01   -3.041E+01   -3.023E+01   -3.005E+01   -2.987E+01   -2.969E+01   -2.951E+01   -2.934E+01   -2.916E+01   -2.898E+01
    -2.881E+01   -2.864E+01   -2.847E+01   -2.829E+01   -2.812E+01   -2.796E+01   -2.779E+01   -2.762E+01   -2.745E+01   -2.729E+01
    -2.713E+01   -2.696E+01   -2.680E+01   -2.664E+01   -2.648E+01   -2.632E+01   -2.617E+01   -2.601E+01   -2.586E+01   -2.570E+01
    -2.555E+01   -2.540E+01   -2.525E+01   -2.510E+01   -2.496E+01   -2.481E+01   -2.467E+01   -2.453E+01   -2.438E+01   -2.424E+01
    -2.410E+01   -2.397E+01   -2.383E+01   -2.369E+01   -2.356E+01   -2.343E+01   -2.330E+01   -2.317E+01   -2.304E+01   -2.291E+01
    -2.278E+01   -2.266E+01   -2.254E+01   -2.241E+01   -2.229E+01   -2.217E+01   -2.206E+01   -2.194E+01   -2.182E+01   -2.171E+01
    -2.160E+01   -2.148E+01   -2.137E+01   -2.126E+01   -2.116E+01   -2.105E+01   -2.095E+01   -2.084E+01   -2.074E+01   -2.064E+01
    -2.054E+01   -2.044E+01   -2.034E+01   -2.025E+01   -2.015E+01   -2.006E+01   -1.997E+01   -1.988E+01   -1.979E+01   -1.970E+01
    -1.962E+01   -1.953E+01   -1.945E+01   -1.937E+01   -1.928E+01   -1.920E+01   -1.913E+01   -1.905E+01   -1.897E+01   -1.890E+01
    -1.882E+01   -1.875E+01   -1.868E+01   -1.861E+01   -1.854E+01   -1.847E+01   -1.840E+01   -1.833E+01   -1.827E+01   -1.820E+01
    -1.814E+01   -1.808E+01   -1.802E+01   -1.795E+01   -1.789E+01   -1.784E+01   -1.778E+01   -1.772E+01   -1.766E+01   -1.761E+01
    -1.755E+01   -1.750E+01   -1.745E+01   -1.740E+01   -1.734E+01   -1.729E+01   -1.724E+01   -1.719E+01   -1.715E+01   -1.710E+01
    -1.705E+01   -1.700E+01   -1.696E+01   -1.691E+01   -1.687E+01   -1.682E+01   -1.678E+01   -1.674E+01   -1.670E+01   -1.665E+01
    -1.661E+01   -1.657E+01   -1.653E+01   -1.649E+01   -1.646E+01   -1.642E+01   -1.638E+01   -1.635E+01   -1.631E+01   -1.627E+01
    -1.624E+01   -1.621E+01   -1.617E+01   -1.614E+01   -1.611E+01   -1.608E+01   -1.605E+01   -1.602E+01   -1.599E+01   -1.596E+01
    -1.593E+01   -1.590E+01   -1.588E+01   -1.585E+01   -1.582E+01   -1.580E+01   -1.577E+01   -1.575E+01   -1.573E+01   -1.570E+01
    -1.568E+01   -1.566E+01   -1.564E+01   -1.562E+01   -1.560E+01   -1.558E+01   -1.556E+01   -1.555E+01   -1.553E+01   -1.551E+01
    -1.550E+01   -1.548E+01   -1.547E+01   -1.545E+01   -1.544E+01   -1.542E+01   -1.541E+01   -1.540E+01   -1.539E+01   -1.538E+01
    -1.537E+01   -1.536E+01   -1.535E+01   -1.534E+01   -1.533E+01   -1.532E+01   -1.531E+01   -1.531E+01   -1.530E+01   -1.529E+01
    -1.529E+01   -1.528E+01   -1.528E+01   -1.527E+01   -1.527E+01   -1.526E+01   -1.526E+01   -1.526E+01   -1.525E+01   -1.525E+01
    -1.525E+01   -1.525E+01   -1.525E+01   -1.524E+01   -1.524E+01   -1.524E+01   -1.524E+01   -1.524E+01   -1.524E+01   -1.524E+01
    -1.524E+01   -1.525E+01   -1.525E+01   -1.525E+01   -1.525E+01   -1.525E+01   -1.525E+01   -1.526E+01   -1.526E+01   -1.526E+01
    -1.526E+01   -1.527E+01   -1.527E+01   -1.527E+01   -1.527E+01   -1.528E+01   -1.528E+01   -1.528E+01   -1.528E+01   -1.529E+01
    -1.529E+01   -1.529E+01   -1.530E+01   -1.530E+01   -1.530E+01   -1.530E+01   -1.530E+01   -1.531E+01   -1.531E+01   -1.531E+01
    -1.531E+01   -1.531E+01   -1.531E+01   -1.531E+01   -1.531E+01   -1.531E+01   -1.531E+01   -1.531E+01   -1.531E+01   -1.531E+01
    -1.531E+01   -1.531E+01   -1.530E+01   -1.530E+01   -1.530E+01   -1.529E+01   -1.529E+01   -1.528E+01   -1.528E+01   -1.527E+01
    -1.526E+01   -1.526E+01   -1.525E+01   -1.524E+01   -1.523E+01   -1.522E+01   -1.521E+01   -1.520E+01   -1.519E+01   -1.518E+01
    -1.517E+01   -1.515E+01   -1.514E+01   -1.513E+01   -1.511E+01   -1.510E+01   -1.508E+01   -1.506E+01   -1.505E+01   -1.503E+01
    -1.501E+01   -1.499E+01   -1.497E+01   -1.495E+01   -1.493E+01   -1.491E+01   -1.488E+01   -1.486E+01   -1.483E+01   -1.481E+01
    -1.478E+01   -1.476E+01   -1.473E+01   -1.470E+01   -1.467E+01   -1.464E+01   -1.461E+01   -1.458E+01   -1.455E+01   -1.451E+01
    -1.448E+01   -1.444E+01   -1.441E+01   -1.437E+01   -1.433E+01   -1.429E+01   -1.426E+01   -1.422E+01   -1.417E+01   -1.413E+01
    -1.409E+01   -1.404E+01   -1.400E+01   -1.395E+01   -1.391E+01   -1.386E+01   -1.381E+01   -1.376E+01   -1.371E+01   -1.366E+01
    -1.361E+01   -1.356E+01   -1.350E+01   -1.345E+01   -1.339E+01   -1.333E+01   -1.328E+01   -1.322E+01   -1.316E+01   -1.310E+01
    -1.303E+01   -1.297E+01   -1.291E+01   -1.284E+01   -1.278E+01   -1.271E+01   -1.264E+01   -1.257E+01   -1.250E+01   -1.243E+01
    -1.236E+01   -1.229E+01   -1.221E+01   -1.214E+01   -1.206E+01   -1.199E+01   -1.191E+01   -1.183E+01   -1.175E+01   -1.167E+01
    -1.158E+01   -1.150E+01   -1.142E+01   -1.133E+01   -1.125E+01   -1.116E+01   -1.107E+01   -1.098E+01   -1.089E+01   -1.080E+01
    -1.071E+01   -1.062E+01   -1.053E+01   -1.043E+01   -1.034E+01   -1.024E+01   -1.015E+01   -1.005E+01   -9.954E+00   -9.857E+00
    -9.759E+00   -9.660E+00   -9.561E+00   -9.461E+00   -9.361E+00   -9.260E+00   -9.159E+00   -9.057E+00   -8.955E+00   -8.852E+00
    -8.749E+00   -8.646E+00   -8.542E+00   -8.438E+00   -8.334E+00   -8.229E+00   -8.124E+00   -8.019E+00   -7.914E+00   -7.808E+00
    -7.703E+00   -7.597E+00   -7.491E+00   -7.385E+00   -7.278E+00   -7.172E+00   -7.066E+00   -6.959E+00   -6.852E+00   -6.745E+00
    -6.638E+00   -6.531E+00   -6.424E+00   -6.317E+00   -6.210E+00   -6.103E+00   -5.995E+00   -5.888E+00   -5.780E+00   -5.672E+00
    -5.565E+00   -5.457E+00   -5.349E+00   -5.241E+00   -5.133E+00   -5.025E+00   -4.917E+00   -4.809E+00   -4.701E+00   -4.593E+00
    -4.485E+00   -4.377E+00   -4.269E+00   -4.161E+00   -4.052E+00   -3.944E+00   -3.836E+00   -3.728E+00   -3.620E+00   -3.511E+00
    -3.403E+00   -3.295E+00   -3.187E+00   -3.079E+00   -2.971E+00   -2.863E+00   -2.755E+00   -2.647E+00
 Asp      Conc. = 4.04E+00
