 LCModel (Version 6.3-1L) Copyright: S.W. Provencher.          Ref.: Magn. Reson. Med. 30:672-679 (1993).                
 Slice#2 Row#1 Col#8  PD_24_press_2_raw_act
 36 lines in following concentration table = NCONC+1
    Conc.  %SD /Cr+PCr  Metabolite                                         
    0.000 999%   0.000 Ala                                                 
    8.266  85%   0.000 Asp                                                 
    0.000 999%   0.000 Cr                                                  
    0.000 999%   0.000 PCr                                                 
    4.940  85%   0.000 GABA                                                
    4.945  85%   0.000 Glc                                                 
    0.000 999%   0.000 Gln                                                 
  600.288  68%   0.000 Glu                                                 
    0.000 999%   0.000 GPC                                                 
   55.351  58%   0.000 PCh                                                 
    0.000 999%   0.000 GSH                                                 
  131.530 271%   0.000 Ins                                                 
    0.000 999%   0.000 Lac                                                 
    0.000 999%   0.000 NAA                                                 
    0.000 999%   0.000 NAAG                                                
    1.599  88%   0.000 Scyllo                                              
    8.186  86%   0.000 Tau                                                 
 2.10E-03 999%   0.000 -CrCH2                                              
   55.351  58%   0.000 GPC+PCh                                             
    0.000 999%   0.000 NAA+NAAG                                            
    0.000 999%   0.000 Cr+PCr                                              
  600.288  68%   0.000 Glu+Gln                                             
    0.000 999%   0.000 Lip13a                                              
    0.000 999%   0.000 Lip13b                                              
    0.000 999%   0.000 Lip09                                               
    0.000 999%   0.000 MM09                                                
 7.54E-05 999%   0.000 Lip20                                               
    0.000 999%   0.000 MM20                                                
    0.000 999%   0.000 MM12                                                
    0.000 999%   0.000 MM14                                                
    0.000 999%   0.000 MM17                                                
    0.000 999%   0.000 Lip13a+Lip13b                                       
    0.000 999%   0.000 MM14+Lip13a+Lip13b+MM12                             
    0.000 999%   0.000 MM09+Lip09                                          
 7.54E-05 999%   0.000 MM20+Lip20                                          
   6 lines in following misc. output table
  FWHM = 0.046 ppm    S/N =   0                                            
  Data shift = 0.145 ppm                                                   
  Ph: -95 deg       0.4 deg/ppm                                            
  alphaB,S = 8.5E+01,   2.9E+01                                            
   14 spline knots.   Ns = 6(1)                                            
  ( 5) 2 infls.   ( 2) 1 extrs.                                            
  498 points on ppm-axis = NY
      4.000000     3.992357     3.984714     3.977070     3.969427     3.961784     3.954141     3.946497     3.938854     3.931211
      3.923568     3.915925     3.908281     3.900638     3.892995     3.885352     3.877708     3.870065     3.862422     3.854779
      3.847136     3.839492     3.831849     3.824206     3.816563     3.808919     3.801276     3.793633     3.785990     3.778347
      3.770703     3.763060     3.755417     3.747774     3.740130     3.732487     3.724844     3.717201     3.709558     3.701914
      3.694271     3.686628     3.678985     3.671341     3.663698     3.656055     3.648412     3.640769     3.633125     3.625482
      3.617839     3.610196     3.602552     3.594909     3.587266     3.579623     3.571980     3.564336     3.556693     3.549050
      3.541407     3.533763     3.526120     3.518477     3.510834     3.503191     3.495547     3.487904     3.480261     3.472618
      3.464974     3.457331     3.449688     3.442045     3.434402     3.426758     3.419115     3.411472     3.403829     3.396185
      3.388542     3.380899     3.373256     3.365613     3.357969     3.350326     3.342683     3.335040     3.327396     3.319753
      3.312110     3.304467     3.296824     3.289180     3.281537     3.273894     3.266251     3.258607     3.250964     3.243321
      3.235678     3.228034     3.220391     3.212748     3.205105     3.197462     3.189818     3.182175     3.174532     3.166889
      3.159245     3.151602     3.143959     3.136316     3.128673     3.121029     3.113386     3.105743     3.098100     3.090456
      3.082813     3.075170     3.067527     3.059884     3.052240     3.044597     3.036954     3.029311     3.021667     3.014024
      3.006381     2.998738     2.991095     2.983451     2.975808     2.968165     2.960522     2.952878     2.945235     2.937592
      2.929949     2.922306     2.914662     2.907019     2.899376     2.891733     2.884089     2.876446     2.868803     2.861160
      2.853517     2.845873     2.838230     2.830587     2.822944     2.815300     2.807657     2.800014     2.792371     2.784728
      2.777084     2.769441     2.761798     2.754155     2.746511     2.738868     2.731225     2.723582     2.715939     2.708295
      2.700652     2.693009     2.685366     2.677722     2.670079     2.662436     2.654793     2.647150     2.639506     2.631863
      2.624220     2.616577     2.608933     2.601290     2.593647     2.586004     2.578361     2.570717     2.563074     2.555431
      2.547788     2.540144     2.532501     2.524858     2.517215     2.509572     2.501928     2.494285     2.486642     2.478999
      2.471355     2.463712     2.456069     2.448426     2.440783     2.433139     2.425496     2.417853     2.410210     2.402566
      2.394923     2.387280     2.379637     2.371994     2.364350     2.356707     2.349064     2.341421     2.333777     2.326134
      2.318491     2.310848     2.303205     2.295561     2.287918     2.280275     2.272632     2.264988     2.257345     2.249702
      2.242059     2.234416     2.226772     2.219129     2.211486     2.203843     2.196199     2.188556     2.180913     2.173270
      2.165627     2.157983     2.150340     2.142697     2.135054     2.127410     2.119767     2.112124     2.104481     2.096838
      2.089194     2.081551     2.073908     2.066265     2.058621     2.050978     2.043335     2.035692     2.028049     2.020405
      2.012762     2.005119     1.997476     1.989833     1.982190     1.974546     1.966903     1.959260     1.951617     1.943974
      1.936331     1.928688     1.921045     1.913402     1.905759     1.898115     1.890472     1.882829     1.875186     1.867543
      1.859900     1.852257     1.844614     1.836971     1.829327     1.821684     1.814041     1.806398     1.798755     1.791112
      1.783469     1.775826     1.768183     1.760540     1.752896     1.745253     1.737610     1.729967     1.722324     1.714681
      1.707038     1.699395     1.691752     1.684108     1.676465     1.668822     1.661179     1.653536     1.645893     1.638250
      1.630607     1.622964     1.615321     1.607677     1.600034     1.592391     1.584748     1.577105     1.569462     1.561819
      1.554176     1.546533     1.538890     1.531246     1.523603     1.515960     1.508317     1.500674     1.493031     1.485388
      1.477745     1.470102     1.462458     1.454815     1.447172     1.439529     1.431886     1.424243     1.416600     1.408957
      1.401314     1.393671     1.386027     1.378384     1.370741     1.363098     1.355455     1.347812     1.340169     1.332526
      1.324883     1.317240     1.309596     1.301953     1.294310     1.286667     1.279024     1.271381     1.263738     1.256095
      1.248452     1.240808     1.233165     1.225522     1.217879     1.210236     1.202593     1.194950     1.187307     1.179664
      1.172021     1.164377     1.156734     1.149091     1.141448     1.133805     1.126162     1.118519     1.110876     1.103233
      1.095590     1.087946     1.080303     1.072660     1.065017     1.057374     1.049731     1.042088     1.034445     1.026802
      1.019158     1.011515     1.003872     0.996229     0.988586     0.980943     0.973300     0.965657     0.958014     0.950371
      0.942727     0.935084     0.927441     0.919798     0.912155     0.904512     0.896869     0.889226     0.881583     0.873940
      0.866296     0.858653     0.851010     0.843367     0.835724     0.828081     0.820438     0.812795     0.805152     0.797508
      0.789865     0.782222     0.774579     0.766936     0.759293     0.751650     0.744007     0.736364     0.728721     0.721077
      0.713434     0.705791     0.698148     0.690505     0.682862     0.675219     0.667576     0.659933     0.652290     0.644646
      0.637003     0.629360     0.621717     0.614074     0.606431     0.598788     0.591145     0.583502     0.575858     0.568215
      0.560572     0.552929     0.545286     0.537643     0.530000     0.522357     0.514714     0.507071     0.499427     0.491784
      0.484141     0.476498     0.468855     0.461212     0.453569     0.445925     0.438282     0.430639     0.422996     0.415353
      0.407710     0.400067     0.392424     0.384780     0.377137     0.369494     0.361851     0.354208     0.346565     0.338922
      0.331278     0.323635     0.315992     0.308349     0.300706     0.293063     0.285420     0.277777     0.270133     0.262490
      0.254847     0.247204     0.239561     0.231918     0.224275     0.216631     0.208988     0.201345
 NY phased data points follow
  -8.07897E+00 -1.86279E+01 -1.43395E+01 -1.29590E+01 -6.41155E-01 -8.08232E+00 -7.98281E+00 -6.09294E+00 -7.26242E+00 -1.09211E+01
  -1.74790E+01 -7.33350E+00 -9.06144E+00 -1.42156E+01 -7.10038E+00 -4.41543E+00  1.52885E+00 -6.00006E+00 -1.24854E+01 -1.80409E+01
  -1.70164E+01 -2.10693E+01 -1.06890E+01 -1.62571E+01 -9.68899E+00 -1.30077E+01 -4.77744E+00 -9.31237E+00 -2.53005E+01 -1.00191E+01
  -1.27580E+01 -1.39879E+01 -1.72888E+01 -7.66016E+00 -1.61717E+01 -1.22725E+01 -1.05353E+01 -2.32581E+01 -8.93232E+00 -3.65544E+00
  -1.61374E+01 -2.53054E+01 -1.53102E+00 -3.69939E+00 -3.26285E+00 -2.17992E+00 -9.21021E+00  3.75596E+00 -1.33213E+01 -2.79042E+00
  -8.26023E+00 -1.29570E+00 -1.22672E+01 -1.03455E+01 -1.62355E+01 -1.44774E+01 -1.11147E+01 -7.42828E+00 -6.72010E+00 -1.44898E+00
  -8.86434E+00 -6.03532E+00 -6.92378E+00 -6.47657E+00 -5.61438E+00 -1.89898E+00 -6.73670E-01 -1.59706E+01 -1.50459E+01 -3.12925E+00
  -1.18363E+01 -3.06358E+00 -2.31506E+00 -8.82919E+00 -4.07913E+00 -3.49323E+00 -9.63757E+00 -2.43956E+00 -8.33437E+00  6.62130E+00
  -1.11104E+00 -6.53364E+00 -9.40932E+00 -1.28491E+01 -1.15639E+01 -1.67715E+01 -1.51044E+01 -1.25601E+01 -1.58754E+01 -6.14291E+00
  -1.94666E+01 -7.87512E+00 -2.32163E+01 -9.56089E+00 -8.38278E+00 -1.35721E+01 -9.55314E+00 -4.56541E+00 -8.39554E+00 -4.09012E+00
  -8.93193E+00 -3.81094E-02 -3.06059E+00 -7.90626E+00 -1.60358E+00  1.37683E+01 -3.08919E+00 -4.53148E+00 -7.66328E+00 -1.08338E+01
  -1.47136E+01 -1.38280E+01 -1.11874E+01 -5.04933E+00 -7.51922E+00 -3.23863E+00 -1.33881E+01  3.65868E+00 -6.72902E+00 -1.98392E+00
   1.18532E+00 -6.82768E+00 -2.49932E+00 -9.88065E+00 -5.51989E+00 -8.29760E+00 -2.63940E+00 -4.96391E+00 -1.49761E+01 -1.65445E+01
  -1.25550E+01  1.62681E+00 -5.16355E+00 -2.44503E+00 -4.56516E+00 -9.59861E+00 -3.25590E+00 -3.90895E+00 -1.08672E+01 -2.33422E+00
  -1.43998E+01 -3.04183E+00 -6.00737E+00 -1.08029E+01 -1.72876E+01  9.59677E+00 -3.99202E+00 -5.10557E+00 -7.80706E-01  4.31123E+00
  -1.01221E+01 -3.83634E+00 -6.03999E+00 -4.69593E+00 -4.78257E+00 -9.09282E+00 -4.56886E+00 -2.79477E+00  7.88237E-01  6.79778E+00
   7.97898E+00 -4.29306E+00 -3.78771E+00  7.95710E+00 -6.29577E+00  4.06050E+00 -9.49052E+00  4.13384E+00 -2.58389E+00  5.73836E+00
   3.24466E-01 -1.64145E+00  1.53541E+01 -3.73795E+00  5.72155E-01  1.84249E+01 -1.10566E+01  1.34554E+00  3.10066E+00  2.55798E+00
   2.96909E+00 -3.44436E+00  1.31621E+01  9.41569E-01 -7.57119E-01  4.02350E+00  6.86991E+00  1.46470E+00 -7.98675E+00 -7.19191E-01
  -9.53958E+00  2.36058E+00 -5.74699E+00  4.26482E+00 -1.40063E+00 -2.77299E+00 -7.62550E+00  2.58586E+00 -7.65803E+00 -2.48274E+00
  -7.24557E+00 -1.06820E+01 -6.33018E+00  7.99758E-01 -7.86835E+00 -1.31348E+00 -2.69171E+00 -3.95452E+00 -5.09496E+00 -3.42560E+00
  -7.02979E+00 -8.08178E+00 -5.08572E+00 -1.45568E+00  5.26951E+00 -4.94558E+00  4.93490E+00 -4.03356E+00 -1.61779E+00 -7.29235E+00
  -7.59710E+00 -1.12800E+01 -1.86971E+01 -1.50411E+00 -7.77913E+00  2.63689E+00 -8.09643E+00 -1.42477E+00 -5.02160E+00  4.07043E+00
   5.62519E+00  2.49748E+00 -5.20778E+00 -7.37644E+00  7.68154E-01  1.01487E+01 -6.35185E+00  7.65954E+00 -8.63201E+00 -7.63048E-01
  -2.18274E+00 -8.49133E+00 -8.09804E+00 -1.90378E+01 -1.28976E+01 -1.49350E+01  3.29174E-02 -8.14310E+00 -7.14440E+00 -9.46448E+00
  -1.08092E+01 -7.74948E+00 -1.86134E+01 -8.57472E+00 -2.61009E+00 -1.73179E+00 -4.53540E+00 -7.57230E+00 -8.20959E+00 -3.58131E+00
  -1.81736E+01 -1.94043E+01 -1.05554E+01 -3.43673E-01 -5.03036E+00 -1.24836E+00  4.78845E+00  5.75318E+00 -8.56246E+00  1.06962E+01
   3.07539E+00  1.09482E+00 -5.21259E+00  1.26081E+00 -6.66481E-01  2.42227E+00 -6.58516E+00  6.64201E-01 -1.46421E+00 -3.28453E+00
   2.53536E+00  1.04016E+01 -5.40356E-01 -6.18127E+00 -1.04264E+01 -2.85348E+00 -1.20474E+00 -4.94740E+00 -2.77694E+00  1.05916E+01
  -1.20810E+01  3.15361E+00 -4.57372E+00 -3.20907E+00 -1.47552E+00  1.14879E+01 -2.10068E+00 -1.51452E+00 -1.60804E+01 -1.20449E+01
   5.92216E-01  1.06904E+00 -1.93104E+00 -7.03440E+00 -9.73100E-01 -7.46819E+00  1.60096E+00 -1.17809E+01  2.60124E+00 -4.60692E-01
   1.28297E+00  1.38664E+00 -1.47752E+01 -3.98866E+00 -3.17160E+00 -5.49983E+00  1.87905E+00 -1.17368E+01 -1.80537E+01 -6.80885E+00
  -1.23650E+01 -1.20319E+01 -9.71787E+00  6.31483E+00  6.13673E-01 -4.24396E+00 -6.04624E+00 -4.80211E+00 -3.68747E-01 -5.67633E+00
   9.28762E+00 -1.96726E+00 -4.15914E+00 -4.35355E+00 -1.27231E+00 -1.55288E+01 -7.43807E+00 -4.01801E+00 -1.12548E+01 -6.89974E+00
   1.70325E+00 -2.80005E+00 -9.26364E+00  1.46435E+00 -1.29756E+01 -8.35885E+00 -8.86299E+00 -1.16546E+01 -1.75561E+01 -7.38887E+00
  -1.58281E+01 -1.05189E+01 -1.07558E+01  5.46450E-01 -2.05957E+00 -1.71840E+00 -1.75413E+01 -4.81459E+00 -9.44089E+00 -2.00105E+00
  -6.39781E+00 -5.67955E+00 -1.03856E+01 -1.57907E+01 -8.49103E+00 -1.36190E-01 -1.59335E+01 -6.81496E+00 -8.50417E+00 -1.68270E+01
  -6.69338E+00  6.22612E+00 -7.91369E+00 -2.86867E+00 -7.97917E+00 -1.22313E+01  1.83953E+01  1.54429E+01 -1.45093E+01  5.60598E+00
  -1.11138E-01 -1.38521E+01 -1.10014E+01  3.42839E-01 -1.19261E+01 -6.95009E+00  5.35613E+00 -5.30160E+00 -1.42974E+01 -1.70581E+01
  -1.31238E+01 -1.49410E+01 -1.69847E+01 -8.23395E+00 -8.43805E+00 -1.43959E+01 -1.56906E+01 -9.78779E+00 -1.17800E+01 -7.13801E-01
  -1.26226E+00 -6.72090E+00 -1.21147E+01  1.29593E+00  1.95135E+00 -3.92554E+00  1.13420E+00  1.06551E+00 -6.48802E+00  1.01135E+00
  -2.09727E+00 -6.79738E+00 -8.18523E+00 -6.73221E+00 -9.96415E+00 -9.62876E+00  5.35216E+00  1.28243E+00  5.60422E-01 -3.61924E+00
  -1.12087E+00 -6.62529E-01 -1.46011E+01  2.42217E+00 -1.04735E-01  1.30378E+01  8.82536E-01 -1.01252E+01 -3.59290E+00  6.31805E+00
  -6.27088E+00 -6.72393E+00 -1.74368E+00 -1.81839E+00  1.20906E+00 -2.07852E-01  2.21239E+00  7.36090E+00  1.25691E+01  6.65459E+00
  -2.48115E+00  1.21484E+01 -2.14971E+00 -2.51259E+00 -1.48901E+01  1.22072E+01 -2.55964E+00 -2.39235E+00 -4.23562E+00  7.32911E-01
   1.09372E+01  1.23938E+01  8.11085E+00  1.26882E+01 -6.14891E+00 -3.63325E+00 -2.08268E+00 -6.87966E+00 -1.22377E+00  9.21451E+00
   2.88316E+00  7.65098E+00  3.48054E-03  1.22820E+01 -1.63292E+00 -3.11825E+00  5.63649E+00  2.08819E+00 -2.03716E+00  1.42267E+00
  -3.87266E+00  9.50185E-01 -8.02291E+00  1.63336E-01 -2.90529E-01  1.92591E+00  1.01856E+01 -5.49579E+00 -2.00604E+00 -1.23760E+00
   8.92946E+00 -9.37383E+00 -5.39879E+00  6.32489E+00 -4.50104E+00 -2.29528E+00  1.04977E+01  1.42729E+00 -1.20079E+00 -4.16289E+00
  -1.49195E+00 -6.46385E-01 -1.88026E+00  6.45058E+00  2.05997E+00 -1.93719E-01 -8.75502E+00  8.18546E+00
 NY points of the fit to the data follow
  -7.91960E+00 -7.98209E+00 -8.01950E+00 -8.03128E+00 -8.03051E+00 -8.02473E+00 -8.01568E+00 -8.00410E+00 -7.99050E+00 -7.97488E+00
  -7.95645E+00 -7.93410E+00 -7.90743E+00 -7.87766E+00 -7.84660E+00 -7.81414E+00 -7.77740E+00 -7.73259E+00 -7.67530E+00 -7.59916E+00
  -7.49216E+00 -7.34516E+00 -7.18616E+00 -7.07477E+00 -7.07442E+00 -7.22234E+00 -7.49580E+00 -7.80470E+00 -8.01656E+00 -7.99929E+00
  -7.68503E+00 -7.11915E+00 -6.46747E+00 -5.96849E+00 -5.83080E+00 -6.11459E+00 -6.67871E+00 -7.30275E+00 -7.76710E+00 -7.92909E+00
  -7.78469E+00 -7.44702E+00 -7.06261E+00 -6.73162E+00 -6.48032E+00 -6.30420E+00 -6.17874E+00 -6.09156E+00 -6.09083E+00 -6.21980E+00
  -6.47079E+00 -6.78164E+00 -7.06525E+00 -7.24239E+00 -7.27764E+00 -7.20334E+00 -7.08066E+00 -6.94834E+00 -6.82454E+00 -6.72250E+00
  -6.65918E+00 -6.65048E+00 -6.69772E+00 -6.78539E+00 -6.88551E+00 -6.96436E+00 -6.99197E+00 -6.96177E+00 -6.88972E+00 -6.79921E+00
  -6.71412E+00 -6.64775E+00 -6.60515E+00 -6.58627E+00 -6.58875E+00 -6.60913E+00 -6.64020E+00 -6.67364E+00 -6.70065E+00 -6.71555E+00
  -6.72041E+00 -6.71783E+00 -6.71431E+00 -6.72279E+00 -6.75573E+00 -6.81583E+00 -6.89467E+00 -6.97611E+00 -7.03962E+00 -7.06582E+00
  -7.04297E+00 -6.97259E+00 -6.87256E+00 -6.77193E+00 -6.69903E+00 -6.66301E+00 -6.64779E+00 -6.57079E+00 -6.25671E+00 -5.56902E+00
  -4.49883E+00 -3.18614E+00 -1.89181E+00 -9.04825E-01 -4.72905E-01 -7.51767E-01 -1.70915E+00 -3.07947E+00 -4.45745E+00 -5.47915E+00
  -5.97959E+00 -6.10931E+00 -6.15794E+00 -6.18951E+00 -6.21008E+00 -6.22460E+00 -6.23628E+00 -6.24594E+00 -6.25333E+00 -6.25785E+00
  -6.25891E+00 -6.25589E+00 -6.24842E+00 -6.23670E+00 -6.22134E+00 -6.20334E+00 -6.18383E+00 -6.16417E+00 -6.14584E+00 -6.13060E+00
  -6.11945E+00 -6.11176E+00 -6.10627E+00 -6.10144E+00 -6.09564E+00 -6.08746E+00 -6.07617E+00 -6.06204E+00 -6.04650E+00 -6.03102E+00
  -6.01597E+00 -6.00097E+00 -5.98552E+00 -5.96933E+00 -5.95281E+00 -5.93629E+00 -5.92038E+00 -5.90629E+00 -5.89472E+00 -5.88512E+00
  -5.87562E+00 -5.86456E+00 -5.85158E+00 -5.83735E+00 -5.82340E+00 -5.81061E+00 -5.79887E+00 -5.78781E+00 -5.77697E+00 -5.76589E+00
  -5.75420E+00 -5.74117E+00 -5.72603E+00 -5.70839E+00 -5.68842E+00 -5.66675E+00 -5.64425E+00 -5.62169E+00 -5.59978E+00 -5.57965E+00
  -5.56202E+00 -5.54666E+00 -5.53256E+00 -5.51859E+00 -5.50434E+00 -5.49051E+00 -5.47777E+00 -5.46629E+00 -5.45555E+00 -5.44412E+00
  -5.43044E+00 -5.41373E+00 -5.39417E+00 -5.37290E+00 -5.35111E+00 -5.32982E+00 -5.31012E+00 -5.29275E+00 -5.27738E+00 -5.26268E+00
  -5.24725E+00 -5.22973E+00 -5.20895E+00 -5.18363E+00 -5.15202E+00 -5.11341E+00 -5.06888E+00 -5.01987E+00 -4.96630E+00 -4.90465E+00
  -4.82768E+00 -4.73543E+00 -4.64089E+00 -4.56369E+00 -4.53929E+00 -4.60564E+00 -4.78403E+00 -5.06442E+00 -5.38289E+00 -5.62202E+00
  -5.61468E+00 -5.22705E+00 -4.45007E+00 -3.42557E+00 -2.41838E+00 -1.72742E+00 -1.63904E+00 -2.35156E+00 -3.81716E+00 -5.72477E+00
  -7.58410E+00 -8.90601E+00 -9.38275E+00 -8.97307E+00 -7.90568E+00 -6.47468E+00 -5.01964E+00 -3.88640E+00 -3.28456E+00 -3.20116E+00
  -3.41573E+00 -3.68328E+00 -3.89282E+00 -4.01901E+00 -4.04876E+00 -4.02273E+00 -4.00560E+00 -4.06232E+00 -4.22208E+00 -4.44805E+00
  -4.66632E+00 -4.80459E+00 -4.80406E+00 -4.64566E+00 -4.36837E+00 -4.06422E+00 -3.84678E+00 -3.80414E+00 -3.93948E+00 -4.18105E+00
  -4.42955E+00 -4.57384E+00 -4.57886E+00 -4.47548E+00 -4.32148E+00 -4.17609E+00 -4.09506E+00 -4.08508E+00 -4.08617E+00 -4.02093E+00
  -3.85747E+00 -3.62911E+00 -3.40693E+00 -3.26326E+00 -3.23958E+00 -3.33399E+00 -3.49194E+00 -3.65726E+00 -3.79458E+00 -3.88478E+00
  -3.91491E+00 -3.88497E+00 -3.81240E+00 -3.70587E+00 -3.57378E+00 -3.45140E+00 -3.36939E+00 -3.34255E+00 -3.36598E+00 -3.41767E+00
  -3.46832E+00 -3.50151E+00 -3.51550E+00 -3.51248E+00 -3.49661E+00 -3.47486E+00 -3.45466E+00 -3.44084E+00 -3.43295E+00 -3.42708E+00
  -3.42149E+00 -3.41507E+00 -3.40706E+00 -3.39742E+00 -3.38663E+00 -3.37530E+00 -3.36348E+00 -3.35112E+00 -3.33850E+00 -3.32564E+00
  -3.31231E+00 -3.29851E+00 -3.28433E+00 -3.26994E+00 -3.25563E+00 -3.24168E+00 -3.22827E+00 -3.21539E+00 -3.20277E+00 -3.19009E+00
  -3.17706E+00 -3.16372E+00 -3.15022E+00 -3.13661E+00 -3.12290E+00 -3.10910E+00 -3.09522E+00 -3.08126E+00 -3.06724E+00 -3.05317E+00
  -3.03904E+00 -3.02485E+00 -3.01061E+00 -2.99632E+00 -2.98200E+00 -2.96762E+00 -2.95320E+00 -2.93874E+00 -2.92424E+00 -2.90971E+00
  -2.89515E+00 -2.88055E+00 -2.86591E+00 -2.85124E+00 -2.83655E+00 -2.82182E+00 -2.80708E+00 -2.79230E+00 -2.77749E+00 -2.76266E+00
  -2.74781E+00 -2.73293E+00 -2.71803E+00 -2.70311E+00 -2.68817E+00 -2.67321E+00 -2.65824E+00 -2.64325E+00 -2.62823E+00 -2.61320E+00
  -2.59815E+00 -2.58309E+00 -2.56802E+00 -2.55293E+00 -2.53782E+00 -2.52270E+00 -2.50756E+00 -2.49242E+00 -2.47726E+00 -2.46209E+00
  -2.44690E+00 -2.43170E+00 -2.41649E+00 -2.40127E+00 -2.38604E+00 -2.37080E+00 -2.35554E+00 -2.34027E+00 -2.32500E+00 -2.30972E+00
  -2.29443E+00 -2.27913E+00 -2.26381E+00 -2.24849E+00 -2.23317E+00 -2.21784E+00 -2.20249E+00 -2.18714E+00 -2.17178E+00 -2.15641E+00
  -2.14104E+00 -2.12566E+00 -2.11027E+00 -2.09487E+00 -2.07947E+00 -2.06406E+00 -2.04865E+00 -2.03323E+00 -2.01780E+00 -2.00236E+00
  -1.98692E+00 -1.97148E+00 -1.95603E+00 -1.94057E+00 -1.92511E+00 -1.90964E+00 -1.89417E+00 -1.87869E+00 -1.86321E+00 -1.84772E+00
  -1.83223E+00 -1.81673E+00 -1.80123E+00 -1.78573E+00 -1.77022E+00 -1.75470E+00 -1.73918E+00 -1.72366E+00 -1.70814E+00 -1.69261E+00
  -1.67707E+00 -1.66153E+00 -1.64599E+00 -1.63044E+00 -1.61490E+00 -1.59934E+00 -1.58378E+00 -1.56822E+00 -1.55266E+00 -1.53709E+00
  -1.52153E+00 -1.50595E+00 -1.49037E+00 -1.47479E+00 -1.45921E+00 -1.44363E+00 -1.42804E+00 -1.41245E+00 -1.39685E+00 -1.38126E+00
  -1.36566E+00 -1.35006E+00 -1.33445E+00 -1.31884E+00 -1.30323E+00 -1.28761E+00 -1.27200E+00 -1.25639E+00 -1.24077E+00 -1.22515E+00
  -1.20953E+00 -1.19391E+00 -1.17828E+00 -1.16265E+00 -1.14701E+00 -1.13137E+00 -1.11574E+00 -1.10010E+00 -1.08446E+00 -1.06882E+00
  -1.05318E+00 -1.03753E+00 -1.02189E+00 -1.00624E+00 -9.90593E-01 -9.74938E-01 -9.59281E-01 -9.43625E-01 -9.27968E-01 -9.12309E-01
  -8.96647E-01 -8.80985E-01 -8.65324E-01 -8.49664E-01 -8.34003E-01 -8.18339E-01 -8.02672E-01 -7.87006E-01 -7.71342E-01 -7.55680E-01
  -7.40017E-01 -7.24350E-01 -7.08681E-01 -6.93011E-01 -6.77341E-01 -6.61669E-01 -6.45995E-01 -6.30318E-01 -6.14641E-01 -5.98967E-01
  -5.83295E-01 -5.67622E-01 -5.51948E-01 -5.36273E-01 -5.20600E-01 -5.04928E-01 -4.89257E-01 -4.73587E-01 -4.57915E-01 -4.42244E-01
  -4.26577E-01 -4.10912E-01 -3.95250E-01 -3.79587E-01 -3.63926E-01 -3.48266E-01 -3.32611E-01 -3.16960E-01
 NY background values follow
    -8.200E+00   -8.184E+00   -8.168E+00   -8.152E+00   -8.137E+00   -8.121E+00   -8.105E+00   -8.089E+00   -8.073E+00   -8.058E+00
    -8.042E+00   -8.026E+00   -8.010E+00   -7.995E+00   -7.979E+00   -7.963E+00   -7.947E+00   -7.932E+00   -7.916E+00   -7.900E+00
    -7.884E+00   -7.868E+00   -7.853E+00   -7.837E+00   -7.821E+00   -7.805E+00   -7.790E+00   -7.774E+00   -7.758E+00   -7.742E+00
    -7.727E+00   -7.711E+00   -7.695E+00   -7.679E+00   -7.663E+00   -7.648E+00   -7.632E+00   -7.616E+00   -7.600E+00   -7.585E+00
    -7.569E+00   -7.553E+00   -7.537E+00   -7.521E+00   -7.506E+00   -7.490E+00   -7.474E+00   -7.458E+00   -7.443E+00   -7.427E+00
    -7.411E+00   -7.395E+00   -7.379E+00   -7.364E+00   -7.348E+00   -7.332E+00   -7.316E+00   -7.301E+00   -7.285E+00   -7.269E+00
    -7.253E+00   -7.237E+00   -7.222E+00   -7.206E+00   -7.190E+00   -7.174E+00   -7.159E+00   -7.143E+00   -7.127E+00   -7.111E+00
    -7.095E+00   -7.080E+00   -7.064E+00   -7.048E+00   -7.032E+00   -7.016E+00   -7.001E+00   -6.985E+00   -6.969E+00   -6.953E+00
    -6.938E+00   -6.922E+00   -6.906E+00   -6.890E+00   -6.874E+00   -6.859E+00   -6.843E+00   -6.827E+00   -6.811E+00   -6.795E+00
    -6.780E+00   -6.764E+00   -6.748E+00   -6.732E+00   -6.717E+00   -6.701E+00   -6.685E+00   -6.669E+00   -6.653E+00   -6.638E+00
    -6.622E+00   -6.606E+00   -6.590E+00   -6.574E+00   -6.559E+00   -6.543E+00   -6.527E+00   -6.511E+00   -6.495E+00   -6.480E+00
    -6.464E+00   -6.448E+00   -6.432E+00   -6.416E+00   -6.401E+00   -6.385E+00   -6.369E+00   -6.353E+00   -6.337E+00   -6.322E+00
    -6.306E+00   -6.290E+00   -6.274E+00   -6.258E+00   -6.243E+00   -6.227E+00   -6.211E+00   -6.195E+00   -6.179E+00   -6.164E+00
    -6.148E+00   -6.132E+00   -6.116E+00   -6.100E+00   -6.085E+00   -6.069E+00   -6.053E+00   -6.037E+00   -6.021E+00   -6.006E+00
    -5.990E+00   -5.974E+00   -5.958E+00   -5.942E+00   -5.927E+00   -5.911E+00   -5.895E+00   -5.879E+00   -5.863E+00   -5.848E+00
    -5.832E+00   -5.816E+00   -5.800E+00   -5.784E+00   -5.769E+00   -5.753E+00   -5.737E+00   -5.721E+00   -5.705E+00   -5.690E+00
    -5.674E+00   -5.658E+00   -5.642E+00   -5.626E+00   -5.610E+00   -5.595E+00   -5.579E+00   -5.563E+00   -5.547E+00   -5.531E+00
    -5.516E+00   -5.500E+00   -5.484E+00   -5.468E+00   -5.452E+00   -5.437E+00   -5.421E+00   -5.405E+00   -5.389E+00   -5.373E+00
    -5.357E+00   -5.342E+00   -5.326E+00   -5.310E+00   -5.294E+00   -5.278E+00   -5.263E+00   -5.247E+00   -5.231E+00   -5.215E+00
    -5.199E+00   -5.183E+00   -5.168E+00   -5.152E+00   -5.136E+00   -5.120E+00   -5.104E+00   -5.089E+00   -5.073E+00   -5.057E+00
    -5.041E+00   -5.025E+00   -5.009E+00   -4.994E+00   -4.978E+00   -4.962E+00   -4.946E+00   -4.930E+00   -4.915E+00   -4.899E+00
    -4.883E+00   -4.867E+00   -4.851E+00   -4.835E+00   -4.820E+00   -4.804E+00   -4.788E+00   -4.772E+00   -4.756E+00   -4.741E+00
    -4.725E+00   -4.709E+00   -4.693E+00   -4.677E+00   -4.661E+00   -4.646E+00   -4.630E+00   -4.614E+00   -4.598E+00   -4.582E+00
    -4.566E+00   -4.551E+00   -4.535E+00   -4.519E+00   -4.503E+00   -4.487E+00   -4.471E+00   -4.456E+00   -4.440E+00   -4.424E+00
    -4.408E+00   -4.392E+00   -4.377E+00   -4.361E+00   -4.345E+00   -4.329E+00   -4.313E+00   -4.297E+00   -4.282E+00   -4.266E+00
    -4.250E+00   -4.234E+00   -4.218E+00   -4.202E+00   -4.187E+00   -4.171E+00   -4.155E+00   -4.139E+00   -4.123E+00   -4.107E+00
    -4.092E+00   -4.076E+00   -4.060E+00   -4.044E+00   -4.028E+00   -4.012E+00   -3.997E+00   -3.981E+00   -3.965E+00   -3.949E+00
    -3.933E+00   -3.917E+00   -3.902E+00   -3.886E+00   -3.870E+00   -3.854E+00   -3.838E+00   -3.822E+00   -3.807E+00   -3.791E+00
    -3.775E+00   -3.759E+00   -3.743E+00   -3.727E+00   -3.711E+00   -3.696E+00   -3.680E+00   -3.664E+00   -3.648E+00   -3.632E+00
    -3.616E+00   -3.601E+00   -3.585E+00   -3.569E+00   -3.553E+00   -3.537E+00   -3.521E+00   -3.506E+00   -3.490E+00   -3.474E+00
    -3.458E+00   -3.442E+00   -3.426E+00   -3.410E+00   -3.395E+00   -3.379E+00   -3.363E+00   -3.347E+00   -3.331E+00   -3.315E+00
    -3.300E+00   -3.284E+00   -3.268E+00   -3.252E+00   -3.236E+00   -3.220E+00   -3.205E+00   -3.189E+00   -3.173E+00   -3.157E+00
    -3.141E+00   -3.125E+00   -3.109E+00   -3.094E+00   -3.078E+00   -3.062E+00   -3.046E+00   -3.030E+00   -3.014E+00   -2.998E+00
    -2.983E+00   -2.967E+00   -2.951E+00   -2.935E+00   -2.919E+00   -2.903E+00   -2.888E+00   -2.872E+00   -2.856E+00   -2.840E+00
    -2.824E+00   -2.808E+00   -2.792E+00   -2.777E+00   -2.761E+00   -2.745E+00   -2.729E+00   -2.713E+00   -2.697E+00   -2.681E+00
    -2.666E+00   -2.650E+00   -2.634E+00   -2.618E+00   -2.602E+00   -2.586E+00   -2.570E+00   -2.555E+00   -2.539E+00   -2.523E+00
    -2.507E+00   -2.491E+00   -2.475E+00   -2.459E+00   -2.444E+00   -2.428E+00   -2.412E+00   -2.396E+00   -2.380E+00   -2.364E+00
    -2.348E+00   -2.333E+00   -2.317E+00   -2.301E+00   -2.285E+00   -2.269E+00   -2.253E+00   -2.237E+00   -2.222E+00   -2.206E+00
    -2.190E+00   -2.174E+00   -2.158E+00   -2.142E+00   -2.126E+00   -2.111E+00   -2.095E+00   -2.079E+00   -2.063E+00   -2.047E+00
    -2.031E+00   -2.015E+00   -1.999E+00   -1.984E+00   -1.968E+00   -1.952E+00   -1.936E+00   -1.920E+00   -1.904E+00   -1.888E+00
    -1.873E+00   -1.857E+00   -1.841E+00   -1.825E+00   -1.809E+00   -1.793E+00   -1.777E+00   -1.761E+00   -1.746E+00   -1.730E+00
    -1.714E+00   -1.698E+00   -1.682E+00   -1.666E+00   -1.650E+00   -1.635E+00   -1.619E+00   -1.603E+00   -1.587E+00   -1.571E+00
    -1.555E+00   -1.539E+00   -1.523E+00   -1.508E+00   -1.492E+00   -1.476E+00   -1.460E+00   -1.444E+00   -1.428E+00   -1.412E+00
    -1.396E+00   -1.381E+00   -1.365E+00   -1.349E+00   -1.333E+00   -1.317E+00   -1.301E+00   -1.285E+00   -1.269E+00   -1.254E+00
    -1.238E+00   -1.222E+00   -1.206E+00   -1.190E+00   -1.174E+00   -1.158E+00   -1.142E+00   -1.127E+00   -1.111E+00   -1.095E+00
    -1.079E+00   -1.063E+00   -1.047E+00   -1.031E+00   -1.015E+00   -9.996E-01   -9.837E-01   -9.678E-01   -9.519E-01   -9.360E-01
    -9.202E-01   -9.043E-01   -8.884E-01   -8.725E-01   -8.566E-01   -8.408E-01   -8.249E-01   -8.090E-01   -7.931E-01   -7.772E-01
    -7.614E-01   -7.455E-01   -7.296E-01   -7.137E-01   -6.978E-01   -6.819E-01   -6.661E-01   -6.502E-01   -6.343E-01   -6.184E-01
    -6.025E-01   -5.867E-01   -5.708E-01   -5.549E-01   -5.390E-01   -5.231E-01   -5.072E-01   -4.913E-01   -4.755E-01   -4.596E-01
    -4.437E-01   -4.278E-01   -4.119E-01   -3.960E-01   -3.802E-01   -3.643E-01   -3.484E-01   -3.325E-01
 Asp      Conc. = 8.27E+00
