 LCModel (Version 6.3-1L) Copyright: S.W. Provencher.          Ref.: Magn. Reson. Med. 30:672-679 (1993).                
 Slice#3 Row#4 Col#4  PD_24_press_2_raw_act
 36 lines in following concentration table = NCONC+1
    Conc.  %SD /Cr+PCr  Metabolite                                         
    0.000 999%   0.000 Ala                                                 
    0.000 999%   0.000 Asp                                                 
    0.000 999%   0.000 Cr                                                  
 3.29E+03   4%   1.000 PCr                                                 
  248.086 158% 7.6E-02 GABA                                                
 1.13E+03  33%   0.345 Glc                                                 
 1.19E+03  54%   0.361 Gln                                                 
 2.51E+03  31%   0.763 Glu                                                 
 1.35E+03  17%   0.412 GPC                                                 
  156.364 147% 4.8E-02 PCh                                                 
  642.693  30%   0.196 GSH                                                 
 4.27E+03  17%   1.300 Ins                                                 
    0.000 999%   0.000 Lac                                                 
 4.17E+03   3%   1.270 NAA                                                 
    0.000 999%   0.000 NAAG                                                
  574.059  13%   0.175 Scyllo                                              
 1.58E+03  36%   0.480 Tau                                                 
  614.862  45%   0.187 -CrCH2                                              
 1.51E+03   4%   0.459 GPC+PCh                                             
 4.17E+03   3%   1.270 NAA+NAAG                                            
 3.29E+03   4%   1.000 Cr+PCr                                              
 3.69E+03  31%   1.124 Glu+Gln                                             
    0.000 999%   0.000 Lip13a                                              
  646.522  33%   0.197 Lip13b                                              
    0.000 999%   0.000 Lip09                                               
 2.21E+03  16%   0.672 MM09                                                
   56.716 258% 1.7E-02 Lip20                                               
 3.25E+03  16%   0.989 MM20                                                
  662.932  17%   0.202 MM12                                                
 2.16E+03  13%   0.657 MM14                                                
  983.986  18%   0.300 MM17                                                
  646.522  33%   0.197 Lip13a+Lip13b                                       
 3.47E+03  13%   1.056 MM14+Lip13a+Lip13b+MM12                             
 2.21E+03  16%   0.672 MM09+Lip09                                          
 3.30E+03  17%   1.006 MM20+Lip20                                          
   6 lines in following misc. output table
  FWHM = 0.069 ppm    S/N =   8                                            
  Data shift = 0.031 ppm                                                   
  Ph: -71 deg     -29.6 deg/ppm                                            
  alphaB,S = 7.0E-01,   9.2E+01                                            
   14 spline knots.   Ns = 8(1)                                            
  (15) 2 infls.   ( 7) 1 extrs.                                            
  498 points on ppm-axis = NY
      4.000000     3.992357     3.984714     3.977070     3.969427     3.961784     3.954141     3.946497     3.938854     3.931211
      3.923568     3.915925     3.908281     3.900638     3.892995     3.885352     3.877708     3.870065     3.862422     3.854779
      3.847136     3.839492     3.831849     3.824206     3.816563     3.808919     3.801276     3.793633     3.785990     3.778347
      3.770703     3.763060     3.755417     3.747774     3.740130     3.732487     3.724844     3.717201     3.709558     3.701914
      3.694271     3.686628     3.678985     3.671341     3.663698     3.656055     3.648412     3.640769     3.633125     3.625482
      3.617839     3.610196     3.602552     3.594909     3.587266     3.579623     3.571980     3.564336     3.556693     3.549050
      3.541407     3.533763     3.526120     3.518477     3.510834     3.503191     3.495547     3.487904     3.480261     3.472618
      3.464974     3.457331     3.449688     3.442045     3.434402     3.426758     3.419115     3.411472     3.403829     3.396185
      3.388542     3.380899     3.373256     3.365613     3.357969     3.350326     3.342683     3.335040     3.327396     3.319753
      3.312110     3.304467     3.296824     3.289180     3.281537     3.273894     3.266251     3.258607     3.250964     3.243321
      3.235678     3.228034     3.220391     3.212748     3.205105     3.197462     3.189818     3.182175     3.174532     3.166889
      3.159245     3.151602     3.143959     3.136316     3.128673     3.121029     3.113386     3.105743     3.098100     3.090456
      3.082813     3.075170     3.067527     3.059884     3.052240     3.044597     3.036954     3.029311     3.021667     3.014024
      3.006381     2.998738     2.991095     2.983451     2.975808     2.968165     2.960522     2.952878     2.945235     2.937592
      2.929949     2.922306     2.914662     2.907019     2.899376     2.891733     2.884089     2.876446     2.868803     2.861160
      2.853517     2.845873     2.838230     2.830587     2.822944     2.815300     2.807657     2.800014     2.792371     2.784728
      2.777084     2.769441     2.761798     2.754155     2.746511     2.738868     2.731225     2.723582     2.715939     2.708295
      2.700652     2.693009     2.685366     2.677722     2.670079     2.662436     2.654793     2.647150     2.639506     2.631863
      2.624220     2.616577     2.608933     2.601290     2.593647     2.586004     2.578361     2.570717     2.563074     2.555431
      2.547788     2.540144     2.532501     2.524858     2.517215     2.509572     2.501928     2.494285     2.486642     2.478999
      2.471355     2.463712     2.456069     2.448426     2.440783     2.433139     2.425496     2.417853     2.410210     2.402566
      2.394923     2.387280     2.379637     2.371994     2.364350     2.356707     2.349064     2.341421     2.333777     2.326134
      2.318491     2.310848     2.303205     2.295561     2.287918     2.280275     2.272632     2.264988     2.257345     2.249702
      2.242059     2.234416     2.226772     2.219129     2.211486     2.203843     2.196199     2.188556     2.180913     2.173270
      2.165627     2.157983     2.150340     2.142697     2.135054     2.127410     2.119767     2.112124     2.104481     2.096838
      2.089194     2.081551     2.073908     2.066265     2.058621     2.050978     2.043335     2.035692     2.028049     2.020405
      2.012762     2.005119     1.997476     1.989833     1.982190     1.974546     1.966903     1.959260     1.951617     1.943974
      1.936331     1.928688     1.921045     1.913402     1.905759     1.898115     1.890472     1.882829     1.875186     1.867543
      1.859900     1.852257     1.844614     1.836971     1.829327     1.821684     1.814041     1.806398     1.798755     1.791112
      1.783469     1.775826     1.768183     1.760540     1.752896     1.745253     1.737610     1.729967     1.722324     1.714681
      1.707038     1.699395     1.691752     1.684108     1.676465     1.668822     1.661179     1.653536     1.645893     1.638250
      1.630607     1.622964     1.615321     1.607677     1.600034     1.592391     1.584748     1.577105     1.569462     1.561819
      1.554176     1.546533     1.538890     1.531246     1.523603     1.515960     1.508317     1.500674     1.493031     1.485388
      1.477745     1.470102     1.462458     1.454815     1.447172     1.439529     1.431886     1.424243     1.416600     1.408957
      1.401314     1.393671     1.386027     1.378384     1.370741     1.363098     1.355455     1.347812     1.340169     1.332526
      1.324883     1.317240     1.309596     1.301953     1.294310     1.286667     1.279024     1.271381     1.263738     1.256095
      1.248452     1.240808     1.233165     1.225522     1.217879     1.210236     1.202593     1.194950     1.187307     1.179664
      1.172021     1.164377     1.156734     1.149091     1.141448     1.133805     1.126162     1.118519     1.110876     1.103233
      1.095590     1.087946     1.080303     1.072660     1.065017     1.057374     1.049731     1.042088     1.034445     1.026802
      1.019158     1.011515     1.003872     0.996229     0.988586     0.980943     0.973300     0.965657     0.958014     0.950371
      0.942727     0.935084     0.927441     0.919798     0.912155     0.904512     0.896869     0.889226     0.881583     0.873940
      0.866296     0.858653     0.851010     0.843367     0.835724     0.828081     0.820438     0.812795     0.805152     0.797508
      0.789865     0.782222     0.774579     0.766936     0.759293     0.751650     0.744007     0.736364     0.728721     0.721077
      0.713434     0.705791     0.698148     0.690505     0.682862     0.675219     0.667576     0.659933     0.652290     0.644646
      0.637003     0.629360     0.621717     0.614074     0.606431     0.598788     0.591145     0.583502     0.575858     0.568215
      0.560572     0.552929     0.545286     0.537643     0.530000     0.522357     0.514714     0.507071     0.499427     0.491784
      0.484141     0.476498     0.468855     0.461212     0.453569     0.445925     0.438282     0.430639     0.422996     0.415353
      0.407710     0.400067     0.392424     0.384780     0.377137     0.369494     0.361851     0.354208     0.346565     0.338922
      0.331278     0.323635     0.315992     0.308349     0.300706     0.293063     0.285420     0.277777     0.270133     0.262490
      0.254847     0.247204     0.239561     0.231918     0.224275     0.216631     0.208988     0.201345
 NY phased data points follow
  -3.09815E+02 -2.95809E+02 -2.99023E+02 -2.62370E+02 -2.64793E+02 -2.46817E+02 -2.39866E+02 -2.25727E+02 -2.30744E+02 -2.17142E+02
  -2.14368E+02 -2.19121E+02 -2.27035E+02 -2.28988E+02 -2.41495E+02 -2.42056E+02 -2.54839E+02 -2.59809E+02 -2.66234E+02 -2.60730E+02
  -2.62303E+02 -2.45954E+02 -2.51931E+02 -2.31470E+02 -2.34811E+02 -2.29160E+02 -2.31175E+02 -2.16324E+02 -2.21044E+02 -2.15278E+02
  -2.12651E+02 -2.05708E+02 -2.11682E+02 -1.96188E+02 -2.03692E+02 -2.06117E+02 -2.06143E+02 -1.98352E+02 -2.00331E+02 -1.97003E+02
  -1.97229E+02 -1.83949E+02 -1.96009E+02 -1.91929E+02 -1.81354E+02 -1.69411E+02 -1.72737E+02 -1.65193E+02 -1.75579E+02 -1.63979E+02
  -1.75904E+02 -1.57833E+02 -1.64901E+02 -1.78306E+02 -1.67912E+02 -1.74145E+02 -1.73954E+02 -1.70582E+02 -1.64125E+02 -1.51871E+02
  -1.63286E+02 -1.64318E+02 -1.63763E+02 -1.60607E+02 -1.64349E+02 -1.60187E+02 -1.63333E+02 -1.52579E+02 -1.59116E+02 -1.53601E+02
  -1.46454E+02 -1.36680E+02 -1.48706E+02 -1.34068E+02 -1.34769E+02 -1.36691E+02 -1.28467E+02 -1.19509E+02 -1.22713E+02 -1.25287E+02
  -1.09781E+02 -1.14697E+02 -1.19618E+02 -1.13933E+02 -1.07854E+02 -1.10190E+02 -1.06303E+02 -1.03724E+02 -1.03245E+02 -1.04710E+02
  -9.65750E+01 -1.08051E+02 -1.02641E+02 -1.11457E+02 -1.09276E+02 -9.41140E+01 -9.18912E+01 -6.17863E+01 -5.38681E+01 -3.12810E+01
  -1.49935E+01 -1.51592E+00  7.20746E+00  4.56152E+00 -8.02156E+00 -5.10892E+00 -2.24001E+01 -4.78530E+01 -6.03786E+01 -6.59227E+01
  -7.82618E+01 -8.10929E+01 -9.69681E+01 -8.61653E+01 -9.31144E+01 -1.01469E+02 -1.04961E+02 -1.07540E+02 -8.92107E+01 -9.13059E+01
  -7.18657E+01 -6.87297E+01 -6.08935E+01 -3.15309E+01 -2.44458E+01  3.86939E+00 -4.86734E-01  8.01483E+00  1.16910E+00  5.08539E+00
  -1.34423E+01 -2.34634E+01 -4.34831E+01 -5.39549E+01 -5.72305E+01 -6.12694E+01 -7.92489E+01 -7.49850E+01 -8.23288E+01 -7.32922E+01
  -7.19647E+01 -7.85137E+01 -7.86636E+01 -7.78246E+01 -6.75528E+01 -7.15978E+01 -7.70609E+01 -6.29102E+01 -6.36176E+01 -6.44773E+01
  -6.46997E+01 -6.23478E+01 -6.63536E+01 -6.65309E+01 -5.26780E+01 -6.36951E+01 -6.81444E+01 -4.67038E+01 -5.84105E+01 -6.22749E+01
  -6.20320E+01 -5.75241E+01 -6.15729E+01 -5.73940E+01 -5.45912E+01 -4.68247E+01 -4.67099E+01 -4.03776E+01 -4.96578E+01 -5.41425E+01
  -5.54174E+01 -5.34356E+01 -5.67162E+01 -6.18999E+01 -4.70918E+01 -6.77288E+01 -6.85297E+01 -5.57454E+01 -5.58429E+01 -5.68217E+01
  -6.17289E+01 -5.29775E+01 -5.51258E+01 -5.34513E+01 -5.03677E+01 -5.17494E+01 -4.33611E+01 -4.48088E+01 -3.63884E+01 -3.22629E+01
  -1.99931E+01 -2.64060E+01 -2.54141E+01 -1.85815E+01 -9.61252E+00 -6.68148E+00 -1.90508E+01 -1.74436E+01 -3.03557E+01 -2.05533E+01
  -7.57366E+00 -2.59221E+01 -1.66626E+01 -1.89027E+01 -2.16084E+01 -2.35991E+01 -1.88713E+01 -2.61709E+01 -2.43575E+01 -3.43366E+01
  -2.80862E+01 -2.15134E+01 -1.66944E+01 -1.65307E+01 -9.99119E+00 -2.66190E+00 -1.58178E+00 -5.96691E+00 -6.61164E+00 -3.98846E+00
  -9.18959E+00 -1.63643E+01 -9.34251E+00 -1.04845E+01 -6.10954E+00 -7.86519E+00  1.16884E+00 -4.13593E+00  7.60761E+00 -2.27325E+00
   1.40310E+01  7.81534E+00  1.38555E+01  1.67332E-01  9.54087E+00  1.19349E+01  1.46977E+01  1.37290E+01  7.74958E+00  6.85586E+00
   1.22747E+01  1.98939E+01  2.21936E+01  5.69742E-01  2.43547E+01  1.69919E+01  2.50922E+01  1.64213E+01  1.80131E+01  6.89100E+00
   8.75080E+00 -3.69270E+00  1.32252E+01  2.37601E+01  3.36243E+01  4.83225E+01  5.96050E+01  9.28398E+01  1.18858E+02  1.41069E+02
   1.42982E+02  1.39837E+02  1.27785E+02  1.29219E+02  1.04007E+02  7.98159E+01  6.78591E+01  4.88255E+01  3.48469E+01  2.85164E+01
   3.77075E+01  2.02486E+01  3.75488E+01  2.87964E+01  2.40198E+01  2.32552E+01  2.85831E+01  2.52623E+01  2.47121E+01  2.19855E+01
   2.59374E+01  2.26441E+01  2.29543E+01  2.13209E+01  1.97253E+01  1.58372E+01  2.00615E+01  2.91656E+01  2.43053E+01  2.37464E+01
   2.18072E+01  3.46387E+01  3.26497E+01  2.26878E+01  2.87666E+01  3.38090E+01  3.51917E+01  3.04573E+01  2.89819E+01  3.22145E+01
   3.21650E+01  4.24207E+01  4.30809E+01  3.91742E+01  3.58134E+01  4.42809E+01  2.97977E+01  4.13216E+01  4.09680E+01  4.14205E+01
   5.48142E+01  4.00540E+01  5.47436E+01  4.85479E+01  5.82846E+01  4.55151E+01  5.25202E+01  4.89431E+01  5.27900E+01  5.64275E+01
   6.01814E+01  5.52479E+01  6.10221E+01  5.51253E+01  6.21884E+01  6.46057E+01  6.93396E+01  6.27172E+01  5.76929E+01  6.81173E+01
   6.76672E+01  6.03395E+01  6.13189E+01  5.61164E+01  5.45808E+01  5.29447E+01  4.41378E+01  5.22161E+01  3.87031E+01  4.31314E+01
   3.60700E+01  3.74417E+01  3.73843E+01  2.41164E+01  4.12868E+01  2.92116E+01  3.52396E+01  3.71673E+01  4.43694E+01  4.38212E+01
   4.84276E+01  3.58797E+01  4.89828E+01  4.89934E+01  4.09829E+01  5.50307E+01  5.04874E+01  4.83250E+01  4.48138E+01  5.20560E+01
   4.51874E+01  5.03998E+01  3.73101E+01  4.92417E+01  4.48730E+01  4.67825E+01  4.71795E+01  3.94059E+01  4.48160E+01  2.76769E+01
   4.66485E+01  3.79209E+01  4.22990E+01  3.44476E+01  3.09366E+01  4.64390E+01  4.11243E+01  4.35228E+01  3.33435E+01  4.74102E+01
   3.75025E+01  4.14670E+01  4.42876E+01  2.47820E+01  4.16956E+01  3.97310E+01  4.35219E+01  3.95823E+01  4.80879E+01  4.42141E+01
   2.81767E+01  2.86733E+01  4.09402E+01  3.05510E+01  3.77806E+01  3.84698E+01  3.95414E+01  4.04647E+01  3.22349E+01  4.18221E+01
   3.83041E+01  4.53321E+01  3.78498E+01  4.84210E+01  5.14246E+01  4.08294E+01  4.65445E+01  5.00815E+01  3.81088E+01  4.69267E+01
   3.15383E+01  4.34761E+01  4.36422E+01  5.88296E+01  4.34984E+01  3.57952E+01  5.61104E+01  4.98646E+01  4.95382E+01  5.35494E+01
   4.09526E+01  4.37219E+01  5.00012E+01  4.05784E+01  4.40154E+01  3.95557E+01  5.23519E+01  4.11406E+01  3.98997E+01  3.70059E+01
   4.14729E+01  4.94930E+01  3.60676E+01  4.77259E+01  4.92369E+01  4.38170E+01  4.82362E+01  4.72255E+01  4.18815E+01  4.78134E+01
   5.82989E+01  4.44960E+01  5.54378E+01  3.86536E+01  4.90597E+01  4.54374E+01  4.82056E+01  4.48035E+01  4.64142E+01  6.20175E+01
   5.47830E+01  3.93058E+01  4.60501E+01  5.08754E+01  4.64513E+01  4.92247E+01  5.29879E+01  4.76351E+01  4.39039E+01  3.76138E+01
   5.12360E+01  4.84154E+01  5.25879E+01  5.07001E+01  4.84122E+01  4.62249E+01  4.77195E+01  4.41176E+01  4.45259E+01  3.92548E+01
   4.27269E+01  4.88988E+01  4.53804E+01  4.73694E+01  4.92115E+01  5.38845E+01  4.19658E+01  4.59967E+01  5.55501E+01  4.73919E+01
   4.62137E+01  4.23619E+01  6.19206E+01  4.51233E+01  5.52879E+01  4.46667E+01  4.65761E+01  5.18539E+01  4.95334E+01  4.96149E+01
   4.17987E+01  5.23336E+01  4.78481E+01  5.32564E+01  4.70510E+01  5.06947E+01  5.01019E+01  5.01834E+01
 NY points of the fit to the data follow
  -2.86301E+02 -2.84060E+02 -2.78725E+02 -2.70813E+02 -2.61388E+02 -2.50260E+02 -2.38421E+02 -2.28415E+02 -2.22316E+02 -2.19965E+02
  -2.20104E+02 -2.21930E+02 -2.26025E+02 -2.32350E+02 -2.38957E+02 -2.44046E+02 -2.47544E+02 -2.50039E+02 -2.51273E+02 -2.50346E+02
  -2.48464E+02 -2.46475E+02 -2.44285E+02 -2.41535E+02 -2.38364E+02 -2.34850E+02 -2.30617E+02 -2.25583E+02 -2.20240E+02 -2.15331E+02
  -2.11147E+02 -2.07651E+02 -2.05007E+02 -2.03576E+02 -2.03379E+02 -2.03855E+02 -2.04608E+02 -2.05492E+02 -2.06113E+02 -2.05687E+02
  -2.03504E+02 -1.99846E+02 -1.94957E+02 -1.88809E+02 -1.81949E+02 -1.75670E+02 -1.71285E+02 -1.69020E+02 -1.68349E+02 -1.68854E+02
  -1.70427E+02 -1.72829E+02 -1.75165E+02 -1.76542E+02 -1.76621E+02 -1.75491E+02 -1.73354E+02 -1.70346E+02 -1.67036E+02 -1.64159E+02
  -1.62042E+02 -1.60546E+02 -1.59350E+02 -1.58349E+02 -1.57436E+02 -1.56310E+02 -1.54809E+02 -1.52961E+02 -1.50647E+02 -1.47613E+02
  -1.44236E+02 -1.40866E+02 -1.37595E+02 -1.34634E+02 -1.32334E+02 -1.30971E+02 -1.30419E+02 -1.30165E+02 -1.29740E+02 -1.28549E+02
  -1.26270E+02 -1.23235E+02 -1.19346E+02 -1.14596E+02 -1.09893E+02 -1.06417E+02 -1.04738E+02 -1.04522E+02 -1.05030E+02 -1.06051E+02
  -1.08183E+02 -1.11095E+02 -1.13210E+02 -1.13589E+02 -1.11517E+02 -1.04615E+02 -9.22142E+01 -7.54671E+01 -5.50528E+01 -3.22803E+01
  -1.14557E+01  2.46112E+00  7.87405E+00  6.53594E+00  6.88101E-01 -9.90040E+00 -2.57536E+01 -4.40517E+01 -6.04384E+01 -7.32598E+01
  -8.35051E+01 -9.14425E+01 -9.53978E+01 -9.63167E+01 -9.61355E+01 -9.55563E+01 -9.47842E+01 -9.38281E+01 -9.22701E+01 -8.85839E+01
  -8.03667E+01 -6.87199E+01 -5.44650E+01 -3.69978E+01 -1.83243E+01 -3.09710E+00  5.09442E+00  6.86070E+00  4.50156E+00 -9.26527E-01
  -1.09089E+01 -2.51992E+01 -3.99563E+01 -5.20216E+01 -6.14707E+01 -6.92466E+01 -7.45354E+01 -7.57860E+01 -7.52644E+01 -7.42044E+01
  -7.28909E+01 -7.15214E+01 -7.02108E+01 -6.90111E+01 -6.79646E+01 -6.71543E+01 -6.65494E+01 -6.60678E+01 -6.56537E+01 -6.52301E+01
  -6.47434E+01 -6.41726E+01 -6.34894E+01 -6.27487E+01 -6.20797E+01 -6.15217E+01 -6.10367E+01 -6.06348E+01 -6.02346E+01 -5.97550E+01
  -5.91071E+01 -5.82164E+01 -5.72101E+01 -5.63449E+01 -5.57094E+01 -5.51621E+01 -5.46192E+01 -5.41680E+01 -5.39488E+01 -5.39961E+01
  -5.41461E+01 -5.42131E+01 -5.41921E+01 -5.41096E+01 -5.38704E+01 -5.32484E+01 -5.22956E+01 -5.13292E+01 -5.05056E+01 -4.97114E+01
  -4.87861E+01 -4.77662E+01 -4.67927E+01 -4.58876E+01 -4.47424E+01 -4.30076E+01 -4.07293E+01 -3.82333E+01 -3.56847E+01 -3.32342E+01
  -3.09882E+01 -2.91937E+01 -2.79768E+01 -2.72666E+01 -2.69343E+01 -2.67659E+01 -2.64981E+01 -2.58416E+01 -2.45915E+01 -2.27178E+01
  -2.04710E+01 -1.81133E+01 -1.59499E+01 -1.45835E+01 -1.43321E+01 -1.50392E+01 -1.65883E+01 -1.86661E+01 -2.06514E+01 -2.16672E+01
  -2.13648E+01 -1.98555E+01 -1.72309E+01 -1.37937E+01 -1.02559E+01 -7.75069E+00 -6.80545E+00 -7.08131E+00 -8.14467E+00 -9.94122E+00
  -1.21679E+01 -1.36727E+01 -1.36120E+01 -1.23198E+01 -1.04108E+01 -8.06778E+00 -5.12858E+00 -2.03476E+00  4.26049E-01  2.04028E+00
   3.23534E+00  4.39292E+00  5.35147E+00  6.03130E+00  6.81779E+00  8.00228E+00  9.17451E+00  1.00074E+01  1.05210E+01  1.08415E+01
   1.10312E+01  1.11158E+01  1.12707E+01  1.16797E+01  1.23602E+01  1.31570E+01  1.40262E+01  1.51173E+01  1.64292E+01  1.77748E+01
   1.91566E+01  2.07163E+01  2.29621E+01  2.84532E+01  3.95026E+01  5.41703E+01  7.22761E+01  9.43011E+01  1.16578E+02  1.32804E+02
   1.39562E+02  1.38733E+02  1.33396E+02  1.23937E+02  1.08307E+02  8.82962E+01  6.94169E+01  5.45968E+01  4.26900E+01  3.26000E+01
   2.63204E+01  2.47243E+01  2.44715E+01  2.45735E+01  2.48518E+01  2.51874E+01  2.54763E+01  2.56935E+01  2.58156E+01  2.58587E+01
   2.58620E+01  2.58663E+01  2.58953E+01  2.59824E+01  2.61541E+01  2.64034E+01  2.67136E+01  2.70688E+01  2.74505E+01  2.78437E+01
   2.82382E+01  2.86297E+01  2.90307E+01  2.94493E+01  2.98887E+01  3.03592E+01  3.08719E+01  3.14305E+01  3.20359E+01  3.26912E+01
   3.33995E+01  3.41596E+01  3.49696E+01  3.58290E+01  3.67345E+01  3.76837E+01  3.86734E+01  3.96991E+01  4.07551E+01  4.18362E+01
   4.29360E+01  4.40480E+01  4.51644E+01  4.62774E+01  4.73780E+01  4.84565E+01  4.95020E+01  5.05031E+01  5.14470E+01  5.23201E+01
   5.31079E+01  5.37958E+01  5.43692E+01  5.48146E+01  5.51195E+01  5.52741E+01  5.52715E+01  5.51090E+01  5.47882E+01  5.43149E+01
   5.36995E+01  5.29565E+01  5.21044E+01  5.11644E+01  5.01598E+01  4.91150E+01  4.80541E+01  4.70008E+01  4.59773E+01  4.50043E+01
   4.41008E+01  4.32850E+01  4.25749E+01  4.19900E+01  4.15517E+01  4.12839E+01  4.12113E+01  4.13567E+01  4.17357E+01  4.23499E+01
   4.31801E+01  4.41804E+01  4.52772E+01  4.63730E+01  4.73575E+01  4.81229E+01  4.85810E+01  4.86786E+01  4.84067E+01  4.78012E+01
   4.69353E+01  4.59047E+01  4.48101E+01  4.37417E+01  4.27680E+01  4.19302E+01  4.12438E+01  4.07034E+01  4.02898E+01  3.99776E+01
   3.97407E+01  3.95568E+01  3.94084E+01  3.92837E+01  3.91757E+01  3.90811E+01  3.89989E+01  3.89305E+01  3.88776E+01  3.88430E+01
   3.88290E+01  3.88384E+01  3.88738E+01  3.89377E+01  3.90324E+01  3.91603E+01  3.93233E+01  3.95233E+01  3.97620E+01  4.00408E+01
   4.03606E+01  4.07221E+01  4.11250E+01  4.15685E+01  4.20509E+01  4.25696E+01  4.31207E+01  4.36991E+01  4.42986E+01  4.49118E+01
   4.55301E+01  4.61442E+01  4.67438E+01  4.73182E+01  4.78568E+01  4.83492E+01  4.87857E+01  4.91581E+01  4.94589E+01  4.96828E+01
   4.98261E+01  4.98878E+01  4.98688E+01  4.97724E+01  4.96038E+01  4.93699E+01  4.90792E+01  4.87415E+01  4.83667E+01  4.79653E+01
   4.75476E+01  4.71233E+01  4.67015E+01  4.62903E+01  4.58964E+01  4.55256E+01  4.51821E+01  4.48692E+01  4.45889E+01  4.43425E+01
   4.41301E+01  4.39511E+01  4.38044E+01  4.36887E+01  4.36020E+01  4.35424E+01  4.35077E+01  4.34957E+01  4.35043E+01  4.35316E+01
   4.35755E+01  4.36342E+01  4.37060E+01  4.37893E+01  4.38827E+01  4.39849E+01  4.40947E+01  4.42110E+01  4.43327E+01  4.44589E+01
   4.45889E+01  4.47220E+01  4.48573E+01  4.49943E+01  4.51327E+01  4.52722E+01  4.54125E+01  4.55536E+01  4.56951E+01  4.58370E+01
   4.59789E+01  4.61211E+01  4.62632E+01  4.64053E+01  4.65472E+01  4.66889E+01  4.68303E+01  4.69715E+01  4.71124E+01  4.72531E+01
   4.73933E+01  4.75333E+01  4.76729E+01  4.78123E+01  4.79514E+01  4.80903E+01  4.82288E+01  4.83672E+01  4.85053E+01  4.86433E+01
   4.87812E+01  4.89191E+01  4.90568E+01  4.91945E+01  4.93322E+01  4.94701E+01  4.96081E+01  4.97463E+01  4.98846E+01  5.00233E+01
   5.01623E+01  5.03017E+01  5.04415E+01  5.05818E+01  5.07227E+01  5.08642E+01  5.10064E+01  5.11494E+01
 NY background values follow
    -3.030E+02   -3.009E+02   -2.987E+02   -2.966E+02   -2.944E+02   -2.923E+02   -2.901E+02   -2.880E+02   -2.858E+02   -2.837E+02
    -2.816E+02   -2.794E+02   -2.773E+02   -2.751E+02   -2.730E+02   -2.709E+02   -2.687E+02   -2.666E+02   -2.645E+02   -2.624E+02
    -2.603E+02   -2.581E+02   -2.560E+02   -2.539E+02   -2.518E+02   -2.497E+02   -2.477E+02   -2.456E+02   -2.435E+02   -2.414E+02
    -2.394E+02   -2.373E+02   -2.352E+02   -2.332E+02   -2.312E+02   -2.291E+02   -2.271E+02   -2.251E+02   -2.231E+02   -2.211E+02
    -2.191E+02   -2.171E+02   -2.151E+02   -2.132E+02   -2.112E+02   -2.093E+02   -2.073E+02   -2.054E+02   -2.035E+02   -2.016E+02
    -1.997E+02   -1.978E+02   -1.959E+02   -1.941E+02   -1.922E+02   -1.904E+02   -1.886E+02   -1.867E+02   -1.849E+02   -1.831E+02
    -1.813E+02   -1.796E+02   -1.778E+02   -1.761E+02   -1.743E+02   -1.726E+02   -1.709E+02   -1.692E+02   -1.675E+02   -1.658E+02
    -1.641E+02   -1.624E+02   -1.608E+02   -1.592E+02   -1.575E+02   -1.559E+02   -1.543E+02   -1.527E+02   -1.512E+02   -1.496E+02
    -1.481E+02   -1.465E+02   -1.450E+02   -1.435E+02   -1.420E+02   -1.405E+02   -1.390E+02   -1.376E+02   -1.361E+02   -1.347E+02
    -1.333E+02   -1.319E+02   -1.305E+02   -1.291E+02   -1.277E+02   -1.264E+02   -1.250E+02   -1.237E+02   -1.224E+02   -1.211E+02
    -1.198E+02   -1.185E+02   -1.173E+02   -1.160E+02   -1.148E+02   -1.135E+02   -1.123E+02   -1.111E+02   -1.099E+02   -1.087E+02
    -1.075E+02   -1.063E+02   -1.052E+02   -1.040E+02   -1.029E+02   -1.018E+02   -1.006E+02   -9.952E+01   -9.841E+01   -9.732E+01
    -9.623E+01   -9.515E+01   -9.408E+01   -9.302E+01   -9.196E+01   -9.092E+01   -8.988E+01   -8.885E+01   -8.782E+01   -8.681E+01
    -8.579E+01   -8.479E+01   -8.379E+01   -8.280E+01   -8.182E+01   -8.084E+01   -7.987E+01   -7.890E+01   -7.794E+01   -7.698E+01
    -7.603E+01   -7.509E+01   -7.415E+01   -7.322E+01   -7.229E+01   -7.136E+01   -7.044E+01   -6.953E+01   -6.862E+01   -6.772E+01
    -6.682E+01   -6.592E+01   -6.503E+01   -6.415E+01   -6.327E+01   -6.239E+01   -6.151E+01   -6.065E+01   -5.978E+01   -5.892E+01
    -5.806E+01   -5.721E+01   -5.636E+01   -5.551E+01   -5.467E+01   -5.383E+01   -5.300E+01   -5.217E+01   -5.134E+01   -5.051E+01
    -4.969E+01   -4.887E+01   -4.805E+01   -4.724E+01   -4.643E+01   -4.562E+01   -4.481E+01   -4.401E+01   -4.321E+01   -4.241E+01
    -4.161E+01   -4.082E+01   -4.003E+01   -3.923E+01   -3.845E+01   -3.766E+01   -3.688E+01   -3.610E+01   -3.532E+01   -3.454E+01
    -3.377E+01   -3.300E+01   -3.223E+01   -3.147E+01   -3.071E+01   -2.995E+01   -2.919E+01   -2.844E+01   -2.769E+01   -2.694E+01
    -2.620E+01   -2.546E+01   -2.472E+01   -2.399E+01   -2.326E+01   -2.254E+01   -2.181E+01   -2.109E+01   -2.038E+01   -1.967E+01
    -1.896E+01   -1.826E+01   -1.756E+01   -1.686E+01   -1.617E+01   -1.549E+01   -1.480E+01   -1.413E+01   -1.345E+01   -1.278E+01
    -1.212E+01   -1.146E+01   -1.080E+01   -1.015E+01   -9.506E+00   -8.865E+00   -8.229E+00   -7.598E+00   -6.971E+00   -6.350E+00
    -5.733E+00   -5.121E+00   -4.514E+00   -3.911E+00   -3.312E+00   -2.718E+00   -2.128E+00   -1.543E+00   -9.620E-01   -3.849E-01
     1.880E-01    7.569E-01    1.322E+00    1.883E+00    2.440E+00    2.994E+00    3.544E+00    4.090E+00    4.632E+00    5.172E+00
     5.707E+00    6.240E+00    6.769E+00    7.295E+00    7.818E+00    8.338E+00    8.854E+00    9.368E+00    9.879E+00    1.039E+01
     1.089E+01    1.140E+01    1.190E+01    1.239E+01    1.289E+01    1.338E+01    1.387E+01    1.436E+01    1.485E+01    1.533E+01
     1.581E+01    1.629E+01    1.677E+01    1.724E+01    1.772E+01    1.819E+01    1.866E+01    1.912E+01    1.958E+01    2.004E+01
     2.050E+01    2.095E+01    2.140E+01    2.184E+01    2.229E+01    2.272E+01    2.315E+01    2.358E+01    2.400E+01    2.442E+01
     2.483E+01    2.524E+01    2.564E+01    2.604E+01    2.643E+01    2.681E+01    2.719E+01    2.756E+01    2.792E+01    2.828E+01
     2.863E+01    2.897E+01    2.931E+01    2.963E+01    2.995E+01    3.027E+01    3.057E+01    3.087E+01    3.115E+01    3.143E+01
     3.170E+01    3.196E+01    3.221E+01    3.246E+01    3.269E+01    3.291E+01    3.313E+01    3.333E+01    3.352E+01    3.370E+01
     3.388E+01    3.404E+01    3.420E+01    3.434E+01    3.448E+01    3.461E+01    3.473E+01    3.484E+01    3.494E+01    3.504E+01
     3.513E+01    3.521E+01    3.528E+01    3.535E+01    3.541E+01    3.546E+01    3.551E+01    3.555E+01    3.559E+01    3.562E+01
     3.564E+01    3.566E+01    3.568E+01    3.568E+01    3.569E+01    3.569E+01    3.568E+01    3.568E+01    3.566E+01    3.565E+01
     3.563E+01    3.561E+01    3.558E+01    3.555E+01    3.552E+01    3.549E+01    3.545E+01    3.541E+01    3.537E+01    3.533E+01
     3.529E+01    3.525E+01    3.520E+01    3.516E+01    3.511E+01    3.506E+01    3.502E+01    3.497E+01    3.492E+01    3.488E+01
     3.483E+01    3.479E+01    3.474E+01    3.470E+01    3.466E+01    3.462E+01    3.458E+01    3.454E+01    3.450E+01    3.447E+01
     3.444E+01    3.441E+01    3.438E+01    3.436E+01    3.433E+01    3.432E+01    3.430E+01    3.429E+01    3.428E+01    3.428E+01
     3.428E+01    3.428E+01    3.429E+01    3.430E+01    3.432E+01    3.434E+01    3.437E+01    3.440E+01    3.444E+01    3.448E+01
     3.453E+01    3.458E+01    3.464E+01    3.471E+01    3.478E+01    3.486E+01    3.495E+01    3.504E+01    3.514E+01    3.525E+01
     3.536E+01    3.548E+01    3.561E+01    3.574E+01    3.588E+01    3.602E+01    3.617E+01    3.632E+01    3.648E+01    3.664E+01
     3.681E+01    3.698E+01    3.716E+01    3.734E+01    3.752E+01    3.771E+01    3.789E+01    3.809E+01    3.828E+01    3.848E+01
     3.868E+01    3.888E+01    3.908E+01    3.929E+01    3.950E+01    3.970E+01    3.991E+01    4.012E+01    4.033E+01    4.054E+01
     4.075E+01    4.096E+01    4.118E+01    4.139E+01    4.160E+01    4.180E+01    4.201E+01    4.222E+01    4.242E+01    4.263E+01
     4.283E+01    4.303E+01    4.322E+01    4.342E+01    4.361E+01    4.380E+01    4.399E+01    4.417E+01    4.435E+01    4.454E+01
     4.471E+01    4.489E+01    4.507E+01    4.524E+01    4.541E+01    4.558E+01    4.575E+01    4.591E+01    4.608E+01    4.624E+01
     4.640E+01    4.656E+01    4.672E+01    4.688E+01    4.704E+01    4.720E+01    4.735E+01    4.751E+01    4.766E+01    4.781E+01
     4.797E+01    4.812E+01    4.827E+01    4.842E+01    4.857E+01    4.872E+01    4.887E+01    4.902E+01    4.917E+01    4.932E+01
     4.947E+01    4.961E+01    4.976E+01    4.991E+01    5.006E+01    5.021E+01    5.036E+01    5.051E+01
 PCr      Conc. = 3.29E+03
