 LCModel (Version 6.3-1L) Copyright: S.W. Provencher.          Ref.: Magn. Reson. Med. 30:672-679 (1993).                
 Slice#3 Row#1 Col#9  PD_24_press_2_raw_act
 36 lines in following concentration table = NCONC+1
    Conc.  %SD /Cr+PCr  Metabolite                                         
  109.979 160%   1.119 Ala                                                 
    7.224 162% 7.4E-02 Asp                                                 
    0.000 999%   0.000 Cr                                                  
   98.251  78%   1.000 PCr                                                 
    4.156 169% 4.2E-02 GABA                                                
    4.204 168% 4.3E-02 Glc                                                 
   51.993 683%   0.529 Gln                                                 
  397.049  99%   4.041 Glu                                                 
   12.658 234%   0.129 GPC                                                 
    0.000 999%   0.000 PCh                                                 
  120.994  97%   1.231 GSH                                                 
  567.688  62%   5.778 Ins                                                 
    0.000 999%   0.000 Lac                                                 
    0.000 999%   0.000 NAA                                                 
    0.000 999%   0.000 NAAG                                                
    1.463 161% 1.5E-02 Scyllo                                              
    6.811 172% 6.9E-02 Tau                                                 
    3.624 668% 3.7E-02 -CrCH2                                              
   12.658 234%   0.129 GPC+PCh                                             
    0.000 999%   0.000 NAA+NAAG                                            
   98.251  78%   1.000 Cr+PCr                                              
  449.042 120%   4.570 Glu+Gln                                             
  450.887 157%   4.589 Lip13a                                              
  101.877 300%   1.037 Lip13b                                              
  147.589  90%   1.502 Lip09                                               
  676.892  33%   6.889 MM09                                                
   82.914  90%   0.844 Lip20                                               
 1.02E+03  33%  10.334 MM20                                                
  203.068  33%   2.067 MM12                                                
  507.667  33%   5.167 MM14                                                
  253.833  33%   2.584 MM17                                                
  552.764  90%   5.626 Lip13a+Lip13b                                       
 1.26E+03  33%  12.860 MM14+Lip13a+Lip13b+MM12                             
  824.480  23%   8.392 MM09+Lip09                                          
 1.10E+03  28%  11.178 MM20+Lip20                                          
   6 lines in following misc. output table
  FWHM = 0.054 ppm    S/N =   1                                            
  Data shift =-0.038 ppm                                                   
  Ph: 156 deg     -65.6 deg/ppm                                            
  alphaB,S = 8.5E+01,   5.1E+01                                            
   14 spline knots.   Ns = 5(1)                                            
   2 inflections.     1 extrema                                            
  498 points on ppm-axis = NY
      4.000000     3.992357     3.984714     3.977070     3.969427     3.961784     3.954141     3.946497     3.938854     3.931211
      3.923568     3.915925     3.908281     3.900638     3.892995     3.885352     3.877708     3.870065     3.862422     3.854779
      3.847136     3.839492     3.831849     3.824206     3.816563     3.808919     3.801276     3.793633     3.785990     3.778347
      3.770703     3.763060     3.755417     3.747774     3.740130     3.732487     3.724844     3.717201     3.709558     3.701914
      3.694271     3.686628     3.678985     3.671341     3.663698     3.656055     3.648412     3.640769     3.633125     3.625482
      3.617839     3.610196     3.602552     3.594909     3.587266     3.579623     3.571980     3.564336     3.556693     3.549050
      3.541407     3.533763     3.526120     3.518477     3.510834     3.503191     3.495547     3.487904     3.480261     3.472618
      3.464974     3.457331     3.449688     3.442045     3.434402     3.426758     3.419115     3.411472     3.403829     3.396185
      3.388542     3.380899     3.373256     3.365613     3.357969     3.350326     3.342683     3.335040     3.327396     3.319753
      3.312110     3.304467     3.296824     3.289180     3.281537     3.273894     3.266251     3.258607     3.250964     3.243321
      3.235678     3.228034     3.220391     3.212748     3.205105     3.197462     3.189818     3.182175     3.174532     3.166889
      3.159245     3.151602     3.143959     3.136316     3.128673     3.121029     3.113386     3.105743     3.098100     3.090456
      3.082813     3.075170     3.067527     3.059884     3.052240     3.044597     3.036954     3.029311     3.021667     3.014024
      3.006381     2.998738     2.991095     2.983451     2.975808     2.968165     2.960522     2.952878     2.945235     2.937592
      2.929949     2.922306     2.914662     2.907019     2.899376     2.891733     2.884089     2.876446     2.868803     2.861160
      2.853517     2.845873     2.838230     2.830587     2.822944     2.815300     2.807657     2.800014     2.792371     2.784728
      2.777084     2.769441     2.761798     2.754155     2.746511     2.738868     2.731225     2.723582     2.715939     2.708295
      2.700652     2.693009     2.685366     2.677722     2.670079     2.662436     2.654793     2.647150     2.639506     2.631863
      2.624220     2.616577     2.608933     2.601290     2.593647     2.586004     2.578361     2.570717     2.563074     2.555431
      2.547788     2.540144     2.532501     2.524858     2.517215     2.509572     2.501928     2.494285     2.486642     2.478999
      2.471355     2.463712     2.456069     2.448426     2.440783     2.433139     2.425496     2.417853     2.410210     2.402566
      2.394923     2.387280     2.379637     2.371994     2.364350     2.356707     2.349064     2.341421     2.333777     2.326134
      2.318491     2.310848     2.303205     2.295561     2.287918     2.280275     2.272632     2.264988     2.257345     2.249702
      2.242059     2.234416     2.226772     2.219129     2.211486     2.203843     2.196199     2.188556     2.180913     2.173270
      2.165627     2.157983     2.150340     2.142697     2.135054     2.127410     2.119767     2.112124     2.104481     2.096838
      2.089194     2.081551     2.073908     2.066265     2.058621     2.050978     2.043335     2.035692     2.028049     2.020405
      2.012762     2.005119     1.997476     1.989833     1.982190     1.974546     1.966903     1.959260     1.951617     1.943974
      1.936331     1.928688     1.921045     1.913402     1.905759     1.898115     1.890472     1.882829     1.875186     1.867543
      1.859900     1.852257     1.844614     1.836971     1.829327     1.821684     1.814041     1.806398     1.798755     1.791112
      1.783469     1.775826     1.768183     1.760540     1.752896     1.745253     1.737610     1.729967     1.722324     1.714681
      1.707038     1.699395     1.691752     1.684108     1.676465     1.668822     1.661179     1.653536     1.645893     1.638250
      1.630607     1.622964     1.615321     1.607677     1.600034     1.592391     1.584748     1.577105     1.569462     1.561819
      1.554176     1.546533     1.538890     1.531246     1.523603     1.515960     1.508317     1.500674     1.493031     1.485388
      1.477745     1.470102     1.462458     1.454815     1.447172     1.439529     1.431886     1.424243     1.416600     1.408957
      1.401314     1.393671     1.386027     1.378384     1.370741     1.363098     1.355455     1.347812     1.340169     1.332526
      1.324883     1.317240     1.309596     1.301953     1.294310     1.286667     1.279024     1.271381     1.263738     1.256095
      1.248452     1.240808     1.233165     1.225522     1.217879     1.210236     1.202593     1.194950     1.187307     1.179664
      1.172021     1.164377     1.156734     1.149091     1.141448     1.133805     1.126162     1.118519     1.110876     1.103233
      1.095590     1.087946     1.080303     1.072660     1.065017     1.057374     1.049731     1.042088     1.034445     1.026802
      1.019158     1.011515     1.003872     0.996229     0.988586     0.980943     0.973300     0.965657     0.958014     0.950371
      0.942727     0.935084     0.927441     0.919798     0.912155     0.904512     0.896869     0.889226     0.881583     0.873940
      0.866296     0.858653     0.851010     0.843367     0.835724     0.828081     0.820438     0.812795     0.805152     0.797508
      0.789865     0.782222     0.774579     0.766936     0.759293     0.751650     0.744007     0.736364     0.728721     0.721077
      0.713434     0.705791     0.698148     0.690505     0.682862     0.675219     0.667576     0.659933     0.652290     0.644646
      0.637003     0.629360     0.621717     0.614074     0.606431     0.598788     0.591145     0.583502     0.575858     0.568215
      0.560572     0.552929     0.545286     0.537643     0.530000     0.522357     0.514714     0.507071     0.499427     0.491784
      0.484141     0.476498     0.468855     0.461212     0.453569     0.445925     0.438282     0.430639     0.422996     0.415353
      0.407710     0.400067     0.392424     0.384780     0.377137     0.369494     0.361851     0.354208     0.346565     0.338922
      0.331278     0.323635     0.315992     0.308349     0.300706     0.293063     0.285420     0.277777     0.270133     0.262490
      0.254847     0.247204     0.239561     0.231918     0.224275     0.216631     0.208988     0.201345
 NY phased data points follow
   3.63064E+00  1.63132E+00 -5.39751E+00 -1.84251E+00  4.16992E+00  8.11024E+00 -7.14924E-01  1.52803E+01 -7.12906E+00  3.80346E+00
  -4.36225E+00 -6.98975E-01 -1.24760E+01  3.00035E+00 -5.29644E+00  1.16388E+01  1.40323E+00  2.92527E+00 -1.77899E+01  7.69750E+00
  -4.19707E+00 -7.61662E+00 -2.83803E+00 -1.30322E+00 -3.68224E+00  6.69831E+00 -1.26017E+00  5.03015E+00  3.61981E+00 -9.35732E-01
   2.81081E+00  3.60210E-01 -1.45906E+01 -9.13889E+00 -3.17713E+00  1.26602E+01  1.16778E+00  1.29059E+01  6.09773E+00  1.43010E+00
  -2.10706E+00  3.70530E+00 -4.75836E+00 -2.19652E+00 -6.24062E+00  2.02912E+00  7.73630E+00 -3.11349E+00 -8.39029E+00 -1.40251E+01
  -3.30104E+00  1.08358E+01 -1.46466E+01  2.28498E+00 -1.05275E+01 -1.82006E-01 -7.39013E+00 -6.26649E+00 -8.88611E+00 -7.63157E+00
  -5.98178E+00 -6.83249E+00  2.56408E+00 -5.01773E+00 -9.19618E+00 -5.32681E+00  1.48349E-01  4.60800E+00 -3.84816E+00  5.99745E+00
  -2.82339E+00  3.54050E+00 -6.19015E+00  2.40434E+00 -4.48705E+00 -1.88023E+00 -2.32260E+00  2.18335E+00 -7.58414E+00 -3.84850E+00
  -2.66535E+00  4.22202E+00 -6.98577E+00  2.15830E+00 -1.01870E+01  2.08011E+00 -1.10679E+01  5.94176E+00  8.87297E+00 -6.81941E-01
  -7.31142E+00 -3.59712E+00 -3.75745E+00 -7.12879E+00 -1.38321E+01 -8.18137E+00 -4.91913E+00 -5.58281E+00  4.22090E+00  5.78688E-01
  -9.41297E+00 -8.24946E+00 -1.75883E+00 -2.81516E+00 -3.69602E+00 -5.86844E+00 -7.14750E+00  4.67339E+00 -3.24571E+00 -1.28905E+01
  -8.83006E+00 -2.49999E+00 -2.94704E+00 -7.67938E-01 -5.52540E+00 -7.03737E+00 -2.54949E+01  4.05452E+00 -9.10470E+00 -6.89675E+00
  -9.58363E+00 -1.08935E+01 -5.52051E+00 -1.18321E+01 -9.62992E+00 -6.86282E+00  3.02699E+00  1.80283E-01 -2.04125E-02  1.09901E+01
  -5.17653E+00 -4.72514E+00  7.34989E-01 -1.31346E+00 -2.85536E+00 -9.07708E+00 -1.90679E+01 -8.64233E+00 -6.32846E+00 -4.10817E+00
  -1.22543E+01 -2.24422E+00 -9.39048E+00 -9.24477E+00 -7.86829E+00 -6.95875E+00  9.32376E-01 -1.32067E+01 -8.10636E+00 -1.42343E+00
  -1.33807E+01  2.89036E+00  1.87827E+00 -1.40524E+01 -4.60525E-01 -6.93100E+00 -6.12718E+00 -1.43149E+01 -8.92867E+00 -3.70182E+00
  -7.47338E+00 -1.50237E+01 -1.51499E+01 -1.14512E+01 -1.00350E+01 -1.58228E+00  2.60015E+00 -9.10412E+00 -5.36715E+00 -1.06088E+01
  -6.43597E+00 -9.61637E-02 -5.45677E+00  1.68514E+00 -6.24325E+00 -4.05887E+00  2.82107E+00 -1.28470E+01 -1.44558E+01 -9.04210E+00
  -6.31132E+00 -1.16566E+01 -1.24612E+01 -1.04580E+01 -2.76446E+00 -1.14799E+01 -2.61107E+00 -7.33230E+00 -7.08145E+00  3.75697E+00
  -1.28743E-01 -3.35000E+00 -1.18589E+01 -8.06659E+00  7.78303E-01 -1.38315E+00  4.97295E+00  5.05160E+00 -5.77247E+00  7.77963E+00
  -1.14734E+01 -3.56961E+00  3.51215E+00  1.06743E+00 -4.01739E+00 -6.71950E-01  7.12870E+00 -6.03269E+00 -3.87652E+00  1.10917E+00
  -6.43841E+00  8.13654E-02  1.20956E+01  3.27392E+00  4.75954E+00  2.32896E+00 -4.80406E+00  1.87684E+00 -4.57932E+00  3.33155E+00
  -5.63277E+00  7.17318E+00 -1.04195E+00 -5.17293E+00 -3.41016E+00  4.86722E+00  9.33910E-01  3.86200E+00 -1.05985E+01 -2.08300E+00
   1.27148E+01 -3.79452E+00  4.23823E+00  3.32132E+00  2.26190E+00  2.10525E+00 -7.80959E-01  5.09414E+00 -9.39692E+00  2.93462E+00
  -2.14478E+00  4.32127E+00  3.39749E+00 -1.84529E+00 -8.02044E+00  5.11373E-02 -3.66872E+00 -4.42337E+00 -2.99276E+00  5.89950E+00
   3.59768E+00 -4.42571E+00  1.05578E+01 -9.59949E-01  4.91365E+00 -4.04852E+00 -3.68444E+00 -4.10630E+00 -1.01576E+00 -2.32681E+00
  -3.32191E+00  3.18560E+00  1.05474E+01  4.08338E+00  1.15962E+00  4.00946E+00 -2.85350E+00  1.30653E+01 -7.66840E-01  1.52055E+00
  -6.19974E-01 -2.36827E+00 -4.85251E+00 -5.42785E+00 -1.01646E+00 -1.88630E-01 -1.08305E+00 -6.86288E+00  5.96118E+00  7.61875E+00
  -4.67602E-01  2.76729E-01 -2.53797E+00  1.27357E+01 -5.39873E+00 -9.91526E+00  1.09348E+00 -1.72486E-01 -1.12982E+00  3.97113E+00
   2.82201E+00  1.06271E+01  4.35983E+00 -6.07600E+00  1.44831E+00  2.99243E+00  6.48380E+00 -1.26796E+01 -3.67705E+00  9.13823E+00
   5.62910E-01 -4.43642E+00  4.07163E+00 -1.01983E+01 -4.09093E-02 -5.97646E+00 -3.90234E-01  1.43009E+00  3.51214E+00 -1.79735E+00
   8.33216E+00 -5.08707E+00 -1.99134E+00 -3.80331E+00 -2.22338E+00 -3.41607E+00  4.92074E-01 -3.78117E+00 -2.24785E+00  2.26065E+00
   1.08240E+01 -3.59794E+00 -3.92539E-01  4.69692E+00  1.90811E+00 -8.35130E+00  3.58164E+00  5.97624E+00  1.87043E+00 -3.50977E+00
  -1.77330E+00 -7.29942E+00 -1.04690E-01  5.32655E-01  1.22905E+01  3.43859E+00  1.11981E+01  2.95531E+00  3.72273E+00 -2.05715E+00
  -1.70440E+00  3.03415E+00  1.01430E+01 -7.83443E+00  3.74025E+00  7.37739E+00  1.39319E+00  2.67479E+00 -2.34277E+00  4.29839E+00
   9.26647E-01  3.30445E+00  6.03822E+00  1.19607E+01  1.62749E+00  1.50977E+01  2.84158E+00 -5.22963E+00  6.63064E+00 -1.56708E+00
  -3.36585E+00  9.82016E+00  2.61395E+00  2.50812E+00 -5.31527E+00 -3.30072E+00  4.74159E+00 -2.04281E+00  7.62357E+00 -3.99937E+00
  -2.72035E+00  6.01771E+00  6.21504E+00 -6.40946E+00  3.77513E+00  1.10558E+00  7.58269E+00 -1.58276E+00  2.11450E+00  1.07337E+01
   4.41064E+00 -4.42312E-01 -6.11905E-01  1.57392E+00  2.38508E+00 -1.80753E+00  4.53157E+00 -2.41451E+00  1.66251E+01  5.20313E+00
   1.43669E+01  8.96202E+00 -1.36242E+00 -5.68361E+00  2.91676E+00  1.89933E+01  2.92483E+00 -2.67668E+00  7.33101E+00  1.14415E+01
   8.88074E+00 -2.69918E+00  4.86016E+00  1.42891E+00  2.13051E+00  9.35813E+00  1.04007E+01  4.53583E+00  1.58008E+01  1.28115E+00
   8.36046E+00  1.78651E+01  1.52572E+01  9.79057E+00  1.14323E+01  9.33046E+00  1.09482E+01 -5.47035E+00  5.67585E+00  7.52072E+00
   9.96516E+00  6.93524E+00  4.95541E+00  8.82171E+00  2.13039E+00  8.22190E+00  4.00666E+00  2.07990E-01  8.88110E+00  6.03755E+00
   1.81725E+00 -6.98858E+00 -5.73377E+00 -9.54726E+00  1.39355E+00  5.26588E+00 -2.83469E+00 -1.02591E+00 -1.17821E-01 -1.45717E+00
  -5.70442E+00 -4.59223E+00 -9.63359E-02 -2.78440E+00 -1.07736E+01 -2.75281E+00 -6.39016E-01 -4.87633E-01 -6.67659E+00 -9.73213E+00
   4.73144E-01  1.89886E+00  3.22904E+00  3.57642E+00  8.54904E-01  1.32251E+00  1.18045E+00  1.07247E+01 -1.07263E+01  9.20542E+00
  -3.98226E+00  4.55539E+00 -1.20717E+01 -1.32120E+00  2.05782E+00 -8.84189E+00  7.27313E+00 -1.77553E+01 -6.69280E-03  2.77760E+00
  -2.24373E+00  2.17735E+00  4.35490E+00  7.46817E-01  8.72798E+00 -5.28822E+00  5.63899E+00  4.09956E+00  3.30851E+00 -1.34938E+00
   1.87815E+00 -1.93476E-01  6.03710E+00 -1.46670E+00  5.74867E+00  4.22106E+00  3.23436E+00  1.28289E+00 -1.19082E+00  7.16959E+00
   1.47438E+01 -3.89394E+00  6.96512E+00  1.89218E+00 -3.81718E+00  9.96470E-01  3.22292E+00 -3.59332E+00
 NY points of the fit to the data follow
  -3.66506E+00 -3.96684E+00 -4.19654E+00 -4.25353E+00 -4.03626E+00 -3.60289E+00 -3.12569E+00 -2.73023E+00 -2.47646E+00 -2.37660E+00
  -2.41996E+00 -2.59114E+00 -2.87852E+00 -3.27054E+00 -3.71138E+00 -4.07781E+00 -4.22678E+00 -4.20779E+00 -4.12418E+00 -4.01566E+00
  -3.88251E+00 -3.74108E+00 -3.63939E+00 -3.65144E+00 -3.70951E+00 -3.55396E+00 -3.16676E+00 -2.67819E+00 -2.14721E+00 -1.60191E+00
  -1.12381E+00 -8.22471E-01 -7.14324E-01 -8.20551E-01 -1.21326E+00 -1.88649E+00 -2.63028E+00 -3.19693E+00 -3.63723E+00 -3.98373E+00
  -4.16753E+00 -4.13812E+00 -3.79211E+00 -3.01875E+00 -1.93830E+00 -9.00917E-01 -2.13053E-01  4.06715E-02 -9.81387E-02 -5.50576E-01
  -1.24410E+00 -2.10900E+00 -3.05208E+00 -3.91182E+00 -4.38708E+00 -4.29154E+00 -3.80777E+00 -3.20794E+00 -2.68385E+00 -2.33075E+00
  -2.18802E+00 -2.24796E+00 -2.45082E+00 -2.72108E+00 -3.00847E+00 -3.27837E+00 -3.45110E+00 -3.42323E+00 -3.21562E+00 -2.90915E+00
  -2.61907E+00 -2.41330E+00 -2.31639E+00 -2.32505E+00 -2.40469E+00 -2.52502E+00 -2.66805E+00 -2.82030E+00 -2.96090E+00 -3.04367E+00
  -3.08556E+00 -3.12406E+00 -3.22826E+00 -3.44464E+00 -3.77383E+00 -4.15391E+00 -4.50587E+00 -4.77095E+00 -4.91405E+00 -4.91213E+00
  -4.76820E+00 -4.49041E+00 -4.10790E+00 -3.72193E+00 -3.45650E+00 -3.36289E+00 -3.41981E+00 -3.53309E+00 -3.57328E+00 -3.53479E+00
  -3.46753E+00 -3.38485E+00 -3.29795E+00 -3.20223E+00 -3.11498E+00 -3.08393E+00 -3.12441E+00 -3.22697E+00 -3.35588E+00 -3.44473E+00
  -3.43383E+00 -3.38037E+00 -3.32480E+00 -3.26472E+00 -3.20964E+00 -3.16684E+00 -3.13697E+00 -3.11282E+00 -3.08572E+00 -3.04240E+00
  -2.95837E+00 -2.74742E+00 -2.20036E+00 -1.39668E+00 -5.80792E-01  7.50830E-02  4.97449E-01  6.86103E-01  6.90920E-01  5.42853E-01
   1.91821E-01 -3.91900E-01 -1.13444E+00 -1.84239E+00 -2.28503E+00 -2.53861E+00 -2.69896E+00 -2.76200E+00 -2.74592E+00 -2.66138E+00
  -2.50514E+00 -2.30918E+00 -2.15513E+00 -2.08373E+00 -2.09683E+00 -2.18781E+00 -2.32094E+00 -2.45722E+00 -2.57176E+00 -2.65069E+00
  -2.71672E+00 -2.77378E+00 -2.81852E+00 -2.85078E+00 -2.87283E+00 -2.88577E+00 -2.88860E+00 -2.88586E+00 -2.88141E+00 -2.87786E+00
  -2.87842E+00 -2.88634E+00 -2.89956E+00 -2.90939E+00 -2.91212E+00 -2.90936E+00 -2.90306E+00 -2.89407E+00 -2.88077E+00 -2.86379E+00
  -2.84819E+00 -2.83925E+00 -2.83920E+00 -2.84732E+00 -2.86016E+00 -2.87572E+00 -2.89371E+00 -2.91264E+00 -2.93061E+00 -2.94285E+00
  -2.95831E+00 -2.98259E+00 -3.01159E+00 -3.03682E+00 -3.04211E+00 -3.00110E+00 -2.89488E+00 -2.72879E+00 -2.53860E+00 -2.37086E+00
  -2.25591E+00 -2.21697E+00 -2.28969E+00 -2.47614E+00 -2.70031E+00 -2.88891E+00 -2.99268E+00 -2.97886E+00 -2.84417E+00 -2.61482E+00
  -2.32615E+00 -2.01461E+00 -1.74113E+00 -1.56749E+00 -1.53686E+00 -1.69091E+00 -1.95205E+00 -2.22631E+00 -2.44128E+00 -2.52303E+00
  -2.40780E+00 -1.98620E+00 -1.33670E+00 -6.60744E-01 -1.29549E-01  1.65475E-01  1.49657E-01 -2.97048E-01 -1.12324E+00 -2.08779E+00
  -2.92508E+00 -3.46957E+00 -3.60772E+00 -3.28147E+00 -2.65388E+00 -1.89579E+00 -1.13763E+00 -5.02549E-01 -7.34536E-02  9.17157E-02
   6.07527E-02  3.66111E-03  4.78313E-02  2.04774E-01  4.27481E-01  6.39276E-01  7.89282E-01  8.54259E-01  7.72550E-01  5.84301E-01
   4.20274E-01  3.69815E-01  4.42711E-01  6.44446E-01  9.78041E-01  1.37436E+00  1.71807E+00  1.94835E+00  2.08204E+00  2.14057E+00
   2.11761E+00  2.06305E+00  2.02597E+00  1.99063E+00  1.93656E+00  1.89812E+00  1.88954E+00  1.88138E+00  1.85173E+00  1.81444E+00
   1.78179E+00  1.73924E+00  1.69152E+00  1.62967E+00  1.53277E+00  1.36898E+00  1.15137E+00  9.13929E-01  6.89800E-01  5.02354E-01
   3.65642E-01  2.81660E-01  2.24017E-01  1.73070E-01  1.35236E-01  1.00052E-01  5.55042E-02 -3.06544E-03 -7.73968E-02 -1.65346E-01
  -2.51273E-01 -3.20012E-01 -3.68975E-01 -4.00561E-01 -4.16202E-01 -4.16707E-01 -4.04384E-01 -3.83919E-01 -3.58109E-01 -3.24901E-01
  -2.83578E-01 -2.34421E-01 -1.77795E-01 -1.14346E-01 -4.54717E-02  2.66758E-02  1.00301E-01  1.74049E-01  2.46237E-01  3.15135E-01
   3.79319E-01  4.37382E-01  4.88132E-01  5.30761E-01  5.64904E-01  5.90601E-01  6.08296E-01  6.18827E-01  6.23449E-01  6.23865E-01
   6.22254E-01  6.20841E-01  6.21830E-01  6.27590E-01  6.40619E-01  6.63557E-01  6.99224E-01  7.50819E-01  8.22458E-01  9.20418E-01
   1.05668E+00  1.26121E+00  1.58055E+00  1.90971E+00  2.09213E+00  2.08403E+00  1.91110E+00  1.61951E+00  1.24272E+00  8.02670E-01
   4.34668E-01  3.12373E-01  4.72567E-01  8.98251E-01  1.52560E+00  2.16721E+00  2.69810E+00  3.10957E+00  3.39098E+00  3.51970E+00
   3.47754E+00  3.29746E+00  3.12434E+00  3.05098E+00  3.03654E+00  3.05942E+00  3.11404E+00  3.19925E+00  3.31418E+00  3.45587E+00
   3.61786E+00  3.78955E+00  3.95659E+00  4.10224E+00  4.20962E+00  4.26440E+00  4.25720E+00  4.18535E+00  4.05324E+00  3.87140E+00
   3.65447E+00  3.41856E+00  3.17877E+00  2.94720E+00  2.73204E+00  2.53748E+00  2.36431E+00  2.21103E+00  2.07495E+00  1.95309E+00
   1.84285E+00  1.74237E+00  1.65054E+00  1.56700E+00  1.49193E+00  1.42591E+00  1.36981E+00  1.32466E+00  1.29160E+00  1.27183E+00
   1.26664E+00  1.27736E+00  1.30543E+00  1.35234E+00  1.41963E+00  1.50886E+00  1.62158E+00  1.75921E+00  1.92300E+00  2.11385E+00
   2.33219E+00  2.57783E+00  2.84979E+00  3.14617E+00  3.46402E+00  3.79924E+00  4.14659E+00  4.49967E+00  4.85116E+00  5.19289E+00
   5.51622E+00  5.81237E+00  6.07279E+00  6.28958E+00  6.45594E+00  6.56651E+00  6.61768E+00  6.60777E+00  6.53715E+00  6.40822E+00
   6.22523E+00  5.99406E+00  5.72188E+00  5.41671E+00  5.08710E+00  4.74161E+00  4.38851E+00  4.03543E+00  3.68909E+00  3.35514E+00
   3.03811E+00  2.74133E+00  2.46702E+00  2.21641E+00  1.98982E+00  1.78685E+00  1.60654E+00  1.44752E+00  1.30816E+00  1.18668E+00
   1.08125E+00  9.90064E-01  9.11425E-01  8.43746E-01  7.85593E-01  7.35679E-01  6.92876E-01  6.56197E-01  6.24795E-01  5.97943E-01
   5.75025E-01  5.55511E-01  5.38954E-01  5.24973E-01  5.13250E-01  5.03508E-01  4.95518E-01  4.89077E-01  4.84013E-01  4.80177E-01
   4.77444E-01  4.75704E-01  4.74862E-01  4.74830E-01  4.75535E-01  4.76909E-01  4.78898E-01  4.81448E-01  4.84514E-01  4.88051E-01
   4.92022E-01  4.96394E-01  5.01140E-01  5.06231E-01  5.11643E-01  5.17350E-01  5.23333E-01  5.29574E-01  5.36060E-01  5.42772E-01
   5.49694E-01  5.56813E-01  5.64119E-01  5.71602E-01  5.79255E-01  5.87065E-01  5.95020E-01  6.03112E-01  6.11336E-01  6.19687E-01
   6.28159E-01  6.36741E-01  6.45427E-01  6.54212E-01  6.63096E-01  6.72076E-01  6.81145E-01  6.90295E-01  6.99523E-01  7.08827E-01
   7.18210E-01  7.27667E-01  7.37193E-01  7.46780E-01  7.56431E-01  7.66147E-01  7.75931E-01  7.85777E-01
 NY background values follow
    -5.044E+00   -5.032E+00   -5.021E+00   -5.009E+00   -4.998E+00   -4.986E+00   -4.975E+00   -4.963E+00   -4.952E+00   -4.940E+00
    -4.929E+00   -4.917E+00   -4.906E+00   -4.894E+00   -4.883E+00   -4.871E+00   -4.860E+00   -4.848E+00   -4.837E+00   -4.825E+00
    -4.813E+00   -4.802E+00   -4.790E+00   -4.779E+00   -4.767E+00   -4.756E+00   -4.744E+00   -4.733E+00   -4.721E+00   -4.710E+00
    -4.698E+00   -4.687E+00   -4.675E+00   -4.664E+00   -4.652E+00   -4.641E+00   -4.629E+00   -4.618E+00   -4.606E+00   -4.595E+00
    -4.583E+00   -4.572E+00   -4.560E+00   -4.549E+00   -4.537E+00   -4.525E+00   -4.514E+00   -4.502E+00   -4.491E+00   -4.479E+00
    -4.468E+00   -4.456E+00   -4.445E+00   -4.433E+00   -4.422E+00   -4.410E+00   -4.399E+00   -4.387E+00   -4.376E+00   -4.364E+00
    -4.353E+00   -4.341E+00   -4.330E+00   -4.318E+00   -4.307E+00   -4.295E+00   -4.284E+00   -4.272E+00   -4.260E+00   -4.249E+00
    -4.237E+00   -4.226E+00   -4.214E+00   -4.203E+00   -4.191E+00   -4.180E+00   -4.168E+00   -4.157E+00   -4.145E+00   -4.134E+00
    -4.122E+00   -4.111E+00   -4.099E+00   -4.088E+00   -4.076E+00   -4.065E+00   -4.053E+00   -4.042E+00   -4.030E+00   -4.019E+00
    -4.007E+00   -3.995E+00   -3.984E+00   -3.972E+00   -3.961E+00   -3.949E+00   -3.938E+00   -3.926E+00   -3.915E+00   -3.903E+00
    -3.892E+00   -3.880E+00   -3.869E+00   -3.857E+00   -3.846E+00   -3.834E+00   -3.823E+00   -3.811E+00   -3.800E+00   -3.788E+00
    -3.777E+00   -3.765E+00   -3.754E+00   -3.742E+00   -3.731E+00   -3.719E+00   -3.707E+00   -3.696E+00   -3.684E+00   -3.673E+00
    -3.661E+00   -3.650E+00   -3.638E+00   -3.627E+00   -3.615E+00   -3.604E+00   -3.592E+00   -3.581E+00   -3.569E+00   -3.558E+00
    -3.546E+00   -3.535E+00   -3.523E+00   -3.512E+00   -3.500E+00   -3.489E+00   -3.477E+00   -3.465E+00   -3.454E+00   -3.442E+00
    -3.431E+00   -3.419E+00   -3.408E+00   -3.396E+00   -3.385E+00   -3.373E+00   -3.362E+00   -3.350E+00   -3.339E+00   -3.327E+00
    -3.316E+00   -3.304E+00   -3.293E+00   -3.281E+00   -3.270E+00   -3.258E+00   -3.247E+00   -3.235E+00   -3.224E+00   -3.212E+00
    -3.200E+00   -3.189E+00   -3.177E+00   -3.166E+00   -3.154E+00   -3.143E+00   -3.131E+00   -3.120E+00   -3.108E+00   -3.097E+00
    -3.085E+00   -3.074E+00   -3.062E+00   -3.051E+00   -3.039E+00   -3.028E+00   -3.016E+00   -3.005E+00   -2.993E+00   -2.982E+00
    -2.970E+00   -2.958E+00   -2.947E+00   -2.935E+00   -2.924E+00   -2.912E+00   -2.901E+00   -2.889E+00   -2.878E+00   -2.866E+00
    -2.855E+00   -2.843E+00   -2.832E+00   -2.820E+00   -2.809E+00   -2.797E+00   -2.786E+00   -2.774E+00   -2.763E+00   -2.751E+00
    -2.740E+00   -2.728E+00   -2.717E+00   -2.705E+00   -2.693E+00   -2.682E+00   -2.670E+00   -2.659E+00   -2.647E+00   -2.636E+00
    -2.624E+00   -2.613E+00   -2.601E+00   -2.590E+00   -2.578E+00   -2.567E+00   -2.555E+00   -2.544E+00   -2.532E+00   -2.521E+00
    -2.509E+00   -2.498E+00   -2.486E+00   -2.474E+00   -2.463E+00   -2.451E+00   -2.440E+00   -2.428E+00   -2.417E+00   -2.405E+00
    -2.394E+00   -2.382E+00   -2.371E+00   -2.359E+00   -2.348E+00   -2.336E+00   -2.325E+00   -2.313E+00   -2.302E+00   -2.290E+00
    -2.279E+00   -2.267E+00   -2.256E+00   -2.244E+00   -2.232E+00   -2.221E+00   -2.209E+00   -2.198E+00   -2.186E+00   -2.175E+00
    -2.163E+00   -2.152E+00   -2.140E+00   -2.129E+00   -2.117E+00   -2.106E+00   -2.094E+00   -2.083E+00   -2.071E+00   -2.060E+00
    -2.048E+00   -2.037E+00   -2.025E+00   -2.014E+00   -2.002E+00   -1.990E+00   -1.979E+00   -1.967E+00   -1.956E+00   -1.944E+00
    -1.933E+00   -1.921E+00   -1.910E+00   -1.898E+00   -1.887E+00   -1.875E+00   -1.864E+00   -1.852E+00   -1.841E+00   -1.829E+00
    -1.818E+00   -1.806E+00   -1.795E+00   -1.783E+00   -1.771E+00   -1.760E+00   -1.748E+00   -1.737E+00   -1.725E+00   -1.714E+00
    -1.702E+00   -1.691E+00   -1.679E+00   -1.668E+00   -1.656E+00   -1.645E+00   -1.633E+00   -1.622E+00   -1.610E+00   -1.599E+00
    -1.587E+00   -1.576E+00   -1.564E+00   -1.553E+00   -1.541E+00   -1.529E+00   -1.518E+00   -1.506E+00   -1.495E+00   -1.483E+00
    -1.472E+00   -1.460E+00   -1.449E+00   -1.437E+00   -1.426E+00   -1.414E+00   -1.403E+00   -1.391E+00   -1.380E+00   -1.368E+00
    -1.357E+00   -1.345E+00   -1.334E+00   -1.322E+00   -1.310E+00   -1.299E+00   -1.287E+00   -1.276E+00   -1.264E+00   -1.253E+00
    -1.241E+00   -1.230E+00   -1.218E+00   -1.207E+00   -1.195E+00   -1.184E+00   -1.172E+00   -1.161E+00   -1.149E+00   -1.138E+00
    -1.126E+00   -1.115E+00   -1.103E+00   -1.091E+00   -1.080E+00   -1.068E+00   -1.057E+00   -1.045E+00   -1.034E+00   -1.022E+00
    -1.011E+00   -9.993E-01   -9.878E-01   -9.762E-01   -9.647E-01   -9.532E-01   -9.416E-01   -9.301E-01   -9.186E-01   -9.071E-01
    -8.955E-01   -8.840E-01   -8.725E-01   -8.610E-01   -8.494E-01   -8.379E-01   -8.264E-01   -8.149E-01   -8.033E-01   -7.918E-01
    -7.803E-01   -7.688E-01   -7.572E-01   -7.457E-01   -7.342E-01   -7.227E-01   -7.111E-01   -6.996E-01   -6.881E-01   -6.766E-01
    -6.650E-01   -6.535E-01   -6.420E-01   -6.304E-01   -6.189E-01   -6.074E-01   -5.959E-01   -5.843E-01   -5.728E-01   -5.613E-01
    -5.498E-01   -5.382E-01   -5.267E-01   -5.152E-01   -5.037E-01   -4.921E-01   -4.806E-01   -4.691E-01   -4.576E-01   -4.460E-01
    -4.345E-01   -4.230E-01   -4.115E-01   -3.999E-01   -3.884E-01   -3.769E-01   -3.654E-01   -3.538E-01   -3.423E-01   -3.308E-01
    -3.192E-01   -3.077E-01   -2.962E-01   -2.847E-01   -2.731E-01   -2.616E-01   -2.501E-01   -2.386E-01   -2.270E-01   -2.155E-01
    -2.040E-01   -1.925E-01   -1.809E-01   -1.694E-01   -1.579E-01   -1.464E-01   -1.348E-01   -1.233E-01   -1.118E-01   -1.003E-01
    -8.873E-02   -7.720E-02   -6.568E-02   -5.415E-02   -4.262E-02   -3.110E-02   -1.957E-02   -8.046E-03    3.480E-03    1.501E-02
     2.653E-02    3.806E-02    4.958E-02    6.111E-02    7.264E-02    8.416E-02    9.569E-02    1.072E-01    1.187E-01    1.303E-01
     1.418E-01    1.533E-01    1.648E-01    1.764E-01    1.879E-01    1.994E-01    2.109E-01    2.225E-01    2.340E-01    2.455E-01
     2.571E-01    2.686E-01    2.801E-01    2.916E-01    3.032E-01    3.147E-01    3.262E-01    3.377E-01    3.493E-01    3.608E-01
     3.723E-01    3.838E-01    3.954E-01    4.069E-01    4.184E-01    4.299E-01    4.415E-01    4.530E-01    4.645E-01    4.760E-01
     4.876E-01    4.991E-01    5.106E-01    5.222E-01    5.337E-01    5.452E-01    5.567E-01    5.683E-01    5.798E-01    5.913E-01
     6.028E-01    6.144E-01    6.259E-01    6.374E-01    6.489E-01    6.605E-01    6.720E-01    6.835E-01
 Ala      Conc. = 1.10E+02
