 LCModel (Version 6.3-1L) Copyright: S.W. Provencher.          Ref.: Magn. Reson. Med. 30:672-679 (1993).                
 Slice#2 Row#2 Col#8  PD_24_press_2_raw_act
 36 lines in following concentration table = NCONC+1
    Conc.  %SD /Cr+PCr  Metabolite                                         
    0.000 999%   0.000 Ala                                                 
  120.911  79%   0.272 Asp                                                 
  444.337  32%   1.000 Cr                                                  
    0.000 999%   0.000 PCr                                                 
   67.185  86%   0.151 GABA                                                
   68.057  85%   0.153 Glc                                                 
    0.000 999%   0.000 Gln                                                 
 1.72E+03  71%   3.869 Glu                                                 
  202.587  26%   0.456 GPC                                                 
    0.000 999%   0.000 PCh                                                 
    0.000 999%   0.000 GSH                                                 
    9.446 999% 2.1E-02 Ins                                                 
  669.279 102%   1.506 Lac                                                 
 1.22E+03  13%   2.739 NAA                                                 
    0.000 999%   0.000 NAAG                                                
   31.112  60% 7.0E-02 Scyllo                                              
  130.433  72%   0.294 Tau                                                 
   73.101 152%   0.165 -CrCH2                                              
  202.587  26%   0.456 GPC+PCh                                             
 1.22E+03  13%   2.739 NAA+NAAG                                            
  444.337  32%   1.000 Cr+PCr                                              
 1.72E+03  71%   3.869 Glu+Gln                                             
 4.37E+03  17%   9.827 Lip13a                                              
    0.000 999%   0.000 Lip13b                                              
 1.29E+03  22%   2.901 Lip09                                               
   54.250 245%   0.122 MM09                                                
  271.825 102%   0.612 Lip20                                               
    0.000 999%   0.000 MM20                                                
   20.017 345% 4.5E-02 MM12                                                
  235.551 106%   0.530 MM14                                                
   43.396 365% 9.8E-02 MM17                                                
 4.37E+03  17%   9.827 Lip13a+Lip13b                                       
 4.62E+03  16%  10.402 MM14+Lip13a+Lip13b+MM12                             
 1.34E+03  20%   3.023 MM09+Lip09                                          
  271.825 102%   0.612 MM20+Lip20                                          
   6 lines in following misc. output table
  FWHM = 0.107 ppm    S/N =   2                                            
  Data shift =-0.008 ppm                                                   
  Ph: -93 deg     -25.8 deg/ppm                                            
  alphaB,S = 8.5E+01,   5.1E+01                                            
   14 spline knots.   Ns = 7(2)                                            
   2 inflections.     1 extrema                                            
  498 points on ppm-axis = NY
      4.000000     3.992357     3.984714     3.977070     3.969427     3.961784     3.954141     3.946497     3.938854     3.931211
      3.923568     3.915925     3.908281     3.900638     3.892995     3.885352     3.877708     3.870065     3.862422     3.854779
      3.847136     3.839492     3.831849     3.824206     3.816563     3.808919     3.801276     3.793633     3.785990     3.778347
      3.770703     3.763060     3.755417     3.747774     3.740130     3.732487     3.724844     3.717201     3.709558     3.701914
      3.694271     3.686628     3.678985     3.671341     3.663698     3.656055     3.648412     3.640769     3.633125     3.625482
      3.617839     3.610196     3.602552     3.594909     3.587266     3.579623     3.571980     3.564336     3.556693     3.549050
      3.541407     3.533763     3.526120     3.518477     3.510834     3.503191     3.495547     3.487904     3.480261     3.472618
      3.464974     3.457331     3.449688     3.442045     3.434402     3.426758     3.419115     3.411472     3.403829     3.396185
      3.388542     3.380899     3.373256     3.365613     3.357969     3.350326     3.342683     3.335040     3.327396     3.319753
      3.312110     3.304467     3.296824     3.289180     3.281537     3.273894     3.266251     3.258607     3.250964     3.243321
      3.235678     3.228034     3.220391     3.212748     3.205105     3.197462     3.189818     3.182175     3.174532     3.166889
      3.159245     3.151602     3.143959     3.136316     3.128673     3.121029     3.113386     3.105743     3.098100     3.090456
      3.082813     3.075170     3.067527     3.059884     3.052240     3.044597     3.036954     3.029311     3.021667     3.014024
      3.006381     2.998738     2.991095     2.983451     2.975808     2.968165     2.960522     2.952878     2.945235     2.937592
      2.929949     2.922306     2.914662     2.907019     2.899376     2.891733     2.884089     2.876446     2.868803     2.861160
      2.853517     2.845873     2.838230     2.830587     2.822944     2.815300     2.807657     2.800014     2.792371     2.784728
      2.777084     2.769441     2.761798     2.754155     2.746511     2.738868     2.731225     2.723582     2.715939     2.708295
      2.700652     2.693009     2.685366     2.677722     2.670079     2.662436     2.654793     2.647150     2.639506     2.631863
      2.624220     2.616577     2.608933     2.601290     2.593647     2.586004     2.578361     2.570717     2.563074     2.555431
      2.547788     2.540144     2.532501     2.524858     2.517215     2.509572     2.501928     2.494285     2.486642     2.478999
      2.471355     2.463712     2.456069     2.448426     2.440783     2.433139     2.425496     2.417853     2.410210     2.402566
      2.394923     2.387280     2.379637     2.371994     2.364350     2.356707     2.349064     2.341421     2.333777     2.326134
      2.318491     2.310848     2.303205     2.295561     2.287918     2.280275     2.272632     2.264988     2.257345     2.249702
      2.242059     2.234416     2.226772     2.219129     2.211486     2.203843     2.196199     2.188556     2.180913     2.173270
      2.165627     2.157983     2.150340     2.142697     2.135054     2.127410     2.119767     2.112124     2.104481     2.096838
      2.089194     2.081551     2.073908     2.066265     2.058621     2.050978     2.043335     2.035692     2.028049     2.020405
      2.012762     2.005119     1.997476     1.989833     1.982190     1.974546     1.966903     1.959260     1.951617     1.943974
      1.936331     1.928688     1.921045     1.913402     1.905759     1.898115     1.890472     1.882829     1.875186     1.867543
      1.859900     1.852257     1.844614     1.836971     1.829327     1.821684     1.814041     1.806398     1.798755     1.791112
      1.783469     1.775826     1.768183     1.760540     1.752896     1.745253     1.737610     1.729967     1.722324     1.714681
      1.707038     1.699395     1.691752     1.684108     1.676465     1.668822     1.661179     1.653536     1.645893     1.638250
      1.630607     1.622964     1.615321     1.607677     1.600034     1.592391     1.584748     1.577105     1.569462     1.561819
      1.554176     1.546533     1.538890     1.531246     1.523603     1.515960     1.508317     1.500674     1.493031     1.485388
      1.477745     1.470102     1.462458     1.454815     1.447172     1.439529     1.431886     1.424243     1.416600     1.408957
      1.401314     1.393671     1.386027     1.378384     1.370741     1.363098     1.355455     1.347812     1.340169     1.332526
      1.324883     1.317240     1.309596     1.301953     1.294310     1.286667     1.279024     1.271381     1.263738     1.256095
      1.248452     1.240808     1.233165     1.225522     1.217879     1.210236     1.202593     1.194950     1.187307     1.179664
      1.172021     1.164377     1.156734     1.149091     1.141448     1.133805     1.126162     1.118519     1.110876     1.103233
      1.095590     1.087946     1.080303     1.072660     1.065017     1.057374     1.049731     1.042088     1.034445     1.026802
      1.019158     1.011515     1.003872     0.996229     0.988586     0.980943     0.973300     0.965657     0.958014     0.950371
      0.942727     0.935084     0.927441     0.919798     0.912155     0.904512     0.896869     0.889226     0.881583     0.873940
      0.866296     0.858653     0.851010     0.843367     0.835724     0.828081     0.820438     0.812795     0.805152     0.797508
      0.789865     0.782222     0.774579     0.766936     0.759293     0.751650     0.744007     0.736364     0.728721     0.721077
      0.713434     0.705791     0.698148     0.690505     0.682862     0.675219     0.667576     0.659933     0.652290     0.644646
      0.637003     0.629360     0.621717     0.614074     0.606431     0.598788     0.591145     0.583502     0.575858     0.568215
      0.560572     0.552929     0.545286     0.537643     0.530000     0.522357     0.514714     0.507071     0.499427     0.491784
      0.484141     0.476498     0.468855     0.461212     0.453569     0.445925     0.438282     0.430639     0.422996     0.415353
      0.407710     0.400067     0.392424     0.384780     0.377137     0.369494     0.361851     0.354208     0.346565     0.338922
      0.331278     0.323635     0.315992     0.308349     0.300706     0.293063     0.285420     0.277777     0.270133     0.262490
      0.254847     0.247204     0.239561     0.231918     0.224275     0.216631     0.208988     0.201345
 NY phased data points follow
  -9.44812E+00 -4.56553E+00 -1.34574E+01 -2.53917E+01 -2.33479E+01 -1.16504E+01 -1.35985E+01 -1.00285E+01 -1.49040E+01  1.24956E+01
  -7.52516E+00 -1.45480E+01 -2.06068E+01 -1.75005E+01 -1.07155E+01 -8.92837E+00 -2.11173E+01 -1.48788E+01 -5.95384E+00 -4.54795E+00
  -6.67798E+00 -8.60555E+00 -1.36202E+01 -1.16529E+01 -3.17061E+01 -2.72101E+01 -3.56838E+01 -1.43978E+01 -2.60615E+01 -6.30176E+00
  -1.01506E+01 -7.89069E+00 -1.60730E+01 -1.27965E+01 -2.29009E+01 -1.56731E+01 -2.33115E+01 -5.33285E+00 -5.76811E+00 -9.51692E+00
  -2.15202E+01 -1.71299E+01 -2.90583E+01 -9.96301E+00 -2.26420E+01 -1.76216E+01 -1.30706E+01 -1.10487E+01 -1.14451E+01 -4.54162E+00
  -1.06453E+01 -7.19173E+00 -1.15819E+01 -3.03249E+00 -1.11142E+01 -1.05989E+01 -1.31675E+01  8.30462E-02 -2.50045E+01 -1.85501E+01
  -1.15963E+01 -6.62850E+00 -1.81188E+01 -1.38845E+01 -1.91497E+01 -3.47054E+00 -1.90878E+01 -1.90069E+01 -1.82499E+01 -6.69389E-01
  -1.81202E+01 -3.23343E+00 -1.06268E+01 -1.67244E+01 -1.15414E+01 -1.22615E+01 -1.48847E+01 -1.26976E+01 -1.26595E+01 -8.33444E+00
  -1.08687E+01 -1.36658E+01 -7.28271E+00  5.22984E+00 -8.83478E+00 -1.34393E+01 -1.92781E-01 -1.41080E+01 -1.07809E+01 -1.28286E+01
  -2.65699E+00 -1.32458E+01 -1.18850E+01 -3.00847E+00 -1.25158E+01 -1.51505E+01 -1.02197E+01  6.07269E+00 -9.40751E+00  1.01630E+01
  -7.87985E+00  1.45362E+01 -1.26630E+01 -3.72920E+00 -1.01320E+01  4.11550E+00  4.02382E-02 -3.05576E+00 -6.86293E+00 -1.35630E+01
  -1.02523E+01 -3.44245E+00 -9.01083E+00 -8.16031E+00 -2.75567E+01 -3.85189E+00 -5.24516E+00 -9.16774E+00 -1.14308E+01 -1.80338E+01
  -1.58899E+01 -1.47205E+01 -1.24135E+01  1.33302E+01 -3.08412E+00  6.41666E+00 -4.08176E+00 -6.24566E+00 -6.70078E+00 -1.26877E+01
   2.34146E+00  1.60736E+00 -2.28236E+00 -6.45757E+00 -1.23732E+01 -1.57146E+01 -5.68935E+00 -1.68870E+00 -1.59714E+01 -7.91427E+00
  -2.24978E+01 -8.32979E+00 -7.26333E+00 -1.27445E+01 -2.37307E+00 -1.63942E+01 -1.44311E+01 -5.70450E+00 -2.63355E+01 -8.30288E+00
  -1.44901E+01 -1.82775E+01 -9.94939E+00 -1.38640E+01 -1.25204E+01 -4.34504E+00 -9.03684E+00 -1.52362E+01 -3.34448E+00 -1.60420E+01
  -1.15321E+01 -1.02527E+01 -2.50072E+01 -1.49938E+01 -8.22901E+00 -2.11070E+01 -1.33405E+01 -5.83546E+00 -1.81727E+01 -4.03334E-02
  -2.02071E+01 -1.12088E+01 -2.29645E+00 -6.04086E+00 -1.00791E+01 -2.78905E+01 -9.99761E+00 -1.83929E+01 -7.50213E+00 -9.11342E+00
  -1.48903E+01 -1.41162E+01 -1.41016E+01 -1.94898E+01 -1.95459E+01 -6.90580E+00 -1.82505E+01 -8.67474E+00 -1.65696E+01 -1.43116E+01
  -1.02678E+01 -1.28217E+01 -9.87530E+00 -1.09883E+01 -6.15229E-01 -2.12949E+01 -2.18420E+00 -5.23618E+00 -1.58495E+01 -1.80137E+01
  -1.03873E+01 -1.48600E+01 -1.53717E+01 -1.29361E+01 -1.56389E+00 -4.84584E+00 -8.09440E+00  2.29844E+00  5.59231E-01 -7.23434E+00
  -1.16503E+01 -2.49337E+00 -9.77417E+00 -2.84032E+00 -2.45450E+01 -4.85753E-01 -7.67851E+00 -4.24500E+00 -1.00202E+01 -4.35094E+00
  -1.95977E+01 -1.14488E+01 -1.20616E+01 -1.20173E+01 -4.59596E+00 -1.74605E+01 -5.73651E+00 -8.95214E+00 -1.76188E+01 -2.19436E+01
  -1.12227E+01 -1.47699E+01 -8.40511E+00  1.53000E+00 -1.33737E+01 -1.30101E-01 -7.19863E+00 -8.46443E+00 -7.86224E+00 -3.14764E+00
  -1.65311E+01 -3.55612E+00 -3.95441E+00 -3.16198E+00 -1.89615E+01 -1.09768E+01 -2.98476E+00 -3.18168E+00 -2.65291E+00 -7.42267E+00
   1.17590E+00 -7.56737E+00  4.07570E-01 -5.80199E+00  9.32514E+00 -1.83257E-01  3.31795E+01  1.61361E+01  2.09266E+01  1.98542E+01
   1.57912E+01  4.80263E+00  1.13966E+01  1.50884E+01  6.56969E+00  1.07087E+01  1.68618E+01  1.33554E+01  6.21439E+00 -2.19260E+00
   3.05421E+00 -6.67603E+00 -8.74155E+00  2.71871E-02 -1.05543E+01 -1.38588E+00 -3.78504E+00 -1.71337E+00 -9.96497E+00 -7.95908E+00
  -1.07854E+01  2.96467E+00 -9.26282E+00 -2.06585E+00 -8.12552E+00 -4.94658E+00 -2.11177E+00 -8.41491E+00 -7.47394E+00 -8.16801E+00
  -1.32684E+01 -3.45977E+00 -2.31022E-01 -9.69378E+00 -4.71924E+00 -3.47107E+00 -1.50141E+01 -4.43792E+00 -1.03581E+01 -3.54417E+00
   1.14860E+01 -1.43900E+01  6.91792E+00 -5.72209E+00 -3.25444E+00 -6.50464E+00 -2.98129E+00  4.90376E+00 -5.36202E+00  2.43149E+00
   1.21342E+01 -7.67162E+00 -9.26414E+00  1.11046E+01  6.73050E+00 -5.42817E+00  5.36440E-01 -1.16687E+01  4.01856E+00  7.38022E+00
  -9.70372E-01 -5.99108E+00  4.75232E+00 -1.19385E+01  5.96793E-01  5.34742E+00  5.79685E+00  8.66686E+00  9.63665E+00  6.43158E+00
   1.06822E+01  6.72192E+00  6.27574E+00  1.23759E+01 -4.28406E-01  3.59533E+00  7.02263E+00  5.82185E+00  7.67098E+00  1.59918E+01
   6.25680E+00  1.78100E+01  5.07619E+00  1.73216E+01  1.46244E+01  4.10416E+00 -1.26777E+00  1.45402E+01  1.15048E+01  1.63083E+01
   1.26824E+01  9.11687E+00  1.22783E+01  7.51546E+00  1.27937E+00  7.78360E+00  7.29095E+00  7.44774E+00 -1.01947E+01  1.68166E+01
   1.08592E+01  7.80076E+00 -1.68052E+00  3.47794E+00  8.16035E+00  1.55002E+01  7.14220E+00  7.16844E+00  8.97388E+00  1.43271E+01
   1.53027E+01  4.58081E+00  1.90950E+01  1.62469E+01  1.23673E+01  8.44726E+00  1.36185E+01  1.04459E+01  2.32617E+01  1.01260E+01
   9.06438E+00  1.35261E+01  1.61453E+01  1.16099E+01  1.79881E+01  7.86529E-01  1.47308E+01  9.40820E+00 -2.74000E+00  2.41791E+00
   2.93274E+01 -3.71092E+00  9.70692E+00 -1.29190E+00  1.37529E+01  9.69584E+00  1.14080E+01 -6.73624E+00  1.61813E+01  5.74310E+00
  -3.05275E+00  1.34620E+01 -4.07754E+00  3.27465E+00  3.30105E+00  1.38910E+01  3.43938E+00  5.86919E+00  1.34200E+01  8.91789E+00
  -7.25281E+00  1.82738E+01  1.39233E+01  1.09214E+01  6.44693E+00  5.76131E+00 -4.66974E+00 -1.47743E+01  1.56044E+00 -5.14985E+00
   3.57607E+00  9.90065E-03  4.89054E+00 -3.11536E+00  2.13158E+00 -5.72925E+00 -2.87998E+00 -2.97537E+00  1.25183E+01  7.11760E+00
   4.72230E+00  5.57246E+00 -5.22573E-01 -5.83518E+00 -4.58899E+00  2.69181E+00  7.71209E+00  1.80904E+00 -2.94567E+00  1.04309E+01
  -1.22646E+01 -4.53407E+00  8.29466E-01  3.79162E+00  5.30908E+00 -4.15432E+00 -2.91373E+00 -4.97141E-01  4.61907E+00  1.36976E+00
   1.44393E+00 -2.26268E+00  8.24551E+00 -9.59515E+00 -1.16022E+01 -3.88187E+00  6.17290E+00  7.47509E+00  6.66825E+00 -3.08826E+00
   6.33441E+00  1.32931E+01 -5.84203E+00  4.46139E+00  4.38033E+00 -3.14403E+00 -9.01319E+00 -4.73024E+00 -8.44323E+00 -7.53427E+00
   1.11304E+01 -5.08081E+00  1.91333E+01 -8.72497E+00  5.95043E+00  5.56232E+00  4.66883E+00 -8.53905E+00 -9.46984E+00 -2.59250E+00
  -9.08830E+00  5.90458E+00  1.70666E+00 -1.81839E+00  1.17368E+00 -5.68339E-01 -1.60345E+00 -7.36526E+00  7.31372E+00  3.04009E+00
   6.26318E+00 -1.66045E+00 -1.83472E+00  2.41314E+00 -1.38964E+01 -6.22194E+00 -3.17526E+00 -5.69495E+00
 NY points of the fit to the data follow
  -1.56322E+01 -1.51427E+01 -1.50533E+01 -1.43539E+01 -1.41320E+01 -1.29340E+01 -1.26817E+01 -1.12428E+01 -1.12157E+01 -1.01926E+01
  -1.04665E+01 -9.91788E+00 -1.03303E+01 -9.87672E+00 -1.03966E+01 -1.00649E+01 -1.06630E+01 -1.05347E+01 -1.11462E+01 -1.12040E+01
  -1.18144E+01 -1.19800E+01 -1.26796E+01 -1.28697E+01 -1.35584E+01 -1.35205E+01 -1.39035E+01 -1.33621E+01 -1.35060E+01 -1.26998E+01
  -1.30408E+01 -1.23696E+01 -1.30478E+01 -1.26604E+01 -1.33479E+01 -1.29427E+01 -1.33270E+01 -1.27244E+01 -1.29474E+01 -1.23654E+01
  -1.26224E+01 -1.22946E+01 -1.25877E+01 -1.24997E+01 -1.27216E+01 -1.27375E+01 -1.27635E+01 -1.27473E+01 -1.26445E+01 -1.26179E+01
  -1.25572E+01 -1.26184E+01 -1.26644E+01 -1.28193E+01 -1.28904E+01 -1.30397E+01 -1.30872E+01 -1.31632E+01 -1.32154E+01 -1.32418E+01
  -1.33119E+01 -1.32918E+01 -1.33743E+01 -1.33119E+01 -1.34125E+01 -1.33229E+01 -1.34074E+01 -1.32988E+01 -1.33416E+01 -1.32096E+01
  -1.32134E+01 -1.30921E+01 -1.30700E+01 -1.30113E+01 -1.29883E+01 -1.29725E+01 -1.29103E+01 -1.28777E+01 -1.27068E+01 -1.26530E+01
  -1.23849E+01 -1.23494E+01 -1.21015E+01 -1.21269E+01 -1.20069E+01 -1.20828E+01 -1.20639E+01 -1.21363E+01 -1.20096E+01 -1.17972E+01
  -1.16613E+01 -1.11257E+01 -1.10231E+01 -1.00386E+01 -9.87142E+00 -8.01002E+00 -7.83757E+00 -4.78453E+00 -5.24356E+00 -1.68186E+00
  -3.33193E+00 -4.30532E-01 -2.82416E+00 -7.50242E-01 -3.14857E+00 -1.39275E+00 -3.75127E+00 -2.42397E+00 -4.80200E+00 -4.15758E+00
  -6.42864E+00 -6.54286E+00 -8.31260E+00 -8.72947E+00 -9.78327E+00 -1.00479E+01 -1.03761E+01 -1.00122E+01 -9.84844E+00 -8.54361E+00
  -8.32617E+00 -6.17877E+00 -6.29618E+00 -3.84957E+00 -4.70413E+00 -2.87652E+00 -4.26112E+00 -3.09953E+00 -4.54538E+00 -3.58192E+00
  -5.00575E+00 -4.30806E+00 -5.73318E+00 -5.48065E+00 -6.86154E+00 -7.11940E+00 -8.28165E+00 -8.85621E+00 -9.60631E+00 -1.01530E+01
  -1.04294E+01 -1.06520E+01 -1.06407E+01 -1.05918E+01 -1.05691E+01 -1.05388E+01 -1.05250E+01 -1.05016E+01 -1.04822E+01 -1.04740E+01
  -1.04405E+01 -1.04469E+01 -1.04284E+01 -1.04761E+01 -1.04875E+01 -1.05929E+01 -1.05933E+01 -1.06943E+01 -1.06557E+01 -1.06627E+01
  -1.06593E+01 -1.06022E+01 -1.07230E+01 -1.06846E+01 -1.08626E+01 -1.08422E+01 -1.10184E+01 -1.09994E+01 -1.11940E+01 -1.11615E+01
  -1.13712E+01 -1.13209E+01 -1.14857E+01 -1.14768E+01 -1.15126E+01 -1.16145E+01 -1.15129E+01 -1.16917E+01 -1.14720E+01 -1.16184E+01
  -1.12979E+01 -1.14063E+01 -1.09763E+01 -1.10534E+01 -1.05141E+01 -1.05286E+01 -9.99116E+00 -9.96040E+00 -9.50564E+00 -9.41733E+00
  -9.03521E+00 -8.85457E+00 -8.57735E+00 -8.34181E+00 -8.20759E+00 -7.95723E+00 -7.93877E+00 -7.66569E+00 -7.68263E+00 -7.41066E+00
  -7.50496E+00 -7.27628E+00 -7.52723E+00 -7.28735E+00 -7.81203E+00 -7.52009E+00 -8.09840E+00 -7.71858E+00 -7.98474E+00 -7.39935E+00
  -7.36399E+00 -6.51494E+00 -6.89857E+00 -6.20326E+00 -7.54505E+00 -7.35922E+00 -9.17151E+00 -9.21042E+00 -1.05891E+01 -1.02098E+01
  -1.08711E+01 -9.93496E+00 -1.02530E+01 -9.29032E+00 -9.71167E+00 -9.11900E+00 -9.51125E+00 -9.05550E+00 -9.04873E+00 -8.44035E+00
  -7.90899E+00 -7.14606E+00 -6.46919E+00 -5.94293E+00 -5.56602E+00 -5.58570E+00 -5.48400E+00 -5.97439E+00 -5.88907E+00 -6.40066E+00
  -6.08269E+00 -6.34837E+00 -5.91374E+00 -6.15221E+00 -5.78425E+00 -5.96343E+00 -5.16025E+00 -5.11315E+00 -3.80155E+00 -3.41579E+00
  -1.41147E+00 -5.84491E-01  2.72068E+00  3.92521E+00  8.92415E+00  9.87599E+00  1.49231E+01  1.47249E+01  1.74769E+01  1.61632E+01
   1.68694E+01  1.52161E+01  1.54413E+01  1.36960E+01  1.32866E+01  1.13292E+01  9.90220E+00  7.79865E+00  5.38171E+00  3.49458E+00
   7.82884E-01 -5.46482E-01 -2.67744E+00 -3.28971E+00 -4.19683E+00 -4.28699E+00 -4.26814E+00 -4.25288E+00 -4.24181E+00 -4.23789E+00
  -4.17860E+00 -4.16414E+00 -4.11670E+00 -4.11561E+00 -4.08535E+00 -4.10260E+00 -4.08745E+00 -4.09496E+00 -4.06928E+00 -4.04378E+00
  -3.99361E+00 -3.93646E+00 -3.87497E+00 -3.80348E+00 -3.73791E+00 -3.66310E+00 -3.59457E+00 -3.51786E+00 -3.44344E+00 -3.35960E+00
  -3.27731E+00 -3.18706E+00 -3.09698E+00 -3.00166E+00 -2.90500E+00 -2.80459E+00 -2.70098E+00 -2.59399E+00 -2.48301E+00 -2.36726E+00
  -2.24666E+00 -2.11927E+00 -1.98586E+00 -1.84323E+00 -1.69332E+00 -1.53157E+00 -1.36109E+00 -1.17634E+00 -9.81219E-01 -7.69906E-01
  -5.46509E-01 -3.05488E-01 -5.08393E-02  2.22945E-01  5.11959E-01  8.21823E-01  1.14891E+00  1.49933E+00  1.87033E+00  2.26959E+00
   2.69751E+00  3.16909E+00  3.70643E+00  4.32140E+00  4.85755E+00  5.56853E+00  6.07519E+00  6.90469E+00  7.37298E+00  8.37059E+00
   8.60268E+00  9.81390E+00  9.34958E+00  1.03947E+01  9.12755E+00  9.82314E+00  8.35196E+00  9.26536E+00  8.08242E+00  9.85407E+00
   8.80384E+00  1.10900E+01  9.95308E+00  1.18979E+01  1.06726E+01  1.20037E+01  1.09725E+01  1.20989E+01  1.14310E+01  1.24541E+01
   1.20253E+01  1.27760E+01  1.22862E+01  1.24720E+01  1.17659E+01  1.13296E+01  1.06000E+01  9.88430E+00  9.24429E+00  8.60486E+00
   8.10692E+00  7.68215E+00  7.27849E+00  6.90445E+00  6.55750E+00  6.24340E+00  5.95895E+00  5.70991E+00  5.49299E+00  5.31370E+00
   5.16840E+00  5.06214E+00  4.99079E+00  4.95880E+00  4.96142E+00  5.00231E+00  5.07586E+00  5.18476E+00  5.32229E+00  5.48991E+00
   5.67962E+00  5.89150E+00  6.11618E+00  6.35242E+00  6.58968E+00  6.82571E+00  7.04927E+00  7.25778E+00  7.44009E+00  7.59413E+00
   7.70977E+00  7.78645E+00  7.81597E+00  7.80003E+00  7.73301E+00  7.61933E+00  7.45613E+00  7.25047E+00  7.00194E+00  6.71972E+00
   6.40509E+00  6.06846E+00  5.71186E+00  5.34591E+00  4.97243E+00  4.60138E+00  4.23359E+00  3.87778E+00  3.53337E+00  3.20757E+00
   2.89828E+00  2.61125E+00  2.34305E+00  2.09822E+00  1.87232E+00  1.66902E+00  1.48323E+00  1.31813E+00  1.16828E+00  1.03665E+00
   9.17712E-01  8.14428E-01  7.21333E-01  6.41490E-01  5.69584E-01  5.08838E-01  4.54118E-01  4.08817E-01  3.67971E-01  3.35131E-01
   3.05489E-01  2.82725E-01  2.62165E-01  2.47591E-01  2.34438E-01  2.26568E-01  2.19503E-01  2.17165E-01  2.15148E-01  2.17416E-01
   2.19620E-01  2.25754E-01  2.31515E-01  2.40920E-01  2.49704E-01  2.61899E-01  2.73268E-01  2.87856E-01  3.01455E-01  3.18116E-01
   3.33651E-01  3.52117E-01  3.69341E-01  3.89385E-01  4.08093E-01  4.29528E-01  4.49548E-01  4.72215E-01  4.93400E-01  5.17164E-01
   5.39393E-01  5.64145E-01  5.87312E-01  6.12951E-01  6.36964E-01  6.63407E-01  6.88190E-01  7.15367E-01  7.40854E-01  7.68702E-01
   7.94838E-01  8.23307E-01  8.50047E-01  8.79096E-01  9.06399E-01  9.35993E-01  9.63830E-01  9.93944E-01  1.02230E+00  1.05292E+00
   1.08177E+00  1.11289E+00  1.14226E+00  1.17389E+00  1.20378E+00  1.23595E+00  1.26640E+00  1.29915E+00
 NY background values follow
    -1.582E+01   -1.579E+01   -1.576E+01   -1.572E+01   -1.569E+01   -1.566E+01   -1.562E+01   -1.559E+01   -1.556E+01   -1.553E+01
    -1.549E+01   -1.546E+01   -1.543E+01   -1.539E+01   -1.536E+01   -1.533E+01   -1.530E+01   -1.526E+01   -1.523E+01   -1.520E+01
    -1.516E+01   -1.513E+01   -1.510E+01   -1.506E+01   -1.503E+01   -1.500E+01   -1.496E+01   -1.493E+01   -1.490E+01   -1.487E+01
    -1.483E+01   -1.480E+01   -1.477E+01   -1.473E+01   -1.470E+01   -1.467E+01   -1.463E+01   -1.460E+01   -1.457E+01   -1.453E+01
    -1.450E+01   -1.447E+01   -1.443E+01   -1.440E+01   -1.437E+01   -1.433E+01   -1.430E+01   -1.427E+01   -1.423E+01   -1.420E+01
    -1.417E+01   -1.413E+01   -1.410E+01   -1.407E+01   -1.403E+01   -1.400E+01   -1.397E+01   -1.393E+01   -1.390E+01   -1.387E+01
    -1.383E+01   -1.380E+01   -1.377E+01   -1.373E+01   -1.370E+01   -1.366E+01   -1.363E+01   -1.360E+01   -1.356E+01   -1.353E+01
    -1.350E+01   -1.346E+01   -1.343E+01   -1.340E+01   -1.336E+01   -1.333E+01   -1.330E+01   -1.326E+01   -1.323E+01   -1.319E+01
    -1.316E+01   -1.313E+01   -1.309E+01   -1.306E+01   -1.303E+01   -1.299E+01   -1.296E+01   -1.292E+01   -1.289E+01   -1.286E+01
    -1.282E+01   -1.279E+01   -1.276E+01   -1.272E+01   -1.269E+01   -1.265E+01   -1.262E+01   -1.259E+01   -1.255E+01   -1.252E+01
    -1.248E+01   -1.245E+01   -1.242E+01   -1.238E+01   -1.235E+01   -1.231E+01   -1.228E+01   -1.225E+01   -1.221E+01   -1.218E+01
    -1.214E+01   -1.211E+01   -1.208E+01   -1.204E+01   -1.201E+01   -1.197E+01   -1.194E+01   -1.191E+01   -1.187E+01   -1.184E+01
    -1.180E+01   -1.177E+01   -1.174E+01   -1.170E+01   -1.167E+01   -1.163E+01   -1.160E+01   -1.157E+01   -1.153E+01   -1.150E+01
    -1.146E+01   -1.143E+01   -1.140E+01   -1.136E+01   -1.133E+01   -1.129E+01   -1.126E+01   -1.122E+01   -1.119E+01   -1.116E+01
    -1.112E+01   -1.109E+01   -1.105E+01   -1.102E+01   -1.098E+01   -1.095E+01   -1.092E+01   -1.088E+01   -1.085E+01   -1.081E+01
    -1.078E+01   -1.074E+01   -1.071E+01   -1.068E+01   -1.064E+01   -1.061E+01   -1.057E+01   -1.054E+01   -1.050E+01   -1.047E+01
    -1.044E+01   -1.040E+01   -1.037E+01   -1.033E+01   -1.030E+01   -1.026E+01   -1.023E+01   -1.019E+01   -1.016E+01   -1.013E+01
    -1.009E+01   -1.006E+01   -1.002E+01   -9.988E+00   -9.953E+00   -9.919E+00   -9.884E+00   -9.850E+00   -9.815E+00   -9.781E+00
    -9.746E+00   -9.712E+00   -9.677E+00   -9.643E+00   -9.608E+00   -9.574E+00   -9.539E+00   -9.505E+00   -9.470E+00   -9.435E+00
    -9.401E+00   -9.366E+00   -9.332E+00   -9.297E+00   -9.262E+00   -9.228E+00   -9.193E+00   -9.159E+00   -9.124E+00   -9.089E+00
    -9.055E+00   -9.020E+00   -8.985E+00   -8.951E+00   -8.916E+00   -8.882E+00   -8.847E+00   -8.812E+00   -8.778E+00   -8.743E+00
    -8.708E+00   -8.673E+00   -8.639E+00   -8.604E+00   -8.569E+00   -8.535E+00   -8.500E+00   -8.465E+00   -8.430E+00   -8.396E+00
    -8.361E+00   -8.326E+00   -8.292E+00   -8.257E+00   -8.222E+00   -8.187E+00   -8.153E+00   -8.118E+00   -8.083E+00   -8.048E+00
    -8.013E+00   -7.979E+00   -7.944E+00   -7.909E+00   -7.874E+00   -7.839E+00   -7.805E+00   -7.770E+00   -7.735E+00   -7.700E+00
    -7.665E+00   -7.631E+00   -7.596E+00   -7.561E+00   -7.526E+00   -7.491E+00   -7.456E+00   -7.422E+00   -7.387E+00   -7.352E+00
    -7.317E+00   -7.282E+00   -7.247E+00   -7.212E+00   -7.177E+00   -7.143E+00   -7.108E+00   -7.073E+00   -7.038E+00   -7.003E+00
    -6.968E+00   -6.933E+00   -6.898E+00   -6.863E+00   -6.829E+00   -6.794E+00   -6.759E+00   -6.724E+00   -6.689E+00   -6.654E+00
    -6.619E+00   -6.584E+00   -6.549E+00   -6.514E+00   -6.479E+00   -6.444E+00   -6.409E+00   -6.374E+00   -6.339E+00   -6.305E+00
    -6.270E+00   -6.235E+00   -6.200E+00   -6.165E+00   -6.130E+00   -6.095E+00   -6.060E+00   -6.025E+00   -5.990E+00   -5.955E+00
    -5.920E+00   -5.885E+00   -5.850E+00   -5.815E+00   -5.780E+00   -5.745E+00   -5.710E+00   -5.675E+00   -5.640E+00   -5.605E+00
    -5.570E+00   -5.535E+00   -5.500E+00   -5.465E+00   -5.430E+00   -5.395E+00   -5.360E+00   -5.325E+00   -5.290E+00   -5.255E+00
    -5.220E+00   -5.185E+00   -5.150E+00   -5.115E+00   -5.080E+00   -5.045E+00   -5.010E+00   -4.975E+00   -4.940E+00   -4.905E+00
    -4.870E+00   -4.835E+00   -4.800E+00   -4.765E+00   -4.730E+00   -4.695E+00   -4.660E+00   -4.625E+00   -4.590E+00   -4.555E+00
    -4.520E+00   -4.485E+00   -4.449E+00   -4.414E+00   -4.379E+00   -4.344E+00   -4.309E+00   -4.274E+00   -4.239E+00   -4.204E+00
    -4.169E+00   -4.134E+00   -4.099E+00   -4.064E+00   -4.029E+00   -3.994E+00   -3.959E+00   -3.924E+00   -3.889E+00   -3.854E+00
    -3.819E+00   -3.784E+00   -3.749E+00   -3.714E+00   -3.679E+00   -3.644E+00   -3.609E+00   -3.574E+00   -3.539E+00   -3.504E+00
    -3.468E+00   -3.433E+00   -3.398E+00   -3.363E+00   -3.328E+00   -3.293E+00   -3.258E+00   -3.223E+00   -3.188E+00   -3.153E+00
    -3.118E+00   -3.083E+00   -3.048E+00   -3.013E+00   -2.978E+00   -2.943E+00   -2.908E+00   -2.873E+00   -2.838E+00   -2.803E+00
    -2.768E+00   -2.733E+00   -2.698E+00   -2.663E+00   -2.628E+00   -2.593E+00   -2.558E+00   -2.523E+00   -2.488E+00   -2.453E+00
    -2.418E+00   -2.383E+00   -2.348E+00   -2.313E+00   -2.278E+00   -2.243E+00   -2.208E+00   -2.173E+00   -2.138E+00   -2.103E+00
    -2.068E+00   -2.033E+00   -1.998E+00   -1.963E+00   -1.928E+00   -1.893E+00   -1.858E+00   -1.823E+00   -1.788E+00   -1.753E+00
    -1.718E+00   -1.683E+00   -1.648E+00   -1.613E+00   -1.579E+00   -1.544E+00   -1.509E+00   -1.474E+00   -1.439E+00   -1.404E+00
    -1.369E+00   -1.334E+00   -1.299E+00   -1.264E+00   -1.229E+00   -1.194E+00   -1.159E+00   -1.124E+00   -1.089E+00   -1.055E+00
    -1.020E+00   -9.848E-01   -9.499E-01   -9.150E-01   -8.801E-01   -8.452E-01   -8.103E-01   -7.754E-01   -7.406E-01   -7.057E-01
    -6.708E-01   -6.360E-01   -6.011E-01   -5.662E-01   -5.314E-01   -4.965E-01   -4.617E-01   -4.268E-01   -3.920E-01   -3.571E-01
    -3.223E-01   -2.875E-01   -2.527E-01   -2.178E-01   -1.830E-01   -1.482E-01   -1.134E-01   -7.859E-02   -4.379E-02   -8.989E-03
     2.580E-02    6.059E-02    9.538E-02    1.302E-01    1.649E-01    1.997E-01    2.345E-01    2.692E-01    3.040E-01    3.387E-01
     3.735E-01    4.082E-01    4.430E-01    4.777E-01    5.124E-01    5.472E-01    5.819E-01    6.166E-01    6.513E-01    6.860E-01
     7.207E-01    7.554E-01    7.901E-01    8.248E-01    8.595E-01    8.941E-01    9.288E-01    9.635E-01    9.981E-01    1.033E+00
     1.067E+00    1.102E+00    1.137E+00    1.171E+00    1.206E+00    1.241E+00    1.275E+00    1.310E+00
 Asp      Conc. = 1.21E+02
