 LCModel (Version 6.3-1L) Copyright: S.W. Provencher.          Ref.: Magn. Reson. Med. 30:672-679 (1993).                
 Slice#2 Row#11 Col#5  PD_24_press_2_raw_act
 36 lines in following concentration table = NCONC+1
    Conc.  %SD /Cr+PCr  Metabolite                                         
    0.000 999%   0.000 Ala                                                 
  120.097  20%   0.000 Asp                                                 
    0.000 999%   0.000 Cr                                                  
    0.000 999%   0.000 PCr                                                 
   53.225  64%   0.000 GABA                                                
    0.000 999%   0.000 Glc                                                 
    0.000 999%   0.000 Gln                                                 
  102.891  31%   0.000 Glu                                                 
    0.000 999%   0.000 GPC                                                 
    0.000 999%   0.000 PCh                                                 
    0.000 999%   0.000 GSH                                                 
  145.875  17%   0.000 Ins                                                 
   19.110  84%   0.000 Lac                                                 
   19.647  25%   0.000 NAA                                                 
    0.000 999%   0.000 NAAG                                                
   19.624  14%   0.000 Scyllo                                              
  220.900  14%   0.000 Tau                                                 
   39.735  19%   0.000 -CrCH2                                              
    0.000 999%   0.000 GPC+PCh                                             
   19.647  25%   0.000 NAA+NAAG                                            
    0.000 999%   0.000 Cr+PCr                                              
  102.891  31%   0.000 Glu+Gln                                             
 2.97E+03  13%   0.000 Lip13a                                              
    0.000 999%   0.000 Lip13b                                              
    0.000 999%   0.000 Lip09                                               
 2.60E+03   9%   0.000 MM09                                                
  486.343  37%   0.000 Lip20                                               
 3.73E+03   8%   0.000 MM20                                                
  799.181  11%   0.000 MM12                                                
 2.59E+03   9%   0.000 MM14                                                
 1.83E+03   7%   0.000+MM17                                                
 2.97E+03  13%   0.000 Lip13a+Lip13b                                       
 6.36E+03   7%   0.000 MM14+Lip13a+Lip13b+MM12                             
 2.60E+03   9%   0.000 MM09+Lip09                                          
 4.22E+03   7%   0.000 MM20+Lip20                                          
   6 lines in following misc. output table
  FWHM = 0.076 ppm    S/N =   4                                            
  Data shift = 0.122 ppm                                                   
  Ph:  75 deg      32.1 deg/ppm                                            
  alphaB,S = 2.3E+00,   5.7E+00                                            
    8 spline knots.   Ns = 9(2)                                            
   3 inflections.     2 extrema                                            
  498 points on ppm-axis = NY
      4.000000     3.992357     3.984714     3.977070     3.969427     3.961784     3.954141     3.946497     3.938854     3.931211
      3.923568     3.915925     3.908281     3.900638     3.892995     3.885352     3.877708     3.870065     3.862422     3.854779
      3.847136     3.839492     3.831849     3.824206     3.816563     3.808919     3.801276     3.793633     3.785990     3.778347
      3.770703     3.763060     3.755417     3.747774     3.740130     3.732487     3.724844     3.717201     3.709558     3.701914
      3.694271     3.686628     3.678985     3.671341     3.663698     3.656055     3.648412     3.640769     3.633125     3.625482
      3.617839     3.610196     3.602552     3.594909     3.587266     3.579623     3.571980     3.564336     3.556693     3.549050
      3.541407     3.533763     3.526120     3.518477     3.510834     3.503191     3.495547     3.487904     3.480261     3.472618
      3.464974     3.457331     3.449688     3.442045     3.434402     3.426758     3.419115     3.411472     3.403829     3.396185
      3.388542     3.380899     3.373256     3.365613     3.357969     3.350326     3.342683     3.335040     3.327396     3.319753
      3.312110     3.304467     3.296824     3.289180     3.281537     3.273894     3.266251     3.258607     3.250964     3.243321
      3.235678     3.228034     3.220391     3.212748     3.205105     3.197462     3.189818     3.182175     3.174532     3.166889
      3.159245     3.151602     3.143959     3.136316     3.128673     3.121029     3.113386     3.105743     3.098100     3.090456
      3.082813     3.075170     3.067527     3.059884     3.052240     3.044597     3.036954     3.029311     3.021667     3.014024
      3.006381     2.998738     2.991095     2.983451     2.975808     2.968165     2.960522     2.952878     2.945235     2.937592
      2.929949     2.922306     2.914662     2.907019     2.899376     2.891733     2.884089     2.876446     2.868803     2.861160
      2.853517     2.845873     2.838230     2.830587     2.822944     2.815300     2.807657     2.800014     2.792371     2.784728
      2.777084     2.769441     2.761798     2.754155     2.746511     2.738868     2.731225     2.723582     2.715939     2.708295
      2.700652     2.693009     2.685366     2.677722     2.670079     2.662436     2.654793     2.647150     2.639506     2.631863
      2.624220     2.616577     2.608933     2.601290     2.593647     2.586004     2.578361     2.570717     2.563074     2.555431
      2.547788     2.540144     2.532501     2.524858     2.517215     2.509572     2.501928     2.494285     2.486642     2.478999
      2.471355     2.463712     2.456069     2.448426     2.440783     2.433139     2.425496     2.417853     2.410210     2.402566
      2.394923     2.387280     2.379637     2.371994     2.364350     2.356707     2.349064     2.341421     2.333777     2.326134
      2.318491     2.310848     2.303205     2.295561     2.287918     2.280275     2.272632     2.264988     2.257345     2.249702
      2.242059     2.234416     2.226772     2.219129     2.211486     2.203843     2.196199     2.188556     2.180913     2.173270
      2.165627     2.157983     2.150340     2.142697     2.135054     2.127410     2.119767     2.112124     2.104481     2.096838
      2.089194     2.081551     2.073908     2.066265     2.058621     2.050978     2.043335     2.035692     2.028049     2.020405
      2.012762     2.005119     1.997476     1.989833     1.982190     1.974546     1.966903     1.959260     1.951617     1.943974
      1.936331     1.928688     1.921045     1.913402     1.905759     1.898115     1.890472     1.882829     1.875186     1.867543
      1.859900     1.852257     1.844614     1.836971     1.829327     1.821684     1.814041     1.806398     1.798755     1.791112
      1.783469     1.775826     1.768183     1.760540     1.752896     1.745253     1.737610     1.729967     1.722324     1.714681
      1.707038     1.699395     1.691752     1.684108     1.676465     1.668822     1.661179     1.653536     1.645893     1.638250
      1.630607     1.622964     1.615321     1.607677     1.600034     1.592391     1.584748     1.577105     1.569462     1.561819
      1.554176     1.546533     1.538890     1.531246     1.523603     1.515960     1.508317     1.500674     1.493031     1.485388
      1.477745     1.470102     1.462458     1.454815     1.447172     1.439529     1.431886     1.424243     1.416600     1.408957
      1.401314     1.393671     1.386027     1.378384     1.370741     1.363098     1.355455     1.347812     1.340169     1.332526
      1.324883     1.317240     1.309596     1.301953     1.294310     1.286667     1.279024     1.271381     1.263738     1.256095
      1.248452     1.240808     1.233165     1.225522     1.217879     1.210236     1.202593     1.194950     1.187307     1.179664
      1.172021     1.164377     1.156734     1.149091     1.141448     1.133805     1.126162     1.118519     1.110876     1.103233
      1.095590     1.087946     1.080303     1.072660     1.065017     1.057374     1.049731     1.042088     1.034445     1.026802
      1.019158     1.011515     1.003872     0.996229     0.988586     0.980943     0.973300     0.965657     0.958014     0.950371
      0.942727     0.935084     0.927441     0.919798     0.912155     0.904512     0.896869     0.889226     0.881583     0.873940
      0.866296     0.858653     0.851010     0.843367     0.835724     0.828081     0.820438     0.812795     0.805152     0.797508
      0.789865     0.782222     0.774579     0.766936     0.759293     0.751650     0.744007     0.736364     0.728721     0.721077
      0.713434     0.705791     0.698148     0.690505     0.682862     0.675219     0.667576     0.659933     0.652290     0.644646
      0.637003     0.629360     0.621717     0.614074     0.606431     0.598788     0.591145     0.583502     0.575858     0.568215
      0.560572     0.552929     0.545286     0.537643     0.530000     0.522357     0.514714     0.507071     0.499427     0.491784
      0.484141     0.476498     0.468855     0.461212     0.453569     0.445925     0.438282     0.430639     0.422996     0.415353
      0.407710     0.400067     0.392424     0.384780     0.377137     0.369494     0.361851     0.354208     0.346565     0.338922
      0.331278     0.323635     0.315992     0.308349     0.300706     0.293063     0.285420     0.277777     0.270133     0.262490
      0.254847     0.247204     0.239561     0.231918     0.224275     0.216631     0.208988     0.201345
 NY phased data points follow
   2.34224E+02  2.32713E+02  2.30971E+02  2.28506E+02  2.23823E+02  2.19577E+02  2.17031E+02  2.11012E+02  2.04287E+02  2.05137E+02
   2.01573E+02  1.95769E+02  1.92719E+02  1.92696E+02  1.87616E+02  1.87122E+02  1.81375E+02  1.79917E+02  1.76163E+02  1.77936E+02
   1.73184E+02  1.70942E+02  1.70852E+02  1.68773E+02  1.64071E+02  1.66470E+02  1.60084E+02  1.59631E+02  1.55537E+02  1.55396E+02
   1.53995E+02  1.53411E+02  1.48944E+02  1.49863E+02  1.43423E+02  1.46138E+02  1.44727E+02  1.40570E+02  1.39514E+02  1.42226E+02
   1.37770E+02  1.31975E+02  1.32282E+02  1.32041E+02  1.27196E+02  1.29807E+02  1.28271E+02  1.26420E+02  1.20168E+02  1.25918E+02
   1.16916E+02  1.16195E+02  1.11971E+02  1.14637E+02  1.12507E+02  1.11738E+02  1.11116E+02  1.09120E+02  1.04660E+02  1.07591E+02
   1.02745E+02  1.05649E+02  9.81761E+01  9.97504E+01  9.72804E+01  9.82898E+01  9.34014E+01  9.65698E+01  8.97455E+01  9.30911E+01
   9.14264E+01  8.99628E+01  8.42948E+01  8.74762E+01  8.52210E+01  8.42098E+01  8.37552E+01  8.39830E+01  8.26624E+01  8.20465E+01
   7.99769E+01  7.91888E+01  7.39375E+01  7.65839E+01  7.55277E+01  7.33992E+01  6.91766E+01  7.42530E+01  7.06372E+01  7.05942E+01
   6.79040E+01  6.83359E+01  6.78782E+01  7.11390E+01  6.49498E+01  6.86863E+01  6.71065E+01  6.41238E+01  6.52373E+01  6.48561E+01
   6.06883E+01  6.21582E+01  6.26580E+01  5.74229E+01  5.56370E+01  5.48115E+01  5.46345E+01  5.18247E+01  5.26526E+01  4.75418E+01
   4.74406E+01  4.84525E+01  4.97027E+01  4.98454E+01  4.88575E+01  5.25923E+01  5.09203E+01  5.17709E+01  4.80009E+01  5.12036E+01
   4.71236E+01  4.82655E+01  4.62796E+01  4.78655E+01  4.40189E+01  4.35438E+01  4.14076E+01  4.26623E+01  4.00150E+01  3.99708E+01
   3.90957E+01  3.75316E+01  3.42150E+01  3.70730E+01  3.47242E+01  3.39199E+01  3.54723E+01  3.10642E+01  3.31780E+01  3.02351E+01
   3.00157E+01  3.12306E+01  2.77082E+01  2.77663E+01  2.83242E+01  3.00072E+01  2.76128E+01  2.80331E+01  2.72774E+01  2.52167E+01
   2.48217E+01  2.44173E+01  2.23426E+01  2.40044E+01  2.32546E+01  2.61049E+01  2.39894E+01  2.15499E+01  2.11848E+01  2.06596E+01
   1.33722E+01  1.54919E+01  1.22447E+01  9.83909E+00  8.37732E+00  1.36711E+01  8.63752E+00  1.39937E+01  9.11215E+00  8.62698E+00
   6.86361E+00  5.69968E+00  6.63345E+00  5.66652E+00  5.09049E+00  5.02532E+00  2.33848E+00  7.08988E+00  4.59564E+00  7.08529E+00
   3.44271E+00  4.30286E+00  9.56881E-01  3.39824E+00  1.72580E+00  8.43641E-01  2.36733E+00  1.32460E+00  5.73747E-01 -5.48609E-01
  -2.53349E+00 -6.67559E-02 -1.58793E+00 -3.27918E+00 -6.92591E+00 -2.04224E+00 -6.36200E+00 -5.09411E+00 -9.06212E+00 -6.80189E+00
  -4.67721E+00 -4.32068E+00 -6.86259E+00 -4.84618E+00 -5.27939E+00 -3.87984E+00 -7.58096E+00 -8.28354E+00 -7.02353E+00 -6.32461E+00
  -6.62148E+00 -8.75955E+00 -9.96077E+00 -9.34670E+00 -9.87597E+00 -6.06276E+00 -1.13450E+01 -7.98998E+00 -8.11585E+00 -7.98982E+00
  -5.97397E+00 -1.42694E+01 -1.20384E+01 -8.88990E+00 -1.20176E+01 -1.26797E+01 -1.65674E+01 -1.35652E+01 -1.60996E+01 -1.41432E+01
  -1.34646E+01 -1.77637E+01 -1.58890E+01 -1.73884E+01 -1.81758E+01 -1.93243E+01 -1.76990E+01 -1.87551E+01 -1.52676E+01 -1.79034E+01
  -1.88580E+01 -1.65105E+01 -2.10353E+01 -1.68973E+01 -1.72989E+01 -1.24052E+01 -9.73578E+00 -8.75276E+00 -9.13683E+00 -1.09816E+01
  -1.21776E+01 -1.76060E+01 -1.75762E+01 -1.74054E+01 -1.84621E+01 -1.89701E+01 -2.33637E+01 -2.42543E+01 -2.86782E+01 -2.37522E+01
  -2.67752E+01 -2.80980E+01 -2.62083E+01 -2.30402E+01 -2.61296E+01 -2.52154E+01 -2.66544E+01 -2.65996E+01 -2.84425E+01 -2.75206E+01
  -3.12318E+01 -2.94278E+01 -3.23621E+01 -3.36641E+01 -3.52145E+01 -3.37332E+01 -3.64917E+01 -3.74509E+01 -4.05260E+01 -3.99677E+01
  -3.96337E+01 -4.15908E+01 -4.00610E+01 -4.20994E+01 -3.95393E+01 -4.39875E+01 -4.68278E+01 -4.77005E+01 -4.81957E+01 -4.97249E+01
  -4.59470E+01 -4.60855E+01 -4.92933E+01 -4.57901E+01 -4.67773E+01 -4.39368E+01 -4.41742E+01 -4.07363E+01 -4.22163E+01 -3.87858E+01
  -3.84804E+01 -3.36498E+01 -3.49588E+01 -3.51876E+01 -3.57700E+01 -3.61270E+01 -3.03350E+01 -3.33366E+01 -3.38513E+01 -3.46951E+01
  -3.07426E+01 -3.06506E+01 -3.37812E+01 -3.17975E+01 -3.46204E+01 -3.21294E+01 -3.49843E+01 -3.38085E+01 -3.64996E+01 -3.64692E+01
  -3.66468E+01 -3.70198E+01 -3.81868E+01 -3.91164E+01 -3.83028E+01 -4.03744E+01 -3.59024E+01 -3.93313E+01 -4.01888E+01 -3.74367E+01
  -3.83740E+01 -3.59366E+01 -3.60910E+01 -4.11834E+01 -3.81787E+01 -3.55996E+01 -3.86181E+01 -3.78100E+01 -3.90330E+01 -3.53211E+01
  -4.04819E+01 -3.58885E+01 -4.02510E+01 -3.95125E+01 -4.03381E+01 -3.89293E+01 -4.23094E+01 -4.26639E+01 -4.05210E+01 -4.07041E+01
  -4.34151E+01 -3.94303E+01 -4.25753E+01 -4.13513E+01 -4.26001E+01 -4.34474E+01 -4.35572E+01 -4.33975E+01 -4.13797E+01 -4.21466E+01
  -4.22520E+01 -4.13975E+01 -4.43225E+01 -4.20487E+01 -4.13692E+01 -4.25252E+01 -4.22397E+01 -4.15918E+01 -4.30411E+01 -4.22530E+01
  -4.14165E+01 -3.92703E+01 -4.21644E+01 -4.36116E+01 -4.33066E+01 -4.42651E+01 -4.29568E+01 -4.20019E+01 -4.33393E+01 -4.57478E+01
  -4.49274E+01 -4.52094E+01 -4.51240E+01 -4.14401E+01 -4.33300E+01 -4.51313E+01 -4.61574E+01 -4.43831E+01 -4.30781E+01 -4.61428E+01
  -4.75855E+01 -4.34434E+01 -4.42467E+01 -4.37997E+01 -4.56226E+01 -4.65500E+01 -4.43449E+01 -4.45152E+01 -4.73078E+01 -4.26983E+01
  -4.74557E+01 -4.54139E+01 -4.46076E+01 -4.72678E+01 -4.24187E+01 -4.38925E+01 -4.62961E+01 -4.47013E+01 -4.46439E+01 -4.36332E+01
  -4.37686E+01 -4.18162E+01 -4.49624E+01 -4.11202E+01 -4.34209E+01 -4.55429E+01 -4.49262E+01 -4.19218E+01 -4.50858E+01 -4.48387E+01
  -4.45199E+01 -4.83025E+01 -4.42033E+01 -4.38276E+01 -4.68626E+01 -4.69836E+01 -4.48445E+01 -4.74006E+01 -4.53758E+01 -4.27748E+01
  -4.37902E+01 -4.45639E+01 -4.10836E+01 -4.48115E+01 -4.49407E+01 -4.44818E+01 -4.19942E+01 -4.43531E+01 -4.59708E+01 -4.42645E+01
  -4.22904E+01 -4.58117E+01 -4.40163E+01 -4.41605E+01 -4.51646E+01 -4.30670E+01 -4.38276E+01 -4.48331E+01 -4.09873E+01 -4.15524E+01
  -4.49541E+01 -4.29207E+01 -4.51892E+01 -4.69814E+01 -4.49884E+01 -4.52702E+01 -4.72650E+01 -4.47270E+01 -4.27179E+01 -4.06383E+01
  -4.36245E+01 -4.04605E+01 -4.38266E+01 -4.09116E+01 -4.40083E+01 -4.38626E+01 -4.09382E+01 -3.97872E+01 -4.08762E+01 -4.22496E+01
  -4.24014E+01 -3.79866E+01 -3.95935E+01 -4.12730E+01 -3.87302E+01 -3.94755E+01 -3.98808E+01 -3.82160E+01 -3.79542E+01 -3.95813E+01
  -4.14757E+01 -3.74370E+01 -4.18542E+01 -3.92949E+01 -3.78518E+01 -3.71781E+01 -3.71186E+01 -3.99078E+01 -3.41338E+01 -3.83236E+01
  -3.54505E+01 -3.58244E+01 -3.72671E+01 -3.59916E+01 -3.54977E+01 -3.67659E+01 -3.68548E+01 -3.66156E+01
 NY points of the fit to the data follow
   2.29419E+02  2.27352E+02  2.26733E+02  2.24001E+02  2.22364E+02  2.19082E+02  2.16169E+02  2.12645E+02  2.08698E+02  2.05302E+02
   2.00978E+02  1.98032E+02  1.93669E+02  1.91043E+02  1.86944E+02  1.84570E+02  1.80562E+02  1.78692E+02  1.75339E+02  1.73793E+02
   1.71060E+02  1.69802E+02  1.67651E+02  1.66410E+02  1.64734E+02  1.63323E+02  1.61855E+02  1.60236E+02  1.58838E+02  1.56760E+02
   1.54898E+02  1.53079E+02  1.51376E+02  1.49830E+02  1.48209E+02  1.46491E+02  1.44648E+02  1.42508E+02  1.40626E+02  1.38314E+02
   1.36455E+02  1.34136E+02  1.32434E+02  1.30635E+02  1.29400E+02  1.28082E+02  1.27108E+02  1.26009E+02  1.24974E+02  1.23756E+02
   1.22374E+02  1.20877E+02  1.19232E+02  1.17724E+02  1.16097E+02  1.14643E+02  1.12855E+02  1.11370E+02  1.08885E+02  1.07292E+02
   1.04596E+02  1.03152E+02  1.00279E+02  9.92547E+01  9.63625E+01  9.55503E+01  9.27808E+01  9.21958E+01  9.02213E+01  8.97453E+01
   8.85538E+01  8.79354E+01  8.75552E+01  8.65397E+01  8.67164E+01  8.50926E+01  8.54995E+01  8.33084E+01  8.33316E+01  8.08570E+01
   8.03177E+01  7.80695E+01  7.70280E+01  7.59754E+01  7.47457E+01  7.46756E+01  7.30544E+01  7.35944E+01  7.17233E+01  7.27448E+01
   7.06614E+01  7.15766E+01  6.93771E+01  6.98799E+01  6.77536E+01  6.78350E+01  6.62143E+01  6.54582E+01  6.50929E+01  6.38436E+01
   6.37112E+01  6.13389E+01  6.11913E+01  5.76965E+01  5.78429E+01  5.47244E+01  5.54669E+01  5.28295E+01  5.37868E+01  5.20262E+01
   5.29717E+01  5.15660E+01  5.21513E+01  5.11259E+01  5.14109E+01  5.09503E+01  5.03568E+01  4.98990E+01  4.84340E+01  4.79272E+01
   4.59713E+01  4.59478E+01  4.42902E+01  4.39622E+01  4.24435E+01  4.19902E+01  4.04410E+01  3.98234E+01  3.86329E+01  3.79300E+01
   3.71064E+01  3.65183E+01  3.58940E+01  3.52525E+01  3.47385E+01  3.39729E+01  3.34792E+01  3.26016E+01  3.20587E+01  3.11248E+01
   3.04870E+01  2.95398E+01  2.88844E+01  2.79642E+01  2.73628E+01  2.64499E+01  2.59360E+01  2.51195E+01  2.46727E+01  2.38929E+01
   2.35387E+01  2.28082E+01  2.26519E+01  2.18885E+01  2.17130E+01  2.07286E+01  2.03081E+01  1.90455E+01  1.84768E+01  1.69838E+01
   1.62235E+01  1.47207E+01  1.38385E+01  1.24884E+01  1.14422E+01  1.03584E+01  9.30157E+00  8.60323E+00  7.76790E+00  7.42695E+00
   6.66723E+00  6.58598E+00  5.91269E+00  6.05606E+00  5.49503E+00  5.76918E+00  5.22316E+00  5.36336E+00  4.86047E+00  4.83701E+00
   4.41756E+00  4.24149E+00  3.81421E+00  3.64141E+00  3.19569E+00  3.00523E+00  2.39703E+00  2.13291E+00  1.36646E+00  1.13402E+00
   3.24077E-01  1.93267E-02 -7.77191E-01 -1.14426E+00 -1.91982E+00 -2.40429E+00 -3.09480E+00 -3.67869E+00 -4.32345E+00 -5.12327E+00
  -5.45088E+00 -6.29243E+00 -6.32366E+00 -7.15882E+00 -6.99155E+00 -7.83242E+00 -7.58317E+00 -8.54385E+00 -8.24253E+00 -9.22300E+00
  -8.77467E+00 -9.61749E+00 -8.91726E+00 -9.47843E+00 -8.92174E+00 -9.40090E+00 -9.14121E+00 -9.49148E+00 -9.72295E+00 -1.00159E+01
  -1.06872E+01 -1.08309E+01 -1.17791E+01 -1.16795E+01 -1.28660E+01 -1.26437E+01 -1.40463E+01 -1.39319E+01 -1.53902E+01 -1.53595E+01
  -1.66589E+01 -1.65556E+01 -1.74615E+01 -1.72236E+01 -1.76131E+01 -1.73718E+01 -1.72905E+01 -1.69957E+01 -1.64024E+01 -1.59291E+01
  -1.52394E+01 -1.47854E+01 -1.43141E+01 -1.41251E+01 -1.38266E+01 -1.38706E+01 -1.37404E+01 -1.38590E+01 -1.39829E+01 -1.44140E+01
  -1.49526E+01 -1.58060E+01 -1.66945E+01 -1.79752E+01 -1.88371E+01 -2.02665E+01 -2.08908E+01 -2.22813E+01 -2.25929E+01 -2.37286E+01
  -2.37605E+01 -2.45586E+01 -2.45408E+01 -2.51423E+01 -2.53145E+01 -2.58672E+01 -2.63152E+01 -2.67489E+01 -2.75331E+01 -2.79196E+01
  -2.91554E+01 -2.95801E+01 -3.11355E+01 -3.16603E+01 -3.34024E+01 -3.40102E+01 -3.57468E+01 -3.64630E+01 -3.80809E+01 -3.88758E+01
  -4.02730E+01 -4.11094E+01 -4.19040E+01 -4.24476E+01 -4.30249E+01 -4.34352E+01 -4.38060E+01 -4.41046E+01 -4.43529E+01 -4.45482E+01
  -4.46391E+01 -4.47427E+01 -4.46971E+01 -4.45989E+01 -4.43456E+01 -4.39868E+01 -4.34533E+01 -4.27915E+01 -4.19657E+01 -4.10525E+01
  -4.00794E+01 -3.90500E+01 -3.80449E+01 -3.70613E+01 -3.61669E+01 -3.53597E+01 -3.47031E+01 -3.41544E+01 -3.37906E+01 -3.35722E+01
  -3.35417E+01 -3.36485E+01 -3.39109E+01 -3.42859E+01 -3.47488E+01 -3.52722E+01 -3.58176E+01 -3.63544E+01 -3.68508E+01 -3.72851E+01
  -3.76384E+01 -3.79029E+01 -3.80752E+01 -3.81618E+01 -3.81731E+01 -3.81267E+01 -3.80417E+01 -3.79446E+01 -3.78637E+01 -3.78394E+01
  -3.77914E+01 -3.77773E+01 -3.78364E+01 -3.79398E+01 -3.81287E+01 -3.83355E+01 -3.86333E+01 -3.89999E+01 -3.93941E+01 -3.96977E+01
  -4.00511E+01 -4.01953E+01 -4.04597E+01 -4.04105E+01 -4.05936E+01 -4.04752E+01 -4.06585E+01 -4.06024E+01 -4.08309E+01 -4.08920E+01
  -4.11498E+01 -4.12648E+01 -4.14759E+01 -4.15462E+01 -4.16739E+01 -4.17457E+01 -4.18034E+01 -4.19575E+01 -4.19500E+01 -4.21435E+01
  -4.21018E+01 -4.22781E+01 -4.21990E+01 -4.23511E+01 -4.22492E+01 -4.24260E+01 -4.23699E+01 -4.25555E+01 -4.25328E+01 -4.26550E+01
  -4.27664E+01 -4.30739E+01 -4.33063E+01 -4.37078E+01 -4.40104E+01 -4.44503E+01 -4.47766E+01 -4.50214E+01 -4.52078E+01 -4.53454E+01
  -4.54350E+01 -4.54806E+01 -4.54817E+01 -4.54426E+01 -4.53638E+01 -4.52506E+01 -4.51046E+01 -4.49321E+01 -4.47356E+01 -4.45221E+01
  -4.42946E+01 -4.40606E+01 -4.38232E+01 -4.35898E+01 -4.33631E+01 -4.31503E+01 -4.29534E+01 -4.27785E+01 -4.26268E+01 -4.25034E+01
  -4.24080E+01 -4.23442E+01 -4.23106E+01 -4.23094E+01 -4.23377E+01 -4.23964E+01 -4.24815E+01 -4.25927E+01 -4.27253E+01 -4.28782E+01
  -4.30461E+01 -4.32277E+01 -4.34175E+01 -4.36143E+01 -4.38127E+01 -4.40118E+01 -4.42067E+01 -4.43971E+01 -4.45786E+01 -4.47515E+01
  -4.49120E+01 -4.50612E+01 -4.51959E+01 -4.53176E+01 -4.54237E+01 -4.55161E+01 -4.55927E+01 -4.56557E+01 -4.57034E+01 -4.57381E+01
  -4.57582E+01 -4.57664E+01 -4.57611E+01 -4.57451E+01 -4.57167E+01 -4.56787E+01 -4.56296E+01 -4.55720E+01 -4.55045E+01 -4.54297E+01
  -4.53459E+01 -4.52559E+01 -4.51578E+01 -4.50543E+01 -4.49437E+01 -4.48284E+01 -4.47068E+01 -4.45812E+01 -4.44499E+01 -4.43152E+01
  -4.41754E+01 -4.40328E+01 -4.38856E+01 -4.37360E+01 -4.35822E+01 -4.34265E+01 -4.32669E+01 -4.31058E+01 -4.29412E+01 -4.27753E+01
  -4.26063E+01 -4.24363E+01 -4.22633E+01 -4.20897E+01 -4.19133E+01 -4.17365E+01 -4.15572E+01 -4.13776E+01 -4.11957E+01 -4.10137E+01
  -4.08296E+01 -4.06456E+01 -4.04597E+01 -4.02739E+01 -4.00864E+01 -3.98993E+01 -3.97104E+01 -3.95221E+01 -3.93323E+01 -3.91431E+01
  -3.89525E+01 -3.87627E+01 -3.85715E+01 -3.83812E+01 -3.81898E+01 -3.79993E+01 -3.78078E+01 -3.76174E+01 -3.74260E+01 -3.72357E+01
  -3.70447E+01 -3.68550E+01 -3.66645E+01 -3.64755E+01 -3.62859E+01 -3.60979E+01 -3.59095E+01 -3.57228E+01
 NY background values follow
     2.214E+02    2.190E+02    2.167E+02    2.144E+02    2.121E+02    2.098E+02    2.075E+02    2.052E+02    2.030E+02    2.008E+02
     1.985E+02    1.963E+02    1.942E+02    1.920E+02    1.898E+02    1.877E+02    1.856E+02    1.835E+02    1.814E+02    1.793E+02
     1.773E+02    1.752E+02    1.732E+02    1.712E+02    1.692E+02    1.672E+02    1.652E+02    1.633E+02    1.613E+02    1.594E+02
     1.575E+02    1.556E+02    1.537E+02    1.518E+02    1.500E+02    1.481E+02    1.463E+02    1.445E+02    1.427E+02    1.409E+02
     1.391E+02    1.374E+02    1.357E+02    1.339E+02    1.322E+02    1.305E+02    1.288E+02    1.272E+02    1.255E+02    1.239E+02
     1.222E+02    1.206E+02    1.190E+02    1.174E+02    1.159E+02    1.143E+02    1.128E+02    1.112E+02    1.097E+02    1.082E+02
     1.067E+02    1.052E+02    1.038E+02    1.023E+02    1.009E+02    9.943E+01    9.802E+01    9.662E+01    9.523E+01    9.386E+01
     9.250E+01    9.115E+01    8.981E+01    8.849E+01    8.718E+01    8.588E+01    8.460E+01    8.333E+01    8.207E+01    8.082E+01
     7.958E+01    7.836E+01    7.715E+01    7.596E+01    7.477E+01    7.360E+01    7.244E+01    7.129E+01    7.016E+01    6.903E+01
     6.792E+01    6.682E+01    6.574E+01    6.466E+01    6.360E+01    6.255E+01    6.151E+01    6.048E+01    5.946E+01    5.846E+01
     5.747E+01    5.649E+01    5.552E+01    5.456E+01    5.361E+01    5.268E+01    5.175E+01    5.084E+01    4.993E+01    4.904E+01
     4.816E+01    4.729E+01    4.643E+01    4.557E+01    4.473E+01    4.390E+01    4.308E+01    4.226E+01    4.146E+01    4.066E+01
     3.988E+01    3.910E+01    3.833E+01    3.757E+01    3.682E+01    3.608E+01    3.534E+01    3.461E+01    3.390E+01    3.318E+01
     3.248E+01    3.178E+01    3.110E+01    3.041E+01    2.974E+01    2.907E+01    2.841E+01    2.776E+01    2.711E+01    2.647E+01
     2.584E+01    2.521E+01    2.459E+01    2.397E+01    2.336E+01    2.275E+01    2.215E+01    2.156E+01    2.097E+01    2.039E+01
     1.981E+01    1.923E+01    1.866E+01    1.810E+01    1.754E+01    1.698E+01    1.643E+01    1.588E+01    1.533E+01    1.479E+01
     1.425E+01    1.372E+01    1.319E+01    1.266E+01    1.214E+01    1.161E+01    1.110E+01    1.058E+01    1.006E+01    9.553E+00
     9.043E+00    8.536E+00    8.030E+00    7.526E+00    7.024E+00    6.523E+00    6.024E+00    5.525E+00    5.028E+00    4.532E+00
     4.037E+00    3.542E+00    3.048E+00    2.554E+00    2.061E+00    1.567E+00    1.074E+00    5.802E-01    8.636E-02   -4.079E-01
    -9.027E-01   -1.398E+00   -1.895E+00   -2.392E+00   -2.890E+00   -3.390E+00   -3.891E+00   -4.394E+00   -4.898E+00   -5.404E+00
    -5.912E+00   -6.421E+00   -6.933E+00   -7.446E+00   -7.960E+00   -8.476E+00   -8.994E+00   -9.513E+00   -1.003E+01   -1.055E+01
    -1.108E+01   -1.160E+01   -1.212E+01   -1.265E+01   -1.317E+01   -1.370E+01   -1.423E+01   -1.475E+01   -1.528E+01   -1.581E+01
    -1.634E+01   -1.686E+01   -1.739E+01   -1.792E+01   -1.845E+01   -1.898E+01   -1.950E+01   -2.003E+01   -2.056E+01   -2.108E+01
    -2.161E+01   -2.213E+01   -2.266E+01   -2.318E+01   -2.370E+01   -2.422E+01   -2.474E+01   -2.526E+01   -2.578E+01   -2.630E+01
    -2.681E+01   -2.732E+01   -2.784E+01   -2.835E+01   -2.885E+01   -2.936E+01   -2.986E+01   -3.037E+01   -3.086E+01   -3.136E+01
    -3.186E+01   -3.235E+01   -3.284E+01   -3.333E+01   -3.381E+01   -3.430E+01   -3.478E+01   -3.525E+01   -3.573E+01   -3.620E+01
    -3.667E+01   -3.713E+01   -3.759E+01   -3.805E+01   -3.850E+01   -3.895E+01   -3.940E+01   -3.984E+01   -4.028E+01   -4.072E+01
    -4.115E+01   -4.158E+01   -4.200E+01   -4.242E+01   -4.283E+01   -4.324E+01   -4.365E+01   -4.405E+01   -4.445E+01   -4.484E+01
    -4.523E+01   -4.561E+01   -4.599E+01   -4.636E+01   -4.672E+01   -4.709E+01   -4.744E+01   -4.779E+01   -4.814E+01   -4.848E+01
    -4.881E+01   -4.914E+01   -4.946E+01   -4.978E+01   -5.009E+01   -5.040E+01   -5.069E+01   -5.099E+01   -5.127E+01   -5.155E+01
    -5.182E+01   -5.209E+01   -5.235E+01   -5.261E+01   -5.285E+01   -5.310E+01   -5.333E+01   -5.356E+01   -5.378E+01   -5.400E+01
    -5.421E+01   -5.442E+01   -5.462E+01   -5.481E+01   -5.500E+01   -5.518E+01   -5.536E+01   -5.553E+01   -5.570E+01   -5.586E+01
    -5.601E+01   -5.616E+01   -5.630E+01   -5.644E+01   -5.658E+01   -5.670E+01   -5.683E+01   -5.694E+01   -5.705E+01   -5.716E+01
    -5.726E+01   -5.736E+01   -5.745E+01   -5.754E+01   -5.762E+01   -5.770E+01   -5.777E+01   -5.784E+01   -5.790E+01   -5.796E+01
    -5.801E+01   -5.806E+01   -5.811E+01   -5.815E+01   -5.818E+01   -5.822E+01   -5.824E+01   -5.827E+01   -5.828E+01   -5.830E+01
    -5.831E+01   -5.832E+01   -5.832E+01   -5.832E+01   -5.831E+01   -5.830E+01   -5.829E+01   -5.827E+01   -5.825E+01   -5.822E+01
    -5.819E+01   -5.816E+01   -5.812E+01   -5.808E+01   -5.804E+01   -5.799E+01   -5.794E+01   -5.789E+01   -5.783E+01   -5.777E+01
    -5.771E+01   -5.764E+01   -5.757E+01   -5.750E+01   -5.742E+01   -5.734E+01   -5.726E+01   -5.718E+01   -5.709E+01   -5.700E+01
    -5.690E+01   -5.681E+01   -5.671E+01   -5.661E+01   -5.650E+01   -5.639E+01   -5.628E+01   -5.617E+01   -5.606E+01   -5.594E+01
    -5.582E+01   -5.570E+01   -5.558E+01   -5.545E+01   -5.532E+01   -5.519E+01   -5.506E+01   -5.492E+01   -5.479E+01   -5.465E+01
    -5.451E+01   -5.436E+01   -5.422E+01   -5.407E+01   -5.393E+01   -5.378E+01   -5.362E+01   -5.347E+01   -5.332E+01   -5.316E+01
    -5.300E+01   -5.284E+01   -5.268E+01   -5.251E+01   -5.235E+01   -5.218E+01   -5.202E+01   -5.185E+01   -5.167E+01   -5.150E+01
    -5.133E+01   -5.115E+01   -5.098E+01   -5.080E+01   -5.062E+01   -5.044E+01   -5.026E+01   -5.008E+01   -4.989E+01   -4.971E+01
    -4.952E+01   -4.933E+01   -4.915E+01   -4.896E+01   -4.877E+01   -4.857E+01   -4.838E+01   -4.819E+01   -4.800E+01   -4.780E+01
    -4.760E+01   -4.741E+01   -4.721E+01   -4.701E+01   -4.681E+01   -4.661E+01   -4.641E+01   -4.621E+01   -4.601E+01   -4.581E+01
    -4.561E+01   -4.540E+01   -4.520E+01   -4.499E+01   -4.479E+01   -4.458E+01   -4.438E+01   -4.417E+01   -4.397E+01   -4.376E+01
    -4.355E+01   -4.335E+01   -4.314E+01   -4.293E+01   -4.272E+01   -4.252E+01   -4.231E+01   -4.210E+01   -4.189E+01   -4.168E+01
    -4.147E+01   -4.127E+01   -4.106E+01   -4.085E+01   -4.064E+01   -4.043E+01   -4.023E+01   -4.002E+01   -3.981E+01   -3.960E+01
    -3.940E+01   -3.919E+01   -3.898E+01   -3.878E+01   -3.857E+01   -3.837E+01   -3.816E+01   -3.796E+01   -3.775E+01   -3.755E+01
    -3.735E+01   -3.714E+01   -3.694E+01   -3.674E+01   -3.654E+01   -3.634E+01   -3.614E+01   -3.594E+01
 Asp      Conc. = 1.20E+02
