 LCModel (Version 6.3-1L) Copyright: S.W. Provencher.          Ref.: Magn. Reson. Med. 30:672-679 (1993).                
 Slice#3 Row#4 Col#8  PD_24_press_2_raw_act
 36 lines in following concentration table = NCONC+1
    Conc.  %SD /Cr+PCr  Metabolite                                         
    0.000 999%   0.000 Ala                                                 
   73.999 536% 3.7E-02 Asp                                                 
  773.822  82%   0.389 Cr                                                  
 1.21E+03  54%   0.611 PCr                                                 
  109.456 237% 5.5E-02 GABA                                                
  172.412 146% 8.7E-02 Glc                                                 
 1.87E+03  42%   0.942 Gln                                                 
 2.38E+03  38%   1.196 Glu                                                 
  912.514   7%   0.459 GPC                                                 
    0.000 999%   0.000 PCh                                                 
  624.576  34%   0.314 GSH                                                 
 2.72E+03  29%   1.366 Ins                                                 
  608.841  65%   0.306 Lac                                                 
 2.88E+03   6%   1.447 NAA                                                 
    0.000 999%   0.000 NAAG                                                
  277.700  22%   0.140 Scyllo                                              
  804.634  49%   0.405 Tau                                                 
 1.12E+03  28%   0.564 -CrCH2                                              
  912.514   7%   0.459 GPC+PCh                                             
 2.88E+03   6%   1.447 NAA+NAAG                                            
 1.99E+03   8%   1.000 Cr+PCr                                              
 4.25E+03  34%   2.139 Glu+Gln                                             
  490.763 188%   0.247 Lip13a                                              
    0.000 999%   0.000 Lip13b                                              
  120.925 258% 6.1E-02 Lip09                                               
 2.65E+03  18%   1.332 MM09                                                
   61.461 308% 3.1E-02 Lip20                                               
 3.64E+03  23%   1.830 MM20                                                
  864.730  43%   0.435 MM12                                                
 2.72E+03  21%   1.367 MM14                                                
 1.60E+03  32%   0.805 MM17                                                
  490.763 188%   0.247 Lip13a+Lip13b                                       
 4.07E+03  19%   2.048 MM14+Lip13a+Lip13b+MM12                             
 2.77E+03  16%   1.393 MM09+Lip09                                          
 3.70E+03  22%   1.861 MM20+Lip20                                          
   6 lines in following misc. output table
  FWHM = 0.069 ppm    S/N =   6                                            
  Data shift = 0.008 ppm                                                   
  Ph: -59 deg     -13.2 deg/ppm                                            
  alphaB,S = 7.7E-01,   2.6E+01                                            
   14 spline knots.   Ns = 8(1)                                            
  (12) 7 infls.   (15) 1 extrs.                                            
  498 points on ppm-axis = NY
      4.000000     3.992357     3.984714     3.977070     3.969427     3.961784     3.954141     3.946497     3.938854     3.931211
      3.923568     3.915925     3.908281     3.900638     3.892995     3.885352     3.877708     3.870065     3.862422     3.854779
      3.847136     3.839492     3.831849     3.824206     3.816563     3.808919     3.801276     3.793633     3.785990     3.778347
      3.770703     3.763060     3.755417     3.747774     3.740130     3.732487     3.724844     3.717201     3.709558     3.701914
      3.694271     3.686628     3.678985     3.671341     3.663698     3.656055     3.648412     3.640769     3.633125     3.625482
      3.617839     3.610196     3.602552     3.594909     3.587266     3.579623     3.571980     3.564336     3.556693     3.549050
      3.541407     3.533763     3.526120     3.518477     3.510834     3.503191     3.495547     3.487904     3.480261     3.472618
      3.464974     3.457331     3.449688     3.442045     3.434402     3.426758     3.419115     3.411472     3.403829     3.396185
      3.388542     3.380899     3.373256     3.365613     3.357969     3.350326     3.342683     3.335040     3.327396     3.319753
      3.312110     3.304467     3.296824     3.289180     3.281537     3.273894     3.266251     3.258607     3.250964     3.243321
      3.235678     3.228034     3.220391     3.212748     3.205105     3.197462     3.189818     3.182175     3.174532     3.166889
      3.159245     3.151602     3.143959     3.136316     3.128673     3.121029     3.113386     3.105743     3.098100     3.090456
      3.082813     3.075170     3.067527     3.059884     3.052240     3.044597     3.036954     3.029311     3.021667     3.014024
      3.006381     2.998738     2.991095     2.983451     2.975808     2.968165     2.960522     2.952878     2.945235     2.937592
      2.929949     2.922306     2.914662     2.907019     2.899376     2.891733     2.884089     2.876446     2.868803     2.861160
      2.853517     2.845873     2.838230     2.830587     2.822944     2.815300     2.807657     2.800014     2.792371     2.784728
      2.777084     2.769441     2.761798     2.754155     2.746511     2.738868     2.731225     2.723582     2.715939     2.708295
      2.700652     2.693009     2.685366     2.677722     2.670079     2.662436     2.654793     2.647150     2.639506     2.631863
      2.624220     2.616577     2.608933     2.601290     2.593647     2.586004     2.578361     2.570717     2.563074     2.555431
      2.547788     2.540144     2.532501     2.524858     2.517215     2.509572     2.501928     2.494285     2.486642     2.478999
      2.471355     2.463712     2.456069     2.448426     2.440783     2.433139     2.425496     2.417853     2.410210     2.402566
      2.394923     2.387280     2.379637     2.371994     2.364350     2.356707     2.349064     2.341421     2.333777     2.326134
      2.318491     2.310848     2.303205     2.295561     2.287918     2.280275     2.272632     2.264988     2.257345     2.249702
      2.242059     2.234416     2.226772     2.219129     2.211486     2.203843     2.196199     2.188556     2.180913     2.173270
      2.165627     2.157983     2.150340     2.142697     2.135054     2.127410     2.119767     2.112124     2.104481     2.096838
      2.089194     2.081551     2.073908     2.066265     2.058621     2.050978     2.043335     2.035692     2.028049     2.020405
      2.012762     2.005119     1.997476     1.989833     1.982190     1.974546     1.966903     1.959260     1.951617     1.943974
      1.936331     1.928688     1.921045     1.913402     1.905759     1.898115     1.890472     1.882829     1.875186     1.867543
      1.859900     1.852257     1.844614     1.836971     1.829327     1.821684     1.814041     1.806398     1.798755     1.791112
      1.783469     1.775826     1.768183     1.760540     1.752896     1.745253     1.737610     1.729967     1.722324     1.714681
      1.707038     1.699395     1.691752     1.684108     1.676465     1.668822     1.661179     1.653536     1.645893     1.638250
      1.630607     1.622964     1.615321     1.607677     1.600034     1.592391     1.584748     1.577105     1.569462     1.561819
      1.554176     1.546533     1.538890     1.531246     1.523603     1.515960     1.508317     1.500674     1.493031     1.485388
      1.477745     1.470102     1.462458     1.454815     1.447172     1.439529     1.431886     1.424243     1.416600     1.408957
      1.401314     1.393671     1.386027     1.378384     1.370741     1.363098     1.355455     1.347812     1.340169     1.332526
      1.324883     1.317240     1.309596     1.301953     1.294310     1.286667     1.279024     1.271381     1.263738     1.256095
      1.248452     1.240808     1.233165     1.225522     1.217879     1.210236     1.202593     1.194950     1.187307     1.179664
      1.172021     1.164377     1.156734     1.149091     1.141448     1.133805     1.126162     1.118519     1.110876     1.103233
      1.095590     1.087946     1.080303     1.072660     1.065017     1.057374     1.049731     1.042088     1.034445     1.026802
      1.019158     1.011515     1.003872     0.996229     0.988586     0.980943     0.973300     0.965657     0.958014     0.950371
      0.942727     0.935084     0.927441     0.919798     0.912155     0.904512     0.896869     0.889226     0.881583     0.873940
      0.866296     0.858653     0.851010     0.843367     0.835724     0.828081     0.820438     0.812795     0.805152     0.797508
      0.789865     0.782222     0.774579     0.766936     0.759293     0.751650     0.744007     0.736364     0.728721     0.721077
      0.713434     0.705791     0.698148     0.690505     0.682862     0.675219     0.667576     0.659933     0.652290     0.644646
      0.637003     0.629360     0.621717     0.614074     0.606431     0.598788     0.591145     0.583502     0.575858     0.568215
      0.560572     0.552929     0.545286     0.537643     0.530000     0.522357     0.514714     0.507071     0.499427     0.491784
      0.484141     0.476498     0.468855     0.461212     0.453569     0.445925     0.438282     0.430639     0.422996     0.415353
      0.407710     0.400067     0.392424     0.384780     0.377137     0.369494     0.361851     0.354208     0.346565     0.338922
      0.331278     0.323635     0.315992     0.308349     0.300706     0.293063     0.285420     0.277777     0.270133     0.262490
      0.254847     0.247204     0.239561     0.231918     0.224275     0.216631     0.208988     0.201345
 NY phased data points follow
  -2.11408E+02 -2.08499E+02 -2.13951E+02 -2.13138E+02 -1.89925E+02 -1.95073E+02 -1.80489E+02 -1.75910E+02 -1.55327E+02 -1.55964E+02
  -1.39811E+02 -1.70347E+02 -1.49305E+02 -1.64714E+02 -1.81056E+02 -1.70343E+02 -1.65644E+02 -1.64957E+02 -1.65883E+02 -1.71337E+02
  -1.69458E+02 -1.67776E+02 -1.68715E+02 -1.65639E+02 -1.57822E+02 -1.57717E+02 -1.43702E+02 -1.44848E+02 -1.40058E+02 -1.46155E+02
  -1.44917E+02 -1.49208E+02 -1.33737E+02 -1.28316E+02 -1.39856E+02 -1.39839E+02 -1.41483E+02 -1.40416E+02 -1.32539E+02 -1.34948E+02
  -1.16414E+02 -1.25210E+02 -1.20219E+02 -1.33768E+02 -1.20423E+02 -1.16831E+02 -1.22769E+02 -1.11610E+02 -1.14597E+02 -1.18460E+02
  -1.14847E+02 -1.05039E+02 -1.07924E+02 -1.18486E+02 -1.06040E+02 -1.15450E+02 -1.24800E+02 -1.15104E+02 -1.09579E+02 -1.19874E+02
  -1.12805E+02 -1.23177E+02 -1.09413E+02 -1.18710E+02 -1.18707E+02 -1.18323E+02 -1.02239E+02 -1.13800E+02 -9.94332E+01 -9.06767E+01
  -9.40572E+01 -9.80502E+01 -9.57225E+01 -9.88008E+01 -8.55017E+01 -1.02918E+02 -9.64491E+01 -9.75761E+01 -8.62590E+01 -9.40267E+01
  -8.05134E+01 -8.98544E+01 -7.84367E+01 -8.37140E+01 -7.59780E+01 -8.13288E+01 -8.08835E+01 -8.06407E+01 -6.97841E+01 -8.08534E+01
  -5.97779E+01 -8.00044E+01 -6.79198E+01 -7.38743E+01 -5.13192E+01 -5.16037E+01 -4.67135E+01 -4.59837E+01 -3.35054E+01 -3.03425E+01
  -1.32567E+01 -2.62070E+01 -1.59718E+01 -1.33581E+01 -1.62213E+01 -1.43777E+01 -3.67736E+01 -4.58354E+01 -5.80973E+01 -5.87384E+01
  -5.67598E+01 -6.07646E+01 -6.94686E+01 -5.83582E+01 -7.06053E+01 -5.95031E+01 -6.77697E+01 -6.38212E+01 -5.30261E+01 -4.99647E+01
  -4.27288E+01 -4.60724E+01 -3.59838E+01 -2.64770E+01 -3.54596E+01 -1.73000E+01 -1.81792E+01  3.02840E+00  1.86311E+00 -8.63929E+00
  -1.83991E+01 -3.42193E+01 -3.80812E+01 -4.79376E+01 -4.45681E+01 -4.63043E+01 -5.26917E+01 -4.86346E+01 -4.63492E+01 -6.06371E+01
  -5.64532E+01 -5.12244E+01 -4.70247E+01 -4.67386E+01 -5.19419E+01 -4.68855E+01 -5.32837E+01 -5.15156E+01 -5.73206E+01 -4.22449E+01
  -5.43434E+01 -5.37897E+01 -5.42578E+01 -5.16216E+01 -4.48805E+01 -4.02401E+01 -4.92511E+01 -4.14443E+01 -3.70104E+01 -5.76393E+01
  -4.54746E+01 -5.10045E+01 -3.01392E+01 -4.18569E+01 -3.58378E+01 -5.09341E+01 -5.18363E+01 -4.08546E+01 -4.06102E+01 -4.38179E+01
  -2.68234E+01 -4.96617E+01 -4.62212E+01 -5.11800E+01 -4.64626E+01 -5.28265E+01 -4.93174E+01 -5.15677E+01 -5.44137E+01 -5.11269E+01
  -5.47947E+01 -3.44514E+01 -4.74753E+01 -4.27277E+01 -4.80014E+01 -3.71060E+01 -3.75094E+01 -4.36063E+01 -2.88176E+01 -2.52397E+01
  -2.40945E+01 -2.27724E+01 -2.82380E+01 -1.99032E+01 -2.92430E+01 -2.22518E+01 -1.90019E+01 -2.24494E+01 -2.51133E+01 -1.78753E+01
  -2.29718E+01 -1.91908E+01 -2.16248E+01 -2.18939E+01 -2.07305E+01 -2.55493E+01 -1.88728E+01 -2.41498E+01 -2.75660E+01 -2.92522E+01
  -2.12747E+01 -2.74288E+01 -8.87698E+00 -2.03800E+01 -5.60065E+00 -1.37195E+01 -6.22831E+00 -7.18575E+00 -1.91366E+01 -1.68096E+01
  -8.56083E+00 -1.52522E+01 -2.40693E+01 -2.29533E+01 -1.23304E+01 -5.28303E+00 -8.17132E+00 -1.34667E+01 -1.17095E+00 -3.24843E+00
  -6.08805E+00  3.46830E+00  2.03503E+00 -2.32119E+01 -6.73268E+00 -1.08344E+01 -3.35823E+00 -1.04231E+01 -1.57931E-01  5.07536E+00
  -1.29660E+01 -1.59099E+01  1.13294E+00 -1.50131E+01 -2.62222E+00 -6.85282E+00 -4.63848E+00  1.51132E+00  5.43888E+00 -2.83133E+00
   7.28662E+00  1.84739E+01  2.53826E+01  2.81753E+01  3.55802E+01  4.01509E+01  5.50720E+01  6.40583E+01  6.40190E+01  7.29086E+01
   8.83429E+01  7.23677E+01  7.60803E+01  5.51515E+01  2.95255E+01  2.59035E+01  1.84957E+01  1.72729E+01  1.11685E+01 -1.80259E+00
  -2.82502E-01  3.52299E-01  8.97791E-01  1.89533E+01  4.35362E+00  1.08211E+01 -1.07089E+00  4.77390E-01  1.48296E+01  4.81737E+00
   8.89200E+00 -2.67126E+00  7.18432E+00  1.50878E+01  5.47280E+00  2.77315E+00  3.29651E+00  5.31995E+00  1.82184E+01  1.48465E+01
   6.45678E+00  2.31874E+01  1.38169E+01  9.04425E+00  1.14983E+01  9.62695E+00  1.74478E+00 -5.43852E+00 -1.86392E+00  8.41721E-01
   1.07587E+00  1.89334E+00 -1.27006E+00  9.13820E+00  8.62863E-01  9.25647E+00  1.60272E+01  1.47632E+01  6.29739E+00  1.85564E+01
   1.31009E+01  1.33816E+01  4.14605E+00  8.60015E+00  7.67795E+00  3.00457E+00 -2.94006E+00 -2.22113E+00 -1.21420E+01 -5.49494E+00
   4.28199E-01  1.18921E+00 -2.82887E+00  2.91245E+00 -2.25461E+00 -1.02595E+01  4.96025E+00  2.88711E+00  1.01043E+00  5.47131E+00
   9.37657E+00  6.74464E+00  1.47759E+01  2.29254E+01  3.28411E+01  3.05696E+01  2.13579E+01  3.14528E+01  2.37982E+01  3.05826E+01
   2.79399E+01  2.66428E+01  3.67502E+01  4.13105E+01  4.04571E+01  4.62241E+01  2.82528E+01  3.52575E+01  8.77309E+00  2.50649E+01
   3.15138E+01  2.55717E+01  3.54611E+01  2.89422E+01  1.54288E+01  2.39056E+01  3.18853E+01  2.68570E+01  3.50013E+01  2.04691E+01
   1.83274E+01  1.99214E+01  3.35298E+01  2.20256E+01  2.22433E+01  1.79507E+01  3.16615E+01  1.73423E+01  3.33451E+01  2.95930E+01
   1.87188E+01  2.96498E+01  2.32755E+01  2.35794E+01  2.21146E+01  2.05279E+01  1.98601E+01  2.01261E+01  2.14586E+01  1.85233E+01
   2.58600E+01  2.28251E+01  2.38701E+01  2.94510E+01  2.96033E+01  2.73511E+01  3.62912E+01  3.50998E+01  2.85795E+01  3.60751E+01
   3.51210E+01  3.12163E+01  5.92339E+01  3.77924E+01  1.53949E+01  3.09623E+01  4.33466E+01  3.17036E+01  4.07306E+01  3.60818E+01
   3.64224E+01  3.78543E+01  4.85643E+01  3.84012E+01  4.07940E+01  4.88905E+01  3.90318E+01  5.18863E+01  4.87235E+01  4.01568E+01
   4.66806E+01  4.43315E+01  4.06411E+01  3.27482E+01  2.87484E+01  4.04030E+01  3.45335E+01  3.87199E+01  3.36715E+01  3.15162E+01
   3.96990E+01  2.65950E+01  4.05637E+01  3.34607E+01  3.22131E+01  2.76612E+01  3.41373E+01  3.57829E+01  3.15483E+01  3.77900E+01
   3.81114E+01  3.19348E+01  3.02041E+01  3.29801E+01  2.48756E+01  4.31013E+01  3.45453E+01  3.47390E+01  3.78013E+01  3.29730E+01
   3.48005E+01  3.12143E+01  3.01959E+01  3.05542E+01  2.97851E+01  3.52334E+01  3.44674E+01  3.34448E+01  2.34610E+01  2.57829E+01
   4.36435E+01  3.56970E+01  3.18534E+01  3.27571E+01  3.33861E+01  3.70538E+01  3.42214E+01  3.08260E+01  3.11878E+01  4.23168E+01
   3.81061E+01  3.16525E+01  2.26970E+01  3.14076E+01  3.22542E+01  3.31209E+01  3.26308E+01  2.97640E+01  5.12677E+01  3.15930E+01
   4.57119E+01  2.53746E+01  3.19197E+01  3.44164E+01  3.08922E+01  3.36984E+01  3.57192E+01  2.91206E+01  2.64631E+01  3.10195E+01
   2.47923E+01  2.62922E+01  3.06015E+01  3.39949E+01  3.05328E+01  3.15920E+01  1.62328E+01  2.74709E+01  3.29869E+01  3.03997E+01
   3.48656E+01  3.68859E+01  3.86216E+01  3.75962E+01  2.68283E+01  2.85165E+01  2.40655E+01  2.88106E+01
 NY points of the fit to the data follow
  -1.98846E+02 -1.98050E+02 -1.93274E+02 -1.89493E+02 -1.86465E+02 -1.83585E+02 -1.79554E+02 -1.75564E+02 -1.72091E+02 -1.67545E+02
  -1.62722E+02 -1.58541E+02 -1.56433E+02 -1.58635E+02 -1.62766E+02 -1.65476E+02 -1.65513E+02 -1.64545E+02 -1.64858E+02 -1.65784E+02
  -1.66562E+02 -1.65998E+02 -1.63360E+02 -1.60208E+02 -1.57427E+02 -1.54752E+02 -1.51886E+02 -1.49031E+02 -1.46449E+02 -1.43368E+02
  -1.39736E+02 -1.36587E+02 -1.34848E+02 -1.35518E+02 -1.37696E+02 -1.39817E+02 -1.41253E+02 -1.41375E+02 -1.39860E+02 -1.36757E+02
  -1.33306E+02 -1.30567E+02 -1.27879E+02 -1.25009E+02 -1.22255E+02 -1.19935E+02 -1.18047E+02 -1.16523E+02 -1.15886E+02 -1.16894E+02
  -1.19333E+02 -1.21560E+02 -1.22320E+02 -1.21550E+02 -1.20138E+02 -1.18971E+02 -1.17855E+02 -1.16518E+02 -1.14835E+02 -1.12972E+02
  -1.11496E+02 -1.10145E+02 -1.09554E+02 -1.09406E+02 -1.08820E+02 -1.07940E+02 -1.06600E+02 -1.04585E+02 -1.02354E+02 -1.00738E+02
  -9.95705E+01 -9.82559E+01 -9.69991E+01 -9.59840E+01 -9.49287E+01 -9.41017E+01 -9.36041E+01 -9.30672E+01 -9.17131E+01 -8.96045E+01
  -8.88229E+01 -8.77620E+01 -8.55636E+01 -8.32680E+01 -8.15126E+01 -8.03651E+01 -7.92526E+01 -7.85218E+01 -7.85981E+01 -7.94901E+01
  -8.08106E+01 -8.10567E+01 -7.98160E+01 -7.70369E+01 -6.93294E+01 -5.70206E+01 -5.07067E+01 -4.50896E+01 -3.64018E+01 -2.74760E+01
  -2.06002E+01 -1.55627E+01 -1.02261E+01 -8.01336E+00 -1.24243E+01 -2.25175E+01 -3.74299E+01 -5.02048E+01 -5.56331E+01 -5.74531E+01
  -6.02076E+01 -6.47859E+01 -6.76180E+01 -6.80208E+01 -6.75270E+01 -6.68106E+01 -6.59323E+01 -6.46323E+01 -6.18376E+01 -5.35872E+01
  -4.42887E+01 -3.98999E+01 -3.48124E+01 -2.76650E+01 -2.06668E+01 -1.53054E+01 -1.04922E+01 -6.05586E+00 -5.73272E+00 -1.06147E+01
  -1.99996E+01 -3.19442E+01 -4.02291E+01 -4.32293E+01 -4.45675E+01 -4.76569E+01 -5.15793E+01 -5.35157E+01 -5.36254E+01 -5.27902E+01
  -5.15824E+01 -5.04154E+01 -4.95360E+01 -4.90685E+01 -4.88154E+01 -4.86858E+01 -4.85897E+01 -4.84225E+01 -4.82148E+01 -4.79719E+01
  -4.77778E+01 -4.75699E+01 -4.74330E+01 -4.75138E+01 -4.73575E+01 -4.70144E+01 -4.65752E+01 -4.60562E+01 -4.58521E+01 -4.56624E+01
  -4.54382E+01 -4.52297E+01 -4.49102E+01 -4.44500E+01 -4.37509E+01 -4.31850E+01 -4.31326E+01 -4.34848E+01 -4.40901E+01 -4.41673E+01
  -4.36618E+01 -4.33152E+01 -4.32732E+01 -4.34480E+01 -4.32148E+01 -4.27803E+01 -4.23865E+01 -4.19074E+01 -4.14128E+01 -4.08712E+01
  -4.00750E+01 -3.94811E+01 -3.89040E+01 -3.78770E+01 -3.63377E+01 -3.48617E+01 -3.39661E+01 -3.29926E+01 -3.17791E+01 -3.04320E+01
  -2.95499E+01 -2.89832E+01 -2.86879E+01 -2.85494E+01 -2.83192E+01 -2.77725E+01 -2.68494E+01 -2.54330E+01 -2.38459E+01 -2.23903E+01
  -2.08928E+01 -1.98545E+01 -2.01673E+01 -2.03254E+01 -2.09226E+01 -2.28663E+01 -2.47317E+01 -2.58348E+01 -2.56038E+01 -2.58875E+01
  -2.56577E+01 -2.33553E+01 -2.00976E+01 -1.68431E+01 -1.49189E+01 -1.42450E+01 -1.37112E+01 -1.40468E+01 -1.56505E+01 -1.79795E+01
  -1.99309E+01 -2.04072E+01 -1.98644E+01 -1.87312E+01 -1.69362E+01 -1.40265E+01 -1.07652E+01 -8.93165E+00 -8.93151E+00 -8.62689E+00
  -7.61438E+00 -6.98727E+00 -6.81895E+00 -6.21149E+00 -5.48218E+00 -5.34353E+00 -4.78317E+00 -3.96418E+00 -3.30682E+00 -2.78041E+00
  -2.44573E+00 -2.98128E+00 -4.20298E+00 -4.85106E+00 -4.49742E+00 -3.53456E+00 -2.00914E+00 -1.65820E-01  1.39771E+00  2.65087E+00
   4.12154E+00  8.45679E+00  2.17314E+01  3.32516E+01  3.84934E+01  4.54983E+01  5.47449E+01  6.29492E+01  6.84524E+01  7.41804E+01
   7.96032E+01  7.86854E+01  7.05507E+01  5.54991E+01  3.76163E+01  2.59398E+01  2.13122E+01  1.81149E+01  1.24198E+01  6.73523E+00
   4.03996E+00  3.13713E+00  2.71945E+00  2.60204E+00  2.70988E+00  2.83982E+00  2.90958E+00  2.90111E+00  2.87581E+00  2.90611E+00
   3.00474E+00  3.16517E+00  3.39474E+00  3.69790E+00  4.08488E+00  4.53119E+00  4.99886E+00  5.47425E+00  5.95219E+00  6.41946E+00
   6.85596E+00  7.25039E+00  7.60135E+00  7.88973E+00  8.10773E+00  8.25996E+00  8.34585E+00  8.35841E+00  8.30094E+00  8.17665E+00
   7.99474E+00  7.76027E+00  7.48610E+00  7.18121E+00  6.85701E+00  6.52282E+00  6.19076E+00  5.86855E+00  5.56811E+00  5.29569E+00
   5.05924E+00  4.86206E+00  4.71050E+00  4.60670E+00  4.55529E+00  4.55746E+00  4.61830E+00  4.73968E+00  4.92727E+00  5.18355E+00
   5.51528E+00  5.92653E+00  6.42558E+00  7.01730E+00  7.70966E+00  8.50643E+00  9.41367E+00  1.04325E+01  1.15654E+01  1.28084E+01
   1.41577E+01  1.56029E+01  1.71342E+01  1.87360E+01  2.03954E+01  2.20980E+01  2.38420E+01  2.56509E+01  2.76548E+01  3.00409E+01
   3.16548E+01  3.23117E+01  3.30501E+01  3.36240E+01  3.35738E+01  3.27753E+01  3.16474E+01  3.11446E+01  3.00848E+01  2.80503E+01
   2.60180E+01  2.47707E+01  2.47956E+01  2.54086E+01  2.61030E+01  2.68751E+01  2.75986E+01  2.82078E+01  2.80631E+01  2.69977E+01
   2.59035E+01  2.52894E+01  2.49556E+01  2.44307E+01  2.37561E+01  2.32427E+01  2.29189E+01  2.27042E+01  2.25631E+01  2.24761E+01
   2.24342E+01  2.24297E+01  2.24609E+01  2.25254E+01  2.26252E+01  2.27603E+01  2.29348E+01  2.31505E+01  2.34130E+01  2.37250E+01
   2.40929E+01  2.45193E+01  2.50101E+01  2.55678E+01  2.61972E+01  2.68994E+01  2.76770E+01  2.85278E+01  2.94512E+01  3.04412E+01
   3.14925E+01  3.25941E+01  3.37352E+01  3.48993E+01  3.60707E+01  3.72285E+01  3.83536E+01  3.94228E+01  4.04159E+01  4.13109E+01
   4.20903E+01  4.27368E+01  4.32393E+01  4.35878E+01  4.37798E+01  4.38145E+01  4.36987E+01  4.34407E+01  4.30552E+01  4.25571E+01
   4.19662E+01  4.13009E+01  4.05831E+01  3.98309E+01  3.90645E+01  3.82991E+01  3.75507E+01  3.68304E+01  3.61492E+01  3.55130E+01
   3.49277E+01  3.43948E+01  3.39164E+01  3.34907E+01  3.31171E+01  3.27914E+01  3.25117E+01  3.22729E+01  3.20725E+01  3.19054E+01
   3.17692E+01  3.16589E+01  3.15725E+01  3.15058E+01  3.14573E+01  3.14235E+01  3.14034E+01  3.13938E+01  3.13943E+01  3.14021E+01
   3.14175E+01  3.14380E+01  3.14638E+01  3.14928E+01  3.15255E+01  3.15600E+01  3.15972E+01  3.16352E+01  3.16747E+01  3.17141E+01
   3.17543E+01  3.17937E+01  3.18335E+01  3.18720E+01  3.19103E+01  3.19470E+01  3.19834E+01  3.20182E+01  3.20526E+01  3.20851E+01
   3.21170E+01  3.21471E+01  3.21767E+01  3.22044E+01  3.22316E+01  3.22568E+01  3.22815E+01  3.23044E+01  3.23268E+01  3.23474E+01
   3.23676E+01  3.23860E+01  3.24041E+01  3.24205E+01  3.24367E+01  3.24514E+01  3.24659E+01  3.24789E+01  3.24917E+01  3.25034E+01
   3.25151E+01  3.25255E+01  3.25360E+01  3.25454E+01  3.25551E+01  3.25639E+01  3.25730E+01  3.25813E+01  3.25900E+01  3.25980E+01
   3.26066E+01  3.26147E+01  3.26235E+01  3.26318E+01  3.26408E+01  3.26496E+01  3.26594E+01  3.26689E+01
 NY background values follow
    -2.049E+02   -2.034E+02   -2.020E+02   -2.006E+02   -1.991E+02   -1.977E+02   -1.962E+02   -1.948E+02   -1.933E+02   -1.919E+02
    -1.905E+02   -1.890E+02   -1.876E+02   -1.861E+02   -1.847E+02   -1.833E+02   -1.818E+02   -1.804E+02   -1.790E+02   -1.775E+02
    -1.761E+02   -1.747E+02   -1.733E+02   -1.719E+02   -1.705E+02   -1.690E+02   -1.676E+02   -1.662E+02   -1.648E+02   -1.634E+02
    -1.621E+02   -1.607E+02   -1.593E+02   -1.579E+02   -1.565E+02   -1.552E+02   -1.538E+02   -1.525E+02   -1.511E+02   -1.498E+02
    -1.484E+02   -1.471E+02   -1.458E+02   -1.444E+02   -1.431E+02   -1.418E+02   -1.405E+02   -1.392E+02   -1.379E+02   -1.367E+02
    -1.354E+02   -1.341E+02   -1.329E+02   -1.316E+02   -1.304E+02   -1.291E+02   -1.279E+02   -1.267E+02   -1.255E+02   -1.242E+02
    -1.230E+02   -1.219E+02   -1.207E+02   -1.195E+02   -1.183E+02   -1.172E+02   -1.160E+02   -1.149E+02   -1.137E+02   -1.126E+02
    -1.115E+02   -1.104E+02   -1.093E+02   -1.082E+02   -1.071E+02   -1.060E+02   -1.050E+02   -1.039E+02   -1.029E+02   -1.018E+02
    -1.008E+02   -9.978E+01   -9.877E+01   -9.777E+01   -9.678E+01   -9.580E+01   -9.482E+01   -9.386E+01   -9.291E+01   -9.197E+01
    -9.103E+01   -9.011E+01   -8.920E+01   -8.830E+01   -8.740E+01   -8.652E+01   -8.565E+01   -8.478E+01   -8.393E+01   -8.308E+01
    -8.224E+01   -8.142E+01   -8.060E+01   -7.979E+01   -7.898E+01   -7.819E+01   -7.741E+01   -7.663E+01   -7.586E+01   -7.510E+01
    -7.435E+01   -7.361E+01   -7.287E+01   -7.214E+01   -7.142E+01   -7.071E+01   -7.000E+01   -6.930E+01   -6.861E+01   -6.792E+01
    -6.725E+01   -6.657E+01   -6.591E+01   -6.525E+01   -6.460E+01   -6.395E+01   -6.331E+01   -6.268E+01   -6.205E+01   -6.143E+01
    -6.082E+01   -6.021E+01   -5.960E+01   -5.900E+01   -5.841E+01   -5.782E+01   -5.724E+01   -5.666E+01   -5.609E+01   -5.552E+01
    -5.496E+01   -5.440E+01   -5.384E+01   -5.329E+01   -5.275E+01   -5.221E+01   -5.167E+01   -5.114E+01   -5.061E+01   -5.009E+01
    -4.957E+01   -4.905E+01   -4.854E+01   -4.803E+01   -4.753E+01   -4.702E+01   -4.653E+01   -4.603E+01   -4.554E+01   -4.506E+01
    -4.457E+01   -4.409E+01   -4.362E+01   -4.314E+01   -4.267E+01   -4.220E+01   -4.174E+01   -4.128E+01   -4.082E+01   -4.036E+01
    -3.991E+01   -3.945E+01   -3.900E+01   -3.856E+01   -3.811E+01   -3.767E+01   -3.723E+01   -3.679E+01   -3.635E+01   -3.592E+01
    -3.549E+01   -3.506E+01   -3.463E+01   -3.420E+01   -3.377E+01   -3.335E+01   -3.293E+01   -3.251E+01   -3.209E+01   -3.168E+01
    -3.126E+01   -3.085E+01   -3.044E+01   -3.003E+01   -2.963E+01   -2.923E+01   -2.883E+01   -2.843E+01   -2.803E+01   -2.764E+01
    -2.725E+01   -2.686E+01   -2.648E+01   -2.610E+01   -2.572E+01   -2.534E+01   -2.497E+01   -2.460E+01   -2.423E+01   -2.386E+01
    -2.350E+01   -2.314E+01   -2.279E+01   -2.243E+01   -2.208E+01   -2.174E+01   -2.139E+01   -2.106E+01   -2.072E+01   -2.039E+01
    -2.006E+01   -1.973E+01   -1.941E+01   -1.909E+01   -1.878E+01   -1.847E+01   -1.816E+01   -1.786E+01   -1.756E+01   -1.726E+01
    -1.697E+01   -1.668E+01   -1.640E+01   -1.612E+01   -1.584E+01   -1.556E+01   -1.529E+01   -1.502E+01   -1.476E+01   -1.450E+01
    -1.424E+01   -1.399E+01   -1.374E+01   -1.349E+01   -1.324E+01   -1.300E+01   -1.276E+01   -1.252E+01   -1.229E+01   -1.206E+01
    -1.183E+01   -1.160E+01   -1.138E+01   -1.116E+01   -1.094E+01   -1.073E+01   -1.051E+01   -1.030E+01   -1.009E+01   -9.887E+00
    -9.684E+00   -9.482E+00   -9.283E+00   -9.085E+00   -8.890E+00   -8.697E+00   -8.505E+00   -8.316E+00   -8.129E+00   -7.943E+00
    -7.759E+00   -7.577E+00   -7.396E+00   -7.217E+00   -7.040E+00   -6.864E+00   -6.689E+00   -6.516E+00   -6.343E+00   -6.172E+00
    -6.001E+00   -5.831E+00   -5.663E+00   -5.494E+00   -5.326E+00   -5.159E+00   -4.992E+00   -4.825E+00   -4.658E+00   -4.492E+00
    -4.325E+00   -4.158E+00   -3.991E+00   -3.824E+00   -3.656E+00   -3.488E+00   -3.319E+00   -3.149E+00   -2.978E+00   -2.807E+00
    -2.635E+00   -2.461E+00   -2.286E+00   -2.110E+00   -1.933E+00   -1.754E+00   -1.573E+00   -1.391E+00   -1.207E+00   -1.021E+00
    -8.336E-01   -6.437E-01   -4.516E-01   -2.574E-01   -6.071E-02    1.384E-01    3.400E-01    5.443E-01    7.512E-01    9.607E-01
     1.173E+00    1.387E+00    1.604E+00    1.823E+00    2.045E+00    2.268E+00    2.494E+00    2.722E+00    2.952E+00    3.184E+00
     3.418E+00    3.654E+00    3.891E+00    4.131E+00    4.372E+00    4.614E+00    4.859E+00    5.105E+00    5.352E+00    5.601E+00
     5.851E+00    6.102E+00    6.355E+00    6.609E+00    6.864E+00    7.120E+00    7.377E+00    7.635E+00    7.894E+00    8.154E+00
     8.414E+00    8.675E+00    8.937E+00    9.200E+00    9.463E+00    9.727E+00    9.991E+00    1.026E+01    1.052E+01    1.078E+01
     1.105E+01    1.132E+01    1.158E+01    1.185E+01    1.211E+01    1.238E+01    1.264E+01    1.291E+01    1.317E+01    1.344E+01
     1.370E+01    1.397E+01    1.423E+01    1.449E+01    1.475E+01    1.502E+01    1.528E+01    1.554E+01    1.580E+01    1.606E+01
     1.632E+01    1.657E+01    1.683E+01    1.708E+01    1.734E+01    1.759E+01    1.784E+01    1.809E+01    1.834E+01    1.859E+01
     1.884E+01    1.908E+01    1.933E+01    1.957E+01    1.981E+01    2.005E+01    2.028E+01    2.052E+01    2.075E+01    2.098E+01
     2.121E+01    2.144E+01    2.167E+01    2.189E+01    2.211E+01    2.233E+01    2.255E+01    2.276E+01    2.298E+01    2.319E+01
     2.339E+01    2.360E+01    2.380E+01    2.400E+01    2.420E+01    2.440E+01    2.459E+01    2.478E+01    2.497E+01    2.515E+01
     2.533E+01    2.551E+01    2.569E+01    2.587E+01    2.604E+01    2.621E+01    2.637E+01    2.654E+01    2.670E+01    2.686E+01
     2.701E+01    2.717E+01    2.732E+01    2.746E+01    2.761E+01    2.775E+01    2.789E+01    2.802E+01    2.815E+01    2.828E+01
     2.841E+01    2.853E+01    2.865E+01    2.877E+01    2.888E+01    2.899E+01    2.910E+01    2.921E+01    2.931E+01    2.941E+01
     2.950E+01    2.959E+01    2.968E+01    2.977E+01    2.985E+01    2.993E+01    3.000E+01    3.007E+01    3.014E+01    3.021E+01
     3.028E+01    3.034E+01    3.040E+01    3.045E+01    3.051E+01    3.056E+01    3.061E+01    3.066E+01    3.070E+01    3.075E+01
     3.079E+01    3.083E+01    3.087E+01    3.090E+01    3.094E+01    3.097E+01    3.100E+01    3.104E+01    3.107E+01    3.109E+01
     3.112E+01    3.115E+01    3.117E+01    3.120E+01    3.122E+01    3.125E+01    3.127E+01    3.129E+01    3.132E+01    3.134E+01
     3.136E+01    3.138E+01    3.140E+01    3.143E+01    3.145E+01    3.147E+01    3.149E+01    3.151E+01
 Asp      Conc. = 7.40E+01
