 LCModel (Version 6.3-1L) Copyright: S.W. Provencher.          Ref.: Magn. Reson. Med. 30:672-679 (1993).                
 Slice#3 Row#6 Col#1  PD_24_press_2_raw_act
 36 lines in following concentration table = NCONC+1
    Conc.  %SD /Cr+PCr  Metabolite                                         
 6.62E+03  14%   4.680 Ala                                                 
    0.000 999%   0.000 Asp                                                 
    0.000 999%   0.000 Cr                                                  
 1.41E+03   9%   1.000 PCr                                                 
  133.475  95% 9.4E-02 GABA                                                
    0.000 999%   0.000 Glc                                                 
 4.34E+03  27%   3.067 Gln                                                 
    0.000 999%   0.000 Glu                                                 
  274.173  21%   0.194 GPC                                                 
    0.000 999%   0.000 PCh                                                 
    0.000 999%   0.000 GSH                                                 
 2.60E+03  24%   1.838 Ins                                                 
 3.30E+03  34%   2.337 Lac                                                 
    0.000 999%   0.000 NAA                                                 
 1.45E+03  14%   1.023 NAAG                                                
    0.000 999%   0.000 Scyllo                                              
    0.000 999%   0.000 Tau                                                 
    0.000 999%   0.000 -CrCH2                                              
  274.173  21%   0.194 GPC+PCh                                             
 1.45E+03  14%   1.023 NAA+NAAG                                            
 1.41E+03   9%   1.000 Cr+PCr                                              
 4.34E+03  27%   3.067 Glu+Gln                                             
  200.187 302%   0.142 Lip13a                                              
    0.000 999%   0.000 Lip13b                                              
    0.000 999%   0.000 Lip09                                               
 2.36E+03  14%   1.669 MM09                                                
  307.656  68%   0.218 Lip20                                               
 3.54E+03  15%   2.503 MM20                                                
  713.813  16%   0.505 MM12                                                
 2.05E+03  14%   1.450 MM14                                                
 1.17E+03  15%   0.830 MM17                                                
  200.187 302%   0.142 Lip13a+Lip13b                                       
 2.96E+03  27%   2.096 MM14+Lip13a+Lip13b+MM12                             
 2.36E+03  14%   1.669 MM09+Lip09                                          
 3.85E+03  15%   2.720 MM20+Lip20                                          
   6 lines in following misc. output table
  FWHM = 0.153 ppm    S/N =   4                                            
  Data shift = 0.069 ppm                                                   
  Ph: 144 deg      52.7 deg/ppm                                            
  alphaB,S = 1.3E+00,   3.6E+02                                            
   10 spline knots.   Ns = 9(2)                                            
  (12) 2 infls.   ( 5) 1 extrs.                                            
  498 points on ppm-axis = NY
      4.000000     3.992357     3.984714     3.977070     3.969427     3.961784     3.954141     3.946497     3.938854     3.931211
      3.923568     3.915925     3.908281     3.900638     3.892995     3.885352     3.877708     3.870065     3.862422     3.854779
      3.847136     3.839492     3.831849     3.824206     3.816563     3.808919     3.801276     3.793633     3.785990     3.778347
      3.770703     3.763060     3.755417     3.747774     3.740130     3.732487     3.724844     3.717201     3.709558     3.701914
      3.694271     3.686628     3.678985     3.671341     3.663698     3.656055     3.648412     3.640769     3.633125     3.625482
      3.617839     3.610196     3.602552     3.594909     3.587266     3.579623     3.571980     3.564336     3.556693     3.549050
      3.541407     3.533763     3.526120     3.518477     3.510834     3.503191     3.495547     3.487904     3.480261     3.472618
      3.464974     3.457331     3.449688     3.442045     3.434402     3.426758     3.419115     3.411472     3.403829     3.396185
      3.388542     3.380899     3.373256     3.365613     3.357969     3.350326     3.342683     3.335040     3.327396     3.319753
      3.312110     3.304467     3.296824     3.289180     3.281537     3.273894     3.266251     3.258607     3.250964     3.243321
      3.235678     3.228034     3.220391     3.212748     3.205105     3.197462     3.189818     3.182175     3.174532     3.166889
      3.159245     3.151602     3.143959     3.136316     3.128673     3.121029     3.113386     3.105743     3.098100     3.090456
      3.082813     3.075170     3.067527     3.059884     3.052240     3.044597     3.036954     3.029311     3.021667     3.014024
      3.006381     2.998738     2.991095     2.983451     2.975808     2.968165     2.960522     2.952878     2.945235     2.937592
      2.929949     2.922306     2.914662     2.907019     2.899376     2.891733     2.884089     2.876446     2.868803     2.861160
      2.853517     2.845873     2.838230     2.830587     2.822944     2.815300     2.807657     2.800014     2.792371     2.784728
      2.777084     2.769441     2.761798     2.754155     2.746511     2.738868     2.731225     2.723582     2.715939     2.708295
      2.700652     2.693009     2.685366     2.677722     2.670079     2.662436     2.654793     2.647150     2.639506     2.631863
      2.624220     2.616577     2.608933     2.601290     2.593647     2.586004     2.578361     2.570717     2.563074     2.555431
      2.547788     2.540144     2.532501     2.524858     2.517215     2.509572     2.501928     2.494285     2.486642     2.478999
      2.471355     2.463712     2.456069     2.448426     2.440783     2.433139     2.425496     2.417853     2.410210     2.402566
      2.394923     2.387280     2.379637     2.371994     2.364350     2.356707     2.349064     2.341421     2.333777     2.326134
      2.318491     2.310848     2.303205     2.295561     2.287918     2.280275     2.272632     2.264988     2.257345     2.249702
      2.242059     2.234416     2.226772     2.219129     2.211486     2.203843     2.196199     2.188556     2.180913     2.173270
      2.165627     2.157983     2.150340     2.142697     2.135054     2.127410     2.119767     2.112124     2.104481     2.096838
      2.089194     2.081551     2.073908     2.066265     2.058621     2.050978     2.043335     2.035692     2.028049     2.020405
      2.012762     2.005119     1.997476     1.989833     1.982190     1.974546     1.966903     1.959260     1.951617     1.943974
      1.936331     1.928688     1.921045     1.913402     1.905759     1.898115     1.890472     1.882829     1.875186     1.867543
      1.859900     1.852257     1.844614     1.836971     1.829327     1.821684     1.814041     1.806398     1.798755     1.791112
      1.783469     1.775826     1.768183     1.760540     1.752896     1.745253     1.737610     1.729967     1.722324     1.714681
      1.707038     1.699395     1.691752     1.684108     1.676465     1.668822     1.661179     1.653536     1.645893     1.638250
      1.630607     1.622964     1.615321     1.607677     1.600034     1.592391     1.584748     1.577105     1.569462     1.561819
      1.554176     1.546533     1.538890     1.531246     1.523603     1.515960     1.508317     1.500674     1.493031     1.485388
      1.477745     1.470102     1.462458     1.454815     1.447172     1.439529     1.431886     1.424243     1.416600     1.408957
      1.401314     1.393671     1.386027     1.378384     1.370741     1.363098     1.355455     1.347812     1.340169     1.332526
      1.324883     1.317240     1.309596     1.301953     1.294310     1.286667     1.279024     1.271381     1.263738     1.256095
      1.248452     1.240808     1.233165     1.225522     1.217879     1.210236     1.202593     1.194950     1.187307     1.179664
      1.172021     1.164377     1.156734     1.149091     1.141448     1.133805     1.126162     1.118519     1.110876     1.103233
      1.095590     1.087946     1.080303     1.072660     1.065017     1.057374     1.049731     1.042088     1.034445     1.026802
      1.019158     1.011515     1.003872     0.996229     0.988586     0.980943     0.973300     0.965657     0.958014     0.950371
      0.942727     0.935084     0.927441     0.919798     0.912155     0.904512     0.896869     0.889226     0.881583     0.873940
      0.866296     0.858653     0.851010     0.843367     0.835724     0.828081     0.820438     0.812795     0.805152     0.797508
      0.789865     0.782222     0.774579     0.766936     0.759293     0.751650     0.744007     0.736364     0.728721     0.721077
      0.713434     0.705791     0.698148     0.690505     0.682862     0.675219     0.667576     0.659933     0.652290     0.644646
      0.637003     0.629360     0.621717     0.614074     0.606431     0.598788     0.591145     0.583502     0.575858     0.568215
      0.560572     0.552929     0.545286     0.537643     0.530000     0.522357     0.514714     0.507071     0.499427     0.491784
      0.484141     0.476498     0.468855     0.461212     0.453569     0.445925     0.438282     0.430639     0.422996     0.415353
      0.407710     0.400067     0.392424     0.384780     0.377137     0.369494     0.361851     0.354208     0.346565     0.338922
      0.331278     0.323635     0.315992     0.308349     0.300706     0.293063     0.285420     0.277777     0.270133     0.262490
      0.254847     0.247204     0.239561     0.231918     0.224275     0.216631     0.208988     0.201345
 NY phased data points follow
   2.51510E+02  2.48541E+02  2.44591E+02  2.48695E+02  2.37531E+02  2.35392E+02  2.34020E+02  2.40045E+02  2.32764E+02  2.32700E+02
   2.31043E+02  2.27582E+02  2.22626E+02  2.24540E+02  2.14191E+02  2.12933E+02  2.14975E+02  2.08948E+02  2.00008E+02  1.94351E+02
   1.95196E+02  1.89194E+02  1.86561E+02  1.83679E+02  1.84727E+02  1.85400E+02  1.85345E+02  1.77558E+02  1.70453E+02  1.75382E+02
   1.75322E+02  1.76257E+02  1.66526E+02  1.70161E+02  1.71852E+02  1.64362E+02  1.66096E+02  1.63301E+02  1.60753E+02  1.57902E+02
   1.55868E+02  1.59151E+02  1.57615E+02  1.56834E+02  1.52971E+02  1.51581E+02  1.52041E+02  1.42286E+02  1.42795E+02  1.48158E+02
   1.52293E+02  1.39251E+02  1.39885E+02  1.38328E+02  1.40275E+02  1.39623E+02  1.33704E+02  1.30950E+02  1.28247E+02  1.26967E+02
   1.20478E+02  1.23593E+02  1.12475E+02  1.16958E+02  1.14280E+02  1.14573E+02  1.14520E+02  1.12340E+02  1.00118E+02  1.04875E+02
   1.01926E+02  1.02458E+02  9.93287E+01  9.42755E+01  9.59699E+01  9.48209E+01  9.48885E+01  8.95492E+01  8.97323E+01  8.93380E+01
   8.58822E+01  8.14719E+01  9.37191E+01  8.47386E+01  8.51837E+01  8.34904E+01  7.50634E+01  8.40704E+01  7.49186E+01  8.25367E+01
   6.98911E+01  7.39160E+01  6.77842E+01  7.49154E+01  7.43572E+01  6.45201E+01  6.99748E+01  7.72969E+01  7.47903E+01  7.75670E+01
   7.80289E+01  7.37528E+01  7.71438E+01  7.51948E+01  7.52762E+01  6.86919E+01  6.55417E+01  6.11273E+01  6.29611E+01  5.79455E+01
   6.14865E+01  5.94563E+01  5.30298E+01  4.75163E+01  5.18103E+01  4.89979E+01  5.52621E+01  5.04631E+01  5.81882E+01  5.88099E+01
   5.59472E+01  5.94389E+01  6.03113E+01  5.79174E+01  6.34527E+01  5.80933E+01  5.91510E+01  6.22024E+01  5.63199E+01  5.29790E+01
   4.58607E+01  4.66505E+01  4.55641E+01  3.59176E+01  4.73005E+01  3.83115E+01  3.97858E+01  4.73774E+01  3.95816E+01  3.78127E+01
   3.73697E+01  3.65784E+01  2.96184E+01  3.32961E+01  2.40173E+01  3.25809E+01  2.37226E+01  2.31711E+01  2.09243E+01  2.91020E+01
   2.18369E+01  2.13641E+01  1.12387E+01  2.02486E+01  1.95968E+01  2.20617E+01  2.33939E+01  2.13096E+01  2.09667E+01  1.65495E+01
   1.81852E+01  1.89815E+01  6.70225E+00  1.20522E+01  7.71307E+00  9.53991E+00  1.21996E+01  4.77558E+00  3.69812E+00  1.67845E+00
  -6.60892E-01 -4.28751E+00  1.00301E+00 -1.23920E+01 -7.94247E+00 -1.08670E+00 -6.85327E+00 -7.12320E+00 -5.06656E+00 -1.10005E+01
  -5.47471E+00 -1.35703E+01 -1.25991E+01 -1.14409E+01 -1.02048E+01 -1.01653E+01 -9.31867E+00 -1.21215E+01 -1.27613E+01 -1.57274E+01
  -8.38256E+00 -1.63076E+01 -1.12110E+01 -1.71758E+01 -1.82916E+01 -1.26175E+01 -2.31988E+01 -2.24768E+01 -2.25096E+01 -2.18180E+01
  -2.16362E+01 -2.05292E+01 -2.42167E+01 -2.28464E+01 -2.67760E+01 -2.58332E+01 -2.77721E+01 -2.22337E+01 -2.83160E+01 -2.30886E+01
  -2.50216E+01 -2.53307E+01 -2.46931E+01 -2.13726E+01 -2.64576E+01 -2.30972E+01 -2.10150E+01 -2.30782E+01 -2.57831E+01 -3.20339E+01
  -2.30908E+01 -2.54909E+01 -2.32363E+01 -1.94097E+01 -2.13135E+01 -2.71488E+01 -2.57815E+01 -2.68892E+01 -2.60541E+01 -2.34233E+01
  -2.61649E+01 -2.99440E+01 -2.85268E+01 -2.88120E+01 -2.46318E+01 -2.76618E+01 -2.89836E+01 -2.07634E+01 -2.71264E+01 -3.30247E+01
  -2.88441E+01 -2.76940E+01 -3.27504E+01 -2.61822E+01 -3.12571E+01 -2.69492E+01 -2.23184E+01 -2.23083E+01 -1.44447E+01 -1.53689E+01
  -7.64944E+00 -6.72173E+00 -8.87660E-01 -1.18543E+01 -1.66313E+01 -1.46325E+01 -8.84895E+00 -1.57015E+01 -1.51652E+01 -1.71617E+01
  -1.24372E+01 -2.82327E+01 -2.77276E+01 -3.87962E+01 -3.42721E+01 -3.68990E+01 -4.07834E+01 -3.60554E+01 -3.78214E+01 -4.14300E+01
  -3.85772E+01 -3.94448E+01 -3.61803E+01 -4.07980E+01 -4.73146E+01 -3.79866E+01 -5.13930E+01 -4.45609E+01 -4.89869E+01 -4.98821E+01
  -4.59282E+01 -5.03854E+01 -5.40043E+01 -5.35979E+01 -5.62937E+01 -5.44357E+01 -5.72213E+01 -5.28075E+01 -5.09650E+01 -5.93247E+01
  -5.73214E+01 -5.70695E+01 -5.95332E+01 -5.92397E+01 -5.59240E+01 -5.61776E+01 -5.68424E+01 -5.62448E+01 -5.15231E+01 -4.80020E+01
  -5.04126E+01 -5.04005E+01 -4.23741E+01 -3.93806E+01 -3.65930E+01 -3.37650E+01 -3.29907E+01 -3.21978E+01 -4.18186E+01 -2.92570E+01
  -2.68113E+01 -3.15790E+01 -2.62310E+01 -3.04853E+01 -2.60695E+01 -2.40290E+01 -2.59442E+01 -2.81734E+01 -2.71538E+01 -3.80574E+01
  -3.02006E+01 -3.02217E+01 -3.66269E+01 -3.37381E+01 -3.64544E+01 -3.24465E+01 -3.34889E+01 -3.56998E+01 -3.83050E+01 -3.35990E+01
  -4.23055E+01 -3.70105E+01 -3.04492E+01 -3.40183E+01 -3.52420E+01 -3.74525E+01 -3.57046E+01 -3.66686E+01 -3.32377E+01 -3.58273E+01
  -3.76117E+01 -3.81858E+01 -3.93644E+01 -3.32262E+01 -3.89847E+01 -4.39319E+01 -4.40373E+01 -4.09405E+01 -3.66732E+01 -4.36802E+01
  -4.50084E+01 -4.58574E+01 -3.99105E+01 -4.33523E+01 -4.74062E+01 -4.72387E+01 -5.10315E+01 -4.50054E+01 -4.08888E+01 -4.76331E+01
  -3.98647E+01 -4.31683E+01 -4.30178E+01 -4.45434E+01 -4.11905E+01 -4.71425E+01 -5.00883E+01 -4.67559E+01 -4.31532E+01 -4.51047E+01
  -4.46227E+01 -4.45274E+01 -4.24272E+01 -3.98004E+01 -4.23484E+01 -3.90459E+01 -4.56228E+01 -4.15926E+01 -4.41720E+01 -4.44640E+01
  -4.78581E+01 -4.06769E+01 -4.10494E+01 -4.70294E+01 -3.82702E+01 -4.63799E+01 -4.97799E+01 -4.37934E+01 -4.27964E+01 -3.99401E+01
  -4.17043E+01 -4.09009E+01 -4.16760E+01 -4.50613E+01 -4.23890E+01 -4.47207E+01 -4.50788E+01 -4.50689E+01 -4.36872E+01 -4.55762E+01
  -3.99299E+01 -4.07538E+01 -4.88463E+01 -4.61071E+01 -3.98031E+01 -4.93547E+01 -3.79086E+01 -3.98320E+01 -4.47258E+01 -4.10384E+01
  -3.84832E+01 -3.67961E+01 -4.07451E+01 -4.79032E+01 -3.91319E+01 -3.89583E+01 -4.19452E+01 -4.66932E+01 -4.51113E+01 -3.88695E+01
  -3.87171E+01 -3.76623E+01 -3.92927E+01 -3.94585E+01 -3.89876E+01 -4.15755E+01 -4.12224E+01 -3.84726E+01 -4.16210E+01 -3.65970E+01
  -4.01578E+01 -3.98539E+01 -3.68644E+01 -3.95635E+01 -3.99295E+01 -3.59508E+01 -3.18205E+01 -3.98897E+01 -3.45211E+01 -3.54629E+01
  -3.90865E+01 -3.84835E+01 -3.12872E+01 -3.91987E+01 -3.85839E+01 -4.11815E+01 -3.86733E+01 -3.75909E+01 -2.92685E+01 -3.48896E+01
  -3.83379E+01 -3.56571E+01 -3.01049E+01 -3.45146E+01 -3.55687E+01 -3.18883E+01 -3.61266E+01 -2.49536E+01 -4.07162E+01 -3.12326E+01
  -2.91351E+01 -3.33838E+01 -2.85619E+01 -3.33897E+01 -2.66997E+01 -2.79037E+01 -2.45852E+01 -3.49643E+01 -3.52694E+01 -2.88669E+01
  -2.93970E+01 -2.87688E+01 -3.30134E+01 -2.70320E+01 -2.45649E+01 -2.98200E+01 -2.83498E+01 -2.79544E+01 -2.70330E+01 -2.39760E+01
  -2.99609E+01 -2.58837E+01 -2.61743E+01 -2.59646E+01 -2.77248E+01 -2.50479E+01 -1.92302E+01 -2.88865E+01 -2.56565E+01 -2.05575E+01
  -2.57001E+01 -2.54099E+01 -1.98240E+01 -2.05606E+01 -2.97174E+01 -2.50221E+01 -1.76447E+01 -2.01485E+01
 NY points of the fit to the data follow
   2.43106E+02  2.41370E+02  2.40236E+02  2.38135E+02  2.37164E+02  2.34766E+02  2.33906E+02  2.31299E+02  2.30147E+02  2.27282E+02
   2.25655E+02  2.22572E+02  2.20340E+02  2.17312E+02  2.14562E+02  2.11790E+02  2.08763E+02  2.06156E+02  2.02979E+02  2.00547E+02
   1.97378E+02  1.95183E+02  1.92120E+02  1.89985E+02  1.87194E+02  1.85115E+02  1.82636E+02  1.80460E+02  1.78315E+02  1.76199E+02
   1.74583E+02  1.72712E+02  1.71599E+02  1.69662E+02  1.68833E+02  1.66829E+02  1.66145E+02  1.64020E+02  1.63335E+02  1.61094E+02
   1.60260E+02  1.57952E+02  1.57017E+02  1.54682E+02  1.53769E+02  1.51512E+02  1.50534E+02  1.48328E+02  1.47018E+02  1.44675E+02
   1.43104E+02  1.40671E+02  1.38921E+02  1.36528E+02  1.34849E+02  1.32648E+02  1.31055E+02  1.28892E+02  1.27351E+02  1.25258E+02
   1.23757E+02  1.21803E+02  1.20257E+02  1.18341E+02  1.16807E+02  1.14957E+02  1.13399E+02  1.11608E+02  1.10075E+02  1.08393E+02
   1.06906E+02  1.05264E+02  1.03677E+02  1.01974E+02  1.00268E+02  9.85175E+01  9.67290E+01  9.49717E+01  9.31342E+01  9.14339E+01
   8.95752E+01  8.79657E+01  8.61553E+01  8.46891E+01  8.29941E+01  8.19675E+01  8.04314E+01  7.97805E+01  7.84058E+01  7.81009E+01
   7.69023E+01  7.68799E+01  7.58426E+01  7.59578E+01  7.50331E+01  7.51350E+01  7.42481E+01  7.42039E+01  7.32980E+01  7.29840E+01
   7.20100E+01  7.13193E+01  7.02580E+01  6.92343E+01  6.80895E+01  6.67495E+01  6.55516E+01  6.40101E+01  6.29114E+01  6.17570E+01
   6.09264E+01  6.01396E+01  5.96256E+01  5.92617E+01  5.90984E+01  5.91115E+01  5.92623E+01  5.94532E+01  5.98011E+01  5.99365E+01
   6.03163E+01  6.01154E+01  6.04065E+01  5.97952E+01  5.99240E+01  5.88721E+01  5.87347E+01  5.70729E+01  5.65927E+01  5.43525E+01
   5.35238E+01  5.08656E+01  4.97511E+01  4.69001E+01  4.55846E+01  4.26984E+01  4.12536E+01  3.85166E+01  3.70350E+01  3.45514E+01
   3.30951E+01  3.08864E+01  2.94727E+01  2.75650E+01  2.61882E+01  2.44382E+01  2.31038E+01  2.16608E+01  2.04703E+01  1.95247E+01
   1.84578E+01  1.75565E+01  1.64792E+01  1.56113E+01  1.45220E+01  1.36851E+01  1.25873E+01  1.17630E+01  1.06634E+01  9.86027E+00
   8.76582E+00  7.98783E+00  6.90967E+00  6.15180E+00  5.08502E+00  4.34462E+00  3.32409E+00  2.60617E+00  1.65652E+00  9.57875E-01
   9.05908E-02 -5.90341E-01 -1.35368E+00 -2.01190E+00 -2.65886E+00 -3.33101E+00 -3.93855E+00 -4.64037E+00 -5.28968E+00 -6.02942E+00
  -6.76938E+00 -7.52276E+00 -8.37572E+00 -9.02362E+00 -9.90135E+00 -1.03739E+01 -1.12601E+01 -1.14482E+01 -1.23599E+01 -1.22920E+01
  -1.33381E+01 -1.32315E+01 -1.46940E+01 -1.44355E+01 -1.62302E+01 -1.58119E+01 -1.79369E+01 -1.73648E+01 -1.97828E+01 -1.90193E+01
  -2.16209E+01 -2.06389E+01 -2.32926E+01 -2.21343E+01 -2.47225E+01 -2.33762E+01 -2.57242E+01 -2.41965E+01 -2.61739E+01 -2.45760E+01
  -2.61827E+01 -2.45475E+01 -2.57360E+01 -2.41891E+01 -2.50208E+01 -2.36875E+01 -2.43277E+01 -2.33369E+01 -2.40361E+01 -2.33939E+01
  -2.41962E+01 -2.37344E+01 -2.45526E+01 -2.40250E+01 -2.49267E+01 -2.43828E+01 -2.54374E+01 -2.48295E+01 -2.60372E+01 -2.55412E+01
  -2.70065E+01 -2.67285E+01 -2.83785E+01 -2.80294E+01 -2.94454E+01 -2.90460E+01 -3.01332E+01 -2.94648E+01 -2.96238E+01 -2.88883E+01
  -2.80072E+01 -2.74169E+01 -2.54546E+01 -2.52202E+01 -2.21742E+01 -2.25319E+01 -1.86136E+01 -1.97671E+01 -1.53145E+01 -1.73760E+01
  -1.27112E+01 -1.57210E+01 -1.12433E+01 -1.51657E+01 -1.12269E+01 -1.58677E+01 -1.26568E+01 -1.78013E+01 -1.55727E+01 -2.08301E+01
  -1.94154E+01 -2.43842E+01 -2.36573E+01 -2.81192E+01 -2.80697E+01 -3.20137E+01 -3.24107E+01 -3.57533E+01 -3.64594E+01 -3.92111E+01
  -4.00935E+01 -4.22791E+01 -4.31867E+01 -4.48977E+01 -4.58775E+01 -4.71100E+01 -4.79785E+01 -4.87101E+01 -4.92018E+01 -4.97972E+01
  -5.02190E+01 -5.07558E+01 -5.10950E+01 -5.15580E+01 -5.18081E+01 -5.21897E+01 -5.23437E+01 -5.26307E+01 -5.26772E+01 -5.28548E+01
  -5.27839E+01 -5.28268E+01 -5.26157E+01 -5.24909E+01 -5.21094E+01 -5.17879E+01 -5.12178E+01 -5.06831E+01 -4.99213E+01 -4.91788E+01
  -4.82334E+01 -4.72957E+01 -4.61860E+01 -4.50752E+01 -4.38191E+01 -4.25344E+01 -4.10948E+01 -3.95226E+01 -3.75649E+01 -3.52053E+01
  -3.35547E+01 -3.09979E+01 -3.01442E+01 -2.77092E+01 -2.81159E+01 -2.62557E+01 -2.84631E+01 -2.66149E+01 -2.99815E+01 -2.81963E+01
  -3.23237E+01 -3.05875E+01 -3.50356E+01 -3.33475E+01 -3.75630E+01 -3.60228E+01 -3.93240E+01 -3.78362E+01 -3.98293E+01 -3.81686E+01
  -3.88275E+01 -3.74307E+01 -3.68803E+01 -3.61801E+01 -3.49757E+01 -3.52550E+01 -3.37638E+01 -3.47240E+01 -3.32246E+01 -3.48963E+01
  -3.37158E+01 -3.58940E+01 -3.50821E+01 -3.75375E+01 -3.72056E+01 -3.97655E+01 -3.93602E+01 -4.13417E+01 -4.07155E+01 -4.19864E+01
  -4.17760E+01 -4.28783E+01 -4.27073E+01 -4.38292E+01 -4.39085E+01 -4.48551E+01 -4.49771E+01 -4.51600E+01 -4.48152E+01 -4.48763E+01
  -4.45136E+01 -4.46468E+01 -4.43713E+01 -4.46355E+01 -4.45380E+01 -4.49557E+01 -4.48800E+01 -4.51525E+01 -4.50237E+01 -4.50734E+01
  -4.51353E+01 -4.53684E+01 -4.54920E+01 -4.59111E+01 -4.60975E+01 -4.65113E+01 -4.66375E+01 -4.65932E+01 -4.64489E+01 -4.62313E+01
  -4.59539E+01 -4.56258E+01 -4.52542E+01 -4.48456E+01 -4.44065E+01 -4.39437E+01 -4.34642E+01 -4.29755E+01 -4.24854E+01 -4.20017E+01
  -4.15323E+01 -4.10849E+01 -4.06668E+01 -4.02847E+01 -3.99444E+01 -3.96506E+01 -3.94071E+01 -3.92162E+01 -3.90789E+01 -3.89951E+01
  -3.89629E+01 -3.89796E+01 -3.90411E+01 -3.91427E+01 -3.92786E+01 -3.94427E+01 -3.96287E+01 -3.98299E+01 -4.00401E+01 -4.02532E+01
  -4.04636E+01 -4.06663E+01 -4.08567E+01 -4.10313E+01 -4.11871E+01 -4.13216E+01 -4.14334E+01 -4.15213E+01 -4.15847E+01 -4.16237E+01
  -4.16385E+01 -4.16298E+01 -4.15984E+01 -4.15454E+01 -4.14719E+01 -4.13791E+01 -4.12683E+01 -4.11408E+01 -4.09978E+01 -4.08405E+01
  -4.06698E+01 -4.04871E+01 -4.02932E+01 -4.00891E+01 -3.98755E+01 -3.96533E+01 -3.94232E+01 -3.91859E+01 -3.89419E+01 -3.86918E+01
  -3.84361E+01 -3.81751E+01 -3.79095E+01 -3.76394E+01 -3.73653E+01 -3.70875E+01 -3.68063E+01 -3.65218E+01 -3.62345E+01 -3.59445E+01
  -3.56519E+01 -3.53571E+01 -3.50602E+01 -3.47613E+01 -3.44606E+01 -3.41583E+01 -3.38544E+01 -3.35492E+01 -3.32427E+01 -3.29351E+01
  -3.26264E+01 -3.23167E+01 -3.20063E+01 -3.16951E+01 -3.13832E+01 -3.10707E+01 -3.07577E+01 -3.04444E+01 -3.01306E+01 -2.98166E+01
  -2.95024E+01 -2.91880E+01 -2.88735E+01 -2.85590E+01 -2.82446E+01 -2.79302E+01 -2.76160E+01 -2.73020E+01 -2.69882E+01 -2.66747E+01
  -2.63615E+01 -2.60488E+01 -2.57364E+01 -2.54245E+01 -2.51130E+01 -2.48021E+01 -2.44917E+01 -2.41819E+01 -2.38727E+01 -2.35641E+01
  -2.32560E+01 -2.29486E+01 -2.26417E+01 -2.23354E+01 -2.20296E+01 -2.17241E+01 -2.14191E+01 -2.11141E+01
 NY background values follow
     2.275E+02    2.255E+02    2.235E+02    2.216E+02    2.196E+02    2.176E+02    2.156E+02    2.137E+02    2.117E+02    2.097E+02
     2.078E+02    2.058E+02    2.038E+02    2.019E+02    1.999E+02    1.980E+02    1.960E+02    1.940E+02    1.921E+02    1.901E+02
     1.882E+02    1.863E+02    1.843E+02    1.824E+02    1.805E+02    1.786E+02    1.766E+02    1.747E+02    1.728E+02    1.709E+02
     1.690E+02    1.671E+02    1.652E+02    1.634E+02    1.615E+02    1.596E+02    1.578E+02    1.559E+02    1.541E+02    1.523E+02
     1.504E+02    1.486E+02    1.468E+02    1.450E+02    1.432E+02    1.414E+02    1.397E+02    1.379E+02    1.362E+02    1.344E+02
     1.327E+02    1.310E+02    1.293E+02    1.276E+02    1.259E+02    1.242E+02    1.225E+02    1.209E+02    1.192E+02    1.176E+02
     1.160E+02    1.144E+02    1.128E+02    1.112E+02    1.097E+02    1.081E+02    1.066E+02    1.051E+02    1.036E+02    1.021E+02
     1.006E+02    9.916E+01    9.772E+01    9.629E+01    9.488E+01    9.348E+01    9.210E+01    9.073E+01    8.938E+01    8.804E+01
     8.671E+01    8.540E+01    8.410E+01    8.282E+01    8.155E+01    8.029E+01    7.904E+01    7.781E+01    7.659E+01    7.539E+01
     7.419E+01    7.301E+01    7.183E+01    7.067E+01    6.953E+01    6.839E+01    6.726E+01    6.615E+01    6.504E+01    6.394E+01
     6.286E+01    6.179E+01    6.072E+01    5.967E+01    5.862E+01    5.758E+01    5.656E+01    5.554E+01    5.453E+01    5.353E+01
     5.253E+01    5.155E+01    5.057E+01    4.960E+01    4.864E+01    4.769E+01    4.674E+01    4.580E+01    4.486E+01    4.394E+01
     4.302E+01    4.210E+01    4.119E+01    4.029E+01    3.940E+01    3.850E+01    3.762E+01    3.674E+01    3.586E+01    3.499E+01
     3.412E+01    3.326E+01    3.240E+01    3.155E+01    3.070E+01    2.985E+01    2.901E+01    2.816E+01    2.733E+01    2.649E+01
     2.566E+01    2.483E+01    2.400E+01    2.318E+01    2.235E+01    2.153E+01    2.071E+01    1.989E+01    1.908E+01    1.827E+01
     1.746E+01    1.665E+01    1.584E+01    1.504E+01    1.424E+01    1.344E+01    1.264E+01    1.185E+01    1.106E+01    1.027E+01
     9.485E+00    8.702E+00    7.922E+00    7.145E+00    6.370E+00    5.598E+00    4.829E+00    4.063E+00    3.299E+00    2.539E+00
     1.782E+00    1.028E+00    2.763E-01   -4.718E-01   -1.217E+00   -1.958E+00   -2.697E+00   -3.432E+00   -4.164E+00   -4.893E+00
    -5.618E+00   -6.340E+00   -7.059E+00   -7.774E+00   -8.485E+00   -9.193E+00   -9.898E+00   -1.060E+01   -1.130E+01   -1.199E+01
    -1.268E+01   -1.336E+01   -1.405E+01   -1.473E+01   -1.540E+01   -1.607E+01   -1.674E+01   -1.740E+01   -1.806E+01   -1.871E+01
    -1.936E+01   -2.001E+01   -2.065E+01   -2.129E+01   -2.192E+01   -2.255E+01   -2.318E+01   -2.380E+01   -2.442E+01   -2.503E+01
    -2.564E+01   -2.624E+01   -2.684E+01   -2.743E+01   -2.802E+01   -2.861E+01   -2.919E+01   -2.976E+01   -3.033E+01   -3.090E+01
    -3.146E+01   -3.202E+01   -3.257E+01   -3.312E+01   -3.366E+01   -3.420E+01   -3.473E+01   -3.526E+01   -3.579E+01   -3.631E+01
    -3.682E+01   -3.733E+01   -3.783E+01   -3.833E+01   -3.883E+01   -3.932E+01   -3.980E+01   -4.028E+01   -4.076E+01   -4.123E+01
    -4.169E+01   -4.215E+01   -4.261E+01   -4.306E+01   -4.350E+01   -4.394E+01   -4.437E+01   -4.480E+01   -4.523E+01   -4.565E+01
    -4.606E+01   -4.647E+01   -4.687E+01   -4.727E+01   -4.767E+01   -4.805E+01   -4.844E+01   -4.881E+01   -4.919E+01   -4.955E+01
    -4.991E+01   -5.027E+01   -5.062E+01   -5.097E+01   -5.131E+01   -5.164E+01   -5.197E+01   -5.230E+01   -5.261E+01   -5.293E+01
    -5.323E+01   -5.354E+01   -5.383E+01   -5.412E+01   -5.441E+01   -5.469E+01   -5.496E+01   -5.523E+01   -5.550E+01   -5.575E+01
    -5.601E+01   -5.625E+01   -5.649E+01   -5.673E+01   -5.696E+01   -5.718E+01   -5.740E+01   -5.761E+01   -5.782E+01   -5.802E+01
    -5.821E+01   -5.840E+01   -5.859E+01   -5.877E+01   -5.894E+01   -5.911E+01   -5.927E+01   -5.943E+01   -5.958E+01   -5.973E+01
    -5.987E+01   -6.000E+01   -6.013E+01   -6.026E+01   -6.038E+01   -6.049E+01   -6.060E+01   -6.070E+01   -6.080E+01   -6.090E+01
    -6.099E+01   -6.107E+01   -6.115E+01   -6.122E+01   -6.129E+01   -6.135E+01   -6.141E+01   -6.146E+01   -6.151E+01   -6.155E+01
    -6.159E+01   -6.163E+01   -6.166E+01   -6.168E+01   -6.170E+01   -6.171E+01   -6.172E+01   -6.173E+01   -6.173E+01   -6.172E+01
    -6.171E+01   -6.170E+01   -6.168E+01   -6.166E+01   -6.163E+01   -6.160E+01   -6.156E+01   -6.152E+01   -6.147E+01   -6.142E+01
    -6.137E+01   -6.131E+01   -6.124E+01   -6.118E+01   -6.110E+01   -6.103E+01   -6.095E+01   -6.086E+01   -6.077E+01   -6.068E+01
    -6.058E+01   -6.048E+01   -6.037E+01   -6.026E+01   -6.015E+01   -6.003E+01   -5.991E+01   -5.978E+01   -5.965E+01   -5.951E+01
    -5.937E+01   -5.923E+01   -5.909E+01   -5.894E+01   -5.878E+01   -5.862E+01   -5.846E+01   -5.830E+01   -5.813E+01   -5.796E+01
    -5.778E+01   -5.760E+01   -5.742E+01   -5.723E+01   -5.704E+01   -5.685E+01   -5.666E+01   -5.646E+01   -5.626E+01   -5.605E+01
    -5.584E+01   -5.563E+01   -5.542E+01   -5.520E+01   -5.498E+01   -5.475E+01   -5.453E+01   -5.430E+01   -5.407E+01   -5.383E+01
    -5.360E+01   -5.336E+01   -5.311E+01   -5.287E+01   -5.262E+01   -5.237E+01   -5.212E+01   -5.186E+01   -5.160E+01   -5.134E+01
    -5.108E+01   -5.082E+01   -5.055E+01   -5.028E+01   -5.001E+01   -4.974E+01   -4.946E+01   -4.919E+01   -4.891E+01   -4.863E+01
    -4.834E+01   -4.806E+01   -4.777E+01   -4.749E+01   -4.720E+01   -4.690E+01   -4.661E+01   -4.632E+01   -4.602E+01   -4.572E+01
    -4.542E+01   -4.512E+01   -4.482E+01   -4.451E+01   -4.421E+01   -4.390E+01   -4.359E+01   -4.329E+01   -4.298E+01   -4.266E+01
    -4.235E+01   -4.204E+01   -4.172E+01   -4.141E+01   -4.109E+01   -4.078E+01   -4.046E+01   -4.014E+01   -3.982E+01   -3.950E+01
    -3.918E+01   -3.886E+01   -3.853E+01   -3.821E+01   -3.789E+01   -3.756E+01   -3.724E+01   -3.691E+01   -3.659E+01   -3.626E+01
    -3.594E+01   -3.561E+01   -3.528E+01   -3.496E+01   -3.463E+01   -3.430E+01   -3.397E+01   -3.365E+01   -3.332E+01   -3.299E+01
    -3.266E+01   -3.234E+01   -3.201E+01   -3.168E+01   -3.136E+01   -3.103E+01   -3.070E+01   -3.038E+01   -3.005E+01   -2.973E+01
    -2.940E+01   -2.908E+01   -2.875E+01   -2.843E+01   -2.811E+01   -2.778E+01   -2.746E+01   -2.714E+01   -2.682E+01   -2.650E+01
    -2.618E+01   -2.587E+01   -2.555E+01   -2.523E+01   -2.492E+01   -2.460E+01   -2.429E+01   -2.398E+01   -2.367E+01   -2.336E+01
    -2.305E+01   -2.274E+01   -2.244E+01   -2.213E+01   -2.183E+01   -2.153E+01   -2.123E+01   -2.093E+01
 Ala      Conc. = 6.62E+03
