 LCModel (Version 6.3-1L) Copyright: S.W. Provencher.          Ref.: Magn. Reson. Med. 30:672-679 (1993).                
 Slice#3 Row#10 Col#7  PD_24_press_2_raw_act
 36 lines in following concentration table = NCONC+1
    Conc.  %SD /Cr+PCr  Metabolite                                         
    0.000 999%   0.000 Ala                                                 
  130.314 155% 8.1E-02 Asp                                                 
  463.492  46%   0.287 Cr                                                  
 1.15E+03  19%   0.713 PCr                                                 
    0.000 999%   0.000 GABA                                                
   86.745 158% 5.4E-02 Glc                                                 
  510.867  39%   0.317 Gln                                                 
  933.573  23%   0.579 Glu                                                 
  343.771  60%   0.213 GPC                                                 
   84.123 249% 5.2E-02 PCh                                                 
  336.131  20%   0.208 GSH                                                 
 1.35E+03  18%   0.838 Ins                                                 
    0.000 999%   0.000 Lac                                                 
 2.10E+03   5%   1.301 NAA                                                 
   80.850 125% 5.0E-02 NAAG                                                
  117.953  21% 7.3E-02 Scyllo                                              
  144.026 136% 8.9E-02 Tau                                                 
  226.501  51%   0.140 -CrCH2                                              
  427.893   5%   0.265 GPC+PCh                                             
 2.18E+03   4%   1.352 NAA+NAAG                                            
 1.61E+03   3%   1.000 Cr+PCr                                              
 1.44E+03  21%   0.896 Glu+Gln                                             
 1.23E+03  28%   0.762 Lip13a                                              
    0.000 999%   0.000 Lip13b                                              
    0.000 999%   0.000 Lip09                                               
 1.03E+03  16%   0.638 MM09                                                
  235.754  61%   0.146 Lip20                                               
 2.32E+03  13%   1.439 MM20                                                
  327.815  33%   0.203 MM12                                                
 1.45E+03  19%   0.900 MM14                                                
  621.564  31%   0.385 MM17                                                
 1.23E+03  28%   0.762 Lip13a+Lip13b                                       
 3.01E+03  11%   1.865 MM14+Lip13a+Lip13b+MM12                             
 1.03E+03  16%   0.638 MM09+Lip09                                          
 2.56E+03  13%   1.585 MM20+Lip20                                          
   6 lines in following misc. output table
  FWHM = 0.046 ppm    S/N =  12                                            
  Data shift = 0.031 ppm                                                   
  Ph: -38 deg     -11.4 deg/ppm                                            
  alphaB,S = 2.3E+00,   1.2E+02                                            
   14 spline knots.   Ns = 6(1)                                            
  ( 9) 2 infls.   ( 1) 1 extrs.                                            
  498 points on ppm-axis = NY
      4.000000     3.992357     3.984714     3.977070     3.969427     3.961784     3.954141     3.946497     3.938854     3.931211
      3.923568     3.915925     3.908281     3.900638     3.892995     3.885352     3.877708     3.870065     3.862422     3.854779
      3.847136     3.839492     3.831849     3.824206     3.816563     3.808919     3.801276     3.793633     3.785990     3.778347
      3.770703     3.763060     3.755417     3.747774     3.740130     3.732487     3.724844     3.717201     3.709558     3.701914
      3.694271     3.686628     3.678985     3.671341     3.663698     3.656055     3.648412     3.640769     3.633125     3.625482
      3.617839     3.610196     3.602552     3.594909     3.587266     3.579623     3.571980     3.564336     3.556693     3.549050
      3.541407     3.533763     3.526120     3.518477     3.510834     3.503191     3.495547     3.487904     3.480261     3.472618
      3.464974     3.457331     3.449688     3.442045     3.434402     3.426758     3.419115     3.411472     3.403829     3.396185
      3.388542     3.380899     3.373256     3.365613     3.357969     3.350326     3.342683     3.335040     3.327396     3.319753
      3.312110     3.304467     3.296824     3.289180     3.281537     3.273894     3.266251     3.258607     3.250964     3.243321
      3.235678     3.228034     3.220391     3.212748     3.205105     3.197462     3.189818     3.182175     3.174532     3.166889
      3.159245     3.151602     3.143959     3.136316     3.128673     3.121029     3.113386     3.105743     3.098100     3.090456
      3.082813     3.075170     3.067527     3.059884     3.052240     3.044597     3.036954     3.029311     3.021667     3.014024
      3.006381     2.998738     2.991095     2.983451     2.975808     2.968165     2.960522     2.952878     2.945235     2.937592
      2.929949     2.922306     2.914662     2.907019     2.899376     2.891733     2.884089     2.876446     2.868803     2.861160
      2.853517     2.845873     2.838230     2.830587     2.822944     2.815300     2.807657     2.800014     2.792371     2.784728
      2.777084     2.769441     2.761798     2.754155     2.746511     2.738868     2.731225     2.723582     2.715939     2.708295
      2.700652     2.693009     2.685366     2.677722     2.670079     2.662436     2.654793     2.647150     2.639506     2.631863
      2.624220     2.616577     2.608933     2.601290     2.593647     2.586004     2.578361     2.570717     2.563074     2.555431
      2.547788     2.540144     2.532501     2.524858     2.517215     2.509572     2.501928     2.494285     2.486642     2.478999
      2.471355     2.463712     2.456069     2.448426     2.440783     2.433139     2.425496     2.417853     2.410210     2.402566
      2.394923     2.387280     2.379637     2.371994     2.364350     2.356707     2.349064     2.341421     2.333777     2.326134
      2.318491     2.310848     2.303205     2.295561     2.287918     2.280275     2.272632     2.264988     2.257345     2.249702
      2.242059     2.234416     2.226772     2.219129     2.211486     2.203843     2.196199     2.188556     2.180913     2.173270
      2.165627     2.157983     2.150340     2.142697     2.135054     2.127410     2.119767     2.112124     2.104481     2.096838
      2.089194     2.081551     2.073908     2.066265     2.058621     2.050978     2.043335     2.035692     2.028049     2.020405
      2.012762     2.005119     1.997476     1.989833     1.982190     1.974546     1.966903     1.959260     1.951617     1.943974
      1.936331     1.928688     1.921045     1.913402     1.905759     1.898115     1.890472     1.882829     1.875186     1.867543
      1.859900     1.852257     1.844614     1.836971     1.829327     1.821684     1.814041     1.806398     1.798755     1.791112
      1.783469     1.775826     1.768183     1.760540     1.752896     1.745253     1.737610     1.729967     1.722324     1.714681
      1.707038     1.699395     1.691752     1.684108     1.676465     1.668822     1.661179     1.653536     1.645893     1.638250
      1.630607     1.622964     1.615321     1.607677     1.600034     1.592391     1.584748     1.577105     1.569462     1.561819
      1.554176     1.546533     1.538890     1.531246     1.523603     1.515960     1.508317     1.500674     1.493031     1.485388
      1.477745     1.470102     1.462458     1.454815     1.447172     1.439529     1.431886     1.424243     1.416600     1.408957
      1.401314     1.393671     1.386027     1.378384     1.370741     1.363098     1.355455     1.347812     1.340169     1.332526
      1.324883     1.317240     1.309596     1.301953     1.294310     1.286667     1.279024     1.271381     1.263738     1.256095
      1.248452     1.240808     1.233165     1.225522     1.217879     1.210236     1.202593     1.194950     1.187307     1.179664
      1.172021     1.164377     1.156734     1.149091     1.141448     1.133805     1.126162     1.118519     1.110876     1.103233
      1.095590     1.087946     1.080303     1.072660     1.065017     1.057374     1.049731     1.042088     1.034445     1.026802
      1.019158     1.011515     1.003872     0.996229     0.988586     0.980943     0.973300     0.965657     0.958014     0.950371
      0.942727     0.935084     0.927441     0.919798     0.912155     0.904512     0.896869     0.889226     0.881583     0.873940
      0.866296     0.858653     0.851010     0.843367     0.835724     0.828081     0.820438     0.812795     0.805152     0.797508
      0.789865     0.782222     0.774579     0.766936     0.759293     0.751650     0.744007     0.736364     0.728721     0.721077
      0.713434     0.705791     0.698148     0.690505     0.682862     0.675219     0.667576     0.659933     0.652290     0.644646
      0.637003     0.629360     0.621717     0.614074     0.606431     0.598788     0.591145     0.583502     0.575858     0.568215
      0.560572     0.552929     0.545286     0.537643     0.530000     0.522357     0.514714     0.507071     0.499427     0.491784
      0.484141     0.476498     0.468855     0.461212     0.453569     0.445925     0.438282     0.430639     0.422996     0.415353
      0.407710     0.400067     0.392424     0.384780     0.377137     0.369494     0.361851     0.354208     0.346565     0.338922
      0.331278     0.323635     0.315992     0.308349     0.300706     0.293063     0.285420     0.277777     0.270133     0.262490
      0.254847     0.247204     0.239561     0.231918     0.224275     0.216631     0.208988     0.201345
 NY phased data points follow
  -1.95904E+01 -1.66881E+01 -1.38889E+01 -2.11666E+01 -1.09482E+01 -1.19617E+01 -2.57453E+00  6.82397E-01  1.49632E+01  1.22751E+01
   2.08851E+01  1.50428E+01  1.51924E+01  8.61714E+00 -5.57224E-01 -1.19307E+00 -7.85451E+00 -1.37083E+01 -1.29482E+01 -2.01348E+01
  -1.21782E+01 -2.11643E+01 -1.47611E+01 -1.16363E+01 -7.78941E+00 -1.11913E+01 -7.53293E+00 -1.09967E+01 -4.74586E+00 -8.81499E+00
   9.73941E-02 -3.74672E+00 -2.80930E+00 -1.04899E+01 -3.88279E+00 -1.17629E+01 -8.77043E+00 -7.00416E+00 -8.05190E+00 -5.09148E+00
  -8.04527E+00 -6.41098E+00 -6.99021E+00 -8.95547E+00 -2.23923E+00 -2.70677E+00  6.51008E+00  1.81465E+00 -2.64423E+00  6.51474E-01
  -6.09726E+00 -8.86218E+00 -6.86487E+00 -9.36161E+00 -3.03582E+00 -1.10484E+01 -7.15006E+00 -9.63271E+00 -5.80760E+00 -8.74258E+00
  -5.03198E+00 -1.20172E+01 -8.83168E+00 -1.41113E+01 -8.17605E+00 -1.41476E+01 -1.24243E+01 -1.50392E+01 -1.23748E+01 -9.96804E+00
  -9.44827E+00 -5.24502E+00 -4.59448E+00 -9.03605E+00 -5.44619E+00 -1.13424E+01 -1.89207E+00 -9.20965E+00 -8.86933E+00 -1.10651E+01
  -7.37612E+00 -1.22464E+01 -1.62024E+00 -1.04568E+01 -2.12067E+00 -9.02185E+00 -1.64701E-01 -7.39288E+00 -3.44707E+00 -8.36192E+00
  -3.95763E+00 -4.87099E+00 -3.43153E+00 -5.57017E+00 -1.44612E+00 -1.66416E-01 -5.96632E+00 -8.70065E+00 -1.77954E+00  8.46084E+00
   1.41944E+01  2.47300E+01  3.03504E+01  3.41689E+01  3.30486E+01  1.89381E+01  2.14976E+01  9.68193E+00  8.44577E+00 -1.60318E+00
   2.36338E+00 -6.00058E+00 -4.31602E+00  3.49833E-01 -4.70365E+00 -7.89071E+00 -2.80693E+00 -8.29119E+00 -3.85356E+00 -7.16075E+00
  -3.14011E+00  1.50687E+00  7.65419E+00  1.61456E+01  2.32226E+01  3.41773E+01  4.63634E+01  5.33747E+01  5.20417E+01  3.28479E+01
   3.40269E+01  1.79174E+01  1.55045E+01  9.56762E+00  5.50438E+00 -1.78626E+00 -1.33073E-01 -1.71598E+00  1.42247E+00 -6.23757E+00
   6.62669E-01 -1.51527E+00 -4.10320E+00 -2.42275E+00 -4.84017E+00 -6.34498E+00 -4.18409E+00 -2.91468E+00 -2.50761E+00  6.31664E-01
  -6.67208E+00 -9.78515E+00 -1.69001E+00 -8.85619E+00 -1.65825E+00 -7.57801E+00 -3.78756E+00 -8.82681E+00 -5.93499E+00 -7.02711E+00
  -3.77368E+00 -1.03763E+01 -7.31238E+00 -9.28406E+00 -5.07400E+00 -8.51722E+00 -6.06557E+00 -7.59746E+00 -7.95424E+00 -4.48036E+00
  -1.04077E+01 -9.64684E+00 -1.02768E+01 -9.47555E+00 -1.44680E+01 -1.46032E+01 -1.06907E+01 -1.35629E+01 -1.44054E+01 -7.85787E+00
  -1.21071E+01 -1.38333E+01 -1.43748E+01 -1.91217E+01 -7.69087E+00 -7.33744E+00 -1.07757E+01 -1.28451E+01 -3.97564E+00 -2.48193E+00
   1.25461E+00 -1.02934E+00  2.53571E+00 -2.28800E+00  7.04094E+00  3.61265E+00  9.40301E-01 -5.23808E-01 -3.29268E+00 -5.59883E+00
  -1.65991E+00  1.04241E+00 -1.64331E-01 -1.32366E+00 -5.06916E-01  6.18061E+00 -4.02189E+00  1.37719E-01 -3.82545E+00 -9.93548E+00
  -2.32147E+00 -4.37248E+00  4.69663E-01  2.82580E+00  5.96729E+00  8.44314E+00  8.90022E+00  7.45592E+00  7.74523E+00  2.41278E+00
   1.43130E+00 -2.17433E+00  2.51974E+00 -9.36025E-01  2.37718E+00  2.30807E+00  4.40779E+00  9.54718E+00  1.03628E+01  6.36561E+00
   1.18206E+01  6.30930E+00  7.72066E+00  3.79807E+00  4.60093E+00  5.31028E+00  8.91873E+00  6.13699E+00  3.01800E+00  5.99549E+00
   1.63882E+00  2.69834E+00  2.93486E+00  2.70927E+00  5.14388E+00  5.20469E+00  5.58183E+00  7.34334E+00  1.22627E+01  9.62684E+00
   1.18472E+01  1.19325E+01  1.53043E+01  1.58096E+01  1.85618E+01  2.49456E+01  3.00914E+01  4.47005E+01  6.52533E+01  7.67109E+01
   8.18032E+01  8.14617E+01  6.74379E+01  5.37634E+01  3.94148E+01  3.07819E+01  2.38135E+01  1.75825E+01  9.35408E+00  9.08511E+00
   9.42817E+00  1.39738E+01  3.06730E+00  6.02748E+00  8.03859E+00  8.80521E+00  4.25309E+00  6.76771E-01  5.14256E+00  1.44685E+00
   4.24921E+00  5.25864E+00  7.72024E+00  3.99046E+00  4.44937E+00 -6.19444E-01  1.51362E+00  1.58295E-02  4.39615E+00  4.68459E+00
   3.84860E+00  5.65048E+00  1.40778E+00  6.71273E+00  1.18865E+00  2.69010E+00  3.13126E+00  3.56622E+00  3.06389E+00 -7.08329E-02
   7.18272E+00  2.11924E+00  6.09784E+00  5.48442E+00  3.17398E-01  4.93885E+00  7.62691E+00  7.51829E+00  3.73306E+00  9.21198E+00
   8.43742E+00  5.70935E+00  1.02679E+01  1.06258E+01  9.47496E+00  1.10140E+01  5.14403E+00  8.57699E+00  8.85210E+00  4.93425E+00
   9.89989E+00  1.02331E+01  4.39662E+00  9.00103E+00  8.50552E+00  4.98131E+00  9.29194E+00  9.40371E+00  1.31522E+01  1.32826E+01
   8.26367E+00  1.13647E+01  1.12469E+01  8.94078E+00  1.17104E+01  1.35983E+01  1.38959E+01  1.40629E+01  1.18943E+01  1.16280E+01
   1.00304E+01  9.93758E+00  8.87734E+00  7.48631E+00  1.27362E+01  1.21347E+01  1.21291E+01  1.04137E+01  1.49922E+01  1.35752E+01
   1.51380E+01  8.48553E+00  1.01992E+01  7.76428E+00  1.26011E+01  1.22520E+01  1.16386E+01  8.66173E+00  9.96743E+00  6.92649E+00
   9.46964E+00  9.53199E+00  1.26544E+01  8.76791E+00  4.67797E+00  6.49316E+00  1.29120E+01  1.16218E+01  5.48106E+00  9.52018E+00
   9.20836E+00  1.33993E+01  7.04262E+00  4.27272E+00  5.40837E+00  9.50739E+00  7.22267E+00  6.05254E+00  5.12105E+00  7.04395E+00
   4.06428E+00  3.88991E+00  3.15200E+00  3.29486E+00  3.09248E+00  2.69530E+00  3.92109E+00  5.60449E+00  9.59461E+00  1.78997E+00
   3.37007E+00  4.18514E+00  9.74991E+00  8.79921E+00  4.46380E+00  3.56286E+00  6.33815E+00  6.91544E+00  5.03294E+00  1.16473E+01
   1.14292E+01  5.18084E+00  9.11777E+00  1.16045E+01  6.94069E+00  7.22098E+00  1.10271E+01  1.29881E+01  4.56313E+00  1.24645E+01
   8.75898E+00  7.64905E+00  9.60583E+00  8.69886E+00  8.64899E+00  6.15886E+00  6.70557E+00  3.86633E-01  5.51941E+00  3.29897E+00
   5.34697E+00  4.53695E+00  3.60466E+00  3.26064E+00  2.65715E+00  1.87939E+00  7.39395E+00  4.22415E+00 -4.34221E-01  5.93766E+00
   7.92136E+00  7.37867E-01  4.36076E+00  7.07902E-02  3.08542E+00  7.15826E+00  2.44813E+00  6.19811E+00  6.82899E+00  6.54136E+00
  -5.12968E-01  3.41231E+00  4.65971E+00  4.79762E+00  1.96100E+00  2.66631E+00  8.34956E-01  4.39050E+00  3.26801E+00  7.06278E+00
   5.84936E+00  6.95949E+00  7.89271E+00  4.80788E+00 -3.22890E-01  4.13764E+00  6.87485E+00  6.59282E+00  2.61485E+00  1.12101E+00
   2.17022E+00 -1.03011E+00  3.15933E-01  9.34828E-01  5.46903E+00  4.88317E+00  2.34022E-01 -1.73280E-01  8.14735E-01  3.42873E+00
   2.30685E+00 -4.62956E+00  3.64550E+00  1.85228E+00  5.07739E+00  7.64864E-02  4.70202E-01  3.38257E+00  9.15194E-01  3.96007E+00
   4.01689E+00  2.69570E+00  2.79666E+00  9.23243E-01  1.13171E+00  1.76640E+00  8.19075E+00  5.06072E+00 -1.17919E-01  2.61460E+00
   4.95212E+00  2.50457E+00  4.65167E+00  1.58543E+00 -6.07144E-01  3.73595E+00  7.64075E-02 -7.58471E-01
 NY points of the fit to the data follow
  -1.49005E+01 -1.51855E+01 -1.52418E+01 -1.46596E+01 -1.25588E+01 -8.70717E+00 -3.14728E+00  3.66814E+00  1.05691E+01  1.58170E+01
   1.78499E+01  1.62337E+01  1.20126E+01  6.88868E+00  2.13341E+00 -1.92081E+00 -5.61194E+00 -8.71952E+00 -1.05198E+01 -1.13170E+01
  -1.16051E+01 -1.17493E+01 -1.19571E+01 -1.22264E+01 -1.22296E+01 -1.17756E+01 -1.07245E+01 -8.99151E+00 -6.76153E+00 -4.49436E+00
  -2.81408E+00 -2.15412E+00 -2.53832E+00 -3.69039E+00 -5.22890E+00 -6.88179E+00 -8.58714E+00 -1.00929E+01 -1.09979E+01 -1.14094E+01
  -1.13359E+01 -1.05933E+01 -9.13286E+00 -7.09208E+00 -4.74066E+00 -2.43332E+00 -7.81778E-01 -4.18139E-01 -1.46321E+00 -3.49226E+00
  -5.75093E+00 -7.64338E+00 -9.02708E+00 -9.98975E+00 -1.04730E+01 -1.02479E+01 -9.40580E+00 -8.34338E+00 -7.38428E+00 -6.78731E+00
  -6.73350E+00 -7.20156E+00 -7.99829E+00 -8.78921E+00 -9.32481E+00 -9.54059E+00 -9.45278E+00 -9.09838E+00 -8.58542E+00 -7.98740E+00
  -7.38740E+00 -6.90645E+00 -6.61549E+00 -6.53955E+00 -6.64110E+00 -6.85633E+00 -7.16241E+00 -7.50699E+00 -7.86073E+00 -8.10352E+00
  -8.06796E+00 -7.62561E+00 -6.90795E+00 -6.02068E+00 -5.08118E+00 -4.37617E+00 -4.19284E+00 -4.63677E+00 -5.53824E+00 -6.49969E+00
  -7.17315E+00 -7.53210E+00 -7.75294E+00 -7.99854E+00 -8.20754E+00 -8.13358E+00 -7.58928E+00 -5.37228E+00 -7.32592E-01  6.21106E+00
   1.50073E+01  2.41469E+01  3.11597E+01  3.37713E+01  3.12844E+01  2.51239E+01  1.78182E+01  1.12188E+01  5.76407E+00  9.52070E-01
  -3.23086E+00 -5.54512E+00 -6.23476E+00 -6.45469E+00 -6.54071E+00 -6.57294E+00 -6.55744E+00 -6.49392E+00 -6.34875E+00 -6.01208E+00
  -5.01985E+00 -1.83394E+00  4.56794E+00  1.38910E+01  2.55035E+01  3.75494E+01  4.69256E+01  5.07133E+01  4.78777E+01  4.01259E+01
   3.06982E+01  2.19961E+01  1.45890E+01  7.81000E+00  1.55550E+00 -2.48030E+00 -4.01908E+00 -4.51343E+00 -4.46357E+00 -4.12605E+00
  -3.72768E+00 -3.38939E+00 -3.16203E+00 -3.10199E+00 -3.18349E+00 -3.35481E+00 -3.59954E+00 -3.88056E+00 -4.15956E+00 -4.41040E+00
  -4.60132E+00 -4.75313E+00 -4.86161E+00 -4.91292E+00 -4.91014E+00 -4.93335E+00 -5.06311E+00 -5.32062E+00 -5.70011E+00 -6.08740E+00
  -6.33743E+00 -6.34294E+00 -6.07610E+00 -5.67759E+00 -5.37666E+00 -5.33786E+00 -5.56087E+00 -5.89174E+00 -6.18691E+00 -6.46925E+00
  -6.81705E+00 -7.26467E+00 -7.74171E+00 -8.13003E+00 -8.38559E+00 -8.50087E+00 -8.43075E+00 -8.19181E+00 -7.92006E+00 -7.76265E+00
  -7.72849E+00 -7.73114E+00 -7.65814E+00 -7.45211E+00 -7.19435E+00 -6.84622E+00 -6.14321E+00 -4.99300E+00 -3.55549E+00 -2.20496E+00
  -1.29262E+00 -8.94772E-01 -9.60614E-01 -1.31775E+00 -1.77875E+00 -2.24336E+00 -2.57447E+00 -2.57388E+00 -2.12706E+00 -1.22637E+00
  -1.37886E-02  1.24168E+00  2.24592E+00  2.75192E+00  2.49778E+00  1.49825E+00 -9.92733E-02 -1.98580E+00 -3.69339E+00 -4.75582E+00
  -4.86256E+00 -3.98584E+00 -2.31763E+00 -1.84446E-01  1.95684E+00  3.55714E+00  4.12461E+00  3.44347E+00  1.71651E+00 -3.24578E-01
  -2.08390E+00 -3.23509E+00 -3.50821E+00 -2.77108E+00 -1.14826E+00  7.95154E-01  2.42739E+00  3.54674E+00  4.19535E+00  4.47237E+00
   4.42557E+00  4.23914E+00  4.23033E+00  4.55665E+00  5.13105E+00  5.83952E+00  6.52070E+00  6.95280E+00  7.01204E+00  6.67229E+00
   6.08395E+00  5.55427E+00  5.36375E+00  5.59955E+00  6.17837E+00  7.00432E+00  7.87995E+00  8.61986E+00  9.21929E+00  9.81708E+00
   1.05590E+01  1.14519E+01  1.25720E+01  1.41807E+01  1.76319E+01  2.47628E+01  3.52789E+01  4.86651E+01  6.33523E+01  7.58379E+01
   8.19722E+01  7.93870E+01  6.92252E+01  5.56706E+01  4.27358E+01  3.20302E+01  2.29920E+01  1.47863E+01  8.86580E+00  6.62586E+00
   5.77237E+00  5.28585E+00  5.00044E+00  4.82858E+00  4.67321E+00  4.50405E+00  4.30701E+00  4.08955E+00  3.87068E+00  3.66431E+00
   3.47249E+00  3.30702E+00  3.18352E+00  3.09922E+00  3.03968E+00  2.99479E+00  2.96540E+00  2.95639E+00  2.96898E+00  3.00117E+00
   3.05758E+00  3.14094E+00  3.24921E+00  3.37731E+00  3.52289E+00  3.68508E+00  3.86305E+00  4.05603E+00  4.26339E+00  4.48356E+00
   4.71513E+00  4.95454E+00  5.19679E+00  5.43651E+00  5.66888E+00  5.89014E+00  6.09735E+00  6.28788E+00  6.46093E+00  6.61626E+00
   6.75424E+00  6.87662E+00  6.98627E+00  7.08656E+00  7.18153E+00  7.27545E+00  7.37290E+00  7.47841E+00  7.59628E+00  7.73003E+00
   7.88226E+00  8.05440E+00  8.24684E+00  8.45889E+00  8.68877E+00  8.93347E+00  9.18901E+00  9.45062E+00  9.71322E+00  9.97159E+00
   1.02205E+01  1.04551E+01  1.06708E+01  1.08639E+01  1.10319E+01  1.11733E+01  1.12875E+01  1.13749E+01  1.14371E+01  1.14761E+01
   1.14951E+01  1.14973E+01  1.14862E+01  1.14649E+01  1.14365E+01  1.14033E+01  1.13673E+01  1.13293E+01  1.12894E+01  1.12467E+01
   1.11997E+01  1.11464E+01  1.10842E+01  1.10104E+01  1.09221E+01  1.08164E+01  1.06913E+01  1.05449E+01  1.03764E+01  1.01854E+01
   9.97224E+00  9.73819E+00  9.48529E+00  9.21622E+00  8.93414E+00  8.64248E+00  8.34496E+00  8.04545E+00  7.74793E+00  7.45617E+00
   7.17369E+00  6.90368E+00  6.64904E+00  6.41239E+00  6.19603E+00  6.00190E+00  5.83153E+00  5.68618E+00  5.56696E+00  5.47485E+00
   5.41067E+00  5.37509E+00  5.36862E+00  5.39171E+00  5.44479E+00  5.52820E+00  5.64206E+00  5.78614E+00  5.95988E+00  6.16229E+00
   6.39190E+00  6.64655E+00  6.92329E+00  7.21823E+00  7.52668E+00  7.84309E+00  8.16119E+00  8.47398E+00  8.77393E+00  9.05317E+00
   9.30395E+00  9.51889E+00  9.69129E+00  9.81538E+00  9.88663E+00  9.90197E+00  9.86009E+00  9.76141E+00  9.60807E+00  9.40374E+00
   9.15349E+00  8.86353E+00  8.54101E+00  8.19355E+00  7.82896E+00  7.45478E+00  7.07814E+00  6.70552E+00  6.34261E+00  5.99413E+00
   5.66375E+00  5.35410E+00  5.06691E+00  4.80310E+00  4.56290E+00  4.34588E+00  4.15111E+00  3.97727E+00  3.82289E+00  3.68638E+00
   3.56612E+00  3.46046E+00  3.36777E+00  3.28651E+00  3.21535E+00  3.15306E+00  3.09858E+00  3.05089E+00  3.00908E+00  2.97238E+00
   2.94017E+00  2.91193E+00  2.88717E+00  2.86544E+00  2.84633E+00  2.82954E+00  2.81484E+00  2.80202E+00  2.79087E+00  2.78115E+00
   2.77271E+00  2.76543E+00  2.75924E+00  2.75404E+00  2.74972E+00  2.74616E+00  2.74328E+00  2.74106E+00  2.73948E+00  2.73846E+00
   2.73794E+00  2.73784E+00  2.73816E+00  2.73889E+00  2.74003E+00  2.74153E+00  2.74331E+00  2.74535E+00  2.74767E+00  2.75029E+00
   2.75318E+00  2.75630E+00  2.75960E+00  2.76310E+00  2.76681E+00  2.77076E+00  2.77490E+00  2.77920E+00  2.78364E+00  2.78824E+00
   2.79303E+00  2.79802E+00  2.80316E+00  2.80843E+00  2.81384E+00  2.81941E+00  2.82519E+00  2.83115E+00  2.83725E+00  2.84350E+00
   2.84992E+00  2.85655E+00  2.86342E+00  2.87049E+00  2.87776E+00  2.88525E+00  2.89301E+00  2.90109E+00
 NY background values follow
    -1.736E+01   -1.728E+01   -1.720E+01   -1.712E+01   -1.705E+01   -1.697E+01   -1.689E+01   -1.681E+01   -1.673E+01   -1.665E+01
    -1.657E+01   -1.649E+01   -1.641E+01   -1.633E+01   -1.625E+01   -1.617E+01   -1.609E+01   -1.601E+01   -1.593E+01   -1.585E+01
    -1.577E+01   -1.569E+01   -1.561E+01   -1.553E+01   -1.545E+01   -1.538E+01   -1.530E+01   -1.522E+01   -1.514E+01   -1.506E+01
    -1.498E+01   -1.490E+01   -1.482E+01   -1.474E+01   -1.466E+01   -1.458E+01   -1.450E+01   -1.443E+01   -1.435E+01   -1.427E+01
    -1.419E+01   -1.411E+01   -1.403E+01   -1.395E+01   -1.388E+01   -1.380E+01   -1.372E+01   -1.364E+01   -1.356E+01   -1.348E+01
    -1.341E+01   -1.333E+01   -1.325E+01   -1.317E+01   -1.310E+01   -1.302E+01   -1.294E+01   -1.286E+01   -1.279E+01   -1.271E+01
    -1.263E+01   -1.255E+01   -1.248E+01   -1.240E+01   -1.232E+01   -1.225E+01   -1.217E+01   -1.209E+01   -1.202E+01   -1.194E+01
    -1.187E+01   -1.179E+01   -1.172E+01   -1.164E+01   -1.156E+01   -1.149E+01   -1.141E+01   -1.134E+01   -1.126E+01   -1.119E+01
    -1.111E+01   -1.104E+01   -1.097E+01   -1.089E+01   -1.082E+01   -1.074E+01   -1.067E+01   -1.060E+01   -1.052E+01   -1.045E+01
    -1.038E+01   -1.030E+01   -1.023E+01   -1.016E+01   -1.009E+01   -1.001E+01   -9.943E+00   -9.871E+00   -9.800E+00   -9.728E+00
    -9.657E+00   -9.586E+00   -9.515E+00   -9.444E+00   -9.373E+00   -9.303E+00   -9.233E+00   -9.163E+00   -9.093E+00   -9.023E+00
    -8.954E+00   -8.884E+00   -8.815E+00   -8.746E+00   -8.677E+00   -8.609E+00   -8.540E+00   -8.472E+00   -8.404E+00   -8.336E+00
    -8.268E+00   -8.201E+00   -8.133E+00   -8.066E+00   -7.999E+00   -7.932E+00   -7.866E+00   -7.799E+00   -7.733E+00   -7.667E+00
    -7.601E+00   -7.535E+00   -7.469E+00   -7.404E+00   -7.339E+00   -7.274E+00   -7.209E+00   -7.144E+00   -7.080E+00   -7.016E+00
    -6.951E+00   -6.887E+00   -6.824E+00   -6.760E+00   -6.697E+00   -6.633E+00   -6.570E+00   -6.507E+00   -6.445E+00   -6.382E+00
    -6.320E+00   -6.258E+00   -6.195E+00   -6.134E+00   -6.072E+00   -6.010E+00   -5.949E+00   -5.887E+00   -5.826E+00   -5.765E+00
    -5.704E+00   -5.644E+00   -5.583E+00   -5.523E+00   -5.462E+00   -5.402E+00   -5.342E+00   -5.282E+00   -5.223E+00   -5.163E+00
    -5.104E+00   -5.044E+00   -4.985E+00   -4.926E+00   -4.867E+00   -4.808E+00   -4.750E+00   -4.691E+00   -4.633E+00   -4.574E+00
    -4.516E+00   -4.458E+00   -4.400E+00   -4.342E+00   -4.285E+00   -4.227E+00   -4.170E+00   -4.112E+00   -4.055E+00   -3.998E+00
    -3.941E+00   -3.885E+00   -3.828E+00   -3.772E+00   -3.715E+00   -3.659E+00   -3.604E+00   -3.548E+00   -3.492E+00   -3.437E+00
    -3.382E+00   -3.327E+00   -3.272E+00   -3.218E+00   -3.164E+00   -3.110E+00   -3.056E+00   -3.002E+00   -2.949E+00   -2.896E+00
    -2.843E+00   -2.790E+00   -2.738E+00   -2.686E+00   -2.634E+00   -2.582E+00   -2.531E+00   -2.480E+00   -2.429E+00   -2.379E+00
    -2.328E+00   -2.278E+00   -2.229E+00   -2.180E+00   -2.130E+00   -2.082E+00   -2.033E+00   -1.985E+00   -1.937E+00   -1.890E+00
    -1.843E+00   -1.796E+00   -1.749E+00   -1.703E+00   -1.657E+00   -1.612E+00   -1.566E+00   -1.521E+00   -1.477E+00   -1.432E+00
    -1.388E+00   -1.345E+00   -1.301E+00   -1.258E+00   -1.215E+00   -1.173E+00   -1.131E+00   -1.089E+00   -1.047E+00   -1.006E+00
    -9.648E-01   -9.241E-01   -8.836E-01   -8.435E-01   -8.037E-01   -7.642E-01   -7.250E-01   -6.861E-01   -6.475E-01   -6.092E-01
    -5.712E-01   -5.334E-01   -4.960E-01   -4.588E-01   -4.220E-01   -3.854E-01   -3.492E-01   -3.132E-01   -2.775E-01   -2.421E-01
    -2.070E-01   -1.722E-01   -1.376E-01   -1.034E-01   -6.942E-02   -3.574E-02   -2.339E-03    3.078E-02    6.361E-02    9.616E-02
     1.284E-01    1.604E-01    1.922E-01    2.236E-01    2.548E-01    2.857E-01    3.163E-01    3.466E-01    3.767E-01    4.065E-01
     4.361E-01    4.653E-01    4.944E-01    5.231E-01    5.516E-01    5.798E-01    6.077E-01    6.354E-01    6.629E-01    6.900E-01
     7.170E-01    7.436E-01    7.700E-01    7.962E-01    8.220E-01    8.477E-01    8.731E-01    8.982E-01    9.231E-01    9.477E-01
     9.721E-01    9.963E-01    1.020E+00    1.044E+00    1.067E+00    1.090E+00    1.113E+00    1.136E+00    1.158E+00    1.181E+00
     1.203E+00    1.224E+00    1.246E+00    1.267E+00    1.288E+00    1.309E+00    1.330E+00    1.350E+00    1.370E+00    1.390E+00
     1.410E+00    1.429E+00    1.449E+00    1.468E+00    1.487E+00    1.506E+00    1.524E+00    1.542E+00    1.561E+00    1.578E+00
     1.596E+00    1.614E+00    1.631E+00    1.648E+00    1.665E+00    1.682E+00    1.699E+00    1.715E+00    1.731E+00    1.747E+00
     1.763E+00    1.779E+00    1.795E+00    1.810E+00    1.825E+00    1.841E+00    1.856E+00    1.870E+00    1.885E+00    1.899E+00
     1.914E+00    1.928E+00    1.942E+00    1.956E+00    1.970E+00    1.983E+00    1.997E+00    2.010E+00    2.023E+00    2.037E+00
     2.050E+00    2.062E+00    2.075E+00    2.088E+00    2.100E+00    2.113E+00    2.125E+00    2.137E+00    2.149E+00    2.161E+00
     2.173E+00    2.184E+00    2.196E+00    2.208E+00    2.219E+00    2.230E+00    2.242E+00    2.253E+00    2.264E+00    2.275E+00
     2.286E+00    2.296E+00    2.307E+00    2.318E+00    2.328E+00    2.339E+00    2.349E+00    2.360E+00    2.370E+00    2.380E+00
     2.391E+00    2.401E+00    2.411E+00    2.421E+00    2.431E+00    2.441E+00    2.451E+00    2.460E+00    2.470E+00    2.480E+00
     2.490E+00    2.499E+00    2.509E+00    2.518E+00    2.528E+00    2.537E+00    2.547E+00    2.556E+00    2.566E+00    2.575E+00
     2.584E+00    2.593E+00    2.603E+00    2.612E+00    2.621E+00    2.630E+00    2.639E+00    2.648E+00    2.657E+00    2.665E+00
     2.674E+00    2.683E+00    2.692E+00    2.700E+00    2.709E+00    2.717E+00    2.726E+00    2.734E+00    2.743E+00    2.751E+00
     2.760E+00    2.768E+00    2.776E+00    2.784E+00    2.792E+00    2.800E+00    2.808E+00    2.816E+00    2.824E+00    2.832E+00
     2.840E+00    2.848E+00    2.856E+00    2.863E+00    2.871E+00    2.879E+00    2.886E+00    2.894E+00    2.901E+00    2.908E+00
     2.916E+00    2.923E+00    2.930E+00    2.938E+00    2.945E+00    2.952E+00    2.959E+00    2.966E+00    2.974E+00    2.981E+00
     2.988E+00    2.995E+00    3.002E+00    3.009E+00    3.016E+00    3.022E+00    3.029E+00    3.036E+00    3.043E+00    3.050E+00
     3.057E+00    3.064E+00    3.070E+00    3.077E+00    3.084E+00    3.091E+00    3.098E+00    3.104E+00    3.111E+00    3.118E+00
     3.125E+00    3.131E+00    3.138E+00    3.145E+00    3.152E+00    3.158E+00    3.165E+00    3.172E+00
 Asp      Conc. = 1.30E+02
