 LCModel (Version 6.3-1L) Copyright: S.W. Provencher.          Ref.: Magn. Reson. Med. 30:672-679 (1993).                
 Slice#1 Row#1 Col#11  PD_24_press_2_raw_act
 36 lines in following concentration table = NCONC+1
    Conc.  %SD /Cr+PCr  Metabolite                                         
    0.000 999%   0.000 Ala                                                 
   19.281  78%   0.166 Asp                                                 
  115.898  52%   1.000 Cr                                                  
    0.000 999%   0.000 PCr                                                 
   11.468  78% 9.9E-02 GABA                                                
   11.428  79% 9.9E-02 Glc                                                 
  108.717 256%   0.938 Gln                                                 
    0.000 999%   0.000 Glu                                                 
   36.278  61%   0.313 GPC                                                 
    0.000 999%   0.000 PCh                                                 
    0.000 999%   0.000 GSH                                                 
    0.000 999%   0.000 Ins                                                 
    0.000 999%   0.000 Lac                                                 
    0.000 999%   0.000 NAA                                                 
  159.659  46%   1.378 NAAG                                                
    3.647  82% 3.1E-02 Scyllo                                              
   19.220  78%   0.166 Tau                                                 
   11.024 213% 9.5E-02 -CrCH2                                              
   36.278  61%   0.313 GPC+PCh                                             
  159.659  46%   1.378 NAA+NAAG                                            
  115.898  52%   1.000 Cr+PCr                                              
  108.717 256%   0.938 Glu+Gln                                             
    0.000 999%   0.000 Lip13a                                              
  184.141  70%   1.589 Lip13b                                              
   53.607  80%   0.463 Lip09                                               
  605.981  23%   5.229 MM09                                                
   25.957 102%   0.224 Lip20                                               
    0.000 999%   0.000 MM20                                                
  130.077  82%   1.122 MM12                                                
    0.000 999%   0.000 MM14                                                
 1.15E+03  16%   9.962 MM17                                                
  184.141  70%   1.589 Lip13a+Lip13b                                       
  314.219  47%   2.711 MM14+Lip13a+Lip13b+MM12                             
  659.587  21%   5.691 MM09+Lip09                                          
   25.957 102%   0.224 MM20+Lip20                                          
   6 lines in following misc. output table
  FWHM = 0.061 ppm    S/N =   1                                            
  Data shift = 0.008 ppm                                                   
  Ph:-169 deg      24.9 deg/ppm                                            
  alphaB,S = 8.5E+01,   5.1E+01                                            
   14 spline knots.   Ns =10(1)                                            
   2 inflections.     2 extrema                                            
  498 points on ppm-axis = NY
      4.000000     3.992357     3.984714     3.977070     3.969427     3.961784     3.954141     3.946497     3.938854     3.931211
      3.923568     3.915925     3.908281     3.900638     3.892995     3.885352     3.877708     3.870065     3.862422     3.854779
      3.847136     3.839492     3.831849     3.824206     3.816563     3.808919     3.801276     3.793633     3.785990     3.778347
      3.770703     3.763060     3.755417     3.747774     3.740130     3.732487     3.724844     3.717201     3.709558     3.701914
      3.694271     3.686628     3.678985     3.671341     3.663698     3.656055     3.648412     3.640769     3.633125     3.625482
      3.617839     3.610196     3.602552     3.594909     3.587266     3.579623     3.571980     3.564336     3.556693     3.549050
      3.541407     3.533763     3.526120     3.518477     3.510834     3.503191     3.495547     3.487904     3.480261     3.472618
      3.464974     3.457331     3.449688     3.442045     3.434402     3.426758     3.419115     3.411472     3.403829     3.396185
      3.388542     3.380899     3.373256     3.365613     3.357969     3.350326     3.342683     3.335040     3.327396     3.319753
      3.312110     3.304467     3.296824     3.289180     3.281537     3.273894     3.266251     3.258607     3.250964     3.243321
      3.235678     3.228034     3.220391     3.212748     3.205105     3.197462     3.189818     3.182175     3.174532     3.166889
      3.159245     3.151602     3.143959     3.136316     3.128673     3.121029     3.113386     3.105743     3.098100     3.090456
      3.082813     3.075170     3.067527     3.059884     3.052240     3.044597     3.036954     3.029311     3.021667     3.014024
      3.006381     2.998738     2.991095     2.983451     2.975808     2.968165     2.960522     2.952878     2.945235     2.937592
      2.929949     2.922306     2.914662     2.907019     2.899376     2.891733     2.884089     2.876446     2.868803     2.861160
      2.853517     2.845873     2.838230     2.830587     2.822944     2.815300     2.807657     2.800014     2.792371     2.784728
      2.777084     2.769441     2.761798     2.754155     2.746511     2.738868     2.731225     2.723582     2.715939     2.708295
      2.700652     2.693009     2.685366     2.677722     2.670079     2.662436     2.654793     2.647150     2.639506     2.631863
      2.624220     2.616577     2.608933     2.601290     2.593647     2.586004     2.578361     2.570717     2.563074     2.555431
      2.547788     2.540144     2.532501     2.524858     2.517215     2.509572     2.501928     2.494285     2.486642     2.478999
      2.471355     2.463712     2.456069     2.448426     2.440783     2.433139     2.425496     2.417853     2.410210     2.402566
      2.394923     2.387280     2.379637     2.371994     2.364350     2.356707     2.349064     2.341421     2.333777     2.326134
      2.318491     2.310848     2.303205     2.295561     2.287918     2.280275     2.272632     2.264988     2.257345     2.249702
      2.242059     2.234416     2.226772     2.219129     2.211486     2.203843     2.196199     2.188556     2.180913     2.173270
      2.165627     2.157983     2.150340     2.142697     2.135054     2.127410     2.119767     2.112124     2.104481     2.096838
      2.089194     2.081551     2.073908     2.066265     2.058621     2.050978     2.043335     2.035692     2.028049     2.020405
      2.012762     2.005119     1.997476     1.989833     1.982190     1.974546     1.966903     1.959260     1.951617     1.943974
      1.936331     1.928688     1.921045     1.913402     1.905759     1.898115     1.890472     1.882829     1.875186     1.867543
      1.859900     1.852257     1.844614     1.836971     1.829327     1.821684     1.814041     1.806398     1.798755     1.791112
      1.783469     1.775826     1.768183     1.760540     1.752896     1.745253     1.737610     1.729967     1.722324     1.714681
      1.707038     1.699395     1.691752     1.684108     1.676465     1.668822     1.661179     1.653536     1.645893     1.638250
      1.630607     1.622964     1.615321     1.607677     1.600034     1.592391     1.584748     1.577105     1.569462     1.561819
      1.554176     1.546533     1.538890     1.531246     1.523603     1.515960     1.508317     1.500674     1.493031     1.485388
      1.477745     1.470102     1.462458     1.454815     1.447172     1.439529     1.431886     1.424243     1.416600     1.408957
      1.401314     1.393671     1.386027     1.378384     1.370741     1.363098     1.355455     1.347812     1.340169     1.332526
      1.324883     1.317240     1.309596     1.301953     1.294310     1.286667     1.279024     1.271381     1.263738     1.256095
      1.248452     1.240808     1.233165     1.225522     1.217879     1.210236     1.202593     1.194950     1.187307     1.179664
      1.172021     1.164377     1.156734     1.149091     1.141448     1.133805     1.126162     1.118519     1.110876     1.103233
      1.095590     1.087946     1.080303     1.072660     1.065017     1.057374     1.049731     1.042088     1.034445     1.026802
      1.019158     1.011515     1.003872     0.996229     0.988586     0.980943     0.973300     0.965657     0.958014     0.950371
      0.942727     0.935084     0.927441     0.919798     0.912155     0.904512     0.896869     0.889226     0.881583     0.873940
      0.866296     0.858653     0.851010     0.843367     0.835724     0.828081     0.820438     0.812795     0.805152     0.797508
      0.789865     0.782222     0.774579     0.766936     0.759293     0.751650     0.744007     0.736364     0.728721     0.721077
      0.713434     0.705791     0.698148     0.690505     0.682862     0.675219     0.667576     0.659933     0.652290     0.644646
      0.637003     0.629360     0.621717     0.614074     0.606431     0.598788     0.591145     0.583502     0.575858     0.568215
      0.560572     0.552929     0.545286     0.537643     0.530000     0.522357     0.514714     0.507071     0.499427     0.491784
      0.484141     0.476498     0.468855     0.461212     0.453569     0.445925     0.438282     0.430639     0.422996     0.415353
      0.407710     0.400067     0.392424     0.384780     0.377137     0.369494     0.361851     0.354208     0.346565     0.338922
      0.331278     0.323635     0.315992     0.308349     0.300706     0.293063     0.285420     0.277777     0.270133     0.262490
      0.254847     0.247204     0.239561     0.231918     0.224275     0.216631     0.208988     0.201345
 NY phased data points follow
  -8.57562E+00 -4.15800E+00 -3.78026E+00 -1.11402E+01 -5.03574E+00  3.52974E-01 -1.11439E+01 -4.75537E+00  3.49227E+00  1.19334E+00
  -7.62713E+00  8.63680E-02 -3.58817E+00 -4.11439E+00 -4.87410E-01 -4.32238E+00  2.56428E+00 -6.48243E-01  2.80947E+00 -5.38223E+00
   5.24182E+00 -3.33468E+00 -8.80327E-01 -5.23878E+00 -1.96372E+00 -9.44710E+00 -5.95066E+00  3.22208E-01 -2.29267E+00 -5.04037E+00
   2.99006E+00  1.14520E+00 -7.75645E+00 -1.52750E+01 -3.35776E-01 -4.29703E+00 -1.62381E+00 -1.25663E+01 -4.12695E+00 -3.71105E+00
  -8.54324E+00 -7.44334E+00 -9.46250E+00 -4.99168E+00 -2.39001E+00 -1.78724E+00 -1.26594E-01 -2.42277E+00 -4.64721E+00 -9.21461E+00
  -8.69045E+00 -2.72339E+00 -4.96685E+00 -9.85857E-01 -3.13777E-01  4.32402E-01 -3.48918E-02 -2.60334E+00 -5.94252E+00  2.79052E+00
   1.21564E+00 -2.13666E+00  2.18821E+00 -9.74832E-01  1.91343E+00 -3.37190E+00 -6.90201E+00 -1.31354E+00 -2.49441E-02 -3.07001E+00
  -1.58409E+00 -2.16155E+00  5.26759E+00  2.94015E+00 -2.98677E+00 -6.02199E+00  5.95386E-01 -8.55676E+00 -2.49666E+00 -7.30355E+00
   6.80503E+00 -8.76561E+00 -2.68864E+00  4.07928E+00 -5.10498E+00 -6.86514E+00 -6.77809E+00 -1.00003E+00  3.18686E+00 -3.25591E+00
  -5.01820E+00 -7.38013E+00 -9.88438E+00 -4.09852E+00  9.08342E-01 -9.21857E+00  7.03485E+00  2.73964E-02 -1.11285E+01 -1.33975E+00
  -5.95094E-01 -4.93163E+00  7.71014E+00 -1.59419E+00 -3.67223E+00 -7.41995E-01  8.11188E+00  3.03325E+00  7.63752E-01  4.60315E+00
  -1.05410E+01 -4.42462E-01 -6.09414E+00 -1.02852E+00 -6.12179E+00 -4.34743E+00 -1.53566E+00  7.84648E-01 -6.73507E+00 -8.70872E+00
  -2.55263E+00 -7.31752E+00 -1.62075E+00 -4.67016E+00 -1.31341E+00  5.36845E+00 -9.31618E+00 -4.20066E-01 -3.05967E+00  5.16925E+00
   1.86046E+00 -2.82460E-01  5.80976E+00 -3.24687E+00  1.08645E+00 -1.82039E+00  1.37802E+00 -7.71200E+00 -2.98577E+00 -4.30054E+00
  -9.01801E-01 -4.64264E+00 -4.02526E+00 -5.71721E+00 -3.05188E+00 -7.27173E+00  3.51739E+00 -4.55924E+00 -4.16573E+00 -7.02241E+00
  -1.40210E+00 -2.44099E+00  2.09015E-01 -3.52151E+00 -6.20851E+00 -8.50012E-02 -1.07430E+00  6.12418E+00 -3.67936E+00 -1.28584E+00
   1.79834E+00 -6.85292E+00 -4.83322E+00 -6.60892E+00  5.24377E+00 -5.44786E+00 -3.48589E+00 -2.03770E+00  6.16960E-01 -1.97123E+00
   4.82809E+00 -1.80005E+00 -4.87602E+00 -1.41013E+00  1.48222E+00  1.76938E+00  3.66306E+00  3.65908E+00  2.94288E+00 -9.46631E-01
   4.18256E+00 -7.53458E+00  3.18105E+00 -4.73053E+00  1.69049E+00 -2.01790E+00 -5.11860E+00 -5.35036E+00 -3.67878E-01  8.48668E-01
   3.26364E+00 -5.17139E+00  2.21190E-01 -5.45036E+00  1.07907E+01 -3.21439E+00  1.28598E+00 -3.00262E+00 -1.26087E+01  3.10528E+00
  -3.83035E+00 -4.98098E+00 -3.04965E+00 -5.22919E+00 -2.89672E+00  2.55953E-01 -9.88781E+00  4.07946E+00 -1.04936E-01 -1.58161E-01
  -1.70722E+00 -5.64786E+00 -3.83550E+00  6.16676E+00 -4.82289E+00 -5.03629E+00 -5.24154E-01  8.38700E-01  5.87444E+00 -1.91664E+00
  -2.28127E+00 -2.57174E-01  1.75003E+00 -3.55083E+00  1.85549E+00 -1.91553E+00  1.07450E+00  4.51223E+00  1.84504E-01 -3.63627E+00
  -7.34205E+00 -8.21111E-01 -4.76396E+00 -1.80859E+00 -1.00708E+01 -6.15488E+00  1.38457E+00 -7.33348E+00 -2.06020E+00 -1.09235E+00
  -1.12772E+01 -4.72196E+00 -5.00866E+00  2.75535E+00 -1.34326E+01  6.43708E+00 -2.70598E+00 -2.11995E+00 -8.00397E+00 -7.23973E-01
  -5.43492E+00 -5.78942E+00 -7.70677E+00 -2.76143E+00 -1.60072E+00  3.36155E+00  9.99098E-01 -2.32647E+00  5.06834E+00  4.94571E+00
   7.09230E+00  2.10630E+00  3.23505E+00  8.92689E+00  7.68000E+00 -6.16566E+00 -1.93100E+00 -7.17943E+00 -8.98705E+00  5.77069E+00
   1.93387E+00 -2.79046E+00  6.20137E+00 -5.00593E+00  4.19920E+00 -7.89676E-01 -5.25397E+00  2.34543E+00  5.31526E+00  7.80863E+00
   5.79047E+00 -6.04459E+00  3.87195E+00 -5.20883E-01  1.66159E+01  6.92134E+00  6.41569E+00  2.19833E-01  1.73029E+01  1.56807E+01
   1.21467E+01  6.45391E+00  1.36612E+01  4.90545E+00  6.09262E+00  1.52583E+01  1.34305E+01  8.20054E+00  1.34666E+01  8.59961E+00
   8.23476E+00  2.54596E+00  1.23710E+00  7.76789E+00  1.30608E+00  1.88016E+00  2.14378E+00  3.39255E+00  1.01838E+01  9.21713E+00
   8.30916E+00  1.15698E+00  3.47612E+00  6.48796E+00  7.48483E+00  3.41902E+00 -3.26433E+00  1.45850E+00  5.31942E-02  3.63738E-01
  -5.07115E+00 -8.54997E-01  1.06811E-01 -6.92500E+00 -1.10517E+01 -3.59290E+00 -5.05340E+00 -1.85218E+00 -1.79166E+00 -1.22465E+01
  -4.76485E+00 -9.46207E-01  9.40374E-01 -1.10417E+01 -2.97986E+00 -1.15746E+00 -4.67275E+00  2.02792E+00 -2.47102E+00 -6.07254E+00
  -1.01516E+00 -4.97553E+00 -4.36261E+00  6.95368E-01  5.65094E+00  3.43427E+00  4.77039E+00 -3.31275E+00 -2.42816E+00 -3.52825E+00
   7.93809E+00  2.48711E+00  1.54309E+00  6.21224E+00 -3.94373E-01  1.43909E-01  5.91784E+00  7.72989E+00  1.05996E+01 -6.51505E-01
  -1.20101E+00 -5.93692E-01  1.50434E+00  1.18439E+00 -6.33759E-01 -5.52746E+00 -4.27055E+00 -1.96283E+00 -1.46507E+00 -4.82429E+00
   4.63037E-01  1.03104E+01 -5.20987E+00  8.27107E+00 -2.92701E+00  6.00444E-01  1.06031E+01  5.19718E+00 -4.02136E+00  9.91244E-01
  -5.97088E-01 -3.26139E+00  7.43772E+00  1.32039E+00 -8.96996E+00 -6.66021E-01 -5.05850E+00 -4.35856E+00  9.31650E+00  1.95685E+00
   6.17043E+00  5.80885E+00  2.45678E+00  4.71660E+00  7.63061E+00  7.96339E+00  1.04572E+00  1.21380E+01  7.76997E+00  1.78124E+01
   8.65856E+00  1.07348E+01  3.15847E+00  4.03302E+00  9.85614E+00  6.71009E+00  9.96433E-01  2.86413E+00  4.51127E+00  9.24038E+00
   5.82170E+00  1.22493E+01  7.27955E+00  8.77279E+00  4.81687E+00 -2.18398E+00  3.01467E+00  4.08248E+00  8.96158E+00  5.73050E+00
   2.43805E+00  2.32852E+00  1.00623E+00  7.89377E+00  1.95016E+00 -6.27889E+00  3.62083E+00  6.71448E+00  1.10372E+01  7.68757E+00
  -7.77563E-01  3.30716E+00  2.68653E+00  4.13264E+00  6.42413E+00  6.14716E+00  3.70969E+00 -4.42004E-02  2.38925E+00  2.43452E+00
  -4.00322E+00 -3.84279E+00  2.98220E+00 -6.27071E+00 -4.61449E-01  2.58127E+00  1.04472E+01  7.04195E+00  2.42324E+00  1.79420E+00
  -1.66519E+00 -2.98096E+00  4.19988E+00  9.53725E+00 -3.17647E+00  4.86864E+00 -1.51113E+00  1.98933E-01  3.98502E+00 -2.83801E+00
   5.80814E+00  5.08041E+00 -3.32145E+00  8.28034E+00 -6.37987E+00  5.27528E+00  9.66166E+00 -3.54135E+00  5.15410E+00  6.97576E-01
   1.32582E+00 -4.00437E-01  4.51080E+00  2.53298E+00  2.15625E-01  8.40490E+00  4.53295E+00  6.07196E+00  2.31494E+00  1.25882E+00
   3.04902E+00 -3.41667E+00  8.59624E+00  4.63856E+00  1.73396E+00  1.00912E+01 -1.40545E+00 -1.50871E+00 -6.79047E-02 -2.43056E+00
  -1.03933E+00 -2.60939E-01  1.05575E+00  3.77850E+00 -3.84288E-01  2.31176E+00 -9.87786E+00  1.45752E+00
 NY points of the fit to the data follow
  -3.78497E+00 -3.84068E+00 -3.96183E+00 -4.08827E+00 -4.16174E+00 -4.15010E+00 -4.03295E+00 -3.79645E+00 -3.45418E+00 -3.04776E+00
  -2.61609E+00 -2.17957E+00 -1.75066E+00 -1.35639E+00 -1.05083E+00 -8.95323E-01 -9.22877E-01 -1.12912E+00 -1.48308E+00 -1.93104E+00
  -2.39828E+00 -2.80310E+00 -3.09078E+00 -3.25312E+00 -3.33935E+00 -3.39711E+00 -3.43203E+00 -3.44180E+00 -3.42859E+00 -3.40644E+00
  -3.38579E+00 -3.36249E+00 -3.32907E+00 -3.28286E+00 -3.22402E+00 -3.16045E+00 -3.11102E+00 -3.09223E+00 -3.10721E+00 -3.14515E+00
  -3.18995E+00 -3.22337E+00 -3.22935E+00 -3.20152E+00 -3.14815E+00 -3.09071E+00 -3.04549E+00 -3.01680E+00 -3.00351E+00 -3.00040E+00
  -2.99914E+00 -2.99295E+00 -2.98290E+00 -2.97167E+00 -2.96004E+00 -2.95121E+00 -2.94986E+00 -2.95669E+00 -2.96965E+00 -2.98864E+00
  -3.00914E+00 -3.02393E+00 -3.03013E+00 -3.03014E+00 -3.02599E+00 -3.02076E+00 -3.01708E+00 -3.01358E+00 -3.00790E+00 -2.99858E+00
  -2.98475E+00 -2.96613E+00 -2.94477E+00 -2.92344E+00 -2.90344E+00 -2.88516E+00 -2.87186E+00 -2.86372E+00 -2.85658E+00 -2.84881E+00
  -2.84118E+00 -2.83301E+00 -2.82225E+00 -2.80493E+00 -2.77720E+00 -2.73733E+00 -2.68587E+00 -2.62663E+00 -2.57067E+00 -2.53316E+00
  -2.52268E+00 -2.54498E+00 -2.62912E+00 -2.83369E+00 -3.10761E+00 -3.34707E+00 -3.47334E+00 -3.44220E+00 -3.22456E+00 -2.82053E+00
  -2.27570E+00 -1.65408E+00 -1.00251E+00 -3.49366E-01  2.72082E-01  7.97894E-01  1.13939E+00  1.22306E+00  1.02201E+00  5.64300E-01
  -7.61274E-02 -7.92939E-01 -1.46333E+00 -1.97412E+00 -2.26886E+00 -2.38595E+00 -2.45750E+00 -2.61168E+00 -2.85826E+00 -3.10194E+00
  -3.25451E+00 -3.26574E+00 -3.10148E+00 -2.74365E+00 -2.21996E+00 -1.59412E+00 -9.21390E-01 -2.32099E-01  4.47115E-01  1.06117E+00
   1.51818E+00  1.72445E+00  1.62750E+00  1.23369E+00  6.03360E-01 -1.59018E-01 -9.19911E-01 -1.54470E+00 -1.94424E+00 -2.11836E+00
  -2.17075E+00 -2.18687E+00 -2.18744E+00 -2.17964E+00 -2.16568E+00 -2.14593E+00 -2.12404E+00 -2.10422E+00 -2.09054E+00 -2.08716E+00
  -2.09165E+00 -2.09959E+00 -2.10830E+00 -2.11622E+00 -2.12198E+00 -2.12486E+00 -2.12559E+00 -2.12487E+00 -2.12075E+00 -2.11043E+00
  -2.09168E+00 -2.07053E+00 -2.05900E+00 -2.06423E+00 -2.08757E+00 -2.12448E+00 -2.16578E+00 -2.20165E+00 -2.22286E+00 -2.22677E+00
  -2.21690E+00 -2.19999E+00 -2.17943E+00 -2.15106E+00 -2.11897E+00 -2.09200E+00 -2.07605E+00 -2.07350E+00 -2.08382E+00 -2.10261E+00
  -2.12273E+00 -2.13674E+00 -2.13923E+00 -2.12155E+00 -2.07623E+00 -2.00523E+00 -1.91234E+00 -1.80297E+00 -1.68589E+00 -1.57485E+00
  -1.49029E+00 -1.44805E+00 -1.45639E+00 -1.51155E+00 -1.59729E+00 -1.69503E+00 -1.78469E+00 -1.85025E+00 -1.87735E+00 -1.84898E+00
  -1.75101E+00 -1.59447E+00 -1.41358E+00 -1.24227E+00 -1.11131E+00 -1.05050E+00 -1.07633E+00 -1.18284E+00 -1.35252E+00 -1.56402E+00
  -1.79255E+00 -2.00780E+00 -2.17453E+00 -2.26189E+00 -2.25290E+00 -2.15074E+00 -1.97488E+00 -1.75605E+00 -1.53282E+00 -1.34269E+00
  -1.21055E+00 -1.13776E+00 -1.10432E+00 -1.08156E+00 -1.05636E+00 -1.03228E+00 -1.00730E+00 -9.83709E-01 -9.70049E-01 -9.75163E-01
  -1.00425E+00 -1.05899E+00 -1.12839E+00 -1.18969E+00 -1.22948E+00 -1.24041E+00 -1.21932E+00 -1.17247E+00 -1.11359E+00 -1.05299E+00
  -9.96800E-01 -9.51854E-01 -9.28782E-01 -9.38072E-01 -9.87445E-01 -1.10938E+00 -1.40164E+00 -1.83303E+00 -2.25247E+00 -2.51751E+00
  -2.54289E+00 -2.27623E+00 -1.70443E+00 -8.88596E-01  6.20920E-02  1.06297E+00  2.06984E+00  3.03861E+00  3.88972E+00  4.50093E+00
   4.75325E+00  4.58530E+00  4.01728E+00  3.14153E+00  2.10427E+00  1.08516E+00  2.62434E-01 -2.47565E-01 -4.52751E-01 -5.00662E-01
  -4.94997E-01 -4.58078E-01 -3.91881E-01 -2.95329E-01 -1.66157E-01  1.36055E-04  2.07755E-01  4.60075E-01  7.60013E-01  1.11047E+00
   1.51579E+00  1.98125E+00  2.50908E+00  3.09826E+00  3.74308E+00  4.43140E+00  5.14520E+00  5.86161E+00  6.55549E+00  7.20319E+00
   7.78350E+00  8.27668E+00  8.66589E+00  8.93883E+00  9.08804E+00  9.10985E+00  9.00384E+00  8.77373E+00  8.42873E+00  7.98199E+00
   7.45066E+00  6.85547E+00  6.21968E+00  5.56734E+00  4.92073E+00  4.29718E+00  3.70970E+00  3.16767E+00  2.67680E+00  2.23954E+00
   1.85583E+00  1.52425E+00  1.24277E+00  1.00803E+00  8.15387E-01  6.59733E-01  5.35779E-01  4.38437E-01  3.63041E-01  3.05447E-01
   2.62095E-01  2.30002E-01  2.06730E-01  1.90321E-01  1.79218E-01  1.72190E-01  1.68275E-01  1.66759E-01  1.67125E-01  1.68997E-01
   1.72103E-01  1.76248E-01  1.81290E-01  1.87138E-01  1.93749E-01  2.01138E-01  2.09412E-01  2.18831E-01  2.29918E-01  2.43639E-01
   2.61655E-01  2.86626E-01  3.22534E-01  3.74939E-01  4.51007E-01  5.59141E-01  7.08065E-01  9.05257E-01  1.15489E+00  1.45556E+00
   1.79846E+00  2.16650E+00  2.53508E+00  2.87473E+00  3.15528E+00  3.35078E+00  3.44419E+00  3.43041E+00  3.31713E+00  3.12304E+00
   2.87418E+00  2.59911E+00  2.32439E+00  2.07104E+00  1.85278E+00  1.67592E+00  1.54054E+00  1.44244E+00  1.37515E+00  1.33162E+00
   1.30547E+00  1.29158E+00  1.28632E+00  1.28745E+00  1.29386E+00  1.30534E+00  1.32231E+00  1.34564E+00  1.37652E+00  1.41640E+00
   1.46690E+00  1.52979E+00  1.60694E+00  1.70029E+00  1.81174E+00  1.94316E+00  2.09619E+00  2.27218E+00  2.47203E+00  2.69603E+00
   2.94374E+00  3.21380E+00  3.50386E+00  3.81049E+00  4.12913E+00  4.45419E+00  4.77916E+00  5.09676E+00  5.39928E+00  5.67887E+00
   5.92790E+00  6.13940E+00  6.30736E+00  6.42711E+00  6.49553E+00  6.51127E+00  6.47477E+00  6.38823E+00  6.25545E+00  6.08160E+00
   5.87291E+00  5.63628E+00  5.37898E+00  5.10824E+00  4.83096E+00  4.55343E+00  4.28115E+00  4.01869E+00  3.76965E+00  3.53665E+00
   3.32139E+00  3.12476E+00  2.94695E+00  2.78758E+00  2.64584E+00  2.52062E+00  2.41060E+00  2.31439E+00  2.23056E+00  2.15772E+00
   2.09457E+00  2.03988E+00  1.99258E+00  1.95168E+00  1.91634E+00  1.88580E+00  1.85944E+00  1.83669E+00  1.81709E+00  1.80024E+00
   1.78579E+00  1.77346E+00  1.76300E+00  1.75419E+00  1.74685E+00  1.74083E+00  1.73598E+00  1.73220E+00  1.72937E+00  1.72741E+00
   1.72624E+00  1.72578E+00  1.72599E+00  1.72679E+00  1.72814E+00  1.73001E+00  1.73234E+00  1.73510E+00  1.73827E+00  1.74181E+00
   1.74569E+00  1.74990E+00  1.75440E+00  1.75919E+00  1.76424E+00  1.76954E+00  1.77507E+00  1.78081E+00  1.78676E+00  1.79290E+00
   1.79923E+00  1.80572E+00  1.81237E+00  1.81918E+00  1.82613E+00  1.83321E+00  1.84043E+00  1.84776E+00  1.85521E+00  1.86277E+00
   1.87044E+00  1.87821E+00  1.88607E+00  1.89401E+00  1.90205E+00  1.91016E+00  1.91836E+00  1.92663E+00  1.93496E+00  1.94337E+00
   1.95183E+00  1.96036E+00  1.96895E+00  1.97759E+00  1.98629E+00  1.99503E+00  2.00382E+00  2.01266E+00
 NY background values follow
    -3.859E+00   -3.847E+00   -3.836E+00   -3.824E+00   -3.813E+00   -3.802E+00   -3.790E+00   -3.779E+00   -3.767E+00   -3.756E+00
    -3.745E+00   -3.733E+00   -3.722E+00   -3.710E+00   -3.699E+00   -3.688E+00   -3.676E+00   -3.665E+00   -3.653E+00   -3.642E+00
    -3.630E+00   -3.619E+00   -3.608E+00   -3.596E+00   -3.585E+00   -3.573E+00   -3.562E+00   -3.551E+00   -3.539E+00   -3.528E+00
    -3.516E+00   -3.505E+00   -3.493E+00   -3.482E+00   -3.471E+00   -3.459E+00   -3.448E+00   -3.436E+00   -3.425E+00   -3.414E+00
    -3.402E+00   -3.391E+00   -3.379E+00   -3.368E+00   -3.356E+00   -3.345E+00   -3.334E+00   -3.322E+00   -3.311E+00   -3.299E+00
    -3.288E+00   -3.276E+00   -3.265E+00   -3.254E+00   -3.242E+00   -3.231E+00   -3.219E+00   -3.208E+00   -3.196E+00   -3.185E+00
    -3.174E+00   -3.162E+00   -3.151E+00   -3.139E+00   -3.128E+00   -3.116E+00   -3.105E+00   -3.093E+00   -3.082E+00   -3.071E+00
    -3.059E+00   -3.048E+00   -3.036E+00   -3.025E+00   -3.013E+00   -3.002E+00   -2.990E+00   -2.979E+00   -2.968E+00   -2.956E+00
    -2.945E+00   -2.933E+00   -2.922E+00   -2.910E+00   -2.899E+00   -2.887E+00   -2.876E+00   -2.865E+00   -2.853E+00   -2.842E+00
    -2.830E+00   -2.819E+00   -2.807E+00   -2.796E+00   -2.784E+00   -2.773E+00   -2.762E+00   -2.750E+00   -2.739E+00   -2.727E+00
    -2.716E+00   -2.704E+00   -2.693E+00   -2.681E+00   -2.670E+00   -2.658E+00   -2.647E+00   -2.636E+00   -2.624E+00   -2.613E+00
    -2.601E+00   -2.590E+00   -2.578E+00   -2.567E+00   -2.555E+00   -2.544E+00   -2.533E+00   -2.521E+00   -2.510E+00   -2.498E+00
    -2.487E+00   -2.475E+00   -2.464E+00   -2.452E+00   -2.441E+00   -2.429E+00   -2.418E+00   -2.407E+00   -2.395E+00   -2.384E+00
    -2.372E+00   -2.361E+00   -2.349E+00   -2.338E+00   -2.326E+00   -2.315E+00   -2.303E+00   -2.292E+00   -2.280E+00   -2.269E+00
    -2.258E+00   -2.246E+00   -2.235E+00   -2.223E+00   -2.212E+00   -2.200E+00   -2.189E+00   -2.177E+00   -2.166E+00   -2.154E+00
    -2.143E+00   -2.132E+00   -2.120E+00   -2.109E+00   -2.097E+00   -2.086E+00   -2.074E+00   -2.063E+00   -2.051E+00   -2.040E+00
    -2.028E+00   -2.017E+00   -2.005E+00   -1.994E+00   -1.983E+00   -1.971E+00   -1.960E+00   -1.948E+00   -1.937E+00   -1.925E+00
    -1.914E+00   -1.902E+00   -1.891E+00   -1.879E+00   -1.868E+00   -1.857E+00   -1.845E+00   -1.834E+00   -1.822E+00   -1.811E+00
    -1.799E+00   -1.788E+00   -1.776E+00   -1.765E+00   -1.753E+00   -1.742E+00   -1.731E+00   -1.719E+00   -1.708E+00   -1.696E+00
    -1.685E+00   -1.673E+00   -1.662E+00   -1.650E+00   -1.639E+00   -1.627E+00   -1.616E+00   -1.605E+00   -1.593E+00   -1.582E+00
    -1.570E+00   -1.559E+00   -1.547E+00   -1.536E+00   -1.524E+00   -1.513E+00   -1.501E+00   -1.490E+00   -1.479E+00   -1.467E+00
    -1.456E+00   -1.444E+00   -1.433E+00   -1.421E+00   -1.410E+00   -1.398E+00   -1.387E+00   -1.376E+00   -1.364E+00   -1.353E+00
    -1.341E+00   -1.330E+00   -1.318E+00   -1.307E+00   -1.295E+00   -1.284E+00   -1.272E+00   -1.261E+00   -1.250E+00   -1.238E+00
    -1.227E+00   -1.215E+00   -1.204E+00   -1.192E+00   -1.181E+00   -1.170E+00   -1.158E+00   -1.147E+00   -1.135E+00   -1.124E+00
    -1.112E+00   -1.101E+00   -1.089E+00   -1.078E+00   -1.067E+00   -1.055E+00   -1.044E+00   -1.032E+00   -1.021E+00   -1.009E+00
    -9.979E-01   -9.865E-01   -9.751E-01   -9.636E-01   -9.522E-01   -9.408E-01   -9.293E-01   -9.179E-01   -9.065E-01   -8.951E-01
    -8.836E-01   -8.722E-01   -8.608E-01   -8.493E-01   -8.379E-01   -8.265E-01   -8.151E-01   -8.036E-01   -7.922E-01   -7.808E-01
    -7.694E-01   -7.579E-01   -7.465E-01   -7.351E-01   -7.237E-01   -7.123E-01   -7.008E-01   -6.894E-01   -6.780E-01   -6.666E-01
    -6.552E-01   -6.438E-01   -6.323E-01   -6.209E-01   -6.095E-01   -5.981E-01   -5.867E-01   -5.753E-01   -5.639E-01   -5.525E-01
    -5.410E-01   -5.296E-01   -5.182E-01   -5.068E-01   -4.954E-01   -4.840E-01   -4.726E-01   -4.612E-01   -4.498E-01   -4.384E-01
    -4.270E-01   -4.156E-01   -4.042E-01   -3.928E-01   -3.814E-01   -3.700E-01   -3.586E-01   -3.472E-01   -3.358E-01   -3.244E-01
    -3.130E-01   -3.016E-01   -2.902E-01   -2.788E-01   -2.674E-01   -2.560E-01   -2.446E-01   -2.333E-01   -2.219E-01   -2.105E-01
    -1.991E-01   -1.877E-01   -1.763E-01   -1.649E-01   -1.536E-01   -1.422E-01   -1.308E-01   -1.194E-01   -1.080E-01   -9.666E-02
    -8.528E-02   -7.391E-02   -6.253E-02   -5.116E-02   -3.978E-02   -2.841E-02   -1.704E-02   -5.668E-03    5.702E-03    1.707E-02
     2.844E-02    3.981E-02    5.117E-02    6.254E-02    7.390E-02    8.526E-02    9.663E-02    1.080E-01    1.193E-01    1.307E-01
     1.421E-01    1.534E-01    1.648E-01    1.761E-01    1.875E-01    1.988E-01    2.102E-01    2.215E-01    2.329E-01    2.442E-01
     2.556E-01    2.669E-01    2.783E-01    2.896E-01    3.010E-01    3.123E-01    3.236E-01    3.350E-01    3.463E-01    3.577E-01
     3.690E-01    3.803E-01    3.917E-01    4.030E-01    4.143E-01    4.257E-01    4.370E-01    4.483E-01    4.597E-01    4.710E-01
     4.823E-01    4.936E-01    5.050E-01    5.163E-01    5.276E-01    5.389E-01    5.502E-01    5.615E-01    5.729E-01    5.842E-01
     5.955E-01    6.068E-01    6.181E-01    6.294E-01    6.407E-01    6.520E-01    6.633E-01    6.746E-01    6.859E-01    6.972E-01
     7.086E-01    7.198E-01    7.311E-01    7.424E-01    7.537E-01    7.650E-01    7.763E-01    7.876E-01    7.989E-01    8.102E-01
     8.215E-01    8.328E-01    8.441E-01    8.553E-01    8.666E-01    8.779E-01    8.892E-01    9.005E-01    9.117E-01    9.230E-01
     9.343E-01    9.456E-01    9.568E-01    9.681E-01    9.794E-01    9.906E-01    1.002E+00    1.013E+00    1.024E+00    1.036E+00
     1.047E+00    1.058E+00    1.069E+00    1.081E+00    1.092E+00    1.103E+00    1.114E+00    1.126E+00    1.137E+00    1.148E+00
     1.159E+00    1.171E+00    1.182E+00    1.193E+00    1.204E+00    1.216E+00    1.227E+00    1.238E+00    1.249E+00    1.261E+00
     1.272E+00    1.283E+00    1.294E+00    1.306E+00    1.317E+00    1.328E+00    1.339E+00    1.350E+00    1.362E+00    1.373E+00
     1.384E+00    1.395E+00    1.406E+00    1.418E+00    1.429E+00    1.440E+00    1.451E+00    1.462E+00    1.474E+00    1.485E+00
     1.496E+00    1.507E+00    1.518E+00    1.530E+00    1.541E+00    1.552E+00    1.563E+00    1.574E+00    1.586E+00    1.597E+00
     1.608E+00    1.619E+00    1.630E+00    1.642E+00    1.653E+00    1.664E+00    1.675E+00    1.686E+00    1.697E+00    1.709E+00
     1.720E+00    1.731E+00    1.742E+00    1.753E+00    1.764E+00    1.775E+00    1.787E+00    1.798E+00
 Asp      Conc. = 1.93E+01
