 LCModel (Version 6.3-1L) Copyright: S.W. Provencher.          Ref.: Magn. Reson. Med. 30:672-679 (1993).                
 Slice#3 Row#1 Col#3  PD_24_press_2_raw_act
 36 lines in following concentration table = NCONC+1
    Conc.  %SD /Cr+PCr  Metabolite                                         
   62.359 160%   0.356 Ala                                                 
   10.856  72% 6.2E-02 Asp                                                 
    0.000 999%   0.000 Cr                                                  
  175.076  34%   1.000 PCr                                                 
    6.440  73% 3.7E-02 GABA                                                
    6.537  72% 3.7E-02 Glc                                                 
  185.036 106%   1.057 Gln                                                 
    0.000 999%   0.000 Glu                                                 
    0.000 999%   0.000 GPC                                                 
    0.000 999%   0.000 PCh                                                 
   97.520  75%   0.557 GSH                                                 
    0.000 999%   0.000 Ins                                                 
    0.000 999%   0.000 Lac                                                 
   43.332 148%   0.248 NAA                                                 
    0.000 999%   0.000 NAAG                                                
    2.187  71% 1.2E-02 Scyllo                                              
   10.763  73% 6.1E-02 Tau                                                 
    7.110 287% 4.1E-02 -CrCH2                                              
    0.000 999%   0.000 GPC+PCh                                             
   43.332 148%   0.248 NAA+NAAG                                            
  175.076  34%   1.000 Cr+PCr                                              
  185.036 106%   1.057 Glu+Gln                                             
  180.396 180%   1.030 Lip13a                                              
    0.000 999%   0.000 Lip13b                                              
    0.000 999%   0.000 Lip09                                               
  817.375  25%   4.669 MM09                                                
   83.088 147%   0.475 Lip20                                               
 1.50E+03  23%   8.548 MM20                                                
  261.421  43%   1.493 MM12                                                
 1.69E+03  15%   9.635 MM14                                                
  786.109  26%   4.490 MM17                                                
  180.396 180%   1.030 Lip13a+Lip13b                                       
 2.13E+03  20%  12.158 MM14+Lip13a+Lip13b+MM12                             
  817.375  25%   4.669 MM09+Lip09                                          
 1.58E+03  22%   9.022 MM20+Lip20                                          
   6 lines in following misc. output table
  FWHM = 0.031 ppm    S/N =   1                                            
  Data shift = 0.015 ppm                                                   
  Ph: -20 deg      54.8 deg/ppm                                            
  alphaB,S = 2.8E+01,   9.3E+00                                            
   14 spline knots.   Ns = 5(1)                                            
  ( 7) 4 infls.   ( 7) 2 extrs.                                            
  498 points on ppm-axis = NY
      4.000000     3.992357     3.984714     3.977070     3.969427     3.961784     3.954141     3.946497     3.938854     3.931211
      3.923568     3.915925     3.908281     3.900638     3.892995     3.885352     3.877708     3.870065     3.862422     3.854779
      3.847136     3.839492     3.831849     3.824206     3.816563     3.808919     3.801276     3.793633     3.785990     3.778347
      3.770703     3.763060     3.755417     3.747774     3.740130     3.732487     3.724844     3.717201     3.709558     3.701914
      3.694271     3.686628     3.678985     3.671341     3.663698     3.656055     3.648412     3.640769     3.633125     3.625482
      3.617839     3.610196     3.602552     3.594909     3.587266     3.579623     3.571980     3.564336     3.556693     3.549050
      3.541407     3.533763     3.526120     3.518477     3.510834     3.503191     3.495547     3.487904     3.480261     3.472618
      3.464974     3.457331     3.449688     3.442045     3.434402     3.426758     3.419115     3.411472     3.403829     3.396185
      3.388542     3.380899     3.373256     3.365613     3.357969     3.350326     3.342683     3.335040     3.327396     3.319753
      3.312110     3.304467     3.296824     3.289180     3.281537     3.273894     3.266251     3.258607     3.250964     3.243321
      3.235678     3.228034     3.220391     3.212748     3.205105     3.197462     3.189818     3.182175     3.174532     3.166889
      3.159245     3.151602     3.143959     3.136316     3.128673     3.121029     3.113386     3.105743     3.098100     3.090456
      3.082813     3.075170     3.067527     3.059884     3.052240     3.044597     3.036954     3.029311     3.021667     3.014024
      3.006381     2.998738     2.991095     2.983451     2.975808     2.968165     2.960522     2.952878     2.945235     2.937592
      2.929949     2.922306     2.914662     2.907019     2.899376     2.891733     2.884089     2.876446     2.868803     2.861160
      2.853517     2.845873     2.838230     2.830587     2.822944     2.815300     2.807657     2.800014     2.792371     2.784728
      2.777084     2.769441     2.761798     2.754155     2.746511     2.738868     2.731225     2.723582     2.715939     2.708295
      2.700652     2.693009     2.685366     2.677722     2.670079     2.662436     2.654793     2.647150     2.639506     2.631863
      2.624220     2.616577     2.608933     2.601290     2.593647     2.586004     2.578361     2.570717     2.563074     2.555431
      2.547788     2.540144     2.532501     2.524858     2.517215     2.509572     2.501928     2.494285     2.486642     2.478999
      2.471355     2.463712     2.456069     2.448426     2.440783     2.433139     2.425496     2.417853     2.410210     2.402566
      2.394923     2.387280     2.379637     2.371994     2.364350     2.356707     2.349064     2.341421     2.333777     2.326134
      2.318491     2.310848     2.303205     2.295561     2.287918     2.280275     2.272632     2.264988     2.257345     2.249702
      2.242059     2.234416     2.226772     2.219129     2.211486     2.203843     2.196199     2.188556     2.180913     2.173270
      2.165627     2.157983     2.150340     2.142697     2.135054     2.127410     2.119767     2.112124     2.104481     2.096838
      2.089194     2.081551     2.073908     2.066265     2.058621     2.050978     2.043335     2.035692     2.028049     2.020405
      2.012762     2.005119     1.997476     1.989833     1.982190     1.974546     1.966903     1.959260     1.951617     1.943974
      1.936331     1.928688     1.921045     1.913402     1.905759     1.898115     1.890472     1.882829     1.875186     1.867543
      1.859900     1.852257     1.844614     1.836971     1.829327     1.821684     1.814041     1.806398     1.798755     1.791112
      1.783469     1.775826     1.768183     1.760540     1.752896     1.745253     1.737610     1.729967     1.722324     1.714681
      1.707038     1.699395     1.691752     1.684108     1.676465     1.668822     1.661179     1.653536     1.645893     1.638250
      1.630607     1.622964     1.615321     1.607677     1.600034     1.592391     1.584748     1.577105     1.569462     1.561819
      1.554176     1.546533     1.538890     1.531246     1.523603     1.515960     1.508317     1.500674     1.493031     1.485388
      1.477745     1.470102     1.462458     1.454815     1.447172     1.439529     1.431886     1.424243     1.416600     1.408957
      1.401314     1.393671     1.386027     1.378384     1.370741     1.363098     1.355455     1.347812     1.340169     1.332526
      1.324883     1.317240     1.309596     1.301953     1.294310     1.286667     1.279024     1.271381     1.263738     1.256095
      1.248452     1.240808     1.233165     1.225522     1.217879     1.210236     1.202593     1.194950     1.187307     1.179664
      1.172021     1.164377     1.156734     1.149091     1.141448     1.133805     1.126162     1.118519     1.110876     1.103233
      1.095590     1.087946     1.080303     1.072660     1.065017     1.057374     1.049731     1.042088     1.034445     1.026802
      1.019158     1.011515     1.003872     0.996229     0.988586     0.980943     0.973300     0.965657     0.958014     0.950371
      0.942727     0.935084     0.927441     0.919798     0.912155     0.904512     0.896869     0.889226     0.881583     0.873940
      0.866296     0.858653     0.851010     0.843367     0.835724     0.828081     0.820438     0.812795     0.805152     0.797508
      0.789865     0.782222     0.774579     0.766936     0.759293     0.751650     0.744007     0.736364     0.728721     0.721077
      0.713434     0.705791     0.698148     0.690505     0.682862     0.675219     0.667576     0.659933     0.652290     0.644646
      0.637003     0.629360     0.621717     0.614074     0.606431     0.598788     0.591145     0.583502     0.575858     0.568215
      0.560572     0.552929     0.545286     0.537643     0.530000     0.522357     0.514714     0.507071     0.499427     0.491784
      0.484141     0.476498     0.468855     0.461212     0.453569     0.445925     0.438282     0.430639     0.422996     0.415353
      0.407710     0.400067     0.392424     0.384780     0.377137     0.369494     0.361851     0.354208     0.346565     0.338922
      0.331278     0.323635     0.315992     0.308349     0.300706     0.293063     0.285420     0.277777     0.270133     0.262490
      0.254847     0.247204     0.239561     0.231918     0.224275     0.216631     0.208988     0.201345
 NY phased data points follow
   2.50298E+01  3.53952E+01  3.25235E+01  2.14583E+01  1.42614E+01  2.03134E+01  3.37166E+01  4.22259E+01  2.71620E+01  2.54030E+01
   1.96445E+01  1.75983E+01  3.10157E+01  3.27622E+01  2.60463E+01  2.34330E+01  1.92641E+01  2.81020E+01  1.73323E+01  2.17164E+01
   2.05344E+01  2.85085E+01  1.97135E+01  1.99728E+01  7.84253E+00  1.95238E+01  1.88641E+01  2.16223E+01  2.48312E+01  2.24429E+01
   1.88319E+01  2.67254E+01  2.75276E+01  1.37151E+01  1.78054E+01  1.38035E+01  1.48972E+01  2.13892E+01  1.79486E+01  2.07212E+01
   2.37634E+01  1.92099E+01  1.36116E+01  1.63044E+01  6.08734E+00  8.05198E+00  1.21585E+01  2.17585E+01  1.39577E+01  9.83149E+00
   1.57151E+01  1.01655E+01  1.07824E+01  1.03928E+01  1.04947E+01  1.68904E+01  1.70978E+01  1.18314E+01  1.61102E+01  2.01803E+01
   8.96507E+00  1.41938E+01  1.84483E+01  9.72528E+00  1.27549E+01  1.89885E+01  9.26875E+00  9.28306E+00  3.70747E+00  1.36448E+01
   1.59636E+01  1.50761E+01  2.46182E+01  2.57584E+01  1.48153E+01  1.46136E+01  1.31787E+01  9.34942E+00  6.85569E+00  1.80348E+01
   1.00115E+01  1.10187E+01  5.64462E+00  1.57959E+01  1.22398E+01  1.38306E+01  1.94530E+01  1.03902E+01  3.45507E+00  1.72329E+01
   9.69931E+00  1.23882E+01  4.98473E+00  1.14847E+01  9.50893E+00  1.35255E+01  9.92523E+00  8.36989E+00  1.23000E+01  1.11232E+01
  -1.37181E+00  1.55551E+01  1.45088E+01  1.21141E+01  5.72871E+00  1.06232E+01  6.87259E+00  6.25192E+00  1.29257E+01  2.71524E+00
   3.74166E+00  1.32733E+01  4.28501E+00  7.31823E+00 -1.70111E+00  1.17605E+01  1.04697E+00  1.07184E+01  5.92579E+00  7.68951E+00
   1.11555E+01  1.26819E+01 -2.90595E+00  1.64054E+00  1.68516E+01  1.36945E+01  1.69600E+01  9.24937E+00  6.71050E+00  1.59055E+01
   2.68374E+00  8.42714E+00 -3.50458E+00  1.48465E+01  1.00158E+01  1.17866E+01  5.13909E+00  3.99361E+00  1.00702E+01  7.98298E+00
   6.71009E+00  1.12294E+01  3.56990E+00  1.06795E+01  5.56772E+00  9.72689E+00  1.86076E+00  7.49638E+00  2.99392E+00  4.32876E+00
   1.48839E+01  6.59842E+00  3.31333E+00  2.08286E+01  5.58099E+00  1.46359E+01  6.52805E+00  8.39701E+00  6.74230E+00  6.74872E+00
   1.16907E+01  4.74611E+00  3.90757E+00  5.79982E+00  5.95872E+00  7.20364E+00  6.25247E-01  5.86009E+00  2.90523E+00  4.05622E+00
   5.80567E-01  1.62066E+00  8.89112E+00  4.97444E+00 -1.88649E+00  5.23838E+00  1.02564E+01  6.71779E+00 -5.32967E-01  6.70579E+00
   7.16549E+00  4.79654E+00  1.12334E-01  6.80504E-01  4.89454E+00  9.68086E+00  1.05281E+01 -4.60297E+00 -4.11697E+00  7.21926E+00
   7.81859E+00 -1.20946E+00 -7.21135E-01  1.23164E+01 -3.89513E+00  3.98907E+00 -6.32479E+00  2.15113E+00  1.03059E+00  7.62218E-01
  -6.11087E+00  4.53125E+00 -2.00955E+00  9.68125E+00  8.29551E+00  5.83571E+00  9.54654E-02  1.08136E+01  3.45489E+00  1.49836E+01
  -2.99200E+00 -5.89482E+00  9.06685E-01  1.30812E+01 -8.84199E+00 -2.77733E-01  2.43970E+00  2.58820E+00 -1.54066E+00 -2.40535E+00
   3.57389E+00  6.06169E+00 -3.69834E+00  4.80205E+00 -6.39091E+00 -1.79823E+00 -3.59210E+00  2.68978E+00  3.86004E+00  4.61698E+00
   5.90239E+00  6.58191E+00 -1.90131E+00  4.28046E+00 -1.44478E+00  3.18966E+00  5.21888E+00 -1.93232E+00  6.19252E+00  4.20594E+00
   2.34345E+00  9.23290E+00 -3.39002E+00  5.64524E+00 -2.47239E+00  2.99555E+00 -3.23525E+00 -2.57884E-01 -2.49039E+00  1.24514E+01
   2.80280E+00  8.74477E+00  1.74893E+00 -2.85760E+00  6.29269E-01  5.47202E-02  3.81129E+00  6.99176E+00  1.24146E+01  4.69106E+00
   6.22108E-01  8.59296E+00  3.94368E+00  1.55748E+00  2.21103E+00  7.48124E+00 -6.14953E+00 -3.13615E-01  2.13452E+00 -2.99655E+00
   4.01347E+00 -3.91014E+00 -2.84762E+00  7.09441E-01  6.02888E+00  9.83587E+00  7.18126E+00 -5.88728E+00 -3.56986E+00  5.38812E+00
   1.37032E+00  1.38222E+00 -5.24200E+00 -2.49732E+00  1.30908E+00 -2.52173E+00  1.73265E+00  5.21314E+00 -3.93751E+00  3.16982E+00
   4.86351E+00  4.05138E+00 -6.35612E+00  7.22793E+00  4.23269E+00  8.33354E+00  4.54020E+00 -3.53257E+00 -5.84624E+00  4.31863E+00
  -3.17408E+00  1.03435E+00  3.71248E+00  2.05946E+00 -5.63762E+00  1.05861E+00  3.48702E+00 -2.68951E+00 -8.01997E-01  4.43049E+00
  -8.12129E+00 -1.53451E+00 -7.58623E+00  5.76729E+00 -2.52267E+00  5.11858E-01 -4.29482E+00 -5.20350E-01 -3.96818E+00  8.23673E+00
   6.53761E+00  3.16003E+00  4.42213E+00  4.90420E-01  6.00549E-01 -3.41532E-02  9.16028E+00  1.40816E+01  5.93825E+00  3.58605E+00
   1.45176E+01  5.17953E+00  1.08675E+00  7.68954E+00  1.20949E+01  1.69221E+01  1.00114E+01  3.26382E+00  5.26763E+00  1.07080E+01
   1.67855E+01  1.53194E+01  1.26212E+01  9.27925E+00  9.40329E+00  3.40149E+00  4.84255E+00  2.05705E+00  2.55577E+00  1.11341E+01
   6.74973E+00  3.80063E+00  8.81397E-01  5.07464E+00  3.24107E+00 -9.56936E-01  9.41410E-01 -1.75043E+00  1.32066E+01 -1.58844E+00
   1.77369E+00  7.26509E+00 -3.72195E+00  2.35638E+00  2.30242E+00  4.03637E+00 -1.32212E+00  8.68170E+00  5.65529E+00  4.64549E+00
   1.55949E+00  2.53938E+00 -2.93037E+00  5.51915E+00  4.20929E+00  2.11051E+00  5.42557E+00 -4.42563E-02  2.46393E+00  8.16018E+00
   1.25513E+01  3.00604E+00  5.85473E-01  3.47509E+00  8.89227E+00  3.33058E+00  1.13550E+01  2.65117E+00  1.77272E+00  1.19782E+01
   8.62645E-01  4.22419E+00  6.15089E-01 -1.16668E+01 -3.81881E+00 -3.07816E-01 -7.22039E+00 -5.87905E-01  5.73467E-01  9.57780E+00
  -1.58378E+00  9.05024E+00  5.22062E+00  9.61749E+00  3.16191E+00 -8.18733E-01 -4.69758E+00  1.60552E+00  4.60797E+00  9.75303E+00
   1.05506E+01  2.48722E-02 -1.01717E+00  1.84133E+00  1.42910E+00  5.34205E-01  2.03501E+00  1.17639E+01 -3.12475E+00 -1.51228E+00
   3.98960E+00 -1.94876E+00 -2.28029E+00  3.29724E+00  7.52641E+00  1.51308E+01  4.94907E+00  1.22426E+01  3.48465E+00  3.79277E+00
   5.66189E+00  6.59204E+00 -6.94186E+00  5.04662E+00 -1.03004E-02  1.84790E+00  4.09003E+00  1.01769E+01  1.68483E+00  1.01476E+01
   1.78085E+01  3.98949E+00 -1.83957E+00  6.72412E+00  1.00885E+01  7.38822E+00  2.75172E+00  3.13344E+00 -4.42515E-01  4.15133E+00
  -3.18209E-01 -2.30624E-01  9.84872E-01 -5.86655E+00  3.10794E+00  1.06588E+00  5.08193E+00  1.29777E+01  2.21208E+00 -4.51831E+00
   4.88472E-01  4.19669E+00 -5.69441E+00  5.64644E+00 -2.61437E+00  3.56623E+00  8.39001E-01  1.32510E+00  5.25909E+00  1.43498E+00
   1.16669E+01 -8.47208E-01 -3.60049E+00  1.05012E+01  6.66582E+00  3.51485E+00  1.11158E+00  6.83802E+00  2.69645E+00  7.27811E+00
   5.44486E+00  6.23591E+00  8.55478E-01  3.38739E+00 -1.22841E+00 -1.20061E+00 -3.97975E+00  8.92648E-01  2.28123E+00 -7.94427E-01
   9.88686E+00 -8.62721E-01  2.67206E+00 -7.32368E-01  4.73006E+00  5.05668E+00 -3.19591E-01  5.50226E+00
 NY points of the fit to the data follow
   1.97836E+01  1.96247E+01  1.94553E+01  1.93525E+01  1.97749E+01  2.14504E+01  2.38179E+01  2.52480E+01  2.49782E+01  2.35927E+01
   2.20922E+01  2.10491E+01  2.04318E+01  1.99629E+01  1.95488E+01  1.92644E+01  1.90681E+01  1.89435E+01  1.89086E+01  1.89387E+01
   1.89615E+01  1.89230E+01  1.87318E+01  1.82461E+01  1.75489E+01  1.70862E+01  1.75646E+01  1.91169E+01  2.08195E+01  2.17239E+01
   2.15943E+01  2.07580E+01  1.96681E+01  1.86288E+01  1.77857E+01  1.72561E+01  1.71107E+01  1.71710E+01  1.72069E+01  1.71640E+01
   1.70644E+01  1.69505E+01  1.68356E+01  1.67102E+01  1.65715E+01  1.64375E+01  1.63171E+01  1.62031E+01  1.60921E+01  1.59815E+01
   1.58706E+01  1.57609E+01  1.56534E+01  1.55464E+01  1.54368E+01  1.53245E+01  1.52131E+01  1.51061E+01  1.50029E+01  1.49007E+01
   1.47981E+01  1.46966E+01  1.46001E+01  1.45095E+01  1.44172E+01  1.43182E+01  1.42117E+01  1.40965E+01  1.39785E+01  1.38671E+01
   1.37645E+01  1.36783E+01  1.36190E+01  1.35687E+01  1.34932E+01  1.33790E+01  1.32363E+01  1.30870E+01  1.29545E+01  1.28468E+01
   1.27523E+01  1.26653E+01  1.26080E+01  1.25926E+01  1.25751E+01  1.25043E+01  1.23758E+01  1.22242E+01  1.20859E+01  1.19662E+01
   1.18419E+01  1.16983E+01  1.15481E+01  1.14099E+01  1.12985E+01  1.12247E+01  1.11692E+01  1.10980E+01  1.10005E+01  1.08843E+01
   1.07584E+01  1.06339E+01  1.05184E+01  1.04097E+01  1.03082E+01  1.02124E+01  1.01142E+01  1.00097E+01  9.90128E+00  9.79057E+00
   9.67831E+00  9.56503E+00  9.45000E+00  9.33292E+00  9.21535E+00  9.09182E+00  8.93769E+00  8.72933E+00  8.46665E+00  8.15019E+00
   7.76161E+00  7.39532E+00  7.82198E+00  1.03927E+01  1.44540E+01  1.74554E+01  1.79218E+01  1.64672E+01  1.45764E+01  1.32878E+01
   1.27401E+01  1.24438E+01  1.19929E+01  1.13714E+01  1.06011E+01  9.86074E+00  9.39636E+00  9.27934E+00  9.43982E+00  9.72068E+00
   9.93278E+00  9.96321E+00  9.83518E+00  9.63807E+00  9.42927E+00  9.23705E+00  9.06992E+00  8.90980E+00  8.74773E+00  8.57586E+00
   8.39516E+00  8.20805E+00  8.02374E+00  7.86614E+00  7.74679E+00  7.65116E+00  7.54996E+00  7.41903E+00  7.25999E+00  7.09923E+00
   6.96108E+00  6.85165E+00  6.75636E+00  6.65270E+00  6.53494E+00  6.41397E+00  6.29769E+00  6.18512E+00  6.07438E+00  5.97016E+00
   5.87836E+00  5.78991E+00  5.67682E+00  5.52523E+00  5.36375E+00  5.22836E+00  5.12225E+00  5.01657E+00  4.88645E+00  4.74239E+00
   4.61721E+00  4.50878E+00  4.36028E+00  4.14472E+00  3.90260E+00  3.70306E+00  3.61913E+00  3.70647E+00  3.95782E+00  4.26678E+00
   4.44618E+00  4.36861E+00  4.05126E+00  3.53444E+00  2.83054E+00  2.07591E+00  1.54850E+00  1.43964E+00  1.75519E+00  2.32723E+00
   2.88842E+00  3.28645E+00  3.54005E+00  3.65690E+00  3.59319E+00  3.28397E+00  2.56588E+00  1.44145E+00  4.44947E-01  8.73008E-02
   3.15142E-01  7.45226E-01  1.07563E+00  1.23735E+00  1.31739E+00  1.38107E+00  1.40307E+00  1.37322E+00  1.33417E+00  1.30080E+00
   1.28141E+00  1.27852E+00  1.27779E+00  1.26665E+00  1.24831E+00  1.23612E+00  1.23590E+00  1.20112E+00  1.02694E+00  7.12592E-01
   4.42342E-01  3.50173E-01  2.94491E-01  1.28245E-01  6.34027E-02  3.19013E-01  7.67860E-01  1.20737E+00  1.57881E+00  1.76045E+00
   1.62016E+00  1.21900E+00  7.87033E-01  5.52660E-01  5.84572E-01  7.58747E-01  9.41310E-01  1.16321E+00  1.50754E+00  1.92668E+00
   2.31174E+00  2.59645E+00  2.77630E+00  2.85163E+00  2.81857E+00  2.69636E+00  2.71435E+00  3.28310E+00  4.28347E+00  5.10679E+00
   5.36782E+00  5.15221E+00  4.76565E+00  4.42859E+00  4.16883E+00  3.91674E+00  3.66327E+00  3.44130E+00  3.22817E+00  3.01574E+00
   2.80538E+00  2.59567E+00  2.38529E+00  2.17587E+00  1.96784E+00  1.75652E+00  1.53791E+00  1.31278E+00  1.08334E+00  8.51384E-01
   6.18503E-01  3.87077E-01  1.61930E-01 -5.23015E-02 -2.54744E-01 -4.45975E-01 -6.24624E-01 -7.88341E-01 -9.35645E-01 -1.06500E+00
  -1.17481E+00 -1.26369E+00 -1.33033E+00 -1.37396E+00 -1.39456E+00 -1.39271E+00 -1.36976E+00 -1.32810E+00 -1.27089E+00 -1.20174E+00
  -1.12490E+00 -1.04491E+00 -9.66214E-01 -8.92907E-01 -8.28742E-01 -7.76883E-01 -7.39579E-01 -7.17871E-01 -7.11436E-01 -7.18500E-01
  -7.35908E-01 -7.59177E-01 -7.82610E-01 -7.99511E-01 -8.02491E-01 -7.83806E-01 -7.35802E-01 -6.51237E-01 -5.23545E-01 -3.46799E-01
  -1.14930E-01  1.84276E-01  6.07494E-01  1.30569E+00  2.31357E+00  3.25856E+00  3.76361E+00  3.85587E+00  3.80891E+00  3.80874E+00
   3.80042E+00  3.71950E+00  3.85603E+00  4.48319E+00  5.42290E+00  6.27169E+00  6.81083E+00  7.06227E+00  7.15709E+00  7.18105E+00
   7.13119E+00  7.00516E+00  6.84153E+00  6.64807E+00  6.42613E+00  6.18182E+00  5.92180E+00  5.65257E+00  5.38015E+00  5.10990E+00
   4.84636E+00  4.59322E+00  4.35334E+00  4.12879E+00  3.92083E+00  3.73000E+00  3.55617E+00  3.39869E+00  3.25646E+00  3.12808E+00
   3.01186E+00  2.90591E+00  2.80823E+00  2.71678E+00  2.62962E+00  2.54486E+00  2.46073E+00  2.37564E+00  2.28816E+00  2.19712E+00
   2.10159E+00  2.00089E+00  1.89454E+00  1.78229E+00  1.66413E+00  1.54029E+00  1.41118E+00  1.27744E+00  1.13982E+00  9.99282E-01
   8.56971E-01  7.14242E-01  5.72635E-01  4.33887E-01  2.99939E-01  1.72979E-01  5.54356E-02 -5.00161E-02 -1.40519E-01 -2.13064E-01
  -2.64558E-01 -2.91882E-01 -2.92014E-01 -2.62168E-01 -1.99973E-01 -1.03607E-01  2.80395E-02  1.95255E-01  3.97363E-01  6.32644E-01
   8.98280E-01  1.19041E+00  1.50420E+00  1.83404E+00  2.17364E+00  2.51636E+00  2.85537E+00  3.18402E+00  3.49608E+00  3.78597E+00
   4.04899E+00  4.28141E+00  4.48063E+00  4.64516E+00  4.77464E+00  4.86973E+00  4.93199E+00  4.96367E+00  4.96762E+00  4.94704E+00
   4.90540E+00  4.84617E+00  4.77275E+00  4.68834E+00  4.59587E+00  4.49796E+00  4.39690E+00  4.29460E+00  4.19263E+00  4.09221E+00
   3.99432E+00  3.89968E+00  3.80879E+00  3.72199E+00  3.63943E+00  3.56118E+00  3.48725E+00  3.41755E+00  3.35199E+00  3.29039E+00
   3.23260E+00  3.17843E+00  3.12771E+00  3.08029E+00  3.03599E+00  2.99464E+00  2.95609E+00  2.92018E+00  2.88680E+00  2.85582E+00
   2.82711E+00  2.80057E+00  2.77608E+00  2.75355E+00  2.73291E+00  2.71408E+00  2.69697E+00  2.68150E+00  2.66761E+00  2.65524E+00
   2.64435E+00  2.63487E+00  2.62675E+00  2.61993E+00  2.61438E+00  2.61007E+00  2.60695E+00  2.60499E+00  2.60414E+00  2.60436E+00
   2.60564E+00  2.60795E+00  2.61126E+00  2.61554E+00  2.62076E+00  2.62690E+00  2.63394E+00  2.64187E+00  2.65065E+00  2.66027E+00
   2.67069E+00  2.68192E+00  2.69393E+00  2.70672E+00  2.72025E+00  2.73450E+00  2.74947E+00  2.76514E+00  2.78150E+00  2.79853E+00
   2.81621E+00  2.83452E+00  2.85345E+00  2.87299E+00  2.89313E+00  2.91383E+00  2.93508E+00  2.95686E+00
 NY background values follow
     2.089E+01    2.080E+01    2.071E+01    2.062E+01    2.053E+01    2.044E+01    2.035E+01    2.026E+01    2.018E+01    2.009E+01
     2.000E+01    1.991E+01    1.982E+01    1.973E+01    1.964E+01    1.955E+01    1.947E+01    1.938E+01    1.929E+01    1.920E+01
     1.911E+01    1.902E+01    1.894E+01    1.885E+01    1.876E+01    1.867E+01    1.858E+01    1.849E+01    1.841E+01    1.832E+01
     1.823E+01    1.814E+01    1.805E+01    1.797E+01    1.788E+01    1.779E+01    1.770E+01    1.761E+01    1.753E+01    1.744E+01
     1.735E+01    1.726E+01    1.718E+01    1.709E+01    1.700E+01    1.691E+01    1.683E+01    1.674E+01    1.665E+01    1.657E+01
     1.648E+01    1.639E+01    1.631E+01    1.622E+01    1.613E+01    1.605E+01    1.596E+01    1.587E+01    1.579E+01    1.570E+01
     1.561E+01    1.553E+01    1.544E+01    1.536E+01    1.527E+01    1.519E+01    1.510E+01    1.501E+01    1.493E+01    1.484E+01
     1.476E+01    1.467E+01    1.459E+01    1.450E+01    1.442E+01    1.433E+01    1.425E+01    1.417E+01    1.408E+01    1.400E+01
     1.391E+01    1.383E+01    1.375E+01    1.366E+01    1.358E+01    1.349E+01    1.341E+01    1.333E+01    1.324E+01    1.316E+01
     1.308E+01    1.300E+01    1.291E+01    1.283E+01    1.275E+01    1.267E+01    1.258E+01    1.250E+01    1.242E+01    1.234E+01
     1.226E+01    1.218E+01    1.210E+01    1.201E+01    1.193E+01    1.185E+01    1.177E+01    1.169E+01    1.161E+01    1.153E+01
     1.145E+01    1.137E+01    1.129E+01    1.121E+01    1.113E+01    1.105E+01    1.097E+01    1.089E+01    1.082E+01    1.074E+01
     1.066E+01    1.058E+01    1.050E+01    1.042E+01    1.035E+01    1.027E+01    1.019E+01    1.011E+01    1.004E+01    9.961E+00
     9.884E+00    9.808E+00    9.731E+00    9.655E+00    9.579E+00    9.504E+00    9.428E+00    9.352E+00    9.277E+00    9.202E+00
     9.127E+00    9.053E+00    8.978E+00    8.904E+00    8.830E+00    8.756E+00    8.682E+00    8.609E+00    8.536E+00    8.462E+00
     8.390E+00    8.317E+00    8.244E+00    8.172E+00    8.100E+00    8.028E+00    7.957E+00    7.885E+00    7.814E+00    7.743E+00
     7.672E+00    7.602E+00    7.531E+00    7.461E+00    7.391E+00    7.321E+00    7.252E+00    7.183E+00    7.114E+00    7.045E+00
     6.976E+00    6.908E+00    6.840E+00    6.772E+00    6.704E+00    6.636E+00    6.569E+00    6.502E+00    6.435E+00    6.369E+00
     6.303E+00    6.237E+00    6.171E+00    6.105E+00    6.040E+00    5.975E+00    5.910E+00    5.845E+00    5.781E+00    5.717E+00
     5.653E+00    5.589E+00    5.526E+00    5.463E+00    5.400E+00    5.337E+00    5.275E+00    5.212E+00    5.151E+00    5.089E+00
     5.028E+00    4.966E+00    4.906E+00    4.845E+00    4.785E+00    4.725E+00    4.665E+00    4.605E+00    4.546E+00    4.487E+00
     4.428E+00    4.370E+00    4.311E+00    4.253E+00    4.196E+00    4.138E+00    4.081E+00    4.024E+00    3.968E+00    3.911E+00
     3.855E+00    3.799E+00    3.744E+00    3.689E+00    3.634E+00    3.579E+00    3.525E+00    3.471E+00    3.417E+00    3.363E+00
     3.310E+00    3.257E+00    3.204E+00    3.152E+00    3.100E+00    3.048E+00    2.996E+00    2.945E+00    2.894E+00    2.844E+00
     2.793E+00    2.743E+00    2.693E+00    2.644E+00    2.595E+00    2.546E+00    2.497E+00    2.449E+00    2.401E+00    2.353E+00
     2.306E+00    2.259E+00    2.212E+00    2.165E+00    2.119E+00    2.073E+00    2.028E+00    1.982E+00    1.937E+00    1.893E+00
     1.848E+00    1.804E+00    1.761E+00    1.717E+00    1.674E+00    1.631E+00    1.589E+00    1.547E+00    1.505E+00    1.463E+00
     1.422E+00    1.381E+00    1.341E+00    1.300E+00    1.260E+00    1.221E+00    1.181E+00    1.143E+00    1.104E+00    1.066E+00
     1.027E+00    9.898E-01    9.524E-01    9.154E-01    8.786E-01    8.422E-01    8.062E-01    7.704E-01    7.350E-01    6.999E-01
     6.652E-01    6.308E-01    5.967E-01    5.629E-01    5.295E-01    4.964E-01    4.636E-01    4.312E-01    3.991E-01    3.674E-01
     3.359E-01    3.048E-01    2.741E-01    2.437E-01    2.136E-01    1.839E-01    1.545E-01    1.254E-01    9.671E-02    6.834E-02
     4.031E-02    1.262E-02   -1.473E-02   -4.173E-02   -6.840E-02   -9.471E-02   -1.207E-01   -1.463E-01   -1.716E-01   -1.965E-01
    -2.211E-01   -2.454E-01   -2.692E-01   -2.928E-01   -3.160E-01   -3.388E-01   -3.613E-01   -3.835E-01   -4.053E-01   -4.267E-01
    -4.478E-01   -4.686E-01   -4.889E-01   -5.090E-01   -5.287E-01   -5.480E-01   -5.670E-01   -5.856E-01   -6.039E-01   -6.218E-01
    -6.393E-01   -6.565E-01   -6.734E-01   -6.898E-01   -7.060E-01   -7.217E-01   -7.371E-01   -7.522E-01   -7.669E-01   -7.812E-01
    -7.952E-01   -8.088E-01   -8.221E-01   -8.350E-01   -8.475E-01   -8.597E-01   -8.715E-01   -8.829E-01   -8.940E-01   -9.047E-01
    -9.151E-01   -9.251E-01   -9.347E-01   -9.439E-01   -9.528E-01   -9.614E-01   -9.696E-01   -9.774E-01   -9.848E-01   -9.919E-01
    -9.986E-01   -1.005E+00   -1.011E+00   -1.017E+00   -1.022E+00   -1.027E+00   -1.031E+00   -1.035E+00   -1.039E+00   -1.042E+00
    -1.045E+00   -1.048E+00   -1.050E+00   -1.052E+00   -1.054E+00   -1.055E+00   -1.056E+00   -1.056E+00   -1.056E+00   -1.056E+00
    -1.055E+00   -1.054E+00   -1.053E+00   -1.051E+00   -1.049E+00   -1.047E+00   -1.044E+00   -1.040E+00   -1.037E+00   -1.033E+00
    -1.028E+00   -1.024E+00   -1.019E+00   -1.013E+00   -1.007E+00   -1.001E+00   -9.943E-01   -9.873E-01   -9.799E-01   -9.722E-01
    -9.641E-01   -9.556E-01   -9.468E-01   -9.375E-01   -9.279E-01   -9.180E-01   -9.076E-01   -8.969E-01   -8.858E-01   -8.743E-01
    -8.625E-01   -8.503E-01   -8.377E-01   -8.247E-01   -8.114E-01   -7.977E-01   -7.836E-01   -7.691E-01   -7.543E-01   -7.391E-01
    -7.235E-01   -7.076E-01   -6.912E-01   -6.745E-01   -6.575E-01   -6.400E-01   -6.222E-01   -6.040E-01   -5.854E-01   -5.665E-01
    -5.472E-01   -5.275E-01   -5.074E-01   -4.870E-01   -4.662E-01   -4.450E-01   -4.234E-01   -4.015E-01   -3.792E-01   -3.565E-01
    -3.335E-01   -3.101E-01   -2.863E-01   -2.621E-01   -2.376E-01   -2.127E-01   -1.874E-01   -1.618E-01   -1.358E-01   -1.094E-01
    -8.260E-02   -5.547E-02   -2.797E-02   -9.921E-05    2.814E-02    5.676E-02    8.574E-02    1.151E-01    1.448E-01    1.749E-01
     2.054E-01    2.362E-01    2.674E-01    2.990E-01    3.309E-01    3.632E-01    3.959E-01    4.289E-01    4.623E-01    4.961E-01
     5.302E-01    5.647E-01    5.996E-01    6.348E-01    6.704E-01    7.064E-01    7.427E-01    7.794E-01    8.165E-01    8.539E-01
     8.917E-01    9.299E-01    9.684E-01    1.007E+00    1.047E+00    1.086E+00    1.126E+00    1.166E+00
 Ala      Conc. = 6.24E+01
