 LCModel (Version 6.3-1L) Copyright: S.W. Provencher.          Ref.: Magn. Reson. Med. 30:672-679 (1993).                
 Slice#3 Row#7 Col#1  PD_24_press_2_raw_act
 36 lines in following concentration table = NCONC+1
    Conc.  %SD /Cr+PCr  Metabolite                                         
    0.000 999%   0.000 Ala                                                 
   17.232 722% 3.2E-02 Asp                                                 
  537.296  12%   1.000 Cr                                                  
    0.000 999%   0.000 PCr                                                 
   37.729 204% 7.0E-02 GABA                                                
   18.029 423% 3.4E-02 Glc                                                 
  542.656  72%   1.010 Gln                                                 
  753.600  58%   1.403 Glu                                                 
  224.673  11%   0.418 GPC                                                 
    0.000 999%   0.000 PCh                                                 
  836.488  12%   1.557 GSH                                                 
 1.81E+03  22%   3.367 Ins                                                 
    0.000 999%   0.000 Lac                                                 
  647.087  10%   1.204 NAA                                                 
    0.000 999%   0.000 NAAG                                                
   41.908  54% 7.8E-02 Scyllo                                              
    6.659 999% 1.2E-02 Tau                                                 
  237.014  50%   0.441 -CrCH2                                              
  224.673  11%   0.418 GPC+PCh                                             
  647.087  10%   1.204 NAA+NAAG                                            
  537.296  12%   1.000 Cr+PCr                                              
 1.30E+03  54%   2.413 Glu+Gln                                             
    0.000 999%   0.000 Lip13a                                              
  202.168  55%   0.376 Lip13b                                              
   50.623  77% 9.4E-02 Lip09                                               
    0.000 999%   0.000 MM09                                                
   29.981  82% 5.6E-02 Lip20                                               
    0.000 999%   0.000 MM20                                                
 1.32E-03 999% 2.4E-06 MM12                                                
    0.000 999%   0.000 MM14                                                
 8.44E-02 999% 1.6E-04 MM17                                                
  202.168  55%   0.376 Lip13a+Lip13b                                       
  202.170  55%   0.376 MM14+Lip13a+Lip13b+MM12                             
   50.623  77% 9.4E-02 MM09+Lip09                                          
   29.981  82% 5.6E-02 MM20+Lip20                                          
   6 lines in following misc. output table
  FWHM = 0.069 ppm    S/N =   2                                            
  Data shift = 0.031 ppm                                                   
  Ph:  -6 deg     -11.6 deg/ppm                                            
  alphaB,S = 7.3E-01,   5.7E+01                                            
   14 spline knots.   Ns = 7(1)                                            
  (12) 4 infls.   (13) 1 extrs.                                            
  498 points on ppm-axis = NY
      4.000000     3.992357     3.984714     3.977070     3.969427     3.961784     3.954141     3.946497     3.938854     3.931211
      3.923568     3.915925     3.908281     3.900638     3.892995     3.885352     3.877708     3.870065     3.862422     3.854779
      3.847136     3.839492     3.831849     3.824206     3.816563     3.808919     3.801276     3.793633     3.785990     3.778347
      3.770703     3.763060     3.755417     3.747774     3.740130     3.732487     3.724844     3.717201     3.709558     3.701914
      3.694271     3.686628     3.678985     3.671341     3.663698     3.656055     3.648412     3.640769     3.633125     3.625482
      3.617839     3.610196     3.602552     3.594909     3.587266     3.579623     3.571980     3.564336     3.556693     3.549050
      3.541407     3.533763     3.526120     3.518477     3.510834     3.503191     3.495547     3.487904     3.480261     3.472618
      3.464974     3.457331     3.449688     3.442045     3.434402     3.426758     3.419115     3.411472     3.403829     3.396185
      3.388542     3.380899     3.373256     3.365613     3.357969     3.350326     3.342683     3.335040     3.327396     3.319753
      3.312110     3.304467     3.296824     3.289180     3.281537     3.273894     3.266251     3.258607     3.250964     3.243321
      3.235678     3.228034     3.220391     3.212748     3.205105     3.197462     3.189818     3.182175     3.174532     3.166889
      3.159245     3.151602     3.143959     3.136316     3.128673     3.121029     3.113386     3.105743     3.098100     3.090456
      3.082813     3.075170     3.067527     3.059884     3.052240     3.044597     3.036954     3.029311     3.021667     3.014024
      3.006381     2.998738     2.991095     2.983451     2.975808     2.968165     2.960522     2.952878     2.945235     2.937592
      2.929949     2.922306     2.914662     2.907019     2.899376     2.891733     2.884089     2.876446     2.868803     2.861160
      2.853517     2.845873     2.838230     2.830587     2.822944     2.815300     2.807657     2.800014     2.792371     2.784728
      2.777084     2.769441     2.761798     2.754155     2.746511     2.738868     2.731225     2.723582     2.715939     2.708295
      2.700652     2.693009     2.685366     2.677722     2.670079     2.662436     2.654793     2.647150     2.639506     2.631863
      2.624220     2.616577     2.608933     2.601290     2.593647     2.586004     2.578361     2.570717     2.563074     2.555431
      2.547788     2.540144     2.532501     2.524858     2.517215     2.509572     2.501928     2.494285     2.486642     2.478999
      2.471355     2.463712     2.456069     2.448426     2.440783     2.433139     2.425496     2.417853     2.410210     2.402566
      2.394923     2.387280     2.379637     2.371994     2.364350     2.356707     2.349064     2.341421     2.333777     2.326134
      2.318491     2.310848     2.303205     2.295561     2.287918     2.280275     2.272632     2.264988     2.257345     2.249702
      2.242059     2.234416     2.226772     2.219129     2.211486     2.203843     2.196199     2.188556     2.180913     2.173270
      2.165627     2.157983     2.150340     2.142697     2.135054     2.127410     2.119767     2.112124     2.104481     2.096838
      2.089194     2.081551     2.073908     2.066265     2.058621     2.050978     2.043335     2.035692     2.028049     2.020405
      2.012762     2.005119     1.997476     1.989833     1.982190     1.974546     1.966903     1.959260     1.951617     1.943974
      1.936331     1.928688     1.921045     1.913402     1.905759     1.898115     1.890472     1.882829     1.875186     1.867543
      1.859900     1.852257     1.844614     1.836971     1.829327     1.821684     1.814041     1.806398     1.798755     1.791112
      1.783469     1.775826     1.768183     1.760540     1.752896     1.745253     1.737610     1.729967     1.722324     1.714681
      1.707038     1.699395     1.691752     1.684108     1.676465     1.668822     1.661179     1.653536     1.645893     1.638250
      1.630607     1.622964     1.615321     1.607677     1.600034     1.592391     1.584748     1.577105     1.569462     1.561819
      1.554176     1.546533     1.538890     1.531246     1.523603     1.515960     1.508317     1.500674     1.493031     1.485388
      1.477745     1.470102     1.462458     1.454815     1.447172     1.439529     1.431886     1.424243     1.416600     1.408957
      1.401314     1.393671     1.386027     1.378384     1.370741     1.363098     1.355455     1.347812     1.340169     1.332526
      1.324883     1.317240     1.309596     1.301953     1.294310     1.286667     1.279024     1.271381     1.263738     1.256095
      1.248452     1.240808     1.233165     1.225522     1.217879     1.210236     1.202593     1.194950     1.187307     1.179664
      1.172021     1.164377     1.156734     1.149091     1.141448     1.133805     1.126162     1.118519     1.110876     1.103233
      1.095590     1.087946     1.080303     1.072660     1.065017     1.057374     1.049731     1.042088     1.034445     1.026802
      1.019158     1.011515     1.003872     0.996229     0.988586     0.980943     0.973300     0.965657     0.958014     0.950371
      0.942727     0.935084     0.927441     0.919798     0.912155     0.904512     0.896869     0.889226     0.881583     0.873940
      0.866296     0.858653     0.851010     0.843367     0.835724     0.828081     0.820438     0.812795     0.805152     0.797508
      0.789865     0.782222     0.774579     0.766936     0.759293     0.751650     0.744007     0.736364     0.728721     0.721077
      0.713434     0.705791     0.698148     0.690505     0.682862     0.675219     0.667576     0.659933     0.652290     0.644646
      0.637003     0.629360     0.621717     0.614074     0.606431     0.598788     0.591145     0.583502     0.575858     0.568215
      0.560572     0.552929     0.545286     0.537643     0.530000     0.522357     0.514714     0.507071     0.499427     0.491784
      0.484141     0.476498     0.468855     0.461212     0.453569     0.445925     0.438282     0.430639     0.422996     0.415353
      0.407710     0.400067     0.392424     0.384780     0.377137     0.369494     0.361851     0.354208     0.346565     0.338922
      0.331278     0.323635     0.315992     0.308349     0.300706     0.293063     0.285420     0.277777     0.270133     0.262490
      0.254847     0.247204     0.239561     0.231918     0.224275     0.216631     0.208988     0.201345
 NY phased data points follow
  -1.51375E+02 -1.46097E+02 -1.46048E+02 -1.44959E+02 -1.40091E+02 -1.31880E+02 -1.30468E+02 -1.27814E+02 -1.29390E+02 -1.18125E+02
  -1.18506E+02 -1.14379E+02 -1.15550E+02 -1.13318E+02 -1.21484E+02 -1.12708E+02 -1.14277E+02 -1.16624E+02 -1.13908E+02 -1.11601E+02
  -1.07939E+02 -1.04245E+02 -1.04901E+02 -1.01976E+02 -9.72557E+01 -9.28174E+01 -9.44560E+01 -8.85508E+01 -8.51011E+01 -8.68893E+01
  -7.96672E+01 -8.50079E+01 -8.31376E+01 -7.97732E+01 -7.63841E+01 -7.62159E+01 -7.79303E+01 -7.27765E+01 -6.55832E+01 -7.07414E+01
  -7.35931E+01 -7.05131E+01 -6.81957E+01 -6.79407E+01 -6.66805E+01 -6.23854E+01 -6.22174E+01 -6.12668E+01 -6.21293E+01 -6.36225E+01
  -6.05988E+01 -6.75807E+01 -6.35605E+01 -6.19600E+01 -5.96936E+01 -5.72750E+01 -6.12931E+01 -6.20219E+01 -6.06239E+01 -5.51237E+01
  -5.62423E+01 -5.33362E+01 -5.62196E+01 -6.31329E+01 -5.70693E+01 -5.73525E+01 -5.76960E+01 -5.49370E+01 -5.30305E+01 -5.00101E+01
  -4.29333E+01 -4.70872E+01 -4.75863E+01 -5.14215E+01 -4.71624E+01 -4.34219E+01 -4.70945E+01 -4.73364E+01 -4.20120E+01 -4.28062E+01
  -4.41903E+01 -3.91241E+01 -4.35403E+01 -4.41999E+01 -3.88409E+01 -4.22553E+01 -3.60587E+01 -3.41192E+01 -3.89376E+01 -3.26031E+01
  -3.71904E+01 -3.62327E+01 -3.28474E+01 -3.57315E+01 -3.23717E+01 -3.48823E+01 -2.81680E+01 -3.62942E+01 -2.36476E+01 -2.74423E+01
  -2.66224E+01 -1.62602E+01 -1.22510E+01 -1.07710E+01 -1.02397E+01 -1.49312E+01 -1.74453E+01 -1.92185E+01 -2.06779E+01 -1.83948E+01
  -2.19256E+01 -1.94798E+01 -1.97255E+01 -1.92105E+01 -1.45753E+01 -2.13150E+01 -1.74387E+01 -1.96795E+01 -1.93811E+01 -2.13820E+01
  -2.16109E+01 -1.32300E+01 -1.89456E+01 -6.00616E+00 -3.03797E+00 -1.60575E+00 -1.63130E+00 -1.14641E-01 -2.68753E+00 -1.32479E+00
  -7.51946E+00 -6.97339E+00 -2.75887E+00 -8.03612E+00 -8.45469E+00 -1.06825E+01 -5.78535E+00 -9.12699E+00 -9.69831E+00 -8.65202E+00
  -1.25068E+01 -7.90562E+00 -3.49120E+00 -1.38942E+01 -7.18601E+00 -1.15328E+01 -9.95276E+00 -9.86263E+00 -1.13752E+01 -1.31251E+01
  -7.30770E+00 -1.04596E+01 -3.34785E+00 -7.11419E+00 -4.80528E-02 -9.05556E+00 -1.89275E+00 -9.79180E+00 -8.56451E+00 -2.35090E+00
  -5.95182E+00 -5.07319E+00 -4.74055E+00  5.09756E-01  8.90367E-01 -2.16092E+00 -6.43054E-02  2.44188E-01 -7.46249E+00 -4.66269E+00
  -1.75495E+00  5.43486E+00  1.61085E+00 -1.61610E+00 -2.14751E+00 -7.26205E+00 -7.22339E+00 -8.76633E+00 -5.72785E+00 -1.09935E+01
  -3.92629E+00 -1.19190E+01 -1.03229E+01 -3.46849E+00 -9.09252E+00 -2.49469E+00 -3.02312E+00 -5.05937E+00  2.77135E+00 -1.00049E+00
  -9.32676E-01  5.78817E+00  2.66968E+00  4.78656E+00  6.22514E+00  2.95012E+00  2.46712E+00  1.12822E+00  5.64978E+00  6.50217E+00
   6.97040E+00  6.86218E+00  1.06748E+01  8.58820E+00  8.95023E+00  7.59220E+00  6.74997E+00  6.87155E+00  1.21938E+01  1.15065E+01
   9.04814E+00  1.05243E+01  1.61599E+01  1.31377E+01  1.06404E+01  9.74592E+00  1.76830E+01  1.58526E+01  1.60400E+01  1.51408E+01
   9.51122E+00  1.49420E+01  1.38671E+01  9.90424E+00  1.23232E+01  1.06966E+01  1.82106E+01  1.27786E+01  1.86445E+01  1.37708E+01
   1.25938E+01  1.12475E+01  1.40911E+01  1.52301E+01  1.85373E+01  1.66654E+01  1.07371E+01  1.08937E+01  6.89358E+00  1.70658E+01
   1.29765E+01  1.16313E+01  1.80420E+01  1.67229E+01  1.40739E+01  8.04305E+00  1.59712E+01  1.68496E+01  1.46874E+01  1.38012E+01
   1.62367E+01  1.85402E+01  1.24456E+01  1.73574E+01  1.89955E+01  2.17935E+01  2.72395E+01  3.13179E+01  3.17342E+01  2.86151E+01
   3.46775E+01  3.16480E+01  3.30197E+01  2.77266E+01  3.17146E+01  2.96465E+01  2.16574E+01  2.42322E+01  2.02801E+01  1.50661E+01
   1.89808E+01  1.24601E+01  1.36177E+01  1.92492E+01  1.32192E+01  1.46422E+01  1.79787E+01  1.77731E+01  1.81264E+01  1.89214E+01
   1.67598E+01  1.79533E+01  1.70405E+01  1.36567E+01  1.64714E+01  2.73652E+01  2.25187E+01  1.80219E+01  2.36374E+01  1.81176E+01
   1.63560E+01  1.94327E+01  1.92110E+01  2.46381E+01  2.20873E+01  2.75891E+01  2.37493E+01  1.63643E+01  2.39531E+01  2.26449E+01
   1.96112E+01  2.59738E+01  1.74038E+01  2.28998E+01  1.88717E+01  2.11694E+01  1.76216E+01  1.73601E+01  1.74313E+01  1.63625E+01
   2.34210E+01  1.68133E+01  1.98051E+01  1.61682E+01  1.65854E+01  1.78570E+01  1.50953E+01  1.41215E+01  1.34437E+01  1.26207E+01
   1.72917E+01  2.16719E+01  1.47769E+01  1.87073E+01  2.02859E+01  1.82484E+01  2.44132E+01  1.59918E+01  1.80755E+01  1.82835E+01
   1.75294E+01  1.68995E+01  1.83660E+01  2.02677E+01  2.02713E+01  1.67956E+01  1.46817E+01  1.65738E+01  1.52372E+01  1.44047E+01
   1.68489E+01  1.66844E+01  1.79018E+01  1.71321E+01  1.72197E+01  2.09443E+01  2.11486E+01  1.94719E+01  1.71101E+01  2.07885E+01
   2.27091E+01  2.08586E+01  2.28875E+01  2.39539E+01  1.92890E+01  2.34011E+01  2.08629E+01  1.95592E+01  2.32552E+01  2.09747E+01
   2.00264E+01  2.24964E+01  1.41929E+01  2.07912E+01  1.67190E+01  1.77050E+01  1.62471E+01  2.09043E+01  1.46655E+01  1.83887E+01
   1.95419E+01  1.95736E+01  2.20360E+01  1.62583E+01  2.23415E+01  2.33818E+01  1.95002E+01  1.67853E+01  2.00123E+01  2.46392E+01
   1.77297E+01  2.15590E+01  2.19311E+01  2.02213E+01  1.63479E+01  2.44067E+01  2.06575E+01  1.83547E+01  1.82816E+01  1.92149E+01
   2.31100E+01  1.78087E+01  1.41838E+01  1.68771E+01  1.78577E+01  2.28152E+01  2.57822E+01  2.14784E+01  2.47857E+01  2.19103E+01
   2.27076E+01  2.01987E+01  2.09570E+01  1.97314E+01  2.27444E+01  1.68436E+01  2.63672E+01  1.66524E+01  1.53047E+01  1.62950E+01
   1.72239E+01  8.78076E+00  1.82430E+01  1.47454E+01  1.21427E+01  1.09713E+01  2.18887E+01  1.63777E+01  1.96755E+01  1.48296E+01
   1.90755E+01  2.49896E+01  2.02999E+01  2.16643E+01  2.02638E+01  1.89338E+01  1.77201E+01  2.19554E+01  1.54148E+01  2.19468E+01
   1.91192E+01  2.06669E+01  1.53306E+01  1.81806E+01  1.45878E+01  2.01302E+01  2.29590E+01  1.96655E+01  1.79102E+01  1.75560E+01
   1.78826E+01  1.60965E+01  1.72947E+01  1.94919E+01  1.88983E+01  1.88602E+01  1.89289E+01  1.64687E+01  1.88531E+01  2.23787E+01
   2.03377E+01  1.87873E+01  2.20523E+01  1.72184E+01  1.96805E+01  2.06246E+01  2.06842E+01  1.77023E+01  2.10024E+01  2.00377E+01
   1.95964E+01  1.85348E+01  2.21560E+01  2.44870E+01  2.38460E+01  1.86830E+01  2.01791E+01  1.71495E+01  2.22305E+01  1.88829E+01
   1.93896E+01  1.47506E+01  2.45304E+01  2.37507E+01  1.51270E+01  1.42785E+01  1.79146E+01  1.70404E+01  1.82167E+01  2.34056E+01
   1.89943E+01  1.68243E+01  1.19565E+01  1.87300E+01  1.16943E+01  1.41641E+01  1.91936E+01  2.21337E+01  1.91297E+01  2.00503E+01
   1.75592E+01  1.42234E+01  2.03591E+01  1.37325E+01  1.69754E+01  1.98592E+01  2.04206E+01  1.15541E+01
 NY points of the fit to the data follow
  -1.38941E+02 -1.38308E+02 -1.37739E+02 -1.37142E+02 -1.35456E+02 -1.32840E+02 -1.30232E+02 -1.27755E+02 -1.25171E+02 -1.22460E+02
  -1.19853E+02 -1.17730E+02 -1.16354E+02 -1.15532E+02 -1.14723E+02 -1.13515E+02 -1.11910E+02 -1.10433E+02 -1.09773E+02 -1.09740E+02
  -1.09323E+02 -1.08489E+02 -1.07381E+02 -1.04944E+02 -1.01006E+02 -9.67966E+01 -9.26801E+01 -8.85380E+01 -8.45555E+01 -8.12881E+01
  -7.91201E+01 -7.82420E+01 -7.84981E+01 -7.91460E+01 -7.94719E+01 -7.93978E+01 -7.93234E+01 -7.97941E+01 -8.09960E+01 -8.14127E+01
  -7.97807E+01 -7.69471E+01 -7.39385E+01 -7.12490E+01 -6.87714E+01 -6.66619E+01 -6.51035E+01 -6.43004E+01 -6.43897E+01 -6.48714E+01
  -6.52178E+01 -6.51001E+01 -6.43754E+01 -6.34093E+01 -6.27387E+01 -6.23521E+01 -6.15890E+01 -6.02640E+01 -5.88521E+01 -5.77219E+01
  -5.68569E+01 -5.62206E+01 -5.56703E+01 -5.50882E+01 -5.42635E+01 -5.31121E+01 -5.19564E+01 -5.10105E+01 -5.01209E+01 -4.91974E+01
  -4.81859E+01 -4.71391E+01 -4.61778E+01 -4.53469E+01 -4.46511E+01 -4.40416E+01 -4.34355E+01 -4.28492E+01 -4.22658E+01 -4.17419E+01
  -4.12684E+01 -4.09337E+01 -4.07384E+01 -4.05730E+01 -4.04091E+01 -4.02448E+01 -4.00256E+01 -3.96644E+01 -3.90955E+01 -3.82425E+01
  -3.72725E+01 -3.64131E+01 -3.57621E+01 -3.52806E+01 -3.48662E+01 -3.42647E+01 -3.25722E+01 -2.92611E+01 -2.57230E+01 -2.26420E+01
  -1.97751E+01 -1.70694E+01 -1.49119E+01 -1.37443E+01 -1.38334E+01 -1.48422E+01 -1.60864E+01 -1.69403E+01 -1.73271E+01 -1.77279E+01
  -1.87047E+01 -2.05246E+01 -2.22084E+01 -2.25761E+01 -2.24389E+01 -2.21807E+01 -2.18785E+01 -2.15404E+01 -2.10905E+01 -2.01506E+01
  -1.77437E+01 -1.45362E+01 -1.15968E+01 -8.96311E+00 -6.41912E+00 -4.12640E+00 -2.35727E+00 -1.30624E+00 -1.27110E+00 -2.14144E+00
  -3.24278E+00 -4.16956E+00 -5.15854E+00 -6.52966E+00 -8.57441E+00 -1.08069E+01 -1.17674E+01 -1.15693E+01 -1.08564E+01 -9.95971E+00
  -9.20952E+00 -8.80049E+00 -8.59311E+00 -8.23276E+00 -7.73293E+00 -7.26050E+00 -6.84793E+00 -6.63242E+00 -6.70613E+00 -6.90970E+00
  -7.16318E+00 -7.24530E+00 -7.17766E+00 -7.02979E+00 -6.86836E+00 -6.70821E+00 -6.53062E+00 -6.33732E+00 -6.09995E+00 -5.85225E+00
  -5.62960E+00 -5.38927E+00 -5.10568E+00 -4.81286E+00 -4.57649E+00 -4.41194E+00 -4.26343E+00 -4.08661E+00 -3.87374E+00 -3.66971E+00
  -3.53421E+00 -3.41734E+00 -3.29879E+00 -3.19381E+00 -3.09252E+00 -2.98385E+00 -2.83893E+00 -2.63058E+00 -2.44834E+00 -2.39434E+00
  -2.44110E+00 -2.47227E+00 -2.35591E+00 -1.98765E+00 -1.32225E+00 -4.22279E-01  6.14212E-01  1.68708E+00  2.72340E+00  3.59165E+00
   4.04122E+00  3.85823E+00  3.32685E+00  2.90923E+00  2.74420E+00  2.83160E+00  3.19296E+00  3.82061E+00  4.69085E+00  5.72768E+00
   6.74678E+00  7.58713E+00  8.17472E+00  8.28189E+00  8.14159E+00  8.10873E+00  8.08601E+00  7.82467E+00  7.57397E+00  7.82261E+00
   8.55228E+00  9.47003E+00  1.03921E+01  1.11920E+01  1.17529E+01  1.19348E+01  1.16963E+01  1.13173E+01  1.11154E+01  1.08838E+01
   1.07011E+01  1.07940E+01  1.10934E+01  1.15092E+01  1.18596E+01  1.20840E+01  1.22331E+01  1.23687E+01  1.25572E+01  1.27926E+01
   1.32794E+01  1.41202E+01  1.49501E+01  1.55299E+01  1.59569E+01  1.61854E+01  1.59715E+01  1.53701E+01  1.46309E+01  1.40556E+01
   1.36604E+01  1.33551E+01  1.32475E+01  1.33877E+01  1.36581E+01  1.38094E+01  1.38896E+01  1.41267E+01  1.44548E+01  1.47539E+01
   1.51145E+01  1.55842E+01  1.60754E+01  1.75488E+01  2.05072E+01  2.35847E+01  2.61813E+01  2.86386E+01  3.10109E+01  3.28147E+01
   3.35904E+01  3.30353E+01  3.14072E+01  2.94872E+01  2.79832E+01  2.69490E+01  2.58878E+01  2.42424E+01  2.17846E+01  1.96742E+01
   1.89410E+01  1.87009E+01  1.86013E+01  1.85883E+01  1.86116E+01  1.86060E+01  1.85907E+01  1.85767E+01  1.85682E+01  1.85656E+01
   1.85666E+01  1.85533E+01  1.85273E+01  1.85074E+01  1.84967E+01  1.84904E+01  1.84904E+01  1.84959E+01  1.85071E+01  1.85227E+01
   1.85351E+01  1.85444E+01  1.85518E+01  1.85559E+01  1.85577E+01  1.85594E+01  1.85622E+01  1.85653E+01  1.85679E+01  1.85714E+01
   1.85756E+01  1.85791E+01  1.85828E+01  1.85864E+01  1.85898E+01  1.85927E+01  1.85952E+01  1.85974E+01  1.85997E+01  1.86017E+01
   1.86036E+01  1.86048E+01  1.86057E+01  1.86066E+01  1.86076E+01  1.86087E+01  1.86097E+01  1.86104E+01  1.86112E+01  1.86120E+01
   1.86128E+01  1.86135E+01  1.86141E+01  1.86146E+01  1.86151E+01  1.86155E+01  1.86159E+01  1.86160E+01  1.86160E+01  1.86158E+01
   1.86155E+01  1.86150E+01  1.86143E+01  1.86133E+01  1.86120E+01  1.86104E+01  1.86088E+01  1.86073E+01  1.86068E+01  1.86082E+01
   1.86138E+01  1.86267E+01  1.86519E+01  1.86959E+01  1.87672E+01  1.88752E+01  1.90293E+01  1.92368E+01  1.95008E+01  1.98171E+01
   2.01733E+01  2.05476E+01  2.09112E+01  2.12307E+01  2.14743E+01  2.16162E+01  2.16423E+01  2.15520E+01  2.13586E+01  2.10863E+01
   2.07657E+01  2.04285E+01  2.01026E+01  1.98088E+01  1.95598E+01  1.93600E+01  1.92077E+01  1.90969E+01  1.90200E+01  1.89688E+01
   1.89363E+01  1.89166E+01  1.89053E+01  1.88995E+01  1.88973E+01  1.88973E+01  1.88991E+01  1.89020E+01  1.89059E+01  1.89107E+01
   1.89163E+01  1.89228E+01  1.89303E+01  1.89385E+01  1.89477E+01  1.89579E+01  1.89693E+01  1.89816E+01  1.89951E+01  1.90097E+01
   1.90255E+01  1.90424E+01  1.90604E+01  1.90794E+01  1.90993E+01  1.91198E+01  1.91410E+01  1.91624E+01  1.91839E+01  1.92050E+01
   1.92256E+01  1.92452E+01  1.92637E+01  1.92806E+01  1.92958E+01  1.93090E+01  1.93199E+01  1.93285E+01  1.93349E+01  1.93389E+01
   1.93406E+01  1.93400E+01  1.93376E+01  1.93333E+01  1.93277E+01  1.93207E+01  1.93128E+01  1.93042E+01  1.92952E+01  1.92859E+01
   1.92768E+01  1.92678E+01  1.92591E+01  1.92507E+01  1.92429E+01  1.92355E+01  1.92287E+01  1.92223E+01  1.92163E+01  1.92107E+01
   1.92054E+01  1.92004E+01  1.91956E+01  1.91907E+01  1.91860E+01  1.91811E+01  1.91762E+01  1.91710E+01  1.91656E+01  1.91598E+01
   1.91536E+01  1.91470E+01  1.91399E+01  1.91323E+01  1.91241E+01  1.91152E+01  1.91057E+01  1.90955E+01  1.90846E+01  1.90728E+01
   1.90603E+01  1.90469E+01  1.90326E+01  1.90175E+01  1.90014E+01  1.89845E+01  1.89666E+01  1.89478E+01  1.89282E+01  1.89076E+01
   1.88862E+01  1.88637E+01  1.88405E+01  1.88163E+01  1.87913E+01  1.87653E+01  1.87385E+01  1.87107E+01  1.86820E+01  1.86525E+01
   1.86221E+01  1.85908E+01  1.85587E+01  1.85256E+01  1.84917E+01  1.84569E+01  1.84213E+01  1.83847E+01  1.83473E+01  1.83091E+01
   1.82700E+01  1.82300E+01  1.81893E+01  1.81476E+01  1.81051E+01  1.80617E+01  1.80175E+01  1.79725E+01  1.79266E+01  1.78799E+01
   1.78324E+01  1.77839E+01  1.77348E+01  1.76847E+01  1.76338E+01  1.75821E+01  1.75296E+01  1.74762E+01
 NY background values follow
    -1.430E+02   -1.415E+02   -1.399E+02   -1.384E+02   -1.369E+02   -1.353E+02   -1.338E+02   -1.322E+02   -1.307E+02   -1.292E+02
    -1.276E+02   -1.261E+02   -1.246E+02   -1.231E+02   -1.216E+02   -1.201E+02   -1.186E+02   -1.171E+02   -1.156E+02   -1.141E+02
    -1.126E+02   -1.112E+02   -1.097E+02   -1.082E+02   -1.068E+02   -1.054E+02   -1.039E+02   -1.025E+02   -1.011E+02   -9.969E+01
    -9.830E+01   -9.692E+01   -9.554E+01   -9.418E+01   -9.283E+01   -9.150E+01   -9.017E+01   -8.885E+01   -8.755E+01   -8.626E+01
    -8.499E+01   -8.372E+01   -8.248E+01   -8.124E+01   -8.002E+01   -7.881E+01   -7.762E+01   -7.645E+01   -7.529E+01   -7.414E+01
    -7.301E+01   -7.189E+01   -7.079E+01   -6.970E+01   -6.862E+01   -6.756E+01   -6.651E+01   -6.547E+01   -6.445E+01   -6.344E+01
    -6.245E+01   -6.146E+01   -6.049E+01   -5.953E+01   -5.858E+01   -5.765E+01   -5.673E+01   -5.581E+01   -5.491E+01   -5.403E+01
    -5.315E+01   -5.228E+01   -5.143E+01   -5.058E+01   -4.975E+01   -4.892E+01   -4.811E+01   -4.731E+01   -4.651E+01   -4.573E+01
    -4.495E+01   -4.419E+01   -4.343E+01   -4.269E+01   -4.195E+01   -4.122E+01   -4.050E+01   -3.979E+01   -3.908E+01   -3.839E+01
    -3.770E+01   -3.702E+01   -3.635E+01   -3.568E+01   -3.502E+01   -3.438E+01   -3.373E+01   -3.310E+01   -3.247E+01   -3.185E+01
    -3.124E+01   -3.063E+01   -3.004E+01   -2.945E+01   -2.886E+01   -2.829E+01   -2.772E+01   -2.715E+01   -2.660E+01   -2.605E+01
    -2.551E+01   -2.497E+01   -2.445E+01   -2.393E+01   -2.341E+01   -2.290E+01   -2.240E+01   -2.191E+01   -2.142E+01   -2.094E+01
    -2.047E+01   -2.000E+01   -1.954E+01   -1.908E+01   -1.863E+01   -1.819E+01   -1.775E+01   -1.732E+01   -1.690E+01   -1.648E+01
    -1.607E+01   -1.566E+01   -1.526E+01   -1.487E+01   -1.448E+01   -1.410E+01   -1.372E+01   -1.335E+01   -1.299E+01   -1.263E+01
    -1.227E+01   -1.192E+01   -1.158E+01   -1.124E+01   -1.090E+01   -1.057E+01   -1.024E+01   -9.921E+00   -9.603E+00   -9.288E+00
    -8.976E+00   -8.668E+00   -8.363E+00   -8.062E+00   -7.763E+00   -7.467E+00   -7.173E+00   -6.882E+00   -6.593E+00   -6.306E+00
    -6.021E+00   -5.738E+00   -5.457E+00   -5.177E+00   -4.898E+00   -4.620E+00   -4.343E+00   -4.066E+00   -3.791E+00   -3.516E+00
    -3.241E+00   -2.966E+00   -2.691E+00   -2.415E+00   -2.140E+00   -1.864E+00   -1.587E+00   -1.309E+00   -1.030E+00   -7.495E-01
    -4.678E-01   -1.846E-01    1.003E-01    3.867E-01    6.744E-01    9.633E-01    1.253E+00    1.544E+00    1.836E+00    2.128E+00
     2.421E+00    2.714E+00    3.007E+00    3.300E+00    3.593E+00    3.886E+00    4.178E+00    4.469E+00    4.760E+00    5.050E+00
     5.339E+00    5.626E+00    5.913E+00    6.197E+00    6.480E+00    6.761E+00    7.041E+00    7.318E+00    7.593E+00    7.865E+00
     8.135E+00    8.402E+00    8.666E+00    8.927E+00    9.185E+00    9.440E+00    9.691E+00    9.938E+00    1.018E+01    1.042E+01
     1.066E+01    1.089E+01    1.112E+01    1.134E+01    1.156E+01    1.177E+01    1.198E+01    1.218E+01    1.238E+01    1.257E+01
     1.276E+01    1.294E+01    1.312E+01    1.329E+01    1.346E+01    1.362E+01    1.378E+01    1.394E+01    1.409E+01    1.424E+01
     1.438E+01    1.452E+01    1.465E+01    1.478E+01    1.491E+01    1.503E+01    1.515E+01    1.527E+01    1.538E+01    1.549E+01
     1.560E+01    1.570E+01    1.580E+01    1.589E+01    1.598E+01    1.607E+01    1.616E+01    1.624E+01    1.632E+01    1.640E+01
     1.648E+01    1.655E+01    1.662E+01    1.669E+01    1.675E+01    1.682E+01    1.688E+01    1.693E+01    1.699E+01    1.705E+01
     1.710E+01    1.715E+01    1.720E+01    1.725E+01    1.729E+01    1.734E+01    1.738E+01    1.742E+01    1.746E+01    1.750E+01
     1.753E+01    1.757E+01    1.760E+01    1.763E+01    1.767E+01    1.770E+01    1.772E+01    1.775E+01    1.778E+01    1.780E+01
     1.783E+01    1.785E+01    1.787E+01    1.789E+01    1.791E+01    1.793E+01    1.795E+01    1.796E+01    1.798E+01    1.800E+01
     1.801E+01    1.802E+01    1.804E+01    1.805E+01    1.806E+01    1.807E+01    1.808E+01    1.809E+01    1.810E+01    1.811E+01
     1.812E+01    1.813E+01    1.814E+01    1.815E+01    1.816E+01    1.816E+01    1.817E+01    1.818E+01    1.819E+01    1.819E+01
     1.820E+01    1.821E+01    1.821E+01    1.822E+01    1.823E+01    1.823E+01    1.824E+01    1.825E+01    1.825E+01    1.826E+01
     1.827E+01    1.827E+01    1.828E+01    1.828E+01    1.829E+01    1.829E+01    1.830E+01    1.831E+01    1.831E+01    1.832E+01
     1.832E+01    1.833E+01    1.833E+01    1.834E+01    1.834E+01    1.835E+01    1.835E+01    1.836E+01    1.836E+01    1.837E+01
     1.837E+01    1.838E+01    1.838E+01    1.839E+01    1.839E+01    1.840E+01    1.840E+01    1.841E+01    1.841E+01    1.842E+01
     1.842E+01    1.843E+01    1.844E+01    1.844E+01    1.845E+01    1.845E+01    1.846E+01    1.846E+01    1.847E+01    1.847E+01
     1.848E+01    1.848E+01    1.849E+01    1.850E+01    1.850E+01    1.851E+01    1.851E+01    1.852E+01    1.853E+01    1.853E+01
     1.854E+01    1.854E+01    1.855E+01    1.856E+01    1.856E+01    1.857E+01    1.857E+01    1.858E+01    1.859E+01    1.859E+01
     1.860E+01    1.861E+01    1.861E+01    1.862E+01    1.863E+01    1.864E+01    1.864E+01    1.865E+01    1.866E+01    1.866E+01
     1.867E+01    1.868E+01    1.869E+01    1.869E+01    1.870E+01    1.871E+01    1.872E+01    1.873E+01    1.873E+01    1.874E+01
     1.875E+01    1.876E+01    1.877E+01    1.877E+01    1.878E+01    1.879E+01    1.880E+01    1.881E+01    1.881E+01    1.882E+01
     1.883E+01    1.884E+01    1.884E+01    1.885E+01    1.885E+01    1.886E+01    1.887E+01    1.887E+01    1.888E+01    1.888E+01
     1.888E+01    1.889E+01    1.889E+01    1.889E+01    1.889E+01    1.890E+01    1.890E+01    1.890E+01    1.890E+01    1.889E+01
     1.889E+01    1.889E+01    1.889E+01    1.888E+01    1.888E+01    1.887E+01    1.887E+01    1.886E+01    1.885E+01    1.884E+01
     1.883E+01    1.882E+01    1.881E+01    1.880E+01    1.878E+01    1.877E+01    1.875E+01    1.874E+01    1.872E+01    1.870E+01
     1.868E+01    1.866E+01    1.864E+01    1.862E+01    1.859E+01    1.857E+01    1.854E+01    1.852E+01    1.849E+01    1.846E+01
     1.843E+01    1.840E+01    1.837E+01    1.834E+01    1.831E+01    1.828E+01    1.824E+01    1.821E+01    1.817E+01    1.814E+01
     1.810E+01    1.806E+01    1.802E+01    1.798E+01    1.794E+01    1.790E+01    1.786E+01    1.781E+01    1.777E+01    1.772E+01
     1.768E+01    1.763E+01    1.758E+01    1.754E+01    1.749E+01    1.744E+01    1.739E+01    1.734E+01
 Asp      Conc. = 1.72E+01
