 LCModel (Version 6.3-1L) Copyright: S.W. Provencher.          Ref.: Magn. Reson. Med. 30:672-679 (1993).                
 Slice#3 Row#6 Col#2  PD_24_press_2_raw_act
 36 lines in following concentration table = NCONC+1
    Conc.  %SD /Cr+PCr  Metabolite                                         
  469.679  63%   0.149 Ala                                                 
    0.000 999%   0.000 Asp                                                 
    0.000 999%   0.000 Cr                                                  
 3.16E+03   4%   1.000 PCr                                                 
    0.000 999%   0.000 GABA                                                
  724.281  50%   0.229 Glc                                                 
 1.84E+03  39%   0.581 Gln                                                 
 2.83E+03  28%   0.894 Glu                                                 
 1.21E+03  34%   0.383 GPC                                                 
  137.439 307% 4.3E-02 PCh                                                 
  749.143  25%   0.237 GSH                                                 
 2.46E+03  28%   0.777 Ins                                                 
    0.000 999%   0.000 Lac                                                 
 4.46E+03   3%   1.412 NAA                                                 
    0.000 999%   0.000 NAAG                                                
  502.234  13%   0.159 Scyllo                                              
 1.05E+03  49%   0.334 Tau                                                 
  498.070  51%   0.158 -CrCH2                                              
 1.35E+03   4%   0.426 GPC+PCh                                             
 4.46E+03   3%   1.412 NAA+NAAG                                            
 3.16E+03   4%   1.000 Cr+PCr                                              
 4.66E+03  28%   1.475 Glu+Gln                                             
 2.18E+03  30%   0.690 Lip13a                                              
    0.000 999%   0.000 Lip13b                                              
    0.000 999%   0.000 Lip09                                               
 1.27E+03  23%   0.402 MM09                                                
  595.454  50%   0.188 Lip20                                               
 3.97E+03  15%   1.258 MM20                                                
  511.342  45%   0.162 MM12                                                
 1.84E+03  25%   0.583 MM14                                                
    0.000 999%   0.000 MM17                                                
 2.18E+03  30%   0.690 Lip13a+Lip13b                                       
 4.54E+03  15%   1.435 MM14+Lip13a+Lip13b+MM12                             
 1.27E+03  23%   0.402 MM09+Lip09                                          
 4.57E+03  14%   1.446 MM20+Lip20                                          
   6 lines in following misc. output table
  FWHM = 0.076 ppm    S/N =  10                                            
  Data shift = 0.031 ppm                                                   
  Ph: -60 deg     -22.9 deg/ppm                                            
  alphaB,S = 1.4E+00,   1.0E+02                                            
   14 spline knots.   Ns = 9(1)                                            
  (14) 4 infls.   (11) 1 extrs.                                            
  498 points on ppm-axis = NY
      4.000000     3.992357     3.984714     3.977070     3.969427     3.961784     3.954141     3.946497     3.938854     3.931211
      3.923568     3.915925     3.908281     3.900638     3.892995     3.885352     3.877708     3.870065     3.862422     3.854779
      3.847136     3.839492     3.831849     3.824206     3.816563     3.808919     3.801276     3.793633     3.785990     3.778347
      3.770703     3.763060     3.755417     3.747774     3.740130     3.732487     3.724844     3.717201     3.709558     3.701914
      3.694271     3.686628     3.678985     3.671341     3.663698     3.656055     3.648412     3.640769     3.633125     3.625482
      3.617839     3.610196     3.602552     3.594909     3.587266     3.579623     3.571980     3.564336     3.556693     3.549050
      3.541407     3.533763     3.526120     3.518477     3.510834     3.503191     3.495547     3.487904     3.480261     3.472618
      3.464974     3.457331     3.449688     3.442045     3.434402     3.426758     3.419115     3.411472     3.403829     3.396185
      3.388542     3.380899     3.373256     3.365613     3.357969     3.350326     3.342683     3.335040     3.327396     3.319753
      3.312110     3.304467     3.296824     3.289180     3.281537     3.273894     3.266251     3.258607     3.250964     3.243321
      3.235678     3.228034     3.220391     3.212748     3.205105     3.197462     3.189818     3.182175     3.174532     3.166889
      3.159245     3.151602     3.143959     3.136316     3.128673     3.121029     3.113386     3.105743     3.098100     3.090456
      3.082813     3.075170     3.067527     3.059884     3.052240     3.044597     3.036954     3.029311     3.021667     3.014024
      3.006381     2.998738     2.991095     2.983451     2.975808     2.968165     2.960522     2.952878     2.945235     2.937592
      2.929949     2.922306     2.914662     2.907019     2.899376     2.891733     2.884089     2.876446     2.868803     2.861160
      2.853517     2.845873     2.838230     2.830587     2.822944     2.815300     2.807657     2.800014     2.792371     2.784728
      2.777084     2.769441     2.761798     2.754155     2.746511     2.738868     2.731225     2.723582     2.715939     2.708295
      2.700652     2.693009     2.685366     2.677722     2.670079     2.662436     2.654793     2.647150     2.639506     2.631863
      2.624220     2.616577     2.608933     2.601290     2.593647     2.586004     2.578361     2.570717     2.563074     2.555431
      2.547788     2.540144     2.532501     2.524858     2.517215     2.509572     2.501928     2.494285     2.486642     2.478999
      2.471355     2.463712     2.456069     2.448426     2.440783     2.433139     2.425496     2.417853     2.410210     2.402566
      2.394923     2.387280     2.379637     2.371994     2.364350     2.356707     2.349064     2.341421     2.333777     2.326134
      2.318491     2.310848     2.303205     2.295561     2.287918     2.280275     2.272632     2.264988     2.257345     2.249702
      2.242059     2.234416     2.226772     2.219129     2.211486     2.203843     2.196199     2.188556     2.180913     2.173270
      2.165627     2.157983     2.150340     2.142697     2.135054     2.127410     2.119767     2.112124     2.104481     2.096838
      2.089194     2.081551     2.073908     2.066265     2.058621     2.050978     2.043335     2.035692     2.028049     2.020405
      2.012762     2.005119     1.997476     1.989833     1.982190     1.974546     1.966903     1.959260     1.951617     1.943974
      1.936331     1.928688     1.921045     1.913402     1.905759     1.898115     1.890472     1.882829     1.875186     1.867543
      1.859900     1.852257     1.844614     1.836971     1.829327     1.821684     1.814041     1.806398     1.798755     1.791112
      1.783469     1.775826     1.768183     1.760540     1.752896     1.745253     1.737610     1.729967     1.722324     1.714681
      1.707038     1.699395     1.691752     1.684108     1.676465     1.668822     1.661179     1.653536     1.645893     1.638250
      1.630607     1.622964     1.615321     1.607677     1.600034     1.592391     1.584748     1.577105     1.569462     1.561819
      1.554176     1.546533     1.538890     1.531246     1.523603     1.515960     1.508317     1.500674     1.493031     1.485388
      1.477745     1.470102     1.462458     1.454815     1.447172     1.439529     1.431886     1.424243     1.416600     1.408957
      1.401314     1.393671     1.386027     1.378384     1.370741     1.363098     1.355455     1.347812     1.340169     1.332526
      1.324883     1.317240     1.309596     1.301953     1.294310     1.286667     1.279024     1.271381     1.263738     1.256095
      1.248452     1.240808     1.233165     1.225522     1.217879     1.210236     1.202593     1.194950     1.187307     1.179664
      1.172021     1.164377     1.156734     1.149091     1.141448     1.133805     1.126162     1.118519     1.110876     1.103233
      1.095590     1.087946     1.080303     1.072660     1.065017     1.057374     1.049731     1.042088     1.034445     1.026802
      1.019158     1.011515     1.003872     0.996229     0.988586     0.980943     0.973300     0.965657     0.958014     0.950371
      0.942727     0.935084     0.927441     0.919798     0.912155     0.904512     0.896869     0.889226     0.881583     0.873940
      0.866296     0.858653     0.851010     0.843367     0.835724     0.828081     0.820438     0.812795     0.805152     0.797508
      0.789865     0.782222     0.774579     0.766936     0.759293     0.751650     0.744007     0.736364     0.728721     0.721077
      0.713434     0.705791     0.698148     0.690505     0.682862     0.675219     0.667576     0.659933     0.652290     0.644646
      0.637003     0.629360     0.621717     0.614074     0.606431     0.598788     0.591145     0.583502     0.575858     0.568215
      0.560572     0.552929     0.545286     0.537643     0.530000     0.522357     0.514714     0.507071     0.499427     0.491784
      0.484141     0.476498     0.468855     0.461212     0.453569     0.445925     0.438282     0.430639     0.422996     0.415353
      0.407710     0.400067     0.392424     0.384780     0.377137     0.369494     0.361851     0.354208     0.346565     0.338922
      0.331278     0.323635     0.315992     0.308349     0.300706     0.293063     0.285420     0.277777     0.270133     0.262490
      0.254847     0.247204     0.239561     0.231918     0.224275     0.216631     0.208988     0.201345
 NY phased data points follow
  -1.09226E+02 -1.11898E+02 -9.86132E+01 -8.87726E+01 -8.33375E+01 -7.64439E+01 -6.30596E+01 -5.62293E+01 -5.46677E+01 -5.44678E+01
  -4.89382E+01 -5.17282E+01 -7.00465E+01 -7.54005E+01 -8.14120E+01 -9.31033E+01 -9.32829E+01 -9.54920E+01 -1.00064E+02 -9.64015E+01
  -9.80840E+01 -1.08212E+02 -9.53803E+01 -9.49119E+01 -8.15380E+01 -8.73733E+01 -7.41164E+01 -8.39520E+01 -8.52613E+01 -7.67811E+01
  -7.60075E+01 -7.67865E+01 -8.63628E+01 -7.02915E+01 -7.55583E+01 -8.20379E+01 -8.06886E+01 -7.76474E+01 -7.73044E+01 -8.52345E+01
  -7.34374E+01 -7.83975E+01 -7.97932E+01 -7.51079E+01 -6.81122E+01 -7.10145E+01 -6.07417E+01 -6.57093E+01 -7.35709E+01 -7.09260E+01
  -7.36458E+01 -7.24938E+01 -7.19767E+01 -7.20879E+01 -6.34891E+01 -7.36187E+01 -7.29326E+01 -6.78739E+01 -7.07204E+01 -7.17735E+01
  -8.15055E+01 -7.61839E+01 -7.68835E+01 -8.34645E+01 -8.25520E+01 -8.45033E+01 -8.04581E+01 -8.07842E+01 -7.14026E+01 -7.36887E+01
  -6.78698E+01 -6.54768E+01 -7.02799E+01 -7.00788E+01 -6.62444E+01 -6.44249E+01 -7.19594E+01 -5.97063E+01 -5.87164E+01 -5.23756E+01
  -5.74431E+01 -4.89771E+01 -6.12510E+01 -6.00610E+01 -6.01418E+01 -4.44844E+01 -4.51969E+01 -4.90551E+01 -5.49019E+01 -4.72069E+01
  -4.83437E+01 -4.72104E+01 -4.23120E+01 -4.46709E+01 -4.43264E+01 -4.08756E+01 -2.71106E+01 -1.75400E+01 -3.39777E+00  4.09901E+00
   2.99661E+01  2.22095E+01  2.80413E+01  2.49573E+01  2.59197E+01  1.61728E+01 -1.40794E+00 -3.34558E+00 -1.98039E+01 -3.20912E+01
  -4.24968E+01 -4.58754E+01 -5.00053E+01 -5.03066E+01 -4.12512E+01 -5.82315E+01 -5.45145E+01 -5.52566E+01 -4.05818E+01 -3.49262E+01
  -3.60350E+01 -2.57544E+01 -5.03190E+00  5.96106E+00  1.11557E+01  1.11209E+01  2.35947E+01  1.51220E+01  2.34428E+01  1.20376E+01
   5.36275E+00  2.45991E+00 -2.19764E+01 -1.92852E+01 -3.83008E+01 -4.68567E+01 -4.01323E+01 -4.42052E+01 -4.89334E+01 -4.50370E+01
  -4.92651E+01 -4.86893E+01 -4.81594E+01 -5.58017E+01 -4.73878E+01 -5.10676E+01 -4.78610E+01 -5.09962E+01 -4.33204E+01 -4.60422E+01
  -4.53425E+01 -5.10357E+01 -4.75766E+01 -5.01782E+01 -4.30141E+01 -4.93318E+01 -5.74888E+01 -5.25055E+01 -3.75230E+01 -4.05811E+01
  -4.92136E+01 -4.03713E+01 -4.17818E+01 -4.04119E+01 -4.53341E+01 -4.36187E+01 -3.70534E+01 -4.63238E+01 -4.55132E+01 -4.46125E+01
  -4.67292E+01 -5.53954E+01 -5.42721E+01 -4.53676E+01 -6.12759E+01 -5.88533E+01 -5.25650E+01 -5.48698E+01 -5.93101E+01 -5.40790E+01
  -4.62365E+01 -5.38299E+01 -4.52540E+01 -5.09571E+01 -5.14324E+01 -4.59490E+01 -4.79783E+01 -3.61611E+01 -3.79489E+01 -3.22185E+01
  -2.99903E+01 -2.81642E+01 -1.73689E+01 -2.36152E+01 -2.52385E+01 -2.50737E+01 -2.77967E+01 -2.70856E+01 -2.95630E+01 -3.10101E+01
  -2.51337E+01 -3.83116E+01 -3.30490E+01 -2.55157E+01 -3.62568E+01 -3.63144E+01 -3.35732E+01 -2.68311E+01 -2.59407E+01 -3.63476E+01
  -3.40023E+01 -2.75255E+01 -2.49932E+01 -1.97336E+01 -1.12027E+01 -1.41443E+01 -1.15555E+01 -1.22868E+01 -1.68326E+01 -1.93212E+01
  -2.52871E+01 -1.95903E+01 -2.38214E+01 -2.90425E+01 -1.79651E+01 -1.78398E+01 -1.39229E+01 -1.59231E+01 -8.91252E+00 -9.38301E-01
  -6.37222E+00 -6.33510E+00 -7.79598E-01 -7.64042E+00 -1.86213E+00 -1.45255E+01 -7.62500E+00 -1.33479E+01 -4.48381E+00 -1.13965E+01
  -2.65952E+00 -1.53945E+01 -3.14820E+00 -1.38456E+01 -1.65237E+00 -6.93131E+00 -5.71818E+00 -8.17990E+00  1.27856E+00 -7.47149E+00
  -4.33695E+00  5.90362E+00  1.37793E+01  2.65402E+01  3.15948E+01  4.86137E+01  7.26459E+01  8.74229E+01  9.45731E+01  1.00279E+02
   1.00175E+02  9.90897E+01  9.33549E+01  8.11973E+01  7.67295E+01  6.13196E+01  3.95967E+01  3.21874E+01  2.06926E+01  8.79973E+00
   8.75238E+00  8.30343E-01  3.17058E+00  3.17535E+00  4.62067E+00 -4.93184E+00 -3.30957E+00 -5.40806E+00 -4.72612E+00 -8.69328E+00
  -6.39166E+00 -8.66989E+00 -1.10777E+01 -1.38220E+01 -4.93656E+00 -7.45738E+00 -1.88398E-01 -1.00656E+01 -1.06896E+01 -1.86696E+01
  -9.57842E+00 -5.60854E+00 -9.42721E+00 -1.07869E+01 -1.47050E+01 -4.26493E+00 -7.71512E+00 -1.21851E+01 -1.24224E+01 -1.42646E+01
  -1.54113E+01 -1.36900E+01 -1.85982E+01 -1.61628E+01 -1.09509E+01 -1.52293E+01 -1.41216E+01 -1.50981E+01 -9.46410E+00 -8.42623E+00
  -3.99504E+00 -5.11107E+00  2.60794E+00 -2.59475E+00  3.57694E+00  3.93781E+00 -3.12161E+00  1.73627E+00  8.33120E+00  5.79882E+00
   1.22607E+01  1.53492E+01  7.49160E+00  1.15391E+01 -7.49450E-01  8.22348E+00  1.27952E+01  9.77172E+00  1.39685E+01  4.11984E+00
   5.85396E+00  8.36853E+00  3.92932E+00  9.32852E+00  3.43151E+00  4.02604E+00  1.30393E+01  9.58049E+00  1.00161E+01  1.02563E+01
   7.54041E+00  1.06410E+01  7.83670E+00  7.25156E+00  1.14853E+01  1.26784E+01  1.16299E+01  1.51906E+01  1.15802E+01  2.01532E+01
   1.32573E+01  4.73439E+00  1.07440E+01  1.80721E+01  9.33899E+00  6.30306E+00  1.62180E+01  1.01550E+01  1.34615E+01  7.23537E+00
   1.35465E+01  9.09348E+00  9.24122E+00  1.24134E+01  2.26195E+00  2.73403E+00  1.38478E+01  1.61949E+01  9.83550E+00  1.51066E+01
   1.66884E+01  1.15841E+01  1.74694E+01  1.15319E+01  1.43492E+01  1.79726E+01  1.25651E+01  1.41769E+01  1.37955E+01  1.33411E+01
   1.01985E+01  1.27554E+01  1.01588E+01  8.05907E+00  7.05585E+00  8.64335E+00  1.27631E+01  1.67527E+01  9.28754E+00  4.15958E+00
   1.09560E+01  1.24914E+01  6.15376E-01  3.88380E+00  3.65386E+00  2.10614E+01  1.04580E+01  9.63438E+00  1.19498E+01  8.55220E+00
   1.67040E+01  1.31881E+01  1.18902E+01  8.71204E+00  1.08704E+01  8.62802E+00  1.64257E+01  1.42857E+01  1.16660E+01  1.08354E+01
   1.06926E+01  8.89603E+00  1.87189E+01  7.20177E+00  4.79840E+00  1.59567E+01  1.10535E+01  1.47103E+01  1.50796E+01  8.51366E+00
   8.07508E+00  7.24420E+00  7.03273E+00  1.20677E+01  1.27697E+01  1.01983E+01  1.32333E+01  6.38234E+00  1.09453E+01  1.10755E+01
   1.89879E+01  1.63282E+01  1.27134E+01  1.40715E+01  3.50077E+00  1.98558E+01  1.02979E+01  8.84609E+00  1.38610E+01  9.49295E+00
   1.83710E+01  6.07187E+00  1.34344E+01  7.17023E+00  1.72529E+01  9.83579E+00  1.32741E+01  1.78475E+01  1.07334E+01  1.26868E+01
   1.12493E+01  7.74141E+00  8.82853E+00  3.72924E+00  6.52154E+00  7.77204E+00  8.18383E+00  1.82334E+01  1.72377E+01  8.86831E+00
   1.12500E+01  1.05631E+01  1.67636E+01  1.93464E+01  5.98759E+00  8.55524E+00  9.99603E+00  4.11132E+00  1.03167E+01  1.37224E+01
   1.18391E+01  1.55750E+01  1.69193E+01  9.72559E+00  9.13180E+00  9.87336E+00  7.78455E+00  1.10948E+01  7.33663E+00  9.71531E+00
   1.16305E+01  1.15486E+01  8.07232E+00  9.04754E+00  5.98825E+00  1.42234E+01  1.10688E+01  1.64479E+01  1.67779E+01  5.03527E+00
   1.56566E+01  4.59853E+00  1.08152E+01  3.95373E+00  1.76516E+01  2.05671E+01  1.21126E+01  3.82497E+00
 NY points of the fit to the data follow
  -1.00267E+02 -9.64442E+01 -9.21195E+01 -8.59783E+01 -7.82285E+01 -7.07534E+01 -6.48067E+01 -6.07274E+01 -5.85396E+01 -5.79560E+01
  -5.87653E+01 -6.12550E+01 -6.53865E+01 -7.07743E+01 -7.68268E+01 -8.24708E+01 -8.68684E+01 -8.97728E+01 -9.18034E+01 -9.37811E+01
  -9.44368E+01 -9.39726E+01 -9.31607E+01 -9.21890E+01 -9.07127E+01 -8.84302E+01 -8.55992E+01 -8.27369E+01 -8.00919E+01 -7.78409E+01
  -7.62097E+01 -7.52345E+01 -7.49024E+01 -7.51309E+01 -7.59865E+01 -7.75576E+01 -7.93667E+01 -8.08720E+01 -8.16007E+01 -8.16940E+01
  -8.13156E+01 -8.00422E+01 -7.79476E+01 -7.55455E+01 -7.34225E+01 -7.18819E+01 -7.09486E+01 -7.06524E+01 -7.09506E+01 -7.16764E+01
  -7.26552E+01 -7.38650E+01 -7.52204E+01 -7.63905E+01 -7.70546E+01 -7.71974E+01 -7.70013E+01 -7.66488E+01 -7.61808E+01 -7.57517E+01
  -7.53317E+01 -7.49689E+01 -7.46544E+01 -7.43292E+01 -7.40609E+01 -7.38557E+01 -7.34778E+01 -7.26719E+01 -7.16546E+01 -7.06137E+01
  -6.94206E+01 -6.81946E+01 -6.71292E+01 -6.62980E+01 -6.57801E+01 -6.55537E+01 -6.54738E+01 -6.51801E+01 -6.40109E+01 -6.26650E+01
  -6.13246E+01 -5.93658E+01 -5.66542E+01 -5.37640E+01 -5.13410E+01 -4.97744E+01 -4.90420E+01 -4.87931E+01 -4.90767E+01 -5.00804E+01
  -5.15980E+01 -5.33899E+01 -5.46189E+01 -5.24526E+01 -4.68830E+01 -3.98913E+01 -3.04417E+01 -1.76395E+01 -2.90593E+00  1.05103E+01
   2.04193E+01  2.62535E+01  2.84058E+01  2.75629E+01  2.35616E+01  1.60409E+01  5.45743E+00 -7.23175E+00 -2.04221E+01 -3.21851E+01
  -4.11198E+01 -4.73586E+01 -5.25581E+01 -5.60083E+01 -5.70393E+01 -5.70241E+01 -5.63214E+01 -5.36167E+01 -4.75515E+01 -4.08419E+01
  -3.32138E+01 -2.25358E+01 -9.59714E+00  2.55505E+00  1.19031E+01  1.79395E+01  2.07847E+01  2.10631E+01  1.90228E+01  1.39812E+01
   6.01005E+00 -4.22803E+00 -1.56420E+01 -2.62215E+01 -3.45956E+01 -4.02697E+01 -4.45071E+01 -4.81092E+01 -4.91643E+01 -4.91226E+01
  -4.87892E+01 -4.82923E+01 -4.77295E+01 -4.72182E+01 -4.68479E+01 -4.65921E+01 -4.64819E+01 -4.65088E+01 -4.65704E+01 -4.66311E+01
  -4.66584E+01 -4.66240E+01 -4.66545E+01 -4.66753E+01 -4.66365E+01 -4.66038E+01 -4.65857E+01 -4.66074E+01 -4.66284E+01 -4.65045E+01
  -4.62254E+01 -4.59535E+01 -4.58186E+01 -4.57988E+01 -4.58202E+01 -4.58436E+01 -4.58904E+01 -4.60810E+01 -4.64521E+01 -4.68636E+01
  -4.73396E+01 -4.78267E+01 -4.82744E+01 -4.85269E+01 -4.84823E+01 -4.83258E+01 -4.81475E+01 -4.79515E+01 -4.77365E+01 -4.73645E+01
  -4.67741E+01 -4.60938E+01 -4.53649E+01 -4.44687E+01 -4.32927E+01 -4.18423E+01 -4.01169E+01 -3.83480E+01 -3.67922E+01 -3.55380E+01
  -3.45065E+01 -3.35722E+01 -3.27828E+01 -3.22469E+01 -3.18596E+01 -3.13030E+01 -3.04281E+01 -2.92553E+01 -2.79031E+01 -2.64897E+01
  -2.52020E+01 -2.44597E+01 -2.41463E+01 -2.43784E+01 -2.55043E+01 -2.72137E+01 -2.88364E+01 -2.99188E+01 -3.04447E+01 -3.04998E+01
  -2.97143E+01 -2.80012E+01 -2.57250E+01 -2.35905E+01 -2.20568E+01 -2.10017E+01 -2.05414E+01 -2.09839E+01 -2.21691E+01 -2.34981E+01
  -2.44835E+01 -2.52480E+01 -2.55035E+01 -2.50180E+01 -2.37772E+01 -2.19343E+01 -1.99803E+01 -1.79513E+01 -1.57704E+01 -1.38618E+01
  -1.25699E+01 -1.17277E+01 -1.08920E+01 -1.00842E+01 -9.56779E+00 -9.16799E+00 -8.73862E+00 -8.47205E+00 -8.42987E+00 -8.45937E+00
  -8.44865E+00 -8.31755E+00 -8.10761E+00 -7.92337E+00 -7.59791E+00 -6.90165E+00 -5.82781E+00 -4.52408E+00 -2.88608E+00 -9.29214E-01
   1.63077E+00  7.01452E+00  1.60912E+01  2.54918E+01  3.63256E+01  5.11348E+01  6.81844E+01  8.34083E+01  9.43960E+01  1.00635E+02
   1.02553E+02  1.01041E+02  9.61541E+01  8.71832E+01  7.45757E+01  5.93169E+01  4.30719E+01  2.82979E+01  1.67282E+01  8.62151E+00
   2.01984E+00 -3.20355E+00 -5.14322E+00 -5.85632E+00 -6.28146E+00 -6.56623E+00 -6.76435E+00 -6.96893E+00 -7.17057E+00 -7.37836E+00
  -7.59353E+00 -7.79923E+00 -7.97229E+00 -8.11910E+00 -8.23917E+00 -8.31510E+00 -8.34503E+00 -8.34220E+00 -8.31666E+00 -8.27419E+00
  -8.21309E+00 -8.13233E+00 -8.04067E+00 -7.93537E+00 -7.81347E+00 -7.67520E+00 -7.52187E+00 -7.35421E+00 -7.17116E+00 -6.97276E+00
  -6.76000E+00 -6.53187E+00 -6.28736E+00 -6.02605E+00 -5.74606E+00 -5.44536E+00 -5.12178E+00 -4.77337E+00 -4.39770E+00 -3.99197E+00
  -3.55257E+00 -3.07583E+00 -2.55777E+00 -1.99461E+00 -1.38074E+00 -7.07819E-01  3.88032E-02  8.93308E-01  1.91885E+00  2.98755E+00
   3.95091E+00  4.92442E+00  5.88387E+00  6.59855E+00  6.90499E+00  6.81186E+00  6.53098E+00  6.29970E+00  6.03494E+00  5.74600E+00
   5.64517E+00  5.88435E+00  6.41846E+00  7.18224E+00  8.12475E+00  9.15937E+00  1.01932E+01  1.11008E+01  1.18722E+01  1.24696E+01
   1.27295E+01  1.26748E+01  1.24277E+01  1.21252E+01  1.18815E+01  1.16520E+01  1.14096E+01  1.13027E+01  1.12936E+01  1.13403E+01
   1.14229E+01  1.15283E+01  1.16458E+01  1.17662E+01  1.18810E+01  1.19827E+01  1.20647E+01  1.21211E+01  1.21473E+01  1.21400E+01
   1.20972E+01  1.20183E+01  1.19038E+01  1.17553E+01  1.15756E+01  1.13685E+01  1.11385E+01  1.08906E+01  1.06302E+01  1.03629E+01
   1.00942E+01  9.82979E+00  9.57512E+00  9.33506E+00  9.11421E+00  8.91656E+00  8.74593E+00  8.60549E+00  8.49809E+00  8.42581E+00
   8.39053E+00  8.39351E+00  8.43594E+00  8.51837E+00  8.64108E+00  8.80359E+00  9.00519E+00  9.24445E+00  9.51960E+00  9.82789E+00
   1.01659E+01  1.05293E+01  1.09129E+01  1.13109E+01  1.17167E+01  1.21227E+01  1.25212E+01  1.29037E+01  1.32624E+01  1.35890E+01
   1.38763E+01  1.41178E+01  1.43079E+01  1.44425E+01  1.45193E+01  1.45375E+01  1.44981E+01  1.44034E+01  1.42577E+01  1.40660E+01
   1.38350E+01  1.35718E+01  1.32838E+01  1.29787E+01  1.26638E+01  1.23462E+01  1.20322E+01  1.17273E+01  1.14362E+01  1.11623E+01
   1.09086E+01  1.06766E+01  1.04677E+01  1.02821E+01  1.01195E+01  9.97915E+00  9.86001E+00  9.76078E+00  9.68011E+00  9.61630E+00
   9.56786E+00  9.53314E+00  9.51086E+00  9.49959E+00  9.49819E+00  9.50536E+00  9.52014E+00  9.54153E+00  9.56889E+00  9.60143E+00
   9.63859E+00  9.67964E+00  9.72422E+00  9.77182E+00  9.82224E+00  9.87504E+00  9.93000E+00  9.98671E+00  1.00451E+01  1.01049E+01
   1.01660E+01  1.02283E+01  1.02916E+01  1.03556E+01  1.04205E+01  1.04861E+01  1.05524E+01  1.06191E+01  1.06864E+01  1.07541E+01
   1.08222E+01  1.08906E+01  1.09595E+01  1.10286E+01  1.10979E+01  1.11674E+01  1.12372E+01  1.13072E+01  1.13775E+01  1.14478E+01
   1.15184E+01  1.15890E+01  1.16599E+01  1.17309E+01  1.18021E+01  1.18733E+01  1.19447E+01  1.20163E+01  1.20880E+01  1.21599E+01
   1.22320E+01  1.23041E+01  1.23764E+01  1.24489E+01  1.25217E+01  1.25946E+01  1.26678E+01  1.27411E+01  1.28147E+01  1.28886E+01
   1.29628E+01  1.30372E+01  1.31121E+01  1.31872E+01  1.32628E+01  1.33388E+01  1.34154E+01  1.34925E+01
 NY background values follow
    -1.155E+02   -1.150E+02   -1.145E+02   -1.140E+02   -1.136E+02   -1.131E+02   -1.126E+02   -1.121E+02   -1.116E+02   -1.111E+02
    -1.107E+02   -1.102E+02   -1.097E+02   -1.092E+02   -1.087E+02   -1.082E+02   -1.078E+02   -1.073E+02   -1.068E+02   -1.063E+02
    -1.058E+02   -1.053E+02   -1.049E+02   -1.044E+02   -1.039E+02   -1.034E+02   -1.029E+02   -1.025E+02   -1.020E+02   -1.015E+02
    -1.010E+02   -1.005E+02   -1.001E+02   -9.959E+01   -9.911E+01   -9.863E+01   -9.816E+01   -9.768E+01   -9.720E+01   -9.673E+01
    -9.626E+01   -9.578E+01   -9.531E+01   -9.484E+01   -9.437E+01   -9.389E+01   -9.342E+01   -9.295E+01   -9.248E+01   -9.202E+01
    -9.155E+01   -9.108E+01   -9.061E+01   -9.015E+01   -8.968E+01   -8.922E+01   -8.876E+01   -8.829E+01   -8.783E+01   -8.737E+01
    -8.691E+01   -8.645E+01   -8.599E+01   -8.553E+01   -8.508E+01   -8.462E+01   -8.416E+01   -8.371E+01   -8.326E+01   -8.280E+01
    -8.235E+01   -8.190E+01   -8.145E+01   -8.100E+01   -8.056E+01   -8.011E+01   -7.966E+01   -7.922E+01   -7.878E+01   -7.833E+01
    -7.789E+01   -7.745E+01   -7.701E+01   -7.657E+01   -7.614E+01   -7.570E+01   -7.527E+01   -7.483E+01   -7.440E+01   -7.397E+01
    -7.354E+01   -7.311E+01   -7.268E+01   -7.225E+01   -7.183E+01   -7.141E+01   -7.098E+01   -7.056E+01   -7.014E+01   -6.972E+01
    -6.930E+01   -6.889E+01   -6.847E+01   -6.805E+01   -6.764E+01   -6.723E+01   -6.682E+01   -6.641E+01   -6.600E+01   -6.559E+01
    -6.519E+01   -6.478E+01   -6.438E+01   -6.397E+01   -6.357E+01   -6.317E+01   -6.277E+01   -6.238E+01   -6.198E+01   -6.158E+01
    -6.119E+01   -6.080E+01   -6.040E+01   -6.001E+01   -5.962E+01   -5.923E+01   -5.885E+01   -5.846E+01   -5.808E+01   -5.769E+01
    -5.731E+01   -5.693E+01   -5.655E+01   -5.617E+01   -5.579E+01   -5.541E+01   -5.504E+01   -5.466E+01   -5.429E+01   -5.392E+01
    -5.355E+01   -5.318E+01   -5.281E+01   -5.244E+01   -5.207E+01   -5.171E+01   -5.134E+01   -5.098E+01   -5.062E+01   -5.026E+01
    -4.990E+01   -4.954E+01   -4.918E+01   -4.883E+01   -4.847E+01   -4.812E+01   -4.776E+01   -4.741E+01   -4.706E+01   -4.671E+01
    -4.636E+01   -4.602E+01   -4.567E+01   -4.532E+01   -4.498E+01   -4.464E+01   -4.429E+01   -4.395E+01   -4.361E+01   -4.327E+01
    -4.294E+01   -4.260E+01   -4.226E+01   -4.193E+01   -4.159E+01   -4.126E+01   -4.093E+01   -4.060E+01   -4.027E+01   -3.994E+01
    -3.961E+01   -3.929E+01   -3.896E+01   -3.864E+01   -3.831E+01   -3.799E+01   -3.767E+01   -3.735E+01   -3.703E+01   -3.671E+01
    -3.640E+01   -3.608E+01   -3.577E+01   -3.545E+01   -3.514E+01   -3.483E+01   -3.452E+01   -3.421E+01   -3.390E+01   -3.360E+01
    -3.329E+01   -3.299E+01   -3.269E+01   -3.239E+01   -3.209E+01   -3.179E+01   -3.149E+01   -3.120E+01   -3.090E+01   -3.061E+01
    -3.032E+01   -3.003E+01   -2.974E+01   -2.945E+01   -2.917E+01   -2.888E+01   -2.860E+01   -2.832E+01   -2.804E+01   -2.776E+01
    -2.748E+01   -2.721E+01   -2.694E+01   -2.666E+01   -2.639E+01   -2.612E+01   -2.586E+01   -2.559E+01   -2.533E+01   -2.506E+01
    -2.480E+01   -2.454E+01   -2.429E+01   -2.403E+01   -2.378E+01   -2.352E+01   -2.327E+01   -2.302E+01   -2.277E+01   -2.253E+01
    -2.228E+01   -2.204E+01   -2.179E+01   -2.155E+01   -2.131E+01   -2.107E+01   -2.084E+01   -2.060E+01   -2.037E+01   -2.013E+01
    -1.990E+01   -1.967E+01   -1.944E+01   -1.921E+01   -1.899E+01   -1.876E+01   -1.854E+01   -1.831E+01   -1.809E+01   -1.787E+01
    -1.765E+01   -1.744E+01   -1.722E+01   -1.700E+01   -1.679E+01   -1.658E+01   -1.636E+01   -1.615E+01   -1.594E+01   -1.573E+01
    -1.553E+01   -1.532E+01   -1.511E+01   -1.491E+01   -1.471E+01   -1.450E+01   -1.430E+01   -1.410E+01   -1.390E+01   -1.370E+01
    -1.351E+01   -1.331E+01   -1.311E+01   -1.292E+01   -1.273E+01   -1.253E+01   -1.234E+01   -1.215E+01   -1.196E+01   -1.177E+01
    -1.158E+01   -1.140E+01   -1.121E+01   -1.102E+01   -1.084E+01   -1.065E+01   -1.047E+01   -1.029E+01   -1.011E+01   -9.926E+00
    -9.746E+00   -9.566E+00   -9.388E+00   -9.210E+00   -9.033E+00   -8.856E+00   -8.681E+00   -8.506E+00   -8.331E+00   -8.158E+00
    -7.985E+00   -7.812E+00   -7.641E+00   -7.469E+00   -7.299E+00   -7.129E+00   -6.960E+00   -6.791E+00   -6.623E+00   -6.456E+00
    -6.289E+00   -6.123E+00   -5.957E+00   -5.792E+00   -5.627E+00   -5.464E+00   -5.300E+00   -5.138E+00   -4.976E+00   -4.815E+00
    -4.654E+00   -4.494E+00   -4.335E+00   -4.176E+00   -4.018E+00   -3.860E+00   -3.704E+00   -3.548E+00   -3.392E+00   -3.238E+00
    -3.084E+00   -2.930E+00   -2.778E+00   -2.626E+00   -2.475E+00   -2.324E+00   -2.174E+00   -2.025E+00   -1.877E+00   -1.729E+00
    -1.582E+00   -1.436E+00   -1.291E+00   -1.146E+00   -1.002E+00   -8.590E-01   -7.165E-01   -5.748E-01   -4.339E-01   -2.938E-01
    -1.544E-01   -1.577E-02    1.221E-01    2.591E-01    3.954E-01    5.309E-01    6.657E-01    7.996E-01    9.329E-01    1.065E+00
     1.197E+00    1.328E+00    1.458E+00    1.588E+00    1.717E+00    1.845E+00    1.972E+00    2.099E+00    2.225E+00    2.350E+00
     2.475E+00    2.599E+00    2.722E+00    2.845E+00    2.967E+00    3.088E+00    3.208E+00    3.328E+00    3.448E+00    3.566E+00
     3.684E+00    3.802E+00    3.918E+00    4.034E+00    4.150E+00    4.265E+00    4.379E+00    4.493E+00    4.606E+00    4.718E+00
     4.830E+00    4.941E+00    5.052E+00    5.162E+00    5.272E+00    5.381E+00    5.489E+00    5.597E+00    5.705E+00    5.812E+00
     5.918E+00    6.024E+00    6.129E+00    6.234E+00    6.338E+00    6.441E+00    6.544E+00    6.647E+00    6.749E+00    6.851E+00
     6.952E+00    7.052E+00    7.152E+00    7.251E+00    7.350E+00    7.449E+00    7.547E+00    7.644E+00    7.741E+00    7.837E+00
     7.933E+00    8.028E+00    8.123E+00    8.218E+00    8.312E+00    8.405E+00    8.498E+00    8.590E+00    8.682E+00    8.774E+00
     8.865E+00    8.955E+00    9.045E+00    9.135E+00    9.224E+00    9.312E+00    9.400E+00    9.488E+00    9.575E+00    9.662E+00
     9.748E+00    9.834E+00    9.919E+00    1.000E+01    1.009E+01    1.017E+01    1.026E+01    1.034E+01    1.042E+01    1.050E+01
     1.059E+01    1.067E+01    1.075E+01    1.083E+01    1.091E+01    1.099E+01    1.107E+01    1.115E+01    1.123E+01    1.131E+01
     1.139E+01    1.147E+01    1.155E+01    1.162E+01    1.170E+01    1.178E+01    1.186E+01    1.194E+01    1.201E+01    1.209E+01
     1.217E+01    1.225E+01    1.232E+01    1.240E+01    1.248E+01    1.255E+01    1.263E+01    1.271E+01    1.278E+01    1.286E+01
     1.294E+01    1.301E+01    1.309E+01    1.317E+01    1.324E+01    1.332E+01    1.340E+01    1.347E+01
 Ala      Conc. = 4.70E+02
