 LCModel (Version 6.3-1L) Copyright: S.W. Provencher.          Ref.: Magn. Reson. Med. 30:672-679 (1993).                
 Slice#2 Row#10 Col#6  PD_24_press_2_raw_act
 36 lines in following concentration table = NCONC+1
    Conc.  %SD /Cr+PCr  Metabolite                                         
   65.807 197% 2.9E-02 Ala                                                 
    0.000 999%   0.000 Asp                                                 
  497.314  59%   0.222 Cr                                                  
 1.74E+03  18%   0.778 PCr                                                 
    0.000 999%   0.000 GABA                                                
    8.127 999% 3.6E-03 Glc                                                 
  947.600  28%   0.423 Gln                                                 
 1.62E+03  18%   0.723 Glu                                                 
  506.243   5%   0.226 GPC                                                 
    0.000 999%   0.000 PCh                                                 
  581.905  15%   0.260 GSH                                                 
 1.48E+03  22%   0.660 Ins                                                 
   85.010 166% 3.8E-02 Lac                                                 
 3.25E+03   5%   1.449 NAA                                                 
   53.315 314% 2.4E-02 NAAG                                                
  118.293  28% 5.3E-02 Scyllo                                              
  323.797  83%   0.145 Tau                                                 
  454.191  31%   0.203 -CrCH2                                              
  506.243   5%   0.226 GPC+PCh                                             
 3.30E+03   3%   1.473 NAA+NAAG                                            
 2.24E+03   3%   1.000 Cr+PCr                                              
 2.57E+03  17%   1.146 Glu+Gln                                             
 2.75E+03  27%   1.226 Lip13a                                              
    0.000 999%   0.000 Lip13b                                              
  347.942 117%   0.155 Lip09                                               
 1.74E+03  23%   0.775 MM09                                                
  425.711  67%   0.190 Lip20                                               
 3.54E+03  15%   1.580 MM20                                                
  591.899  44%   0.264 MM12                                                
  643.831  74%   0.287 MM14                                                
 1.07E+03  28%   0.479 MM17                                                
 2.75E+03  27%   1.226 Lip13a+Lip13b                                       
 3.98E+03  17%   1.778 MM14+Lip13a+Lip13b+MM12                             
 2.08E+03  15%   0.931 MM09+Lip09                                          
 3.96E+03  13%   1.770 MM20+Lip20                                          
   6 lines in following misc. output table
  FWHM = 0.054 ppm    S/N =  15                                            
  Data shift = 0.023 ppm                                                   
  Ph: -32 deg     -10.9 deg/ppm                                            
  alphaB,S = 6.9E-01,   1.0E+02                                            
   14 spline knots.   Ns = 7(1)                                            
  (12) 4 infls.   ( 7) 1 extrs.                                            
  498 points on ppm-axis = NY
      4.000000     3.992357     3.984714     3.977070     3.969427     3.961784     3.954141     3.946497     3.938854     3.931211
      3.923568     3.915925     3.908281     3.900638     3.892995     3.885352     3.877708     3.870065     3.862422     3.854779
      3.847136     3.839492     3.831849     3.824206     3.816563     3.808919     3.801276     3.793633     3.785990     3.778347
      3.770703     3.763060     3.755417     3.747774     3.740130     3.732487     3.724844     3.717201     3.709558     3.701914
      3.694271     3.686628     3.678985     3.671341     3.663698     3.656055     3.648412     3.640769     3.633125     3.625482
      3.617839     3.610196     3.602552     3.594909     3.587266     3.579623     3.571980     3.564336     3.556693     3.549050
      3.541407     3.533763     3.526120     3.518477     3.510834     3.503191     3.495547     3.487904     3.480261     3.472618
      3.464974     3.457331     3.449688     3.442045     3.434402     3.426758     3.419115     3.411472     3.403829     3.396185
      3.388542     3.380899     3.373256     3.365613     3.357969     3.350326     3.342683     3.335040     3.327396     3.319753
      3.312110     3.304467     3.296824     3.289180     3.281537     3.273894     3.266251     3.258607     3.250964     3.243321
      3.235678     3.228034     3.220391     3.212748     3.205105     3.197462     3.189818     3.182175     3.174532     3.166889
      3.159245     3.151602     3.143959     3.136316     3.128673     3.121029     3.113386     3.105743     3.098100     3.090456
      3.082813     3.075170     3.067527     3.059884     3.052240     3.044597     3.036954     3.029311     3.021667     3.014024
      3.006381     2.998738     2.991095     2.983451     2.975808     2.968165     2.960522     2.952878     2.945235     2.937592
      2.929949     2.922306     2.914662     2.907019     2.899376     2.891733     2.884089     2.876446     2.868803     2.861160
      2.853517     2.845873     2.838230     2.830587     2.822944     2.815300     2.807657     2.800014     2.792371     2.784728
      2.777084     2.769441     2.761798     2.754155     2.746511     2.738868     2.731225     2.723582     2.715939     2.708295
      2.700652     2.693009     2.685366     2.677722     2.670079     2.662436     2.654793     2.647150     2.639506     2.631863
      2.624220     2.616577     2.608933     2.601290     2.593647     2.586004     2.578361     2.570717     2.563074     2.555431
      2.547788     2.540144     2.532501     2.524858     2.517215     2.509572     2.501928     2.494285     2.486642     2.478999
      2.471355     2.463712     2.456069     2.448426     2.440783     2.433139     2.425496     2.417853     2.410210     2.402566
      2.394923     2.387280     2.379637     2.371994     2.364350     2.356707     2.349064     2.341421     2.333777     2.326134
      2.318491     2.310848     2.303205     2.295561     2.287918     2.280275     2.272632     2.264988     2.257345     2.249702
      2.242059     2.234416     2.226772     2.219129     2.211486     2.203843     2.196199     2.188556     2.180913     2.173270
      2.165627     2.157983     2.150340     2.142697     2.135054     2.127410     2.119767     2.112124     2.104481     2.096838
      2.089194     2.081551     2.073908     2.066265     2.058621     2.050978     2.043335     2.035692     2.028049     2.020405
      2.012762     2.005119     1.997476     1.989833     1.982190     1.974546     1.966903     1.959260     1.951617     1.943974
      1.936331     1.928688     1.921045     1.913402     1.905759     1.898115     1.890472     1.882829     1.875186     1.867543
      1.859900     1.852257     1.844614     1.836971     1.829327     1.821684     1.814041     1.806398     1.798755     1.791112
      1.783469     1.775826     1.768183     1.760540     1.752896     1.745253     1.737610     1.729967     1.722324     1.714681
      1.707038     1.699395     1.691752     1.684108     1.676465     1.668822     1.661179     1.653536     1.645893     1.638250
      1.630607     1.622964     1.615321     1.607677     1.600034     1.592391     1.584748     1.577105     1.569462     1.561819
      1.554176     1.546533     1.538890     1.531246     1.523603     1.515960     1.508317     1.500674     1.493031     1.485388
      1.477745     1.470102     1.462458     1.454815     1.447172     1.439529     1.431886     1.424243     1.416600     1.408957
      1.401314     1.393671     1.386027     1.378384     1.370741     1.363098     1.355455     1.347812     1.340169     1.332526
      1.324883     1.317240     1.309596     1.301953     1.294310     1.286667     1.279024     1.271381     1.263738     1.256095
      1.248452     1.240808     1.233165     1.225522     1.217879     1.210236     1.202593     1.194950     1.187307     1.179664
      1.172021     1.164377     1.156734     1.149091     1.141448     1.133805     1.126162     1.118519     1.110876     1.103233
      1.095590     1.087946     1.080303     1.072660     1.065017     1.057374     1.049731     1.042088     1.034445     1.026802
      1.019158     1.011515     1.003872     0.996229     0.988586     0.980943     0.973300     0.965657     0.958014     0.950371
      0.942727     0.935084     0.927441     0.919798     0.912155     0.904512     0.896869     0.889226     0.881583     0.873940
      0.866296     0.858653     0.851010     0.843367     0.835724     0.828081     0.820438     0.812795     0.805152     0.797508
      0.789865     0.782222     0.774579     0.766936     0.759293     0.751650     0.744007     0.736364     0.728721     0.721077
      0.713434     0.705791     0.698148     0.690505     0.682862     0.675219     0.667576     0.659933     0.652290     0.644646
      0.637003     0.629360     0.621717     0.614074     0.606431     0.598788     0.591145     0.583502     0.575858     0.568215
      0.560572     0.552929     0.545286     0.537643     0.530000     0.522357     0.514714     0.507071     0.499427     0.491784
      0.484141     0.476498     0.468855     0.461212     0.453569     0.445925     0.438282     0.430639     0.422996     0.415353
      0.407710     0.400067     0.392424     0.384780     0.377137     0.369494     0.361851     0.354208     0.346565     0.338922
      0.331278     0.323635     0.315992     0.308349     0.300706     0.293063     0.285420     0.277777     0.270133     0.262490
      0.254847     0.247204     0.239561     0.231918     0.224275     0.216631     0.208988     0.201345
 NY phased data points follow
  -7.12304E+01 -6.59476E+01 -6.42499E+01 -6.42312E+01 -5.70857E+01 -4.66707E+01 -4.50103E+01 -3.27386E+01 -2.69568E+01 -1.96534E+01
  -1.73850E+01 -1.78760E+01 -2.24998E+01 -2.98134E+01 -3.24361E+01 -3.68186E+01 -4.35851E+01 -4.85023E+01 -5.30561E+01 -5.80975E+01
  -5.33633E+01 -5.11922E+01 -5.50400E+01 -5.04962E+01 -4.76920E+01 -4.72881E+01 -4.36376E+01 -3.78085E+01 -4.10659E+01 -3.84431E+01
  -3.71903E+01 -2.87483E+01 -3.42916E+01 -3.21794E+01 -3.86602E+01 -3.71701E+01 -3.89350E+01 -3.15850E+01 -3.48821E+01 -3.47451E+01
  -3.85896E+01 -3.66134E+01 -3.39179E+01 -3.46544E+01 -3.22521E+01 -3.07646E+01 -3.05385E+01 -2.73558E+01 -2.52550E+01 -2.64618E+01
  -3.43712E+01 -3.19834E+01 -3.72547E+01 -3.24073E+01 -3.59718E+01 -2.48800E+01 -3.28815E+01 -3.20576E+01 -3.24064E+01 -2.98808E+01
  -4.05764E+01 -3.23577E+01 -3.22421E+01 -3.13509E+01 -3.50537E+01 -3.41098E+01 -3.61713E+01 -3.39606E+01 -3.68386E+01 -3.11298E+01
  -3.11331E+01 -3.08296E+01 -2.86562E+01 -3.57378E+01 -3.40212E+01 -2.36879E+01 -3.32035E+01 -2.44711E+01 -2.93554E+01 -2.90770E+01
  -3.44023E+01 -2.73858E+01 -2.88435E+01 -2.74064E+01 -2.40718E+01 -2.34761E+01 -2.24343E+01 -3.00114E+01 -2.49453E+01 -1.90374E+01
  -2.36747E+01 -2.06351E+01 -2.61151E+01 -1.64390E+01 -1.96069E+01 -1.59354E+01 -1.78792E+01 -1.30443E+01 -1.01883E+01 -9.68556E+00
   1.74799E+00  1.04236E+01  1.57001E+01  2.11585E+01  1.79610E+01  2.09306E+01  1.61786E+00  1.42916E+00 -5.87733E+00 -8.54799E+00
  -1.07281E+01 -1.34215E+01 -1.73150E+01 -2.25816E+01 -1.63959E+01 -1.48379E+01 -1.97203E+01 -1.50620E+01 -1.49522E+01 -1.51432E+01
  -1.14166E+01 -8.47003E+00 -6.13647E-01  5.43183E+00  1.93667E+01  3.48367E+01  4.78694E+01  5.41102E+01  5.81164E+01  4.87818E+01
   3.31244E+01  1.66853E+01  1.24696E+01 -6.11185E-01 -3.04040E+00 -1.19824E+01 -8.84248E+00 -1.61720E+01 -1.45472E+01 -1.11236E+01
  -1.38062E+01 -1.47552E+01 -1.54819E+01 -1.14369E+01 -1.78226E+01 -2.00948E+01 -1.93456E+01 -1.72357E+01 -1.40542E+01 -1.41311E+01
  -1.02333E+01 -1.98522E+01 -1.99618E+01 -1.42950E+01 -2.17423E+01 -1.44569E+01 -1.92293E+01 -1.41410E+01 -1.68436E+01 -1.19001E+01
  -1.44520E+01 -1.52597E+01 -2.32030E+01 -2.03195E+01 -1.98997E+01 -1.41734E+01 -1.32316E+01 -1.38225E+01 -1.49706E+01 -1.88688E+01
  -2.60009E+01 -2.10818E+01 -2.38661E+01 -2.87331E+01 -2.43546E+01 -2.86070E+01 -2.81256E+01 -2.37833E+01 -2.38973E+01 -2.44380E+01
  -2.23423E+01 -2.48269E+01 -2.59086E+01 -1.87133E+01 -2.57271E+01 -1.84579E+01 -2.25191E+01 -1.65876E+01 -1.92085E+01 -1.94408E+01
  -9.21658E+00 -1.19252E+01 -7.62065E+00 -8.46358E+00 -2.56731E+00 -8.82072E+00 -1.07069E+01 -1.44172E+01 -1.14681E+01 -1.41076E+01
  -1.39729E+01 -7.89622E+00 -6.24867E+00 -7.00347E+00 -2.73325E+00 -1.04048E+01 -8.48291E+00 -7.73950E+00 -9.19261E+00 -1.76022E+01
  -1.27868E+01 -8.21935E+00 -5.82056E+00 -1.77033E+00  6.46034E+00  4.51716E+00  3.14962E+00  6.96572E+00  5.27412E-01 -1.44809E+00
  -3.50569E+00 -5.28820E+00 -1.10365E+01 -9.11824E+00 -6.45922E+00 -2.17079E+00 -2.23085E-01  6.58913E-01  6.20106E+00  1.36779E+00
   2.39292E+00  3.20499E+00  1.76306E+00  7.20239E+00  9.61395E-01 -1.50384E+00  1.23859E+00 -8.16305E-01  2.28750E+00 -3.41361E+00
  -6.87020E-02 -1.23904E+00 -2.05346E+00  2.42229E+00  6.87020E+00  1.08751E+00  1.05104E+00  3.88187E+00  1.82210E+00  8.98187E+00
   9.43754E+00  1.29096E+01  1.51551E+01  2.46490E+01  2.35888E+01  3.18282E+01  3.72399E+01  5.43947E+01  8.06274E+01  9.41372E+01
   1.04090E+02  1.15955E+02  1.08012E+02  8.44364E+01  6.53151E+01  4.51313E+01  3.26168E+01  2.25612E+01  1.56357E+01  1.33480E+01
   8.37324E+00  4.51955E+00  2.51116E+00 -1.11119E+00  4.69013E+00  9.65673E+00  8.38312E-01  9.77361E-01  2.21272E+00 -1.44434E+00
  -4.69166E+00 -9.29924E-01 -8.08088E+00  1.99883E+00 -2.13939E+00 -7.36820E+00 -4.54993E+00 -6.81741E+00 -3.47127E+00  1.00027E+00
  -1.86960E+00  1.58295E+00 -2.87616E+00  4.90972E-01 -6.80402E-01 -3.07805E+00 -2.59115E+00 -9.52044E-01 -2.94881E+00 -4.43752E+00
  -1.46398E+00  6.50166E-01 -3.73548E+00 -4.95028E-01  4.44346E+00  4.65315E+00  4.80781E+00  3.49079E+00 -2.38068E-01 -1.05923E+00
   5.82725E+00  2.82996E+00  1.09803E+01  1.25800E+01  1.34175E+01  7.42229E+00  7.77049E+00  7.54983E+00  1.02964E+01  9.81095E+00
   6.02840E+00  1.32248E+00  5.45948E+00  8.39825E+00  5.27927E+00  1.12354E+00  6.38944E+00  2.96237E+00  2.52881E+00  1.54966E+00
   4.29158E+00  3.88948E+00  8.29014E+00  3.26283E+00  5.92461E+00 -4.52666E+00  1.44979E+01  1.01057E+01  6.46876E+00  1.22658E+01
   8.63479E+00  4.13036E+00  7.54589E+00  4.98269E+00  1.16190E+01  1.46872E+01  1.17983E+01  1.00560E+01  1.56603E+01  1.18506E+01
   1.05368E+01  1.45248E+01  1.65523E+01  1.27153E+01  9.84562E+00  1.76387E+01  2.12470E+01  1.23043E+01  1.91954E+01  1.47489E+01
   1.61501E+01  1.30196E+01  1.52898E+01  1.68902E+01  1.55544E+01  1.21070E+01  1.66480E+01  1.43247E+01  1.08221E+01  9.44892E+00
   1.10372E+01  1.31193E+01  1.43370E+01  8.74531E+00  9.68633E+00  4.70772E+00  1.26936E+01  6.91015E+00  6.55655E+00  7.33490E+00
   4.59372E+00  7.97205E+00  7.85253E+00  7.21668E+00  3.78568E+00  8.89225E+00  8.63575E+00  2.07355E+00  1.08576E+01  7.90951E+00
   9.63875E+00  9.65695E+00  7.19126E+00  1.24600E+01  7.95893E+00  3.91643E+00  1.07123E+01  1.26676E+01  1.03667E+01  5.98211E+00
   1.35903E+01  1.35506E+01  1.76875E+01  1.25621E+01  1.70618E+01  2.28121E+01  2.02333E+01  2.06876E+01  2.23747E+01  1.88301E+01
   1.96954E+01  1.79709E+01  1.80094E+01  1.50442E+01  2.00060E+01  1.56165E+01  1.47662E+01  1.71312E+01  1.19497E+01  1.28533E+01
   1.20741E+01  1.14339E+01  1.22054E+01  1.02984E+01  9.63638E+00  7.59830E+00  1.04095E+01  1.26167E+01  8.22606E+00  6.04405E+00
   6.44367E+00  1.33363E+01  3.91894E+00  7.92637E+00  1.12295E+01  6.26452E+00  7.51561E+00  1.16472E+01  1.07108E+01  7.97696E+00
   5.96992E+00  1.52923E+00  7.27943E+00  9.71859E+00  7.12169E+00  6.03557E+00  7.12400E+00  3.68564E+00  4.96175E+00  5.95001E+00
   1.66922E+00  4.23287E+00  6.93716E+00  9.15076E+00  6.15707E+00  5.09979E+00  1.32019E+01 -8.61349E-01  4.09128E+00  1.01745E+01
   4.24403E+00  3.17393E+00  9.32609E+00  6.09351E+00  8.35884E+00  8.90291E+00  7.13699E+00  9.69133E+00  1.15642E+00  1.62049E+00
   7.99146E+00 -6.15448E-01  5.09173E+00  9.32547E+00  7.56453E+00  8.60749E+00  8.17062E+00  5.53978E+00  1.16668E+01  2.60691E+00
   6.03052E+00  6.93676E+00  5.64141E+00  9.56513E+00  3.22164E+00  2.12750E+00  1.04268E+01  1.30046E+01  8.63536E+00  4.98368E+00
   5.26039E+00  7.49361E+00  8.40897E+00  8.01537E+00  6.91659E+00  5.17047E+00  5.93570E+00  6.17164E+00
 NY points of the fit to the data follow
  -6.10879E+01 -6.08771E+01 -5.93780E+01 -5.65942E+01 -5.32128E+01 -4.87877E+01 -4.26781E+01 -3.51281E+01 -2.74317E+01 -2.10158E+01
  -1.73808E+01 -1.78706E+01 -2.23233E+01 -2.87374E+01 -3.47919E+01 -3.93875E+01 -4.27915E+01 -4.58767E+01 -4.81596E+01 -4.91573E+01
  -4.94707E+01 -4.94900E+01 -4.93689E+01 -4.88363E+01 -4.82044E+01 -4.74860E+01 -4.61277E+01 -4.36985E+01 -4.04134E+01 -3.67895E+01
  -3.33629E+01 -3.10422E+01 -3.06939E+01 -3.22059E+01 -3.47224E+01 -3.73751E+01 -3.96293E+01 -4.14916E+01 -4.28139E+01 -4.29123E+01
  -4.18772E+01 -4.03144E+01 -3.85858E+01 -3.65045E+01 -3.40400E+01 -3.16631E+01 -2.97999E+01 -2.88017E+01 -2.90402E+01 -3.05069E+01
  -3.27318E+01 -3.48123E+01 -3.60644E+01 -3.66024E+01 -3.68039E+01 -3.66736E+01 -3.59845E+01 -3.48705E+01 -3.37222E+01 -3.27643E+01
  -3.21531E+01 -3.20379E+01 -3.23387E+01 -3.28314E+01 -3.31538E+01 -3.30810E+01 -3.27017E+01 -3.21602E+01 -3.14480E+01 -3.06360E+01
  -2.98742E+01 -2.92139E+01 -2.86412E+01 -2.82051E+01 -2.79889E+01 -2.79417E+01 -2.79933E+01 -2.81806E+01 -2.84196E+01 -2.85481E+01
  -2.82749E+01 -2.77450E+01 -2.70468E+01 -2.61515E+01 -2.51276E+01 -2.41906E+01 -2.35585E+01 -2.33116E+01 -2.35120E+01 -2.40702E+01
  -2.46986E+01 -2.50260E+01 -2.49684E+01 -2.47762E+01 -2.45680E+01 -2.37080E+01 -2.08411E+01 -1.70859E+01 -1.28474E+01 -6.81882E+00
   1.38233E+00  1.01945E+01  1.75963E+01  2.19643E+01  2.16720E+01  1.62741E+01  7.82016E+00 -4.02519E-01 -6.54359E+00 -1.09607E+01
  -1.48575E+01 -1.83957E+01 -2.01018E+01 -2.04731E+01 -2.04765E+01 -2.03380E+01 -2.01248E+01 -1.97960E+01 -1.92387E+01 -1.78171E+01
  -1.35889E+01 -7.74203E+00 -1.32725E+00  7.75417E+00  2.05918E+01  3.48735E+01  4.72089E+01  5.50080E+01  5.55410E+01  4.75848E+01
   3.41833E+01  2.07143E+01  1.03691E+01  2.76833E+00 -4.14690E+00 -1.10640E+01 -1.52849E+01 -1.66795E+01 -1.68775E+01 -1.63434E+01
  -1.54957E+01 -1.47182E+01 -1.41791E+01 -1.39086E+01 -1.39507E+01 -1.41982E+01 -1.44928E+01 -1.48021E+01 -1.51168E+01 -1.54017E+01
  -1.56555E+01 -1.58301E+01 -1.59480E+01 -1.60162E+01 -1.61166E+01 -1.62246E+01 -1.62867E+01 -1.63842E+01 -1.65720E+01 -1.69112E+01
  -1.73223E+01 -1.75636E+01 -1.74737E+01 -1.70926E+01 -1.66463E+01 -1.64156E+01 -1.66190E+01 -1.72452E+01 -1.80107E+01 -1.86508E+01
  -1.91808E+01 -1.95970E+01 -2.00463E+01 -2.06158E+01 -2.11340E+01 -2.14091E+01 -2.13708E+01 -2.10642E+01 -2.06205E+01 -2.02030E+01
  -2.00257E+01 -2.00623E+01 -2.00236E+01 -1.97325E+01 -1.91814E+01 -1.84846E+01 -1.76527E+01 -1.64137E+01 -1.46191E+01 -1.24777E+01
  -1.05549E+01 -9.45694E+00 -9.19831E+00 -9.51352E+00 -1.01120E+01 -1.07445E+01 -1.12134E+01 -1.12008E+01 -1.05758E+01 -9.43875E+00
  -7.86838E+00 -6.05159E+00 -4.50074E+00 -3.79427E+00 -3.88837E+00 -4.87689E+00 -6.89249E+00 -9.59728E+00 -1.20847E+01 -1.35574E+01
  -1.38701E+01 -1.29526E+01 -1.07564E+01 -7.68209E+00 -4.59338E+00 -2.25603E+00 -1.07177E+00 -1.23189E+00 -2.90403E+00 -5.89069E+00
  -8.88940E+00 -1.08582E+01 -1.15847E+01 -1.10513E+01 -9.29859E+00 -6.52573E+00 -3.56716E+00 -1.33162E+00 -1.15348E-01  3.59611E-01
   6.10442E-01  6.79485E-01  5.15181E-01  5.69533E-01  1.25116E+00  2.26095E+00  3.20057E+00  4.01038E+00  4.57370E+00  4.59632E+00
   3.90124E+00  2.86197E+00  2.08518E+00  1.92059E+00  2.39873E+00  3.38099E+00  4.74499E+00  6.14746E+00  7.29318E+00  8.23712E+00
   9.20420E+00  1.02824E+01  1.18881E+01  1.62670E+01  2.42182E+01  3.25693E+01  4.28387E+01  5.79894E+01  7.68658E+01  9.48014E+01
   1.07827E+02  1.12297E+02  1.04917E+02  8.70521E+01  6.57300E+01  4.77131E+01  3.47080E+01  2.44458E+01  1.46118E+01  7.01986E+00
   4.09878E+00  2.90648E+00  2.19885E+00  1.76621E+00  1.47900E+00  1.20589E+00  9.07220E-01  5.56518E-01  1.74177E-01 -1.97386E-01
  -5.38124E-01 -8.57652E-01 -1.14161E+00 -1.36401E+00 -1.53213E+00 -1.66879E+00 -1.78619E+00 -1.88142E+00 -1.94756E+00 -1.98437E+00
  -1.99581E+00 -1.97428E+00 -1.91514E+00 -1.81613E+00 -1.67698E+00 -1.49590E+00 -1.26941E+00 -9.94203E-01 -6.67959E-01 -2.87949E-01
   1.45675E-01  6.31386E-01  1.16459E+00  1.73797E+00  2.34117E+00  2.96178E+00  3.58587E+00  4.19908E+00  4.78599E+00  5.33182E+00
   5.82171E+00  6.24225E+00  6.58295E+00  6.83721E+00  7.00177E+00  7.07783E+00  7.07037E+00  6.98907E+00  6.84823E+00  6.66961E+00
   6.47980E+00  6.26645E+00  6.03256E+00  5.81690E+00  5.62044E+00  5.40312E+00  5.13338E+00  4.80950E+00  4.46971E+00  4.16750E+00
   3.95399E+00  3.90778E+00  4.07396E+00  4.42788E+00  4.91010E+00  5.48625E+00  6.13461E+00  6.76501E+00  7.30851E+00  7.80380E+00
   8.33053E+00  8.89681E+00  9.47130E+00  1.00603E+01  1.06716E+01  1.12666E+01  1.17647E+01  1.21372E+01  1.24200E+01  1.26401E+01
   1.28561E+01  1.31833E+01  1.36814E+01  1.42982E+01  1.49379E+01  1.55407E+01  1.60675E+01  1.64137E+01  1.65004E+01  1.63835E+01
   1.61458E+01  1.58305E+01  1.54319E+01  1.49346E+01  1.43904E+01  1.38347E+01  1.32603E+01  1.26700E+01  1.20715E+01  1.14738E+01
   1.08858E+01  1.03158E+01  9.77110E+00  9.25815E+00  8.78222E+00  8.34784E+00  7.95839E+00  7.61650E+00  7.32389E+00  7.08198E+00
   6.89173E+00  6.75410E+00  6.66974E+00  6.63939E+00  6.66373E+00  6.74380E+00  6.88077E+00  7.07603E+00  7.33080E+00  7.64623E+00
   8.02306E+00  8.46171E+00  8.96169E+00  9.52150E+00  1.01380E+01  1.08064E+01  1.15200E+01  1.22701E+01  1.30459E+01  1.38344E+01
   1.46206E+01  1.53880E+01  1.61193E+01  1.67967E+01  1.74027E+01  1.79210E+01  1.83370E+01  1.86389E+01  1.88181E+01  1.88698E+01
   1.87931E+01  1.85910E+01  1.82703E+01  1.78415E+01  1.73180E+01  1.67152E+01  1.60499E+01  1.53397E+01  1.46017E+01  1.38525E+01
   1.31072E+01  1.23790E+01  1.16789E+01  1.10154E+01  1.03951E+01  9.82232E+00  9.29934E+00  8.82684E+00  8.40389E+00  8.02859E+00
   7.69822E+00  7.40966E+00  7.15933E+00  6.94361E+00  6.75873E+00  6.60125E+00  6.46794E+00  6.35590E+00  6.26240E+00  6.18503E+00
   6.12156E+00  6.07021E+00  6.02939E+00  5.99779E+00  5.97414E+00  5.95739E+00  5.94656E+00  5.94099E+00  5.94002E+00  5.94316E+00
   5.94980E+00  5.95951E+00  5.97187E+00  5.98667E+00  6.00364E+00  6.02258E+00  6.04318E+00  6.06527E+00  6.08869E+00  6.11338E+00
   6.13922E+00  6.16609E+00  6.19380E+00  6.22231E+00  6.25154E+00  6.28153E+00  6.31216E+00  6.34336E+00  6.37501E+00  6.40713E+00
   6.43969E+00  6.47275E+00  6.50619E+00  6.53997E+00  6.57402E+00  6.60841E+00  6.64314E+00  6.67821E+00  6.71354E+00  6.74910E+00
   6.78486E+00  6.82092E+00  6.85726E+00  6.89389E+00  6.93072E+00  6.96775E+00  7.00500E+00  7.04256E+00  7.08040E+00  7.11852E+00
   7.15683E+00  7.19539E+00  7.23422E+00  7.27342E+00  7.31294E+00  7.35277E+00  7.39286E+00  7.43331E+00
 NY background values follow
    -6.547E+01   -6.499E+01   -6.451E+01   -6.404E+01   -6.356E+01   -6.308E+01   -6.260E+01   -6.212E+01   -6.164E+01   -6.117E+01
    -6.069E+01   -6.021E+01   -5.974E+01   -5.926E+01   -5.879E+01   -5.831E+01   -5.784E+01   -5.737E+01   -5.690E+01   -5.643E+01
    -5.596E+01   -5.549E+01   -5.502E+01   -5.456E+01   -5.409E+01   -5.363E+01   -5.317E+01   -5.271E+01   -5.225E+01   -5.180E+01
    -5.135E+01   -5.089E+01   -5.044E+01   -5.000E+01   -4.955E+01   -4.911E+01   -4.867E+01   -4.823E+01   -4.779E+01   -4.736E+01
    -4.693E+01   -4.650E+01   -4.607E+01   -4.565E+01   -4.523E+01   -4.481E+01   -4.439E+01   -4.398E+01   -4.357E+01   -4.317E+01
    -4.277E+01   -4.237E+01   -4.197E+01   -4.158E+01   -4.119E+01   -4.080E+01   -4.041E+01   -4.003E+01   -3.966E+01   -3.928E+01
    -3.891E+01   -3.854E+01   -3.817E+01   -3.781E+01   -3.745E+01   -3.710E+01   -3.675E+01   -3.640E+01   -3.605E+01   -3.571E+01
    -3.537E+01   -3.503E+01   -3.470E+01   -3.437E+01   -3.405E+01   -3.373E+01   -3.341E+01   -3.309E+01   -3.278E+01   -3.247E+01
    -3.217E+01   -3.186E+01   -3.157E+01   -3.127E+01   -3.098E+01   -3.069E+01   -3.041E+01   -3.013E+01   -2.985E+01   -2.958E+01
    -2.931E+01   -2.904E+01   -2.878E+01   -2.852E+01   -2.827E+01   -2.801E+01   -2.777E+01   -2.752E+01   -2.728E+01   -2.704E+01
    -2.681E+01   -2.657E+01   -2.635E+01   -2.612E+01   -2.590E+01   -2.568E+01   -2.546E+01   -2.525E+01   -2.504E+01   -2.484E+01
    -2.463E+01   -2.443E+01   -2.423E+01   -2.404E+01   -2.385E+01   -2.366E+01   -2.347E+01   -2.329E+01   -2.311E+01   -2.293E+01
    -2.275E+01   -2.258E+01   -2.241E+01   -2.224E+01   -2.207E+01   -2.191E+01   -2.175E+01   -2.159E+01   -2.144E+01   -2.128E+01
    -2.113E+01   -2.098E+01   -2.083E+01   -2.069E+01   -2.055E+01   -2.041E+01   -2.027E+01   -2.013E+01   -1.999E+01   -1.986E+01
    -1.973E+01   -1.960E+01   -1.947E+01   -1.935E+01   -1.922E+01   -1.910E+01   -1.898E+01   -1.886E+01   -1.874E+01   -1.862E+01
    -1.850E+01   -1.839E+01   -1.827E+01   -1.816E+01   -1.804E+01   -1.793E+01   -1.782E+01   -1.771E+01   -1.760E+01   -1.748E+01
    -1.737E+01   -1.726E+01   -1.716E+01   -1.705E+01   -1.694E+01   -1.683E+01   -1.672E+01   -1.661E+01   -1.650E+01   -1.639E+01
    -1.628E+01   -1.617E+01   -1.606E+01   -1.595E+01   -1.583E+01   -1.572E+01   -1.561E+01   -1.549E+01   -1.538E+01   -1.526E+01
    -1.515E+01   -1.503E+01   -1.491E+01   -1.479E+01   -1.467E+01   -1.454E+01   -1.442E+01   -1.430E+01   -1.417E+01   -1.405E+01
    -1.392E+01   -1.379E+01   -1.367E+01   -1.354E+01   -1.341E+01   -1.329E+01   -1.316E+01   -1.303E+01   -1.290E+01   -1.277E+01
    -1.265E+01   -1.252E+01   -1.239E+01   -1.226E+01   -1.214E+01   -1.201E+01   -1.189E+01   -1.176E+01   -1.164E+01   -1.151E+01
    -1.139E+01   -1.127E+01   -1.115E+01   -1.103E+01   -1.091E+01   -1.079E+01   -1.067E+01   -1.056E+01   -1.044E+01   -1.033E+01
    -1.022E+01   -1.011E+01   -1.000E+01   -9.895E+00   -9.791E+00   -9.688E+00   -9.587E+00   -9.488E+00   -9.391E+00   -9.296E+00
    -9.202E+00   -9.111E+00   -9.021E+00   -8.933E+00   -8.846E+00   -8.761E+00   -8.678E+00   -8.596E+00   -8.516E+00   -8.437E+00
    -8.359E+00   -8.283E+00   -8.208E+00   -8.134E+00   -8.062E+00   -7.991E+00   -7.921E+00   -7.851E+00   -7.784E+00   -7.717E+00
    -7.651E+00   -7.585E+00   -7.521E+00   -7.458E+00   -7.395E+00   -7.334E+00   -7.272E+00   -7.212E+00   -7.152E+00   -7.093E+00
    -7.034E+00   -6.976E+00   -6.918E+00   -6.861E+00   -6.804E+00   -6.747E+00   -6.691E+00   -6.635E+00   -6.579E+00   -6.523E+00
    -6.467E+00   -6.412E+00   -6.356E+00   -6.301E+00   -6.245E+00   -6.190E+00   -6.134E+00   -6.078E+00   -6.023E+00   -5.967E+00
    -5.912E+00   -5.856E+00   -5.800E+00   -5.744E+00   -5.688E+00   -5.633E+00   -5.577E+00   -5.521E+00   -5.464E+00   -5.408E+00
    -5.352E+00   -5.295E+00   -5.239E+00   -5.182E+00   -5.125E+00   -5.068E+00   -5.011E+00   -4.954E+00   -4.896E+00   -4.839E+00
    -4.781E+00   -4.723E+00   -4.665E+00   -4.606E+00   -4.548E+00   -4.489E+00   -4.430E+00   -4.371E+00   -4.312E+00   -4.252E+00
    -4.192E+00   -4.132E+00   -4.072E+00   -4.011E+00   -3.950E+00   -3.889E+00   -3.827E+00   -3.766E+00   -3.704E+00   -3.641E+00
    -3.579E+00   -3.516E+00   -3.453E+00   -3.389E+00   -3.326E+00   -3.262E+00   -3.198E+00   -3.133E+00   -3.069E+00   -3.004E+00
    -2.939E+00   -2.874E+00   -2.808E+00   -2.743E+00   -2.677E+00   -2.611E+00   -2.545E+00   -2.479E+00   -2.412E+00   -2.346E+00
    -2.279E+00   -2.212E+00   -2.145E+00   -2.078E+00   -2.011E+00   -1.944E+00   -1.877E+00   -1.809E+00   -1.741E+00   -1.674E+00
    -1.606E+00   -1.538E+00   -1.471E+00   -1.403E+00   -1.335E+00   -1.267E+00   -1.199E+00   -1.131E+00   -1.063E+00   -9.947E-01
    -9.266E-01   -8.585E-01   -7.905E-01   -7.225E-01   -6.544E-01   -5.864E-01   -5.184E-01   -4.505E-01   -3.825E-01   -3.146E-01
    -2.467E-01   -1.788E-01   -1.109E-01   -4.303E-02    2.480E-02    9.260E-02    1.604E-01    2.281E-01    2.958E-01    3.635E-01
     4.312E-01    4.988E-01    5.664E-01    6.340E-01    7.015E-01    7.690E-01    8.364E-01    9.038E-01    9.712E-01    1.039E+00
     1.106E+00    1.173E+00    1.240E+00    1.307E+00    1.375E+00    1.442E+00    1.509E+00    1.576E+00    1.643E+00    1.709E+00
     1.776E+00    1.843E+00    1.910E+00    1.976E+00    2.043E+00    2.110E+00    2.176E+00    2.242E+00    2.309E+00    2.375E+00
     2.441E+00    2.507E+00    2.573E+00    2.639E+00    2.705E+00    2.771E+00    2.836E+00    2.902E+00    2.967E+00    3.032E+00
     3.097E+00    3.161E+00    3.226E+00    3.290E+00    3.354E+00    3.418E+00    3.481E+00    3.545E+00    3.608E+00    3.671E+00
     3.733E+00    3.796E+00    3.857E+00    3.919E+00    3.981E+00    4.042E+00    4.102E+00    4.163E+00    4.223E+00    4.282E+00
     4.342E+00    4.401E+00    4.459E+00    4.517E+00    4.575E+00    4.632E+00    4.689E+00    4.746E+00    4.802E+00    4.857E+00
     4.913E+00    4.967E+00    5.021E+00    5.075E+00    5.128E+00    5.181E+00    5.233E+00    5.285E+00    5.337E+00    5.388E+00
     5.438E+00    5.489E+00    5.539E+00    5.588E+00    5.637E+00    5.686E+00    5.735E+00    5.783E+00    5.831E+00    5.879E+00
     5.926E+00    5.973E+00    6.020E+00    6.067E+00    6.113E+00    6.160E+00    6.206E+00    6.252E+00    6.297E+00    6.343E+00
     6.388E+00    6.434E+00    6.479E+00    6.524E+00    6.569E+00    6.614E+00    6.659E+00    6.704E+00    6.749E+00    6.794E+00
     6.838E+00    6.883E+00    6.928E+00    6.973E+00    7.018E+00    7.063E+00    7.108E+00    7.153E+00
 Ala      Conc. = 6.58E+01
