 LCModel (Version 6.3-1L) Copyright: S.W. Provencher.          Ref.: Magn. Reson. Med. 30:672-679 (1993).                
 Slice#2 Row#12 Col#8  PD_24_press_2_raw_act
 36 lines in following concentration table = NCONC+1
    Conc.  %SD /Cr+PCr  Metabolite                                         
   35.337 195%   2.166 Ala                                                 
    4.327 110%   0.265 Asp                                                 
    0.000 999%   0.000 Cr                                                  
   16.313 123%   1.000 PCr                                                 
    2.741 104%   0.168 GABA                                                
    2.842 101%   0.174 Glc                                                 
   43.895 327%   2.691 Gln                                                 
  188.794  83%  11.573 Glu                                                 
   25.201  31%   1.545 GPC                                                 
    0.000 999%   0.000 PCh                                                 
   80.978  41%   4.964 GSH                                                 
  233.117  39%  14.290 Ins                                                 
  117.663  68%   7.213 Lac                                                 
    0.000 999%   0.000 NAA                                                 
    0.000 999%   0.000 NAAG                                                
    0.972  98% 6.0E-02 Scyllo                                              
    4.676 101%   0.287 Tau                                                 
    1.392 241% 8.5E-02 -CrCH2                                              
   25.201  31%   1.545 GPC+PCh                                             
    0.000 999%   0.000 NAA+NAAG                                            
   16.313 123%   1.000 Cr+PCr                                              
  232.689 107%  14.264 Glu+Gln                                             
  575.308  21%  35.266 Lip13a                                              
    0.000 999%   0.000 Lip13b                                              
  133.607  37%   8.190 Lip09                                               
  114.953  34%   7.047 MM09                                                
   64.678  57%   3.965 Lip20                                               
    0.000 999%   0.000 MM20                                                
   39.553  58%   2.425 MM12                                                
  502.210   9%  30.785+MM14                                                
  160.450  32%   9.836 MM17                                                
  575.308  21%  35.266 Lip13a+Lip13b                                       
 1.12E+03  10%  68.476 MM14+Lip13a+Lip13b+MM12                             
  248.561  18%  15.237 MM09+Lip09                                          
   64.678  57%   3.965 MM20+Lip20                                          
   6 lines in following misc. output table
  FWHM = 0.084 ppm    S/N =   2                                            
  Data shift = 0.092 ppm                                                   
  Ph:-156 deg      18.6 deg/ppm                                            
  alphaB,S = 8.5E+01,   1.0E+02                                            
   14 spline knots.   Ns = 9(1)                                            
   2 inflections.     1 extrema                                            
  498 points on ppm-axis = NY
      4.000000     3.992357     3.984714     3.977070     3.969427     3.961784     3.954141     3.946497     3.938854     3.931211
      3.923568     3.915925     3.908281     3.900638     3.892995     3.885352     3.877708     3.870065     3.862422     3.854779
      3.847136     3.839492     3.831849     3.824206     3.816563     3.808919     3.801276     3.793633     3.785990     3.778347
      3.770703     3.763060     3.755417     3.747774     3.740130     3.732487     3.724844     3.717201     3.709558     3.701914
      3.694271     3.686628     3.678985     3.671341     3.663698     3.656055     3.648412     3.640769     3.633125     3.625482
      3.617839     3.610196     3.602552     3.594909     3.587266     3.579623     3.571980     3.564336     3.556693     3.549050
      3.541407     3.533763     3.526120     3.518477     3.510834     3.503191     3.495547     3.487904     3.480261     3.472618
      3.464974     3.457331     3.449688     3.442045     3.434402     3.426758     3.419115     3.411472     3.403829     3.396185
      3.388542     3.380899     3.373256     3.365613     3.357969     3.350326     3.342683     3.335040     3.327396     3.319753
      3.312110     3.304467     3.296824     3.289180     3.281537     3.273894     3.266251     3.258607     3.250964     3.243321
      3.235678     3.228034     3.220391     3.212748     3.205105     3.197462     3.189818     3.182175     3.174532     3.166889
      3.159245     3.151602     3.143959     3.136316     3.128673     3.121029     3.113386     3.105743     3.098100     3.090456
      3.082813     3.075170     3.067527     3.059884     3.052240     3.044597     3.036954     3.029311     3.021667     3.014024
      3.006381     2.998738     2.991095     2.983451     2.975808     2.968165     2.960522     2.952878     2.945235     2.937592
      2.929949     2.922306     2.914662     2.907019     2.899376     2.891733     2.884089     2.876446     2.868803     2.861160
      2.853517     2.845873     2.838230     2.830587     2.822944     2.815300     2.807657     2.800014     2.792371     2.784728
      2.777084     2.769441     2.761798     2.754155     2.746511     2.738868     2.731225     2.723582     2.715939     2.708295
      2.700652     2.693009     2.685366     2.677722     2.670079     2.662436     2.654793     2.647150     2.639506     2.631863
      2.624220     2.616577     2.608933     2.601290     2.593647     2.586004     2.578361     2.570717     2.563074     2.555431
      2.547788     2.540144     2.532501     2.524858     2.517215     2.509572     2.501928     2.494285     2.486642     2.478999
      2.471355     2.463712     2.456069     2.448426     2.440783     2.433139     2.425496     2.417853     2.410210     2.402566
      2.394923     2.387280     2.379637     2.371994     2.364350     2.356707     2.349064     2.341421     2.333777     2.326134
      2.318491     2.310848     2.303205     2.295561     2.287918     2.280275     2.272632     2.264988     2.257345     2.249702
      2.242059     2.234416     2.226772     2.219129     2.211486     2.203843     2.196199     2.188556     2.180913     2.173270
      2.165627     2.157983     2.150340     2.142697     2.135054     2.127410     2.119767     2.112124     2.104481     2.096838
      2.089194     2.081551     2.073908     2.066265     2.058621     2.050978     2.043335     2.035692     2.028049     2.020405
      2.012762     2.005119     1.997476     1.989833     1.982190     1.974546     1.966903     1.959260     1.951617     1.943974
      1.936331     1.928688     1.921045     1.913402     1.905759     1.898115     1.890472     1.882829     1.875186     1.867543
      1.859900     1.852257     1.844614     1.836971     1.829327     1.821684     1.814041     1.806398     1.798755     1.791112
      1.783469     1.775826     1.768183     1.760540     1.752896     1.745253     1.737610     1.729967     1.722324     1.714681
      1.707038     1.699395     1.691752     1.684108     1.676465     1.668822     1.661179     1.653536     1.645893     1.638250
      1.630607     1.622964     1.615321     1.607677     1.600034     1.592391     1.584748     1.577105     1.569462     1.561819
      1.554176     1.546533     1.538890     1.531246     1.523603     1.515960     1.508317     1.500674     1.493031     1.485388
      1.477745     1.470102     1.462458     1.454815     1.447172     1.439529     1.431886     1.424243     1.416600     1.408957
      1.401314     1.393671     1.386027     1.378384     1.370741     1.363098     1.355455     1.347812     1.340169     1.332526
      1.324883     1.317240     1.309596     1.301953     1.294310     1.286667     1.279024     1.271381     1.263738     1.256095
      1.248452     1.240808     1.233165     1.225522     1.217879     1.210236     1.202593     1.194950     1.187307     1.179664
      1.172021     1.164377     1.156734     1.149091     1.141448     1.133805     1.126162     1.118519     1.110876     1.103233
      1.095590     1.087946     1.080303     1.072660     1.065017     1.057374     1.049731     1.042088     1.034445     1.026802
      1.019158     1.011515     1.003872     0.996229     0.988586     0.980943     0.973300     0.965657     0.958014     0.950371
      0.942727     0.935084     0.927441     0.919798     0.912155     0.904512     0.896869     0.889226     0.881583     0.873940
      0.866296     0.858653     0.851010     0.843367     0.835724     0.828081     0.820438     0.812795     0.805152     0.797508
      0.789865     0.782222     0.774579     0.766936     0.759293     0.751650     0.744007     0.736364     0.728721     0.721077
      0.713434     0.705791     0.698148     0.690505     0.682862     0.675219     0.667576     0.659933     0.652290     0.644646
      0.637003     0.629360     0.621717     0.614074     0.606431     0.598788     0.591145     0.583502     0.575858     0.568215
      0.560572     0.552929     0.545286     0.537643     0.530000     0.522357     0.514714     0.507071     0.499427     0.491784
      0.484141     0.476498     0.468855     0.461212     0.453569     0.445925     0.438282     0.430639     0.422996     0.415353
      0.407710     0.400067     0.392424     0.384780     0.377137     0.369494     0.361851     0.354208     0.346565     0.338922
      0.331278     0.323635     0.315992     0.308349     0.300706     0.293063     0.285420     0.277777     0.270133     0.262490
      0.254847     0.247204     0.239561     0.231918     0.224275     0.216631     0.208988     0.201345
 NY phased data points follow
   3.27908E+00  1.97122E+00  3.69664E+00  5.05301E+00  1.66752E+00  4.33720E+00  2.45429E+00  2.05291E+00  1.04208E+00  3.49906E+00
   2.94714E+00  3.03289E+00  3.23787E+00  2.87534E+00  3.25115E+00  2.36045E+00  2.30919E+00  3.45550E+00  1.61080E+00  2.23393E+00
   4.20833E+00  1.98177E+00  3.23529E+00  2.62575E+00  3.70331E+00  1.71007E+00  3.47802E+00  3.54080E+00  4.25016E+00  2.85547E+00
   4.98365E+00  2.17920E+00  3.33704E+00  3.00001E+00  2.16749E+00  2.68311E+00  3.28300E+00  4.54515E+00  3.49084E+00  1.27381E+00
   5.47381E-01  1.99257E+00  2.56698E+00  1.94664E+00  2.28595E+00  3.03167E+00  2.90353E+00  2.61119E+00  1.93928E+00  1.09133E+00
   5.22030E+00  3.33816E+00  2.00986E+00  1.82539E+00  3.52789E+00  1.52990E+00  4.30398E+00  1.19616E+00  2.11735E+00  1.15044E+00
   3.15986E+00  1.57870E+00  4.03289E+00  2.35500E+00  7.95364E-01  3.10222E+00  2.60285E+00  3.00001E+00  2.25565E+00  2.48796E+00
   8.27309E-01  2.55605E+00  2.96674E+00  2.14642E+00  3.47191E+00  2.97753E+00  2.99588E+00  1.95546E+00  1.60550E+00  1.85469E+00
   2.08114E+00  3.04507E+00  2.69865E+00  3.15224E+00  2.67842E+00  3.53388E+00  3.39200E+00  2.37274E+00  3.01490E+00  7.42482E-01
   1.59002E+00 -1.51363E+00  1.15535E+00  2.80848E+00  7.51136E-02  1.61638E-01  3.22582E+00  3.08321E+00  1.91029E+00  1.78998E-01
   1.98749E+00  2.65110E+00  2.28545E+00  3.28995E+00  2.10815E+00  3.04017E+00  4.33144E+00  3.45517E+00  4.47000E+00  3.16225E+00
   2.27279E+00  1.42288E+00  2.91381E+00  2.84922E+00  1.43805E+00  4.05391E+00 -3.82746E-01  1.56552E+00  8.11046E-01  1.69057E+00
   1.85364E+00  4.67468E-01  6.81740E-01  7.13664E-01  1.77592E+00  7.46765E-01  1.85530E+00  3.96193E+00  1.29658E+00  2.03450E+00
   1.46861E+00  1.65640E+00  2.94597E+00  2.20688E+00  1.51019E+00  3.03982E+00  2.12301E+00  1.91785E+00 -6.54526E-01  2.37780E+00
   1.66713E+00  1.65443E+00  2.76205E+00  2.38281E+00  1.80177E+00  1.43845E+00  1.65272E+00  3.51554E+00  3.69265E+00  3.60894E+00
   3.58128E+00  1.71391E+00  2.21602E+00  2.37496E-01  2.81125E+00  2.41478E+00 -3.35355E-01  3.77169E+00  2.75268E+00 -6.26278E-01
   1.98380E+00  2.76002E+00  3.15132E+00  2.96535E+00  1.78239E+00  2.11799E+00  4.98130E+00  3.51853E+00  2.44376E+00  1.78339E+00
   2.16176E+00  2.95311E+00 -1.38551E-01  2.23341E+00  1.52961E+00  4.15794E+00  2.06724E+00  1.07133E+00  1.70741E-01  1.24681E+00
   3.12641E+00  1.24950E+00  1.45798E+00  1.74834E+00  1.52393E+00 -1.21329E+00  2.86405E+00  2.60402E+00  1.35681E+00  2.51337E-01
   4.97908E-01  5.24184E-01  2.29614E+00  3.55789E+00  3.30195E-01  3.37919E-01  2.01508E+00  2.27475E+00  2.55194E+00  2.79308E+00
   1.10167E+00 -6.88418E-01  2.86365E+00  3.42088E-02  3.40119E+00  4.82923E-01  2.15354E+00  1.49925E+00  3.55022E-01  3.20379E+00
   8.96772E-01  3.75816E+00  1.56042E+00  2.71160E+00  1.53091E+00  3.56641E+00  3.03332E+00  8.25511E-01  6.75869E-01  3.11073E+00
   1.53196E+00  1.89437E+00  2.98923E+00 -9.83667E-01  2.28436E+00 -8.87222E-01  8.96166E-01  9.65162E-01  4.16737E+00  2.49087E+00
   2.65746E+00  9.36838E-01  7.16994E-01  3.14051E+00 -6.41028E-03  2.14241E+00  8.33959E-01  1.83945E+00  1.50939E+00  1.43873E+00
   1.60452E+00  8.26724E-01  2.22737E+00  3.42609E+00  1.21272E+00  9.36222E-01  5.65192E-01  1.98200E+00 -1.28364E+00  2.26119E+00
   1.46583E+00  4.90711E-01  1.72176E-01 -1.52059E+00  6.71518E-01 -5.97660E-01 -6.41977E-01  6.96662E-01  3.56713E+00  1.78555E+00
   2.43679E+00  2.23152E+00  2.33730E+00 -1.69725E-01  2.41645E+00  2.00635E+00  1.77507E+00  6.85989E-01  1.98317E+00  2.85401E+00
   9.91500E-01  1.58280E+00  2.84271E+00  5.78231E-01  1.23811E+00  1.85968E+00  1.77019E-01  7.86183E-01  2.17701E+00  1.79582E+00
   9.68428E-01  1.20182E+00  4.57501E+00  1.11527E+00  2.32869E+00  1.96633E+00  3.52370E+00  1.82788E+00  1.99276E+00  1.63010E+00
   3.08916E+00  1.89740E+00  2.17741E+00  3.44650E+00  2.89724E+00  2.73320E+00  3.88441E+00  2.42991E+00  2.45922E+00  1.92169E+00
   4.15320E+00  3.20034E+00  2.64685E+00  2.71099E+00  3.91306E+00  2.19120E+00  2.42530E+00  3.27516E+00  3.14403E+00  3.77549E+00
   4.63294E+00  5.00115E+00  4.60459E+00  5.17443E+00  3.48487E+00  6.94648E+00  8.25974E+00  5.92878E+00  4.83428E+00  6.14571E+00
   7.70778E+00  5.91249E+00  5.03071E+00  4.49365E+00  8.58512E+00  6.42667E+00  8.20819E+00  6.80896E+00  7.36228E+00  7.83569E+00
   5.47610E+00  7.37385E+00  5.70070E+00  5.04588E+00  6.72470E+00  5.24293E+00  6.28995E+00  3.91512E+00  3.71507E+00  4.49075E+00
   3.78239E+00  4.04109E+00  5.64952E+00  4.55712E+00  3.14610E+00  3.20896E+00  3.36797E+00  2.91475E+00  2.08998E+00  4.15831E+00
   2.18268E+00  3.54922E+00  2.83075E+00  1.74153E+00  9.64416E-01  4.10676E+00  3.63681E+00  1.85883E+00  3.10319E+00  1.70236E+00
   1.81237E+00  5.01450E+00  3.67792E+00  2.97105E+00  4.96629E+00  2.69387E+00  5.96040E+00  4.02248E+00  3.72508E+00  4.25091E+00
   3.17057E+00  3.74105E+00  2.99008E+00  2.76849E+00  3.85531E+00  5.75275E+00  2.48478E+00  3.34232E+00  2.04623E+00  1.56080E+00
   1.04760E+00  2.75459E+00  5.29111E+00  3.26241E+00  2.29199E+00  4.74423E-01  2.56639E+00  6.89128E-01  1.58593E+00  1.67395E+00
   2.09817E+00  1.41607E+00  3.06519E+00  1.22299E+00  4.37729E+00  1.74569E+00  4.60287E+00  2.96945E+00  1.02243E+00  2.16231E+00
   4.59569E+00  2.65671E+00  3.05753E+00  2.38321E+00  3.26985E+00  3.98112E+00  1.77937E+00  1.71444E+00  1.71126E+00  2.31862E+00
   2.13630E+00  4.02458E+00  1.51576E+00  3.26211E+00  5.81543E-01  1.39077E+00  1.79878E+00  1.70581E+00  1.96955E+00  3.03107E+00
   1.01685E+00  4.79947E-01  2.42586E+00  6.06985E-01  2.00675E+00  3.22458E-01  2.35943E+00  1.81791E+00  4.66992E-01 -7.66854E-01
   1.70169E+00  8.97550E-01  3.58197E-01  1.88833E+00  1.50884E+00  5.53933E-01  3.03397E+00 -5.65599E-01  1.68959E+00  6.15026E-02
   1.85000E+00  3.46531E+00  1.66533E+00  1.83568E+00  5.13753E-01  5.97096E-01  1.17739E+00  9.85928E-01  1.62011E+00  2.69540E+00
   8.41207E-01  1.74577E+00  4.26340E-01  2.83261E+00  9.96284E-01  2.84435E+00 -1.03481E+00  1.65021E+00  1.52073E+00  2.59021E+00
   3.13639E-01  1.20851E+00  3.20012E+00  1.27266E+00  2.49124E+00  1.01516E+00  1.14416E+00  1.61303E+00  3.62340E+00  2.61325E+00
   2.12608E+00 -9.57546E-02  4.55118E+00  2.73387E+00  2.31814E+00 -7.82890E-01  5.29088E-01  7.85796E-01  1.20281E+00  1.52004E+00
   3.34275E+00 -8.34575E-01  5.88237E-01  1.21094E+00 -1.34131E+00  3.49828E-01  5.08100E-01 -1.35741E+00  7.31553E-01 -7.31018E-02
   1.85519E+00 -7.73000E-02  1.90934E-01 -6.86407E-02  5.58422E-03 -1.22667E+00  3.69189E-01  3.03493E-01
 NY points of the fit to the data follow
   2.88862E+00  2.70173E+00  2.53607E+00  2.41420E+00  2.34761E+00  2.31764E+00  2.31587E+00  2.34559E+00  2.38834E+00  2.42595E+00
   2.45695E+00  2.48118E+00  2.49587E+00  2.49885E+00  2.48978E+00  2.46955E+00  2.44193E+00  2.41310E+00  2.38911E+00  2.37594E+00
   2.38086E+00  2.40904E+00  2.46717E+00  2.55693E+00  2.66702E+00  2.78577E+00  2.90921E+00  3.03493E+00  3.15821E+00  3.27395E+00
   3.38210E+00  3.48390E+00  3.57521E+00  3.64048E+00  3.65604E+00  3.60133E+00  3.46961E+00  3.25945E+00  2.98673E+00  2.70690E+00
   2.50866E+00  2.44697E+00  2.46721E+00  2.52965E+00  2.62729E+00  2.74572E+00  2.85949E+00  2.95522E+00  3.03345E+00  3.08924E+00
   3.11286E+00  3.09250E+00  3.01528E+00  2.88213E+00  2.70254E+00  2.49314E+00  2.28483E+00  2.12603E+00  2.06494E+00  2.10563E+00
   2.19591E+00  2.28520E+00  2.35318E+00  2.39627E+00  2.41259E+00  2.40161E+00  2.36614E+00  2.31352E+00  2.25376E+00  2.20045E+00
   2.17531E+00  2.18886E+00  2.23020E+00  2.28329E+00  2.32712E+00  2.34935E+00  2.34551E+00  2.31743E+00  2.27100E+00  2.21049E+00
   2.13827E+00  2.05851E+00  1.97906E+00  1.91133E+00  1.85209E+00  1.79592E+00  1.74228E+00  1.69254E+00  1.64832E+00  1.61049E+00
   1.58119E+00  1.56441E+00  1.56732E+00  1.60092E+00  1.68365E+00  1.82585E+00  2.01631E+00  2.22324E+00  2.40973E+00  2.56379E+00
   2.69159E+00  2.80492E+00  2.90925E+00  3.00455E+00  3.08846E+00  3.15502E+00  3.18538E+00  3.15485E+00  3.04305E+00  2.83964E+00
   2.56011E+00  2.24075E+00  1.93510E+00  1.71341E+00  1.62975E+00  1.62468E+00  1.63237E+00  1.64510E+00  1.66422E+00  1.69152E+00
   1.72559E+00  1.76339E+00  1.80343E+00  1.84769E+00  1.90000E+00  1.96268E+00  2.03229E+00  2.10039E+00  2.15772E+00  2.19701E+00
   2.21301E+00  2.20271E+00  2.16782E+00  2.11245E+00  2.04169E+00  1.96333E+00  1.88713E+00  1.82458E+00  1.78337E+00  1.75083E+00
   1.72445E+00  1.71321E+00  1.72629E+00  1.76939E+00  1.84080E+00  1.91907E+00  1.97002E+00  1.98037E+00  1.95334E+00  1.89953E+00
   1.83824E+00  1.78493E+00  1.74663E+00  1.72463E+00  1.70948E+00  1.69735E+00  1.68727E+00  1.67926E+00  1.67371E+00  1.67148E+00
   1.67275E+00  1.67520E+00  1.67697E+00  1.67714E+00  1.67523E+00  1.67114E+00  1.66564E+00  1.66087E+00  1.65731E+00  1.65424E+00
   1.65119E+00  1.64780E+00  1.64385E+00  1.63887E+00  1.63229E+00  1.62370E+00  1.61229E+00  1.59752E+00  1.57997E+00  1.56091E+00
   1.54238E+00  1.52738E+00  1.51934E+00  1.52101E+00  1.53246E+00  1.55036E+00  1.57047E+00  1.59008E+00  1.60755E+00  1.62152E+00
   1.63304E+00  1.64501E+00  1.65977E+00  1.67579E+00  1.68751E+00  1.68828E+00  1.67248E+00  1.64377E+00  1.61006E+00  1.58081E+00
   1.56812E+00  1.58270E+00  1.62659E+00  1.69180E+00  1.76405E+00  1.82949E+00  1.87893E+00  1.90634E+00  1.90681E+00  1.88649E+00
   1.86313E+00  1.84419E+00  1.83358E+00  1.83326E+00  1.84233E+00  1.86253E+00  1.89723E+00  1.93683E+00  1.95846E+00  1.94132E+00
   1.86481E+00  1.72571E+00  1.55263E+00  1.37982E+00  1.24086E+00  1.17382E+00  1.21022E+00  1.35089E+00  1.54399E+00  1.75298E+00
   1.94710E+00  2.09214E+00  2.15736E+00  2.13532E+00  2.06254E+00  1.98711E+00  1.92857E+00  1.89062E+00  1.87583E+00  1.87634E+00
   1.87806E+00  1.86254E+00  1.81478E+00  1.74206E+00  1.66889E+00  1.61390E+00  1.58944E+00  1.60401E+00  1.66220E+00  1.74673E+00
   1.82340E+00  1.87360E+00  1.89673E+00  1.89237E+00  1.86512E+00  1.83719E+00  1.82592E+00  1.83381E+00  1.85445E+00  1.88212E+00
   1.90638E+00  1.92010E+00  1.92556E+00  1.92954E+00  1.93778E+00  1.94954E+00  1.96173E+00  1.96752E+00  1.96018E+00  1.93746E+00
   1.90906E+00  1.88465E+00  1.86846E+00  1.86076E+00  1.86246E+00  1.87267E+00  1.88524E+00  1.89948E+00  1.91562E+00  1.93039E+00
   1.94131E+00  1.94726E+00  1.94842E+00  1.94742E+00  1.94920E+00  1.95664E+00  1.96966E+00  1.98792E+00  2.01119E+00  2.03897E+00
   2.07055E+00  2.10520E+00  2.14326E+00  2.18573E+00  2.23315E+00  2.28591E+00  2.34437E+00  2.40876E+00  2.47902E+00  2.55500E+00
   2.63668E+00  2.72407E+00  2.81699E+00  2.91538E+00  3.01936E+00  3.12905E+00  3.24470E+00  3.36666E+00  3.49542E+00  3.63153E+00
   3.77558E+00  3.92810E+00  4.08947E+00  4.25983E+00  4.43897E+00  4.62622E+00  4.82050E+00  5.02073E+00  5.22599E+00  5.43187E+00
   5.62954E+00  5.80895E+00  5.96254E+00  6.08619E+00  6.17611E+00  6.22722E+00  6.23693E+00  6.20698E+00  6.14007E+00  6.03705E+00
   5.89654E+00  5.72057E+00  5.51849E+00  5.30475E+00  5.09619E+00  4.90968E+00  4.76066E+00  4.66251E+00  4.61921E+00  4.60557E+00
   4.59054E+00  4.55390E+00  4.48072E+00  4.37006E+00  4.22794E+00  4.06338E+00  3.90211E+00  3.76296E+00  3.64080E+00  3.52496E+00
   3.39757E+00  3.24739E+00  3.08323E+00  2.92936E+00  2.81701E+00  2.77837E+00  2.84075E+00  3.02253E+00  3.30885E+00  3.60682E+00
   3.81887E+00  3.92758E+00  3.92750E+00  3.82042E+00  3.62284E+00  3.38138E+00  3.17882E+00  3.03945E+00  2.92934E+00  2.83358E+00
   2.74692E+00  2.66723E+00  2.59363E+00  2.52582E+00  2.46381E+00  2.40774E+00  2.35781E+00  2.31427E+00  2.27735E+00  2.24730E+00
   2.22430E+00  2.20853E+00  2.20010E+00  2.19912E+00  2.20562E+00  2.21956E+00  2.24082E+00  2.26916E+00  2.30423E+00  2.34552E+00
   2.39237E+00  2.44393E+00  2.49915E+00  2.55681E+00  2.61552E+00  2.67374E+00  2.72981E+00  2.78204E+00  2.82868E+00  2.86811E+00
   2.89881E+00  2.91946E+00  2.92902E+00  2.92675E+00  2.91226E+00  2.88553E+00  2.84691E+00  2.79711E+00  2.73713E+00  2.66824E+00
   2.59192E+00  2.50975E+00  2.42340E+00  2.33450E+00  2.24462E+00  2.15520E+00  2.06752E+00  1.98266E+00  1.90151E+00  1.82472E+00
   1.75279E+00  1.68597E+00  1.62440E+00  1.56805E+00  1.51679E+00  1.47041E+00  1.42861E+00  1.39107E+00  1.35744E+00  1.32738E+00
   1.30053E+00  1.27656E+00  1.25515E+00  1.23602E+00  1.21890E+00  1.20354E+00  1.18975E+00  1.17732E+00  1.16609E+00  1.15591E+00
   1.14667E+00  1.13824E+00  1.13054E+00  1.12346E+00  1.11696E+00  1.11095E+00  1.10539E+00  1.10023E+00  1.09543E+00  1.09094E+00
   1.08673E+00  1.08279E+00  1.07908E+00  1.07558E+00  1.07226E+00  1.06913E+00  1.06614E+00  1.06331E+00  1.06060E+00  1.05802E+00
   1.05555E+00  1.05317E+00  1.05089E+00  1.04870E+00  1.04659E+00  1.04455E+00  1.04257E+00  1.04066E+00  1.03881E+00  1.03701E+00
   1.03526E+00  1.03356E+00  1.03191E+00  1.03029E+00  1.02872E+00  1.02718E+00  1.02568E+00  1.02420E+00  1.02276E+00  1.02135E+00
   1.01997E+00  1.01861E+00  1.01728E+00  1.01598E+00  1.01469E+00  1.01343E+00  1.01220E+00  1.01098E+00  1.00979E+00  1.00862E+00
   1.00747E+00  1.00635E+00  1.00525E+00  1.00417E+00  1.00311E+00  1.00208E+00  1.00108E+00  1.00011E+00
 NY background values follow
     1.769E+00    1.768E+00    1.766E+00    1.765E+00    1.763E+00    1.762E+00    1.761E+00    1.759E+00    1.758E+00    1.756E+00
     1.755E+00    1.753E+00    1.752E+00    1.751E+00    1.749E+00    1.748E+00    1.746E+00    1.745E+00    1.743E+00    1.742E+00
     1.741E+00    1.739E+00    1.738E+00    1.736E+00    1.735E+00    1.733E+00    1.732E+00    1.731E+00    1.729E+00    1.728E+00
     1.726E+00    1.725E+00    1.723E+00    1.722E+00    1.721E+00    1.719E+00    1.718E+00    1.716E+00    1.715E+00    1.713E+00
     1.712E+00    1.711E+00    1.709E+00    1.708E+00    1.706E+00    1.705E+00    1.703E+00    1.702E+00    1.701E+00    1.699E+00
     1.698E+00    1.696E+00    1.695E+00    1.693E+00    1.692E+00    1.691E+00    1.689E+00    1.688E+00    1.686E+00    1.685E+00
     1.683E+00    1.682E+00    1.681E+00    1.679E+00    1.678E+00    1.676E+00    1.675E+00    1.673E+00    1.672E+00    1.671E+00
     1.669E+00    1.668E+00    1.666E+00    1.665E+00    1.663E+00    1.662E+00    1.661E+00    1.659E+00    1.658E+00    1.656E+00
     1.655E+00    1.653E+00    1.652E+00    1.651E+00    1.649E+00    1.648E+00    1.646E+00    1.645E+00    1.643E+00    1.642E+00
     1.641E+00    1.639E+00    1.638E+00    1.636E+00    1.635E+00    1.633E+00    1.632E+00    1.631E+00    1.629E+00    1.628E+00
     1.626E+00    1.625E+00    1.623E+00    1.622E+00    1.621E+00    1.619E+00    1.618E+00    1.616E+00    1.615E+00    1.613E+00
     1.612E+00    1.611E+00    1.609E+00    1.608E+00    1.606E+00    1.605E+00    1.604E+00    1.602E+00    1.601E+00    1.599E+00
     1.598E+00    1.596E+00    1.595E+00    1.594E+00    1.592E+00    1.591E+00    1.589E+00    1.588E+00    1.586E+00    1.585E+00
     1.584E+00    1.582E+00    1.581E+00    1.579E+00    1.578E+00    1.576E+00    1.575E+00    1.574E+00    1.572E+00    1.571E+00
     1.569E+00    1.568E+00    1.566E+00    1.565E+00    1.564E+00    1.562E+00    1.561E+00    1.559E+00    1.558E+00    1.556E+00
     1.555E+00    1.554E+00    1.552E+00    1.551E+00    1.549E+00    1.548E+00    1.546E+00    1.545E+00    1.544E+00    1.542E+00
     1.541E+00    1.539E+00    1.538E+00    1.536E+00    1.535E+00    1.534E+00    1.532E+00    1.531E+00    1.529E+00    1.528E+00
     1.526E+00    1.525E+00    1.524E+00    1.522E+00    1.521E+00    1.519E+00    1.518E+00    1.516E+00    1.515E+00    1.514E+00
     1.512E+00    1.511E+00    1.509E+00    1.508E+00    1.506E+00    1.505E+00    1.504E+00    1.502E+00    1.501E+00    1.499E+00
     1.498E+00    1.497E+00    1.495E+00    1.494E+00    1.492E+00    1.491E+00    1.489E+00    1.488E+00    1.487E+00    1.485E+00
     1.484E+00    1.482E+00    1.481E+00    1.479E+00    1.478E+00    1.477E+00    1.475E+00    1.474E+00    1.472E+00    1.471E+00
     1.469E+00    1.468E+00    1.467E+00    1.465E+00    1.464E+00    1.462E+00    1.461E+00    1.459E+00    1.458E+00    1.457E+00
     1.455E+00    1.454E+00    1.452E+00    1.451E+00    1.449E+00    1.448E+00    1.447E+00    1.445E+00    1.444E+00    1.442E+00
     1.441E+00    1.439E+00    1.438E+00    1.437E+00    1.435E+00    1.434E+00    1.432E+00    1.431E+00    1.429E+00    1.428E+00
     1.427E+00    1.425E+00    1.424E+00    1.422E+00    1.421E+00    1.419E+00    1.418E+00    1.417E+00    1.415E+00    1.414E+00
     1.412E+00    1.411E+00    1.410E+00    1.408E+00    1.407E+00    1.405E+00    1.404E+00    1.402E+00    1.401E+00    1.400E+00
     1.398E+00    1.397E+00    1.395E+00    1.394E+00    1.392E+00    1.391E+00    1.390E+00    1.388E+00    1.387E+00    1.385E+00
     1.384E+00    1.382E+00    1.381E+00    1.380E+00    1.378E+00    1.377E+00    1.375E+00    1.374E+00    1.372E+00    1.371E+00
     1.370E+00    1.368E+00    1.367E+00    1.365E+00    1.364E+00    1.362E+00    1.361E+00    1.360E+00    1.358E+00    1.357E+00
     1.355E+00    1.354E+00    1.352E+00    1.351E+00    1.350E+00    1.348E+00    1.347E+00    1.345E+00    1.344E+00    1.343E+00
     1.341E+00    1.340E+00    1.338E+00    1.337E+00    1.335E+00    1.334E+00    1.333E+00    1.331E+00    1.330E+00    1.328E+00
     1.327E+00    1.325E+00    1.324E+00    1.323E+00    1.321E+00    1.320E+00    1.318E+00    1.317E+00    1.315E+00    1.314E+00
     1.313E+00    1.311E+00    1.310E+00    1.308E+00    1.307E+00    1.305E+00    1.304E+00    1.303E+00    1.301E+00    1.300E+00
     1.298E+00    1.297E+00    1.295E+00    1.294E+00    1.293E+00    1.291E+00    1.290E+00    1.288E+00    1.287E+00    1.285E+00
     1.284E+00    1.283E+00    1.281E+00    1.280E+00    1.278E+00    1.277E+00    1.276E+00    1.274E+00    1.273E+00    1.271E+00
     1.270E+00    1.268E+00    1.267E+00    1.266E+00    1.264E+00    1.263E+00    1.261E+00    1.260E+00    1.258E+00    1.257E+00
     1.256E+00    1.254E+00    1.253E+00    1.251E+00    1.250E+00    1.248E+00    1.247E+00    1.246E+00    1.244E+00    1.243E+00
     1.241E+00    1.240E+00    1.238E+00    1.237E+00    1.236E+00    1.234E+00    1.233E+00    1.231E+00    1.230E+00    1.228E+00
     1.227E+00    1.226E+00    1.224E+00    1.223E+00    1.221E+00    1.220E+00    1.219E+00    1.217E+00    1.216E+00    1.214E+00
     1.213E+00    1.211E+00    1.210E+00    1.209E+00    1.207E+00    1.206E+00    1.204E+00    1.203E+00    1.201E+00    1.200E+00
     1.199E+00    1.197E+00    1.196E+00    1.194E+00    1.193E+00    1.191E+00    1.190E+00    1.189E+00    1.187E+00    1.186E+00
     1.184E+00    1.183E+00    1.181E+00    1.180E+00    1.179E+00    1.177E+00    1.176E+00    1.174E+00    1.173E+00    1.171E+00
     1.170E+00    1.169E+00    1.167E+00    1.166E+00    1.164E+00    1.163E+00    1.162E+00    1.160E+00    1.159E+00    1.157E+00
     1.156E+00    1.154E+00    1.153E+00    1.152E+00    1.150E+00    1.149E+00    1.147E+00    1.146E+00    1.144E+00    1.143E+00
     1.142E+00    1.140E+00    1.139E+00    1.137E+00    1.136E+00    1.134E+00    1.133E+00    1.132E+00    1.130E+00    1.129E+00
     1.127E+00    1.126E+00    1.124E+00    1.123E+00    1.122E+00    1.120E+00    1.119E+00    1.117E+00    1.116E+00    1.115E+00
     1.113E+00    1.112E+00    1.110E+00    1.109E+00    1.107E+00    1.106E+00    1.105E+00    1.103E+00    1.102E+00    1.100E+00
     1.099E+00    1.097E+00    1.096E+00    1.095E+00    1.093E+00    1.092E+00    1.090E+00    1.089E+00    1.087E+00    1.086E+00
     1.085E+00    1.083E+00    1.082E+00    1.080E+00    1.079E+00    1.077E+00    1.076E+00    1.075E+00    1.073E+00    1.072E+00
     1.070E+00    1.069E+00    1.067E+00    1.066E+00    1.065E+00    1.063E+00    1.062E+00    1.060E+00
 Ala      Conc. = 3.53E+01
