 LCModel (Version 6.3-1L) Copyright: S.W. Provencher.          Ref.: Magn. Reson. Med. 30:672-679 (1993).                
 Slice#1 Row#7 Col#1  PD_24_press_2_raw_act
 36 lines in following concentration table = NCONC+1
    Conc.  %SD /Cr+PCr  Metabolite                                         
 1.22E+04   7%   6.837 Ala                                                 
    0.000 999%   0.000 Asp                                                 
    0.000 999%   0.000 Cr                                                  
 1.78E+03   8%   1.000 PCr                                                 
    1.963 999% 1.1E-03 GABA                                                
   28.801 899% 1.6E-02 Glc                                                 
 3.87E+03  36%   2.173 Gln                                                 
    0.000 999%   0.000 Glu                                                 
  432.957  15%   0.243 GPC                                                 
    0.000 999%   0.000 PCh                                                 
 1.72E+03  16%   0.969 GSH                                                 
 3.71E+03  18%   2.086 Ins                                                 
    0.000 999%   0.000 Lac                                                 
 1.73E+03  10%   0.973 NAA                                                 
    0.000 999%   0.000 NAAG                                                
   60.184 104% 3.4E-02 Scyllo                                              
  131.163 287% 7.4E-02 Tau                                                 
    7.381 999% 4.1E-03 -CrCH2                                              
  432.957  15%   0.243 GPC+PCh                                             
 1.73E+03  10%   0.973 NAA+NAAG                                            
 1.78E+03   8%   1.000 Cr+PCr                                              
 3.87E+03  36%   2.173 Glu+Gln                                             
    0.000 999%   0.000 Lip13a                                              
    0.000 999%   0.000 Lip13b                                              
    0.000 999%   0.000 Lip09                                               
 3.48E+03   6%   1.955 MM09                                                
    0.000 999%   0.000 Lip20                                               
 5.22E+03   6%   2.932 MM20                                                
 1.04E+03   6%   0.587 MM12                                                
 2.62E+03   6%   1.470 MM14                                                
 1.31E+03   6%   0.735 MM17                                                
    0.000 999%   0.000 Lip13a+Lip13b                                       
 3.66E+03   6%   2.057 MM14+Lip13a+Lip13b+MM12                             
 3.48E+03   6%   1.955 MM09+Lip09                                          
 5.22E+03   6%   2.932 MM20+Lip20                                          
   6 lines in following misc. output table
  FWHM = 0.168 ppm    S/N =   5                                            
  Data shift = 0.038 ppm                                                   
  Ph:  33 deg     -12.6 deg/ppm                                            
  alphaB,S = 7.5E+00,   5.1E+02                                            
    8 spline knots.   Ns = 9(2)                                            
  (17) 2 infls.   ( 1) 1 extrs.                                            
  498 points on ppm-axis = NY
      4.000000     3.992357     3.984714     3.977070     3.969427     3.961784     3.954141     3.946497     3.938854     3.931211
      3.923568     3.915925     3.908281     3.900638     3.892995     3.885352     3.877708     3.870065     3.862422     3.854779
      3.847136     3.839492     3.831849     3.824206     3.816563     3.808919     3.801276     3.793633     3.785990     3.778347
      3.770703     3.763060     3.755417     3.747774     3.740130     3.732487     3.724844     3.717201     3.709558     3.701914
      3.694271     3.686628     3.678985     3.671341     3.663698     3.656055     3.648412     3.640769     3.633125     3.625482
      3.617839     3.610196     3.602552     3.594909     3.587266     3.579623     3.571980     3.564336     3.556693     3.549050
      3.541407     3.533763     3.526120     3.518477     3.510834     3.503191     3.495547     3.487904     3.480261     3.472618
      3.464974     3.457331     3.449688     3.442045     3.434402     3.426758     3.419115     3.411472     3.403829     3.396185
      3.388542     3.380899     3.373256     3.365613     3.357969     3.350326     3.342683     3.335040     3.327396     3.319753
      3.312110     3.304467     3.296824     3.289180     3.281537     3.273894     3.266251     3.258607     3.250964     3.243321
      3.235678     3.228034     3.220391     3.212748     3.205105     3.197462     3.189818     3.182175     3.174532     3.166889
      3.159245     3.151602     3.143959     3.136316     3.128673     3.121029     3.113386     3.105743     3.098100     3.090456
      3.082813     3.075170     3.067527     3.059884     3.052240     3.044597     3.036954     3.029311     3.021667     3.014024
      3.006381     2.998738     2.991095     2.983451     2.975808     2.968165     2.960522     2.952878     2.945235     2.937592
      2.929949     2.922306     2.914662     2.907019     2.899376     2.891733     2.884089     2.876446     2.868803     2.861160
      2.853517     2.845873     2.838230     2.830587     2.822944     2.815300     2.807657     2.800014     2.792371     2.784728
      2.777084     2.769441     2.761798     2.754155     2.746511     2.738868     2.731225     2.723582     2.715939     2.708295
      2.700652     2.693009     2.685366     2.677722     2.670079     2.662436     2.654793     2.647150     2.639506     2.631863
      2.624220     2.616577     2.608933     2.601290     2.593647     2.586004     2.578361     2.570717     2.563074     2.555431
      2.547788     2.540144     2.532501     2.524858     2.517215     2.509572     2.501928     2.494285     2.486642     2.478999
      2.471355     2.463712     2.456069     2.448426     2.440783     2.433139     2.425496     2.417853     2.410210     2.402566
      2.394923     2.387280     2.379637     2.371994     2.364350     2.356707     2.349064     2.341421     2.333777     2.326134
      2.318491     2.310848     2.303205     2.295561     2.287918     2.280275     2.272632     2.264988     2.257345     2.249702
      2.242059     2.234416     2.226772     2.219129     2.211486     2.203843     2.196199     2.188556     2.180913     2.173270
      2.165627     2.157983     2.150340     2.142697     2.135054     2.127410     2.119767     2.112124     2.104481     2.096838
      2.089194     2.081551     2.073908     2.066265     2.058621     2.050978     2.043335     2.035692     2.028049     2.020405
      2.012762     2.005119     1.997476     1.989833     1.982190     1.974546     1.966903     1.959260     1.951617     1.943974
      1.936331     1.928688     1.921045     1.913402     1.905759     1.898115     1.890472     1.882829     1.875186     1.867543
      1.859900     1.852257     1.844614     1.836971     1.829327     1.821684     1.814041     1.806398     1.798755     1.791112
      1.783469     1.775826     1.768183     1.760540     1.752896     1.745253     1.737610     1.729967     1.722324     1.714681
      1.707038     1.699395     1.691752     1.684108     1.676465     1.668822     1.661179     1.653536     1.645893     1.638250
      1.630607     1.622964     1.615321     1.607677     1.600034     1.592391     1.584748     1.577105     1.569462     1.561819
      1.554176     1.546533     1.538890     1.531246     1.523603     1.515960     1.508317     1.500674     1.493031     1.485388
      1.477745     1.470102     1.462458     1.454815     1.447172     1.439529     1.431886     1.424243     1.416600     1.408957
      1.401314     1.393671     1.386027     1.378384     1.370741     1.363098     1.355455     1.347812     1.340169     1.332526
      1.324883     1.317240     1.309596     1.301953     1.294310     1.286667     1.279024     1.271381     1.263738     1.256095
      1.248452     1.240808     1.233165     1.225522     1.217879     1.210236     1.202593     1.194950     1.187307     1.179664
      1.172021     1.164377     1.156734     1.149091     1.141448     1.133805     1.126162     1.118519     1.110876     1.103233
      1.095590     1.087946     1.080303     1.072660     1.065017     1.057374     1.049731     1.042088     1.034445     1.026802
      1.019158     1.011515     1.003872     0.996229     0.988586     0.980943     0.973300     0.965657     0.958014     0.950371
      0.942727     0.935084     0.927441     0.919798     0.912155     0.904512     0.896869     0.889226     0.881583     0.873940
      0.866296     0.858653     0.851010     0.843367     0.835724     0.828081     0.820438     0.812795     0.805152     0.797508
      0.789865     0.782222     0.774579     0.766936     0.759293     0.751650     0.744007     0.736364     0.728721     0.721077
      0.713434     0.705791     0.698148     0.690505     0.682862     0.675219     0.667576     0.659933     0.652290     0.644646
      0.637003     0.629360     0.621717     0.614074     0.606431     0.598788     0.591145     0.583502     0.575858     0.568215
      0.560572     0.552929     0.545286     0.537643     0.530000     0.522357     0.514714     0.507071     0.499427     0.491784
      0.484141     0.476498     0.468855     0.461212     0.453569     0.445925     0.438282     0.430639     0.422996     0.415353
      0.407710     0.400067     0.392424     0.384780     0.377137     0.369494     0.361851     0.354208     0.346565     0.338922
      0.331278     0.323635     0.315992     0.308349     0.300706     0.293063     0.285420     0.277777     0.270133     0.262490
      0.254847     0.247204     0.239561     0.231918     0.224275     0.216631     0.208988     0.201345
 NY phased data points follow
   3.99368E+01  3.85667E+01  3.58021E+01  4.01218E+01  3.53984E+01  3.73195E+01  3.69896E+01  3.80900E+01  3.40379E+01  3.86062E+01
   3.80800E+01  4.21684E+01  3.90845E+01  3.91283E+01  3.40193E+01  3.36368E+01  3.90712E+01  3.39925E+01  3.41476E+01  3.64049E+01
   4.10221E+01  3.95386E+01  3.17358E+01  3.46910E+01  3.96501E+01  3.58491E+01  3.19043E+01  3.49058E+01  3.55338E+01  3.41163E+01
   3.66458E+01  3.42226E+01  3.54116E+01  3.25027E+01  3.50752E+01  3.37998E+01  3.71304E+01  3.06049E+01  3.89004E+01  3.03231E+01
   3.01488E+01  3.69168E+01  3.59203E+01  3.34123E+01  3.15395E+01  3.67351E+01  4.12343E+01  3.45028E+01  3.46708E+01  3.22906E+01
   3.34196E+01  2.93584E+01  2.32547E+01  2.42924E+01  2.62872E+01  2.56956E+01  2.37897E+01  3.09932E+01  3.20885E+01  3.25225E+01
   2.61388E+01  2.31558E+01  2.30436E+01  2.02161E+01  2.48049E+01  2.22892E+01  1.99960E+01  2.52892E+01  2.53084E+01  2.77902E+01
   2.15960E+01  2.47702E+01  1.87937E+01  2.07654E+01  2.72891E+01  1.89908E+01  1.81336E+01  1.98755E+01  2.20292E+01  1.77949E+01
   1.64726E+01  1.91369E+01  1.35207E+01  1.73752E+01  2.03726E+01  1.56002E+01  1.76591E+01  1.85589E+01  2.59138E+01  2.55580E+01
   2.51085E+01  2.94485E+01  3.25546E+01  3.41981E+01  3.13099E+01  2.95141E+01  2.37044E+01  2.48247E+01  2.26330E+01  3.04480E+01
   2.43020E+01  2.76048E+01  2.59162E+01  2.85213E+01  2.59232E+01  2.98874E+01  2.69310E+01  1.72908E+01  2.11640E+01  2.15385E+01
   2.06301E+01  2.39267E+01  2.76365E+01  3.20071E+01  3.48229E+01  4.09071E+01  4.25333E+01  4.00817E+01  4.02408E+01  3.86385E+01
   3.81795E+01  3.81430E+01  4.00457E+01  3.26563E+01  4.21557E+01  3.96330E+01  3.71200E+01  4.61614E+01  4.04129E+01  4.35820E+01
   3.52812E+01  2.82601E+01  3.66410E+01  2.28986E+01  2.94925E+01  2.97650E+01  3.14751E+01  2.66064E+01  3.00051E+01  2.63405E+01
   2.38063E+01  2.87900E+01  3.54437E+01  2.29704E+01  2.47719E+01  3.24967E+01  2.75734E+01  2.49442E+01  2.81918E+01  2.95523E+01
   2.51237E+01  2.77900E+01  2.52335E+01  2.45523E+01  2.45518E+01  2.61637E+01  2.46854E+01  2.21715E+01  1.64118E+01  1.47637E+01
   1.45623E+01  2.03631E+01  1.44989E+01  1.06352E+01  9.78539E+00  1.01880E+01  3.89921E+00  8.60382E+00  2.50523E+00  7.41146E+00
   1.42099E+00  5.45292E+00  1.15169E+01  6.86927E+00  5.04149E+00  7.05528E+00  8.77384E+00  7.43402E+00  2.40767E+00  6.58332E+00
   1.44142E+01  9.14425E+00  5.75629E+00  6.48575E+00  1.13222E+01  1.22978E+01  9.46107E+00  3.75632E+00  6.94484E+00  6.65765E+00
   5.64733E+00  1.62073E+01  1.10837E+01  9.69597E+00  1.26881E+01  8.54478E+00  9.96760E+00  1.21308E+01  8.86692E+00  1.39462E+01
   8.75371E+00  1.35492E+01  1.33048E+01  1.53499E+01  1.48604E+01  2.18343E+01  1.75520E+01  1.55054E+01  1.64911E+01  1.53672E+01
   1.04860E+01  1.08063E+01  1.31096E+01  2.16089E+01  2.87276E+01  1.91224E+01  1.74991E+01  2.00692E+01  2.56775E+01  2.18594E+01
   2.63487E+01  1.81150E+01  2.36941E+01  2.18124E+01  2.11067E+01  2.26598E+01  1.96716E+01  1.96182E+01  2.06604E+01  2.14429E+01
   1.96477E+01  1.94721E+01  1.40744E+01  9.63115E+00  1.78564E+01  8.25054E+00  1.19489E+01  7.36641E+00  1.29468E+01  1.19742E+01
   1.08303E+01  1.42186E+01  1.75803E+01  2.05429E+01  2.43907E+01  3.38493E+01  4.11911E+01  4.72224E+01  4.63397E+01  4.85508E+01
   5.03008E+01  5.43193E+01  4.02455E+01  4.69796E+01  4.63382E+01  4.36391E+01  5.05415E+01  4.85749E+01  5.37100E+01  4.29374E+01
   4.45277E+01  4.52884E+01  4.70675E+01  3.88976E+01  4.20011E+01  3.45111E+01  3.99239E+01  3.76656E+01  3.68736E+01  2.76265E+01
   3.07203E+01  3.08350E+01  2.92435E+01  3.13521E+01  3.16488E+01  2.18950E+01  2.40771E+01  2.73187E+01  2.46093E+01  2.16011E+01
   2.29870E+01  2.63101E+01  2.19019E+01  2.10913E+01  2.22387E+01  1.87371E+01  2.32171E+01  1.66905E+01  1.74975E+01  1.82150E+01
   2.22931E+01  1.17436E+01  2.44403E+01  1.10794E+01  2.01832E+01  1.27135E+01  1.73389E+01  1.91390E+01  1.32468E+01  1.56588E+01
   1.51141E+01  2.66316E+01  2.53803E+01  1.64628E+01  2.87596E+01  3.34751E+01  3.52265E+01  3.91539E+01  4.40333E+01  4.50092E+01
   4.72873E+01  5.53056E+01  5.97229E+01  5.93528E+01  6.75306E+01  6.18269E+01  6.44187E+01  6.63885E+01  6.19450E+01  6.59427E+01
   6.31290E+01  5.69585E+01  6.36705E+01  6.31704E+01  5.80420E+01  5.40293E+01  5.16961E+01  4.77271E+01  4.76262E+01  4.53436E+01
   3.87089E+01  4.58350E+01  4.61832E+01  4.36441E+01  3.94131E+01  3.95887E+01  3.82311E+01  2.97141E+01  2.81676E+01  2.88371E+01
   3.43680E+01  3.65599E+01  3.18103E+01  3.42960E+01  3.21777E+01  2.82357E+01  2.69700E+01  2.62690E+01  3.02466E+01  3.05730E+01
   2.97118E+01  2.85098E+01  2.95956E+01  2.75632E+01  3.32282E+01  2.59292E+01  2.47334E+01  3.05504E+01  1.99991E+01  2.20820E+01
   2.50380E+01  2.34510E+01  2.11585E+01  1.81682E+01  1.89702E+01  2.03841E+01  2.24670E+01  2.44105E+01  2.11917E+01  2.49315E+01
   2.36756E+01  2.16947E+01  2.65303E+01  2.12055E+01  1.90744E+01  2.50574E+01  1.94193E+01  2.44888E+01  2.58451E+01  2.50920E+01
   2.53106E+01  2.63650E+01  2.80646E+01  2.61678E+01  2.98849E+01  2.16105E+01  2.20056E+01  2.09470E+01  2.10551E+01  2.14730E+01
   1.61668E+01  2.69722E+01  1.74610E+01  2.08914E+01  2.07525E+01  2.20524E+01  2.21054E+01  2.19837E+01  1.71786E+01  2.18790E+01
   1.73199E+01  1.84699E+01  2.25105E+01  2.14464E+01  2.03638E+01  1.96665E+01  2.12180E+01  1.88947E+01  1.89454E+01  1.69722E+01
   2.15731E+01  1.50470E+01  1.96998E+01  1.92088E+01  1.79447E+01  1.32352E+01  1.53109E+01  1.72849E+01  2.32450E+01  1.73904E+01
   1.92991E+01  1.18069E+01  1.99301E+01  1.74577E+01  1.67624E+01  1.57585E+01  2.12909E+01  1.84579E+01  2.10083E+01  1.37082E+01
   1.28728E+01  1.71502E+01  1.65632E+01  1.34467E+01  1.54678E+01  1.58468E+01  1.72638E+01  1.92110E+01  1.96467E+01  1.51029E+01
   1.66277E+01  1.54785E+01  2.02598E+01  1.43444E+01  1.30655E+01  1.13972E+01  1.89969E+01  8.09993E+00  2.12179E+01  2.09450E+01
   1.96023E+01  1.63380E+01  1.83128E+01  1.70950E+01  1.67446E+01  1.57597E+01  1.75024E+01  1.78388E+01  1.76916E+01  1.72512E+01
   1.45687E+01  1.36713E+01  2.19972E+01  8.12052E+00  2.44435E+01  1.94475E+01  1.21340E+01  1.53046E+01  1.77649E+01  1.44059E+01
   1.74367E+01  1.12646E+01  1.38955E+01  1.30559E+01  1.35752E+01  1.65640E+01  1.56936E+01  1.54112E+01  1.43379E+01  1.08349E+01
   1.45285E+01  1.38257E+01  1.24398E+01  1.67635E+01  1.62267E+01  1.42773E+01  1.64168E+01  1.67766E+01  1.06157E+01  1.16671E+01
   1.32116E+01  1.62194E+01  1.37791E+01  1.44570E+01  1.46247E+01  1.39986E+01  1.62761E+01  1.21465E+01
 NY points of the fit to the data follow
   3.75832E+01  3.72747E+01  3.79192E+01  3.74202E+01  3.80689E+01  3.76444E+01  3.85324E+01  3.83525E+01  3.85692E+01  3.82147E+01
   3.74776E+01  3.71710E+01  3.64171E+01  3.62723E+01  3.54864E+01  3.59525E+01  3.55305E+01  3.62816E+01  3.61624E+01  3.69007E+01
   3.71307E+01  3.75996E+01  3.77398E+01  3.75466E+01  3.77853E+01  3.69470E+01  3.73456E+01  3.59988E+01  3.66832E+01  3.54167E+01
   3.66599E+01  3.56634E+01  3.72344E+01  3.58991E+01  3.75090E+01  3.57870E+01  3.72850E+01  3.52466E+01  3.65315E+01  3.42143E+01
   3.51568E+01  3.29745E+01  3.39760E+01  3.21108E+01  3.31790E+01  3.15915E+01  3.24987E+01  3.10472E+01  3.11678E+01  2.95824E+01
   2.93591E+01  2.80606E+01  2.80638E+01  2.71285E+01  2.70149E+01  2.64902E+01  2.65788E+01  2.61554E+01  2.62703E+01  2.59122E+01
   2.61172E+01  2.57256E+01  2.57222E+01  2.51514E+01  2.51159E+01  2.44957E+01  2.44701E+01  2.39116E+01  2.40596E+01  2.36222E+01
   2.38506E+01  2.32378E+01  2.33080E+01  2.24942E+01  2.24719E+01  2.15431E+01  2.15202E+01  2.05425E+01  2.06112E+01  1.96247E+01
   1.97571E+01  1.88516E+01  1.90783E+01  1.83375E+01  1.92278E+01  1.90925E+01  2.01552E+01  2.06325E+01  2.15191E+01  2.25628E+01
   2.30100E+01  2.44783E+01  2.43786E+01  2.61476E+01  2.55482E+01  2.75032E+01  2.64474E+01  2.85240E+01  2.70548E+01  2.91326E+01
   2.72175E+01  2.91379E+01  2.68936E+01  2.86095E+01  2.62338E+01  2.77765E+01  2.54794E+01  2.69607E+01  2.51016E+01  2.75263E+01
   2.61931E+01  2.91308E+01  2.82028E+01  3.13134E+01  3.07427E+01  3.38134E+01  3.35442E+01  3.61602E+01  3.59275E+01  3.78109E+01
   3.74632E+01  3.86439E+01  3.84074E+01  3.90759E+01  3.93371E+01  3.95199E+01  3.97085E+01  3.91999E+01  3.93416E+01  3.82310E+01
   3.83573E+01  3.68090E+01  3.69064E+01  3.50093E+01  3.50739E+01  3.28910E+01  3.29242E+01  3.05267E+01  3.05450E+01  2.80872E+01
   2.80556E+01  2.55827E+01  2.54271E+01  2.29144E+01  2.26739E+01  2.02450E+01  2.00675E+01  1.80390E+01  1.80696E+01  1.69488E+01
   1.70680E+01  1.61268E+01  1.61592E+01  1.54170E+01  1.54115E+01  1.48873E+01  1.48364E+01  1.43083E+01  1.40432E+01  1.35550E+01
   1.31444E+01  1.27824E+01  1.23589E+01  1.20959E+01  1.17536E+01  1.15050E+01  1.12241E+01  1.09062E+01  1.06673E+01  1.02697E+01
   1.01238E+01  9.72029E+00  9.77531E+00  9.47334E+00  9.78487E+00  9.50780E+00  9.96142E+00  9.59783E+00  1.00126E+01  9.49117E+00
   9.65696E+00  9.18507E+00  9.26445E+00  9.15374E+00  9.28904E+00  9.63214E+00  9.92771E+00  1.06504E+01  1.08941E+01  1.17308E+01
   1.16358E+01  1.20789E+01  1.16289E+01  1.20510E+01  1.14073E+01  1.19740E+01  1.12911E+01  1.20513E+01  1.13645E+01  1.22730E+01
   1.16105E+01  1.26118E+01  1.19670E+01  1.30295E+01  1.24876E+01  1.36489E+01  1.32634E+01  1.45008E+01  1.42652E+01  1.55042E+01
   1.54361E+01  1.66552E+01  1.67603E+01  1.78213E+01  1.79565E+01  1.88117E+01  1.88344E+01  1.92516E+01  1.91623E+01  1.94744E+01
   1.94717E+01  1.98738E+01  2.02264E+01  2.08159E+01  2.11563E+01  2.17604E+01  2.18259E+01  2.23484E+01  2.20233E+01  2.23786E+01
   2.16830E+01  2.18425E+01  2.11287E+01  2.16457E+01  2.10417E+01  2.18127E+01  2.13040E+01  2.22909E+01  2.18325E+01  2.30382E+01
   2.27132E+01  2.45011E+01  2.55491E+01  2.77547E+01  2.98304E+01  3.20550E+01  3.47345E+01  3.66196E+01  3.94564E+01  4.08041E+01
   4.35508E+01  4.42627E+01  4.67410E+01  4.67408E+01  4.88147E+01  4.81514E+01  4.97403E+01  4.83348E+01  4.93483E+01  4.75607E+01
   4.81271E+01  4.60122E+01  4.61640E+01  4.38596E+01  4.35062E+01  4.10942E+01  4.03328E+01  3.79148E+01  3.68786E+01  3.45678E+01
   3.33287E+01  3.12281E+01  3.00064E+01  2.81718E+01  2.69335E+01  2.53176E+01  2.39858E+01  2.25914E+01  2.11815E+01  2.01169E+01
   1.89096E+01  1.83536E+01  1.79703E+01  1.76489E+01  1.73719E+01  1.71341E+01  1.69363E+01  1.67750E+01  1.66543E+01  1.65721E+01
   1.65342E+01  1.65398E+01  1.65968E+01  1.67077E+01  1.68830E+01  1.71293E+01  1.74615E+01  1.78922E+01  1.84415E+01  1.91281E+01
   1.99792E+01  2.10223E+01  2.22928E+01  2.38308E+01  2.56899E+01  2.79416E+01  3.07015E+01  3.41916E+01  3.89458E+01  4.51299E+01
   4.92953E+01  5.56348E+01  5.76632E+01  6.26513E+01  6.15386E+01  6.37833E+01  5.90670E+01  6.11568E+01  5.58959E+01  5.82376E+01
   5.34464E+01  5.57941E+01  5.16811E+01  5.32407E+01  4.95353E+01  4.97392E+01  4.67524E+01  4.58999E+01  4.39957E+01  4.26691E+01
   4.21581E+01  4.06903E+01  4.13877E+01  3.93016E+01  4.05423E+01  3.76832E+01  3.91703E+01  3.58247E+01  3.75902E+01  3.43218E+01
   3.63359E+01  3.31621E+01  3.52782E+01  3.20747E+01  3.43128E+01  3.13197E+01  3.39198E+01  3.19519E+01  3.51248E+01  3.44713E+01
   3.61684E+01  3.45015E+01  3.47896E+01  3.23162E+01  3.12188E+01  2.84326E+01  2.65188E+01  2.53814E+01  2.46349E+01  2.41190E+01
   2.37532E+01  2.34902E+01  2.32987E+01  2.31575E+01  2.30507E+01  2.29676E+01  2.28997E+01  2.28420E+01  2.27907E+01  2.27445E+01
   2.27029E+01  2.26670E+01  2.26382E+01  2.26192E+01  2.26124E+01  2.26210E+01  2.26476E+01  2.26951E+01  2.27652E+01  2.28598E+01
   2.29795E+01  2.31248E+01  2.32947E+01  2.34880E+01  2.37022E+01  2.39347E+01  2.41813E+01  2.44381E+01  2.46999E+01  2.49620E+01
   2.52184E+01  2.54640E+01  2.56927E+01  2.58996E+01  2.60791E+01  2.62268E+01  2.63382E+01  2.64101E+01  2.64395E+01  2.64246E+01
   2.63639E+01  2.62577E+01  2.61060E+01  2.59107E+01  2.56735E+01  2.53977E+01  2.50862E+01  2.47433E+01  2.43728E+01  2.39795E+01
   2.35675E+01  2.31418E+01  2.27062E+01  2.22654E+01  2.18229E+01  2.13826E+01  2.09473E+01  2.05203E+01  2.01033E+01  1.96989E+01
   1.93083E+01  1.89329E+01  1.85733E+01  1.82305E+01  1.79044E+01  1.75953E+01  1.73028E+01  1.70270E+01  1.67670E+01  1.65228E+01
   1.62932E+01  1.60782E+01  1.58766E+01  1.56881E+01  1.55115E+01  1.53467E+01  1.51926E+01  1.50488E+01  1.49144E+01  1.47891E+01
   1.46720E+01  1.45630E+01  1.44611E+01  1.43663E+01  1.42777E+01  1.41953E+01  1.41184E+01  1.40469E+01  1.39802E+01  1.39182E+01
   1.38604E+01  1.38069E+01  1.37570E+01  1.37108E+01  1.36679E+01  1.36282E+01  1.35914E+01  1.35576E+01  1.35261E+01  1.34974E+01
   1.34708E+01  1.34467E+01  1.34244E+01  1.34043E+01  1.33859E+01  1.33694E+01  1.33544E+01  1.33412E+01  1.33293E+01  1.33191E+01
   1.33100E+01  1.33024E+01  1.32958E+01  1.32905E+01  1.32862E+01  1.32831E+01  1.32809E+01  1.32798E+01  1.32794E+01  1.32801E+01
   1.32815E+01  1.32838E+01  1.32867E+01  1.32906E+01  1.32950E+01  1.33003E+01  1.33061E+01  1.33127E+01  1.33198E+01  1.33277E+01
   1.33361E+01  1.33454E+01  1.33551E+01  1.33657E+01  1.33769E+01  1.33891E+01  1.34021E+01  1.34164E+01
 NY background values follow
     1.541E+01    1.539E+01    1.538E+01    1.536E+01    1.534E+01    1.532E+01    1.530E+01    1.529E+01    1.527E+01    1.525E+01
     1.523E+01    1.522E+01    1.520E+01    1.518E+01    1.516E+01    1.514E+01    1.513E+01    1.511E+01    1.509E+01    1.507E+01
     1.506E+01    1.504E+01    1.502E+01    1.500E+01    1.499E+01    1.497E+01    1.495E+01    1.493E+01    1.492E+01    1.490E+01
     1.488E+01    1.486E+01    1.485E+01    1.483E+01    1.481E+01    1.479E+01    1.478E+01    1.476E+01    1.474E+01    1.472E+01
     1.470E+01    1.469E+01    1.467E+01    1.465E+01    1.463E+01    1.462E+01    1.460E+01    1.458E+01    1.456E+01    1.454E+01
     1.453E+01    1.451E+01    1.449E+01    1.447E+01    1.446E+01    1.444E+01    1.442E+01    1.440E+01    1.438E+01    1.437E+01
     1.435E+01    1.433E+01    1.431E+01    1.429E+01    1.427E+01    1.426E+01    1.424E+01    1.422E+01    1.420E+01    1.418E+01
     1.416E+01    1.415E+01    1.413E+01    1.411E+01    1.409E+01    1.407E+01    1.405E+01    1.403E+01    1.401E+01    1.400E+01
     1.398E+01    1.396E+01    1.394E+01    1.392E+01    1.390E+01    1.388E+01    1.386E+01    1.384E+01    1.382E+01    1.380E+01
     1.378E+01    1.376E+01    1.375E+01    1.373E+01    1.371E+01    1.369E+01    1.367E+01    1.365E+01    1.363E+01    1.361E+01
     1.359E+01    1.357E+01    1.355E+01    1.352E+01    1.350E+01    1.348E+01    1.346E+01    1.344E+01    1.342E+01    1.340E+01
     1.338E+01    1.336E+01    1.334E+01    1.332E+01    1.330E+01    1.328E+01    1.326E+01    1.323E+01    1.321E+01    1.319E+01
     1.317E+01    1.315E+01    1.313E+01    1.311E+01    1.309E+01    1.306E+01    1.304E+01    1.302E+01    1.300E+01    1.298E+01
     1.296E+01    1.294E+01    1.291E+01    1.289E+01    1.287E+01    1.285E+01    1.283E+01    1.281E+01    1.278E+01    1.276E+01
     1.274E+01    1.272E+01    1.270E+01    1.268E+01    1.265E+01    1.263E+01    1.261E+01    1.259E+01    1.257E+01    1.255E+01
     1.253E+01    1.250E+01    1.248E+01    1.246E+01    1.244E+01    1.242E+01    1.240E+01    1.238E+01    1.235E+01    1.233E+01
     1.231E+01    1.229E+01    1.227E+01    1.225E+01    1.223E+01    1.221E+01    1.218E+01    1.216E+01    1.214E+01    1.212E+01
     1.210E+01    1.208E+01    1.206E+01    1.204E+01    1.202E+01    1.200E+01    1.198E+01    1.196E+01    1.194E+01    1.192E+01
     1.190E+01    1.188E+01    1.185E+01    1.183E+01    1.181E+01    1.180E+01    1.178E+01    1.176E+01    1.174E+01    1.172E+01
     1.170E+01    1.168E+01    1.166E+01    1.164E+01    1.162E+01    1.160E+01    1.158E+01    1.156E+01    1.154E+01    1.152E+01
     1.151E+01    1.149E+01    1.147E+01    1.145E+01    1.143E+01    1.141E+01    1.140E+01    1.138E+01    1.136E+01    1.134E+01
     1.133E+01    1.131E+01    1.129E+01    1.127E+01    1.126E+01    1.124E+01    1.122E+01    1.121E+01    1.119E+01    1.117E+01
     1.116E+01    1.114E+01    1.112E+01    1.111E+01    1.109E+01    1.107E+01    1.106E+01    1.104E+01    1.103E+01    1.101E+01
     1.100E+01    1.098E+01    1.097E+01    1.095E+01    1.094E+01    1.092E+01    1.091E+01    1.089E+01    1.088E+01    1.086E+01
     1.085E+01    1.083E+01    1.082E+01    1.081E+01    1.079E+01    1.078E+01    1.076E+01    1.075E+01    1.074E+01    1.072E+01
     1.071E+01    1.070E+01    1.068E+01    1.067E+01    1.066E+01    1.065E+01    1.063E+01    1.062E+01    1.061E+01    1.060E+01
     1.058E+01    1.057E+01    1.056E+01    1.055E+01    1.054E+01    1.053E+01    1.051E+01    1.050E+01    1.049E+01    1.048E+01
     1.047E+01    1.046E+01    1.045E+01    1.044E+01    1.043E+01    1.042E+01    1.041E+01    1.040E+01    1.039E+01    1.038E+01
     1.037E+01    1.036E+01    1.035E+01    1.034E+01    1.033E+01    1.032E+01    1.031E+01    1.031E+01    1.030E+01    1.029E+01
     1.028E+01    1.027E+01    1.026E+01    1.026E+01    1.025E+01    1.024E+01    1.023E+01    1.022E+01    1.022E+01    1.021E+01
     1.020E+01    1.020E+01    1.019E+01    1.018E+01    1.018E+01    1.017E+01    1.016E+01    1.016E+01    1.015E+01    1.015E+01
     1.014E+01    1.013E+01    1.013E+01    1.012E+01    1.012E+01    1.011E+01    1.011E+01    1.010E+01    1.010E+01    1.009E+01
     1.009E+01    1.009E+01    1.008E+01    1.008E+01    1.008E+01    1.007E+01    1.007E+01    1.007E+01    1.006E+01    1.006E+01
     1.006E+01    1.006E+01    1.005E+01    1.005E+01    1.005E+01    1.005E+01    1.005E+01    1.005E+01    1.005E+01    1.004E+01
     1.004E+01    1.004E+01    1.004E+01    1.004E+01    1.004E+01    1.004E+01    1.004E+01    1.005E+01    1.005E+01    1.005E+01
     1.005E+01    1.005E+01    1.005E+01    1.005E+01    1.006E+01    1.006E+01    1.006E+01    1.007E+01    1.007E+01    1.007E+01
     1.008E+01    1.008E+01    1.008E+01    1.009E+01    1.009E+01    1.010E+01    1.010E+01    1.011E+01    1.011E+01    1.012E+01
     1.012E+01    1.013E+01    1.014E+01    1.014E+01    1.015E+01    1.016E+01    1.017E+01    1.017E+01    1.018E+01    1.019E+01
     1.020E+01    1.021E+01    1.022E+01    1.022E+01    1.023E+01    1.024E+01    1.025E+01    1.026E+01    1.027E+01    1.029E+01
     1.030E+01    1.031E+01    1.032E+01    1.033E+01    1.034E+01    1.036E+01    1.037E+01    1.038E+01    1.040E+01    1.041E+01
     1.042E+01    1.044E+01    1.045E+01    1.047E+01    1.048E+01    1.050E+01    1.051E+01    1.053E+01    1.054E+01    1.056E+01
     1.058E+01    1.059E+01    1.061E+01    1.063E+01    1.065E+01    1.066E+01    1.068E+01    1.070E+01    1.072E+01    1.074E+01
     1.075E+01    1.077E+01    1.079E+01    1.081E+01    1.083E+01    1.085E+01    1.087E+01    1.089E+01    1.091E+01    1.093E+01
     1.095E+01    1.097E+01    1.100E+01    1.102E+01    1.104E+01    1.106E+01    1.108E+01    1.110E+01    1.112E+01    1.115E+01
     1.117E+01    1.119E+01    1.121E+01    1.124E+01    1.126E+01    1.128E+01    1.131E+01    1.133E+01    1.135E+01    1.137E+01
     1.140E+01    1.142E+01    1.145E+01    1.147E+01    1.149E+01    1.152E+01    1.154E+01    1.157E+01    1.159E+01    1.161E+01
     1.164E+01    1.166E+01    1.169E+01    1.171E+01    1.174E+01    1.176E+01    1.178E+01    1.181E+01    1.183E+01    1.186E+01
     1.188E+01    1.191E+01    1.193E+01    1.196E+01    1.198E+01    1.201E+01    1.203E+01    1.206E+01    1.208E+01    1.211E+01
     1.213E+01    1.216E+01    1.218E+01    1.221E+01    1.223E+01    1.226E+01    1.228E+01    1.231E+01    1.233E+01    1.236E+01
     1.238E+01    1.241E+01    1.243E+01    1.246E+01    1.248E+01    1.250E+01    1.253E+01    1.255E+01
 Ala      Conc. = 1.22E+04
