 LCModel (Version 6.3-1L) Copyright: S.W. Provencher.          Ref.: Magn. Reson. Med. 30:672-679 (1993).                
 Slice#2 Row#12 Col#3  PD_24_press_2_raw_act
 36 lines in following concentration table = NCONC+1
    Conc.  %SD /Cr+PCr  Metabolite                                         
    3.645 375%   0.000 Ala                                                 
    2.970  91%   0.000 Asp                                                 
    0.000 999%   0.000 Cr                                                  
    0.000 999%   0.000 PCr                                                 
    1.796  90%   0.000 GABA                                                
    1.914  84%   0.000 Glc                                                 
    0.000 999%   0.000 Gln                                                 
    0.000 999%   0.000 Glu                                                 
    0.000 999%   0.000 GPC                                                 
    0.000 999%   0.000 PCh                                                 
    0.000 999%   0.000 GSH                                                 
    9.212 378%   0.000 Ins                                                 
    0.000 999%   0.000 Lac                                                 
   61.107  28%   0.000 NAA                                                 
    0.000 999%   0.000 NAAG                                                
    0.613  88%   0.000 Scyllo                                              
    3.049  88%   0.000 Tau                                                 
    1.144 362%   0.000 -CrCH2                                              
    0.000 999%   0.000 GPC+PCh                                             
   61.107  28%   0.000 NAA+NAAG                                            
    0.000 999%   0.000 Cr+PCr                                              
    0.000 999%   0.000 Glu+Gln                                             
 2.11E+03  24%   0.000 Lip13a                                              
   49.897 244%   0.000 Lip13b                                              
  885.022  18%   0.000 Lip09                                               
    0.000 999%   0.000 MM09                                                
  129.140 178%   0.000 Lip20                                               
  418.028  51%   0.000 MM20                                                
  315.142  79%   0.000 MM12                                                
 2.41E+03  10%   0.000 MM14                                                
    0.000 999%   0.000 MM17                                                
 2.16E+03  21%   0.000 Lip13a+Lip13b                                       
 4.88E+03   5%   0.000 MM14+Lip13a+Lip13b+MM12                             
  885.022  18%   0.000 MM09+Lip09                                          
  547.168  31%   0.000 MM20+Lip20                                          
   6 lines in following misc. output table
  FWHM = 0.031 ppm    S/N =   4                                            
  Data shift = 0.000 ppm                                                   
  Ph: -65 deg     134.2 deg/ppm                                            
  alphaB,S = 5.0E-01,   1.6E+00                                            
   14 spline knots.   Ns = 5(1)                                            
  ( 5) 2 infls.   ( 4) 2 extrs.                                            
  498 points on ppm-axis = NY
      4.000000     3.992357     3.984714     3.977070     3.969427     3.961784     3.954141     3.946497     3.938854     3.931211
      3.923568     3.915925     3.908281     3.900638     3.892995     3.885352     3.877708     3.870065     3.862422     3.854779
      3.847136     3.839492     3.831849     3.824206     3.816563     3.808919     3.801276     3.793633     3.785990     3.778347
      3.770703     3.763060     3.755417     3.747774     3.740130     3.732487     3.724844     3.717201     3.709558     3.701914
      3.694271     3.686628     3.678985     3.671341     3.663698     3.656055     3.648412     3.640769     3.633125     3.625482
      3.617839     3.610196     3.602552     3.594909     3.587266     3.579623     3.571980     3.564336     3.556693     3.549050
      3.541407     3.533763     3.526120     3.518477     3.510834     3.503191     3.495547     3.487904     3.480261     3.472618
      3.464974     3.457331     3.449688     3.442045     3.434402     3.426758     3.419115     3.411472     3.403829     3.396185
      3.388542     3.380899     3.373256     3.365613     3.357969     3.350326     3.342683     3.335040     3.327396     3.319753
      3.312110     3.304467     3.296824     3.289180     3.281537     3.273894     3.266251     3.258607     3.250964     3.243321
      3.235678     3.228034     3.220391     3.212748     3.205105     3.197462     3.189818     3.182175     3.174532     3.166889
      3.159245     3.151602     3.143959     3.136316     3.128673     3.121029     3.113386     3.105743     3.098100     3.090456
      3.082813     3.075170     3.067527     3.059884     3.052240     3.044597     3.036954     3.029311     3.021667     3.014024
      3.006381     2.998738     2.991095     2.983451     2.975808     2.968165     2.960522     2.952878     2.945235     2.937592
      2.929949     2.922306     2.914662     2.907019     2.899376     2.891733     2.884089     2.876446     2.868803     2.861160
      2.853517     2.845873     2.838230     2.830587     2.822944     2.815300     2.807657     2.800014     2.792371     2.784728
      2.777084     2.769441     2.761798     2.754155     2.746511     2.738868     2.731225     2.723582     2.715939     2.708295
      2.700652     2.693009     2.685366     2.677722     2.670079     2.662436     2.654793     2.647150     2.639506     2.631863
      2.624220     2.616577     2.608933     2.601290     2.593647     2.586004     2.578361     2.570717     2.563074     2.555431
      2.547788     2.540144     2.532501     2.524858     2.517215     2.509572     2.501928     2.494285     2.486642     2.478999
      2.471355     2.463712     2.456069     2.448426     2.440783     2.433139     2.425496     2.417853     2.410210     2.402566
      2.394923     2.387280     2.379637     2.371994     2.364350     2.356707     2.349064     2.341421     2.333777     2.326134
      2.318491     2.310848     2.303205     2.295561     2.287918     2.280275     2.272632     2.264988     2.257345     2.249702
      2.242059     2.234416     2.226772     2.219129     2.211486     2.203843     2.196199     2.188556     2.180913     2.173270
      2.165627     2.157983     2.150340     2.142697     2.135054     2.127410     2.119767     2.112124     2.104481     2.096838
      2.089194     2.081551     2.073908     2.066265     2.058621     2.050978     2.043335     2.035692     2.028049     2.020405
      2.012762     2.005119     1.997476     1.989833     1.982190     1.974546     1.966903     1.959260     1.951617     1.943974
      1.936331     1.928688     1.921045     1.913402     1.905759     1.898115     1.890472     1.882829     1.875186     1.867543
      1.859900     1.852257     1.844614     1.836971     1.829327     1.821684     1.814041     1.806398     1.798755     1.791112
      1.783469     1.775826     1.768183     1.760540     1.752896     1.745253     1.737610     1.729967     1.722324     1.714681
      1.707038     1.699395     1.691752     1.684108     1.676465     1.668822     1.661179     1.653536     1.645893     1.638250
      1.630607     1.622964     1.615321     1.607677     1.600034     1.592391     1.584748     1.577105     1.569462     1.561819
      1.554176     1.546533     1.538890     1.531246     1.523603     1.515960     1.508317     1.500674     1.493031     1.485388
      1.477745     1.470102     1.462458     1.454815     1.447172     1.439529     1.431886     1.424243     1.416600     1.408957
      1.401314     1.393671     1.386027     1.378384     1.370741     1.363098     1.355455     1.347812     1.340169     1.332526
      1.324883     1.317240     1.309596     1.301953     1.294310     1.286667     1.279024     1.271381     1.263738     1.256095
      1.248452     1.240808     1.233165     1.225522     1.217879     1.210236     1.202593     1.194950     1.187307     1.179664
      1.172021     1.164377     1.156734     1.149091     1.141448     1.133805     1.126162     1.118519     1.110876     1.103233
      1.095590     1.087946     1.080303     1.072660     1.065017     1.057374     1.049731     1.042088     1.034445     1.026802
      1.019158     1.011515     1.003872     0.996229     0.988586     0.980943     0.973300     0.965657     0.958014     0.950371
      0.942727     0.935084     0.927441     0.919798     0.912155     0.904512     0.896869     0.889226     0.881583     0.873940
      0.866296     0.858653     0.851010     0.843367     0.835724     0.828081     0.820438     0.812795     0.805152     0.797508
      0.789865     0.782222     0.774579     0.766936     0.759293     0.751650     0.744007     0.736364     0.728721     0.721077
      0.713434     0.705791     0.698148     0.690505     0.682862     0.675219     0.667576     0.659933     0.652290     0.644646
      0.637003     0.629360     0.621717     0.614074     0.606431     0.598788     0.591145     0.583502     0.575858     0.568215
      0.560572     0.552929     0.545286     0.537643     0.530000     0.522357     0.514714     0.507071     0.499427     0.491784
      0.484141     0.476498     0.468855     0.461212     0.453569     0.445925     0.438282     0.430639     0.422996     0.415353
      0.407710     0.400067     0.392424     0.384780     0.377137     0.369494     0.361851     0.354208     0.346565     0.338922
      0.331278     0.323635     0.315992     0.308349     0.300706     0.293063     0.285420     0.277777     0.270133     0.262490
      0.254847     0.247204     0.239561     0.231918     0.224275     0.216631     0.208988     0.201345
 NY phased data points follow
  -1.80939E+00 -2.27482E+00 -2.50478E+00 -1.16444E+00 -2.50362E+00 -4.83724E+00 -3.34725E+00 -4.62993E+00 -5.32106E+00 -6.28965E+00
  -6.88170E+00 -4.95119E+00 -6.33791E+00 -6.83883E+00 -3.62902E+00 -4.61763E+00 -3.68792E+00 -4.00309E+00 -2.68169E+00 -2.25577E+00
   6.07300E-01 -2.79530E+00 -2.66380E+00 -1.08545E+00 -2.21241E+00 -2.60663E+00 -1.54418E+00 -1.65423E+00 -5.41666E+00 -2.82112E+00
  -4.72911E+00 -2.12330E+00 -1.61822E+00  5.83330E-01 -1.97081E+00  1.33082E-01  1.28553E+00 -2.13154E+00 -5.09687E-01 -6.21490E-01
  -2.22808E+00 -1.24018E+00  1.67674E-01 -7.47896E-01 -8.05017E-01  1.23641E+00 -2.52435E+00  2.12078E-02  1.94490E-02  1.09772E+00
   3.57488E-01  2.14691E+00 -8.35114E-01 -1.50055E+00  8.36799E-01 -6.70823E-01 -3.58629E-01  1.72543E+00  3.45975E-01  1.79363E+00
   1.89016E+00  3.42916E+00  3.70390E-02  1.87980E+00  1.02684E+00 -3.09327E-01  2.80253E+00  3.29748E+00  3.06251E+00  1.49329E+00
   1.02574E+00  1.25031E+00 -1.11353E-01  1.79736E+00  1.65350E+00  7.01606E-01  4.70872E+00  2.78204E+00  2.93919E+00  2.26991E+00
   1.10510E-01  1.63359E+00  9.64445E-01  3.13878E+00  3.51804E-01  1.96655E+00  3.64062E+00  3.07552E+00  3.94573E+00  1.14689E+00
   2.58038E+00  4.67403E+00  4.23238E+00  2.12887E+00  5.61156E+00  2.53204E+00  4.89167E-01  3.38153E+00  1.58005E+00  2.29131E-01
   1.02563E+00  6.06594E-01  1.79294E+00  1.76527E+00  2.82008E+00  1.88784E+00  2.67622E+00  3.54053E+00  3.06494E+00  2.83928E+00
   3.86170E+00  3.71142E+00  2.51315E+00  5.13865E+00  2.87788E+00  4.89738E+00  5.90204E+00  2.41192E+00  1.91554E+00  4.68033E+00
   3.58178E+00  2.43705E+00 -4.89157E-01 -5.99522E-01 -2.11202E-01 -4.69732E-01 -2.73574E-01  3.11098E+00  5.56974E+00  4.37115E+00
   5.92792E+00  8.07063E+00  6.16900E+00  5.14563E+00  4.49235E+00  4.83151E+00  2.82567E+00  7.15306E+00  4.42294E+00  5.36373E+00
   6.15766E+00  6.47218E+00  1.49606E+00  4.98213E+00  4.01510E+00  1.56247E+00  4.21104E+00  2.49872E+00  1.38859E+00  2.58795E+00
   3.18112E+00  5.69714E+00  1.56227E+00  4.86069E+00  5.87788E+00  5.34572E+00  2.00641E+00  9.26520E-01  5.54841E+00  3.48275E+00
   5.79129E-01  2.95277E-01  1.19755E-01  2.21120E+00  2.17291E+00  1.85528E+00  2.70194E+00  1.89915E+00  1.81062E+00  2.02279E+00
   3.33450E+00  4.94214E-01  3.10093E+00  5.02250E-01  1.61080E+00 -2.34301E-01  1.68000E+00  3.38477E-01  6.90287E-01  2.50088E-01
   9.37243E-01  2.10738E+00  2.54377E-01 -8.41580E-01 -8.60660E-01 -8.65413E-01  7.13604E-02  2.19457E+00  3.07998E+00  2.39207E+00
   7.55928E-01 -1.46434E-01  1.55452E+00  1.19928E+00  1.55693E+00  2.81160E+00  6.29327E-01  2.55775E-01  2.41504E+00  8.76609E-01
  -1.87351E-01 -4.29758E-01 -7.10172E-01  6.46371E-01  1.70261E+00  1.22235E+00  8.05091E-01 -2.06695E+00 -4.63647E-01 -5.90622E-01
  -5.90723E-01 -9.46998E-01 -2.05248E+00 -9.59476E-01  2.53699E-01  1.67410E+00  1.06539E-01  7.17238E-01  7.68797E-01  7.46818E-01
   2.97184E-01  1.51469E+00 -1.45673E+00 -8.63270E-01 -1.15747E+00 -8.79029E-01  6.66846E-01 -1.71060E+00  1.05954E+00 -1.18011E+00
   1.45922E+00 -1.08578E+00  2.67431E-01  1.77681E-01  6.72013E-01 -1.09728E+00 -4.51173E-01  1.44032E+00 -1.60797E+00  1.98449E+00
  -4.30592E-01  6.97634E-01 -2.88612E+00 -9.94780E-02 -4.01582E-01 -4.33961E-01 -9.91344E-01 -6.82058E-01 -1.48448E+00 -4.64517E+00
  -2.04887E-01 -1.60442E+00 -2.65086E+00 -1.30205E+00 -3.17182E+00 -6.42114E-01 -3.06988E-01  1.84928E+00  2.89398E+00  4.73763E+00
   4.87370E+00  4.24267E+00  1.25533E+00 -1.02929E+00 -1.82737E+00 -2.68834E+00 -1.86332E+00 -4.09125E+00 -2.06606E+00 -2.29047E+00
  -3.58605E+00 -3.43797E+00 -2.44608E+00 -1.67503E+00 -4.42615E+00 -2.13397E+00 -3.16732E+00 -2.81472E+00 -1.81966E+00 -2.21144E+00
  -3.60927E+00 -3.31866E+00 -6.37441E+00 -2.84943E+00 -3.22859E+00 -1.68219E+00 -2.07658E+00 -3.24777E+00 -2.69791E+00 -5.08580E-01
  -2.45941E+00 -4.58214E+00 -2.78567E+00 -2.96477E+00 -4.42970E+00 -4.60871E+00 -6.25991E+00 -8.34190E+00 -1.06864E+01 -8.13140E+00
  -8.85115E+00 -7.47395E+00 -8.46411E+00 -1.04173E+01 -9.07471E+00 -7.72188E+00 -9.40298E+00 -8.05989E+00 -1.11122E+01 -1.06931E+01
  -8.85160E+00 -1.05696E+01 -9.03505E+00 -1.06381E+01 -1.35391E+01 -1.38627E+01 -1.19718E+01 -1.22539E+01 -1.24910E+01 -1.23333E+01
  -9.96070E+00 -1.11186E+01 -1.33027E+01 -1.36898E+01 -1.48615E+01 -1.62085E+01 -1.33883E+01 -1.43278E+01 -1.44374E+01 -1.47757E+01
  -1.36519E+01 -1.03350E+01 -1.12151E+01 -1.09964E+01 -8.06313E+00 -8.74726E+00 -7.52396E+00 -4.78350E+00 -1.88885E+00 -1.83813E+00
   1.33175E+00 -2.71669E-01  2.63037E+00  5.45831E+00  5.39088E+00  6.04436E+00  6.42590E+00  9.00433E+00  7.73008E+00  9.09919E+00
   1.04966E+01  1.02859E+01  1.22444E+01  9.64755E+00  1.26843E+01  9.44300E+00  8.48541E+00  1.13210E+01  9.21381E+00  1.11563E+01
   1.36123E+01  9.66622E+00  9.99779E+00  1.22953E+01  1.05301E+01  1.15565E+01  1.18691E+01  6.52319E+00  8.08980E+00  8.60424E+00
   8.26740E+00  4.60253E+00  4.90615E+00  3.41692E+00  3.60661E+00  5.53212E+00  5.95561E+00  6.69160E+00  4.10200E+00  2.05590E+00
   2.73780E+00  4.14640E+00  3.67047E+00  5.80680E+00  1.18448E+00  5.87815E+00  5.37090E+00  5.22148E+00  3.53697E+00  3.32087E+00
   2.97441E+00  4.98548E+00  3.37875E+00  1.61079E+00  3.59015E+00  2.92275E+00  3.32310E+00  1.80192E+00  1.18037E+00  1.59811E+00
   2.11638E+00  1.26796E+00  9.61063E-01  2.78849E+00  2.63383E+00  4.55676E+00  2.68235E+00 -1.38374E+00 -3.10577E-01  1.44858E+00
  -8.44504E-01 -4.27425E-01  2.38366E+00  2.10506E+00  3.44459E+00  1.58825E+00  2.62498E-01  4.65002E-01  1.60890E+00  1.70215E+00
   3.43812E-01  9.52610E-01  1.63108E+00  1.53390E+00  2.43802E+00  1.84549E+00  2.74681E+00  2.50563E+00  4.24149E-01  2.42811E+00
   6.65831E-01  1.25397E+00  4.22752E+00  1.78169E+00  1.74954E-01  1.58726E+00  1.97854E+00  1.90577E+00  2.66765E+00  1.44103E+00
   1.06581E+00  3.13209E+00  1.36716E+00  3.17690E+00  5.07068E+00  1.71988E+00  1.11268E+00  1.39469E+00 -2.48478E-01 -9.43110E-02
   1.47966E+00 -2.44437E+00  1.41623E-01  1.34018E-01 -1.71675E+00  2.26026E+00 -1.01875E+00  1.36382E-01  1.13951E+00  4.24058E-01
   2.25395E-01  8.75134E-01  1.93405E+00  9.37831E-01  1.34812E+00 -1.51845E+00  1.03322E+00  1.68630E+00  8.20845E-01 -1.26058E-01
   1.29387E+00 -3.26336E-01  2.16618E+00 -6.93083E-01  5.78249E-01 -1.97548E+00  1.49824E-01  1.71374E-01  9.71855E-01 -1.33338E+00
  -1.24344E+00 -1.37221E+00 -8.93621E-01 -6.74597E-01 -1.12697E+00 -9.22459E-01 -3.39747E-01 -7.79553E-01  1.45642E+00 -1.27086E+00
  -1.97426E+00 -5.21583E-01 -7.68762E-01 -1.13456E+00 -1.76134E-02 -1.04331E+00 -7.01234E-01 -2.72561E+00
 NY points of the fit to the data follow
  -2.64014E+00 -2.57522E+00 -2.50617E+00 -2.45079E+00 -2.41704E+00 -2.38754E+00 -2.35156E+00 -2.30561E+00 -2.24213E+00 -2.15499E+00
  -2.05390E+00 -1.96129E+00 -1.89167E+00 -1.84233E+00 -1.80357E+00 -1.77210E+00 -1.73086E+00 -1.67402E+00 -1.60490E+00 -1.52579E+00
  -1.44067E+00 -1.36529E+00 -1.30543E+00 -1.25935E+00 -1.22499E+00 -1.19507E+00 -1.16418E+00 -1.12274E+00 -1.06408E+00 -9.93887E-01
  -9.19928E-01 -8.40441E-01 -7.60683E-01 -6.84502E-01 -6.25126E-01 -5.88703E-01 -5.64042E-01 -5.44303E-01 -5.28276E-01 -5.02151E-01
  -4.52806E-01 -3.79372E-01 -2.76465E-01 -1.48075E-01 -2.17541E-02  7.35394E-02  1.30880E-01  1.44342E-01  1.11854E-01  5.96892E-02
   3.46266E-02  6.07088E-02  1.24245E-01  2.08929E-01  3.09295E-01  4.05042E-01  4.81163E-01  5.47125E-01  6.05052E-01  6.50384E-01
   6.77161E-01  6.87890E-01  7.00590E-01  7.23335E-01  7.62457E-01  8.18502E-01  8.80404E-01  9.44659E-01  1.00363E+00  1.04957E+00
   1.09703E+00  1.15232E+00  1.20246E+00  1.24195E+00  1.27094E+00  1.29213E+00  1.29906E+00  1.30225E+00  1.32436E+00  1.36337E+00
   1.41286E+00  1.48767E+00  1.56902E+00  1.61979E+00  1.64689E+00  1.65865E+00  1.65056E+00  1.63254E+00  1.63006E+00  1.65773E+00
   1.70247E+00  1.74773E+00  1.79524E+00  1.83390E+00  1.86492E+00  1.89356E+00  1.92086E+00  1.94782E+00  1.96704E+00  1.97439E+00
   1.97875E+00  1.99148E+00  2.01437E+00  2.04686E+00  2.08477E+00  2.12710E+00  2.16002E+00  2.18362E+00  2.20489E+00  2.22218E+00
   2.23763E+00  2.25764E+00  2.28093E+00  2.30296E+00  2.32697E+00  2.34832E+00  2.36833E+00  2.38952E+00  2.40948E+00  2.42883E+00
   2.45036E+00  2.47454E+00  2.50070E+00  2.52804E+00  2.55636E+00  2.58557E+00  2.61177E+00  2.63211E+00  2.64630E+00  2.65315E+00
   2.65375E+00  2.65223E+00  2.64916E+00  2.64637E+00  2.64875E+00  2.65457E+00  2.66117E+00  2.66417E+00  2.66120E+00  2.65533E+00
   2.64537E+00  2.63371E+00  2.62586E+00  2.61860E+00  2.60979E+00  2.59773E+00  2.57924E+00  2.55626E+00  2.53184E+00  2.51033E+00
   2.49339E+00  2.47830E+00  2.46537E+00  2.45315E+00  2.44018E+00  2.42300E+00  2.37118E+00  2.29022E+00  2.21054E+00  2.13986E+00
   2.11463E+00  2.13752E+00  2.18647E+00  2.24030E+00  2.24488E+00  2.17975E+00  2.06959E+00  1.94438E+00  1.85302E+00  1.80158E+00
   1.76122E+00  1.71800E+00  1.63894E+00  1.56867E+00  1.52606E+00  1.50409E+00  1.49724E+00  1.49857E+00  1.49949E+00  1.45131E+00
   1.36704E+00  1.29841E+00  1.22884E+00  1.15566E+00  1.12800E+00  1.10520E+00  1.09488E+00  1.10738E+00  1.13639E+00  1.15895E+00
   1.12732E+00  1.06443E+00  1.01953E+00  9.65001E-01  9.01047E-01  8.56014E-01  7.83726E-01  6.63830E-01  5.22510E-01  4.36580E-01
   4.14744E-01  4.24975E-01  4.54236E-01  4.85487E-01  4.60370E-01  3.62556E-01  2.42586E-01  1.36671E-01  1.41064E-02 -1.18726E-01
  -2.07013E-01 -2.85099E-01 -3.52530E-01 -3.76881E-01 -3.51883E-01 -3.12203E-01 -3.02094E-01 -3.22629E-01 -3.55880E-01 -4.11029E-01
  -4.69068E-01 -5.06979E-01 -5.40687E-01 -5.78413E-01 -6.25798E-01 -6.84612E-01 -7.52387E-01 -8.19221E-01 -8.76936E-01 -9.24536E-01
  -9.60508E-01 -9.85080E-01 -1.00475E+00 -1.02783E+00 -1.05855E+00 -1.09416E+00 -1.13102E+00 -1.16749E+00 -1.19882E+00 -1.22220E+00
  -1.24024E+00 -1.25448E+00 -1.26563E+00 -1.27459E+00 -1.28264E+00 -1.29145E+00 -1.30317E+00 -1.32050E+00 -1.34689E+00 -1.38690E+00
  -1.44677E+00 -1.53564E+00 -1.66807E+00 -1.86891E+00 -2.13870E+00 -1.90448E+00 -4.01123E-01  1.31808E+00  2.92772E+00  4.37956E+00
   4.86475E+00  3.74315E+00  1.36204E+00 -9.17096E-01 -2.30063E+00 -3.12335E+00 -3.27595E+00 -2.59713E+00 -2.25178E+00 -2.20924E+00
  -2.25935E+00 -2.34441E+00 -2.44592E+00 -2.55888E+00 -2.68030E+00 -2.80839E+00 -2.94398E+00 -3.08619E+00 -3.23279E+00 -3.38185E+00
  -3.53056E+00 -3.67777E+00 -3.82280E+00 -3.96518E+00 -4.10592E+00 -4.24612E+00 -4.38646E+00 -4.52864E+00 -4.67270E+00 -4.81816E+00
  -4.96545E+00 -5.11434E+00 -5.26408E+00 -5.41488E+00 -5.56743E+00 -5.72169E+00 -5.87770E+00 -6.03621E+00 -6.19801E+00 -6.36325E+00
  -6.53274E+00 -6.70696E+00 -6.88633E+00 -7.07145E+00 -7.26296E+00 -7.46157E+00 -7.66801E+00 -7.88304E+00 -8.10739E+00 -8.34179E+00
  -8.58689E+00 -8.84317E+00 -9.11086E+00 -9.38983E+00 -9.67947E+00 -9.97852E+00 -1.02849E+01 -1.05957E+01 -1.09064E+01 -1.12113E+01
  -1.15025E+01 -1.17675E+01 -1.19797E+01 -1.21330E+01 -1.22531E+01 -1.23247E+01 -1.23372E+01 -1.22934E+01 -1.21756E+01 -1.19466E+01
  -1.15547E+01 -1.09564E+01 -1.01775E+01 -9.22267E+00 -8.10231E+00 -6.86894E+00 -5.55620E+00 -4.20395E+00 -2.82052E+00 -1.40256E+00
   2.41217E-02  1.43917E+00  2.83966E+00  4.17743E+00  5.42175E+00  6.55612E+00  7.56932E+00  8.45556E+00  9.21458E+00  9.85101E+00
   1.03733E+01  1.07924E+01  1.11198E+01  1.13665E+01  1.15418E+01  1.16525E+01  1.17033E+01  1.16974E+01  1.16372E+01  1.15255E+01
   1.13660E+01  1.11633E+01  1.09231E+01  1.06515E+01  1.03545E+01  1.00372E+01  9.70404E+00  9.35801E+00  9.00139E+00  8.63578E+00
   8.26248E+00  7.88275E+00  7.49804E+00  7.11010E+00  6.72093E+00  6.33279E+00  5.94806E+00  5.56916E+00  5.19844E+00  4.83814E+00
   4.49032E+00  4.15679E+00  3.83914E+00  3.53873E+00  3.25670E+00  2.99398E+00  2.75133E+00  2.52931E+00  2.32837E+00  2.14879E+00
   1.99075E+00  1.85427E+00  1.73925E+00  1.64545E+00  1.57247E+00  1.51974E+00  1.48651E+00  1.47185E+00  1.47460E+00  1.49342E+00
   1.52675E+00  1.57288E+00  1.62991E+00  1.69579E+00  1.76838E+00  1.84549E+00  1.92490E+00  2.00445E+00  2.08205E+00  2.15574E+00
   2.22374E+00  2.28451E+00  2.33672E+00  2.37934E+00  2.41160E+00  2.43301E+00  2.44334E+00  2.44264E+00  2.43116E+00  2.40938E+00
   2.37792E+00  2.33756E+00  2.28916E+00  2.23364E+00  2.17198E+00  2.10514E+00  2.03408E+00  1.95969E+00  1.88282E+00  1.80428E+00
   1.72477E+00  1.64493E+00  1.56533E+00  1.48643E+00  1.40866E+00  1.33237E+00  1.25782E+00  1.18525E+00  1.11483E+00  1.04670E+00
   9.80939E-01  9.17629E-01  8.56802E-01  7.98471E-01  7.42632E-01  6.89270E-01  6.38358E-01  5.89862E-01  5.43734E-01  4.99926E-01
   4.58383E-01  4.19056E-01  3.81888E-01  3.46825E-01  3.13809E-01  2.82784E-01  2.53695E-01  2.26493E-01  2.01126E-01  1.77546E-01
   1.55699E-01  1.35541E-01  1.17027E-01  1.00117E-01  8.47689E-02  7.09432E-02  5.85975E-02  4.76983E-02  3.82110E-02  3.01067E-02
   2.33486E-02  1.79071E-02  1.37509E-02  1.08539E-02  9.19032E-03  8.73732E-03  9.46573E-03  1.13523E-02  1.43735E-02  1.85106E-02
   2.37423E-02  3.00510E-02  3.74131E-02  4.58107E-02  5.52249E-02  6.56429E-02  7.70471E-02  8.94212E-02  1.02747E-01  1.17010E-01
   1.32198E-01  1.48297E-01  1.65292E-01  1.83171E-01  2.01916E-01  2.21515E-01  2.41959E-01  2.63233E-01
 NY background values follow
    -2.602E+00   -2.541E+00   -2.479E+00   -2.417E+00   -2.356E+00   -2.294E+00   -2.232E+00   -2.170E+00   -2.109E+00   -2.047E+00
    -1.985E+00   -1.923E+00   -1.861E+00   -1.800E+00   -1.738E+00   -1.676E+00   -1.615E+00   -1.553E+00   -1.491E+00   -1.430E+00
    -1.369E+00   -1.307E+00   -1.246E+00   -1.185E+00   -1.124E+00   -1.063E+00   -1.002E+00   -9.418E-01   -8.814E-01   -8.211E-01
    -7.609E-01   -7.009E-01   -6.411E-01   -5.815E-01   -5.220E-01   -4.628E-01   -4.037E-01   -3.449E-01   -2.863E-01   -2.279E-01
    -1.697E-01   -1.118E-01   -5.410E-02    3.327E-03    6.049E-02    1.174E-01    1.740E-01    2.303E-01    2.864E-01    3.421E-01
     3.975E-01    4.526E-01    5.074E-01    5.618E-01    6.159E-01    6.696E-01    7.230E-01    7.760E-01    8.286E-01    8.808E-01
     9.326E-01    9.840E-01    1.035E+00    1.086E+00    1.136E+00    1.185E+00    1.235E+00    1.283E+00    1.332E+00    1.379E+00
     1.427E+00    1.474E+00    1.520E+00    1.566E+00    1.611E+00    1.656E+00    1.700E+00    1.744E+00    1.787E+00    1.830E+00
     1.872E+00    1.913E+00    1.954E+00    1.994E+00    2.034E+00    2.073E+00    2.111E+00    2.149E+00    2.187E+00    2.223E+00
     2.259E+00    2.294E+00    2.329E+00    2.363E+00    2.396E+00    2.429E+00    2.461E+00    2.492E+00    2.523E+00    2.553E+00
     2.582E+00    2.611E+00    2.639E+00    2.666E+00    2.693E+00    2.719E+00    2.744E+00    2.769E+00    2.793E+00    2.816E+00
     2.838E+00    2.860E+00    2.881E+00    2.902E+00    2.921E+00    2.940E+00    2.959E+00    2.976E+00    2.993E+00    3.009E+00
     3.025E+00    3.039E+00    3.053E+00    3.067E+00    3.079E+00    3.091E+00    3.102E+00    3.112E+00    3.122E+00    3.131E+00
     3.139E+00    3.147E+00    3.154E+00    3.160E+00    3.165E+00    3.170E+00    3.173E+00    3.177E+00    3.179E+00    3.181E+00
     3.182E+00    3.182E+00    3.181E+00    3.180E+00    3.178E+00    3.176E+00    3.173E+00    3.169E+00    3.164E+00    3.159E+00
     3.153E+00    3.147E+00    3.139E+00    3.132E+00    3.123E+00    3.114E+00    3.104E+00    3.094E+00    3.083E+00    3.071E+00
     3.059E+00    3.046E+00    3.033E+00    3.019E+00    3.004E+00    2.989E+00    2.973E+00    2.957E+00    2.940E+00    2.922E+00
     2.904E+00    2.886E+00    2.866E+00    2.847E+00    2.827E+00    2.806E+00    2.785E+00    2.763E+00    2.740E+00    2.718E+00
     2.694E+00    2.670E+00    2.646E+00    2.621E+00    2.596E+00    2.570E+00    2.544E+00    2.517E+00    2.490E+00    2.463E+00
     2.435E+00    2.406E+00    2.377E+00    2.348E+00    2.318E+00    2.288E+00    2.257E+00    2.226E+00    2.195E+00    2.163E+00
     2.131E+00    2.098E+00    2.065E+00    2.032E+00    1.998E+00    1.964E+00    1.929E+00    1.894E+00    1.859E+00    1.824E+00
     1.788E+00    1.752E+00    1.715E+00    1.678E+00    1.641E+00    1.604E+00    1.566E+00    1.528E+00    1.489E+00    1.451E+00
     1.412E+00    1.372E+00    1.333E+00    1.293E+00    1.253E+00    1.213E+00    1.172E+00    1.131E+00    1.090E+00    1.049E+00
     1.008E+00    9.660E-01    9.241E-01    8.820E-01    8.397E-01    7.972E-01    7.545E-01    7.116E-01    6.686E-01    6.255E-01
     5.821E-01    5.387E-01    4.950E-01    4.513E-01    4.074E-01    3.635E-01    3.194E-01    2.752E-01    2.309E-01    1.865E-01
     1.420E-01    9.744E-02    5.282E-02    8.140E-03   -3.660E-02   -8.139E-02   -1.262E-01   -1.711E-01   -2.160E-01   -2.609E-01
    -3.059E-01   -3.508E-01   -3.958E-01   -4.407E-01   -4.857E-01   -5.306E-01   -5.755E-01   -6.204E-01   -6.653E-01   -7.101E-01
    -7.548E-01   -7.996E-01   -8.442E-01   -8.888E-01   -9.333E-01   -9.777E-01   -1.022E+00   -1.066E+00   -1.110E+00   -1.155E+00
    -1.198E+00   -1.242E+00   -1.286E+00   -1.329E+00   -1.373E+00   -1.416E+00   -1.459E+00   -1.502E+00   -1.545E+00   -1.587E+00
    -1.630E+00   -1.672E+00   -1.714E+00   -1.756E+00   -1.797E+00   -1.839E+00   -1.880E+00   -1.921E+00   -1.962E+00   -2.002E+00
    -2.042E+00   -2.082E+00   -2.122E+00   -2.161E+00   -2.201E+00   -2.240E+00   -2.278E+00   -2.317E+00   -2.355E+00   -2.392E+00
    -2.430E+00   -2.467E+00   -2.504E+00   -2.540E+00   -2.577E+00   -2.612E+00   -2.648E+00   -2.683E+00   -2.718E+00   -2.753E+00
    -2.787E+00   -2.821E+00   -2.854E+00   -2.887E+00   -2.920E+00   -2.953E+00   -2.985E+00   -3.016E+00   -3.048E+00   -3.079E+00
    -3.109E+00   -3.139E+00   -3.169E+00   -3.199E+00   -3.228E+00   -3.257E+00   -3.285E+00   -3.313E+00   -3.341E+00   -3.368E+00
    -3.395E+00   -3.421E+00   -3.447E+00   -3.473E+00   -3.498E+00   -3.523E+00   -3.547E+00   -3.571E+00   -3.595E+00   -3.618E+00
    -3.641E+00   -3.663E+00   -3.685E+00   -3.707E+00   -3.728E+00   -3.749E+00   -3.769E+00   -3.789E+00   -3.809E+00   -3.828E+00
    -3.846E+00   -3.865E+00   -3.882E+00   -3.900E+00   -3.917E+00   -3.933E+00   -3.949E+00   -3.965E+00   -3.980E+00   -3.995E+00
    -4.009E+00   -4.023E+00   -4.037E+00   -4.050E+00   -4.062E+00   -4.075E+00   -4.086E+00   -4.098E+00   -4.109E+00   -4.119E+00
    -4.129E+00   -4.139E+00   -4.148E+00   -4.156E+00   -4.164E+00   -4.172E+00   -4.180E+00   -4.186E+00   -4.193E+00   -4.199E+00
    -4.204E+00   -4.210E+00   -4.214E+00   -4.218E+00   -4.222E+00   -4.225E+00   -4.228E+00   -4.231E+00   -4.233E+00   -4.234E+00
    -4.235E+00   -4.236E+00   -4.236E+00   -4.235E+00   -4.235E+00   -4.233E+00   -4.232E+00   -4.230E+00   -4.227E+00   -4.224E+00
    -4.220E+00   -4.216E+00   -4.212E+00   -4.207E+00   -4.202E+00   -4.196E+00   -4.190E+00   -4.183E+00   -4.176E+00   -4.168E+00
    -4.160E+00   -4.151E+00   -4.142E+00   -4.133E+00   -4.123E+00   -4.112E+00   -4.101E+00   -4.090E+00   -4.078E+00   -4.066E+00
    -4.053E+00   -4.040E+00   -4.026E+00   -4.012E+00   -3.997E+00   -3.982E+00   -3.966E+00   -3.950E+00   -3.934E+00   -3.917E+00
    -3.899E+00   -3.881E+00   -3.863E+00   -3.844E+00   -3.824E+00   -3.805E+00   -3.784E+00   -3.764E+00   -3.742E+00   -3.720E+00
    -3.698E+00   -3.676E+00   -3.652E+00   -3.629E+00   -3.605E+00   -3.580E+00   -3.555E+00   -3.529E+00   -3.503E+00   -3.477E+00
    -3.450E+00   -3.423E+00   -3.395E+00   -3.366E+00   -3.337E+00   -3.308E+00   -3.278E+00   -3.248E+00   -3.217E+00   -3.186E+00
    -3.154E+00   -3.122E+00   -3.089E+00   -3.056E+00   -3.022E+00   -2.988E+00   -2.954E+00   -2.918E+00   -2.883E+00   -2.847E+00
    -2.810E+00   -2.773E+00   -2.736E+00   -2.698E+00   -2.659E+00   -2.620E+00   -2.581E+00   -2.541E+00   -2.501E+00   -2.460E+00
    -2.419E+00   -2.377E+00   -2.335E+00   -2.292E+00   -2.249E+00   -2.205E+00   -2.161E+00   -2.116E+00
 Ala      Conc. = 3.64E+00
