 LCModel (Version 6.3-1L) Copyright: S.W. Provencher.          Ref.: Magn. Reson. Med. 30:672-679 (1993).                
 Slice#2 Row#5 Col#12  PD_24_press_2_raw_act
 36 lines in following concentration table = NCONC+1
    Conc.  %SD /Cr+PCr  Metabolite                                         
  239.840 202%   0.000 Ala                                                 
   36.706  60%   0.000 Asp                                                 
    0.000 999%   0.000 Cr                                                  
    0.000 999%   0.000 PCr                                                 
   20.881  63%   0.000 GABA                                                
   21.298  62%   0.000 Glc                                                 
    0.000 999%   0.000 Gln                                                 
    9.764 999%   0.000 Glu                                                 
    0.000 999%   0.000 GPC                                                 
    0.000 999%   0.000 PCh                                                 
    0.000 999%   0.000 GSH                                                 
    0.000 999%   0.000 Ins                                                 
  520.707 114%   0.000 Lac                                                 
  720.427  18%   0.000 NAA                                                 
    0.000 999%   0.000 NAAG                                                
    6.899  63%   0.000 Scyllo                                              
   33.585  65%   0.000 Tau                                                 
 2.73E-02 999%   0.000 -CrCH2                                              
    0.000 999%   0.000 GPC+PCh                                             
  720.427  18%   0.000 NAA+NAAG                                            
    0.000 999%   0.000 Cr+PCr                                              
    9.764 999%   0.000 Glu+Gln                                             
 6.06E+03  19%   0.000 Lip13a                                              
    0.000 999%   0.000 Lip13b                                              
 1.97E+03  17%   0.000 Lip09                                               
 1.59E+03  22%   0.000 MM09                                                
 1.08E+03  24%   0.000 Lip20                                               
   46.971 999%   0.000 MM20                                                
  270.844 159%   0.000 MM12                                                
 1.66E+03  35%   0.000 MM14                                                
 1.70E+03  30%   0.000 MM17                                                
 6.06E+03  19%   0.000 Lip13a+Lip13b                                       
 7.99E+03  12%   0.000 MM14+Lip13a+Lip13b+MM12                             
 3.56E+03   8%   0.000 MM09+Lip09                                          
 1.13E+03  42%   0.000 MM20+Lip20                                          
   6 lines in following misc. output table
  FWHM = 0.107 ppm    S/N =   3                                            
  Data shift = 0.000 ppm                                                   
  Ph:  91 deg      32.7 deg/ppm                                            
  alphaB,S = 8.5E+01,   1.0E+02                                            
   14 spline knots.   Ns = 8(2)                                            
   2 inflections.     1 extrema                                            
  498 points on ppm-axis = NY
      4.000000     3.992357     3.984714     3.977070     3.969427     3.961784     3.954141     3.946497     3.938854     3.931211
      3.923568     3.915925     3.908281     3.900638     3.892995     3.885352     3.877708     3.870065     3.862422     3.854779
      3.847136     3.839492     3.831849     3.824206     3.816563     3.808919     3.801276     3.793633     3.785990     3.778347
      3.770703     3.763060     3.755417     3.747774     3.740130     3.732487     3.724844     3.717201     3.709558     3.701914
      3.694271     3.686628     3.678985     3.671341     3.663698     3.656055     3.648412     3.640769     3.633125     3.625482
      3.617839     3.610196     3.602552     3.594909     3.587266     3.579623     3.571980     3.564336     3.556693     3.549050
      3.541407     3.533763     3.526120     3.518477     3.510834     3.503191     3.495547     3.487904     3.480261     3.472618
      3.464974     3.457331     3.449688     3.442045     3.434402     3.426758     3.419115     3.411472     3.403829     3.396185
      3.388542     3.380899     3.373256     3.365613     3.357969     3.350326     3.342683     3.335040     3.327396     3.319753
      3.312110     3.304467     3.296824     3.289180     3.281537     3.273894     3.266251     3.258607     3.250964     3.243321
      3.235678     3.228034     3.220391     3.212748     3.205105     3.197462     3.189818     3.182175     3.174532     3.166889
      3.159245     3.151602     3.143959     3.136316     3.128673     3.121029     3.113386     3.105743     3.098100     3.090456
      3.082813     3.075170     3.067527     3.059884     3.052240     3.044597     3.036954     3.029311     3.021667     3.014024
      3.006381     2.998738     2.991095     2.983451     2.975808     2.968165     2.960522     2.952878     2.945235     2.937592
      2.929949     2.922306     2.914662     2.907019     2.899376     2.891733     2.884089     2.876446     2.868803     2.861160
      2.853517     2.845873     2.838230     2.830587     2.822944     2.815300     2.807657     2.800014     2.792371     2.784728
      2.777084     2.769441     2.761798     2.754155     2.746511     2.738868     2.731225     2.723582     2.715939     2.708295
      2.700652     2.693009     2.685366     2.677722     2.670079     2.662436     2.654793     2.647150     2.639506     2.631863
      2.624220     2.616577     2.608933     2.601290     2.593647     2.586004     2.578361     2.570717     2.563074     2.555431
      2.547788     2.540144     2.532501     2.524858     2.517215     2.509572     2.501928     2.494285     2.486642     2.478999
      2.471355     2.463712     2.456069     2.448426     2.440783     2.433139     2.425496     2.417853     2.410210     2.402566
      2.394923     2.387280     2.379637     2.371994     2.364350     2.356707     2.349064     2.341421     2.333777     2.326134
      2.318491     2.310848     2.303205     2.295561     2.287918     2.280275     2.272632     2.264988     2.257345     2.249702
      2.242059     2.234416     2.226772     2.219129     2.211486     2.203843     2.196199     2.188556     2.180913     2.173270
      2.165627     2.157983     2.150340     2.142697     2.135054     2.127410     2.119767     2.112124     2.104481     2.096838
      2.089194     2.081551     2.073908     2.066265     2.058621     2.050978     2.043335     2.035692     2.028049     2.020405
      2.012762     2.005119     1.997476     1.989833     1.982190     1.974546     1.966903     1.959260     1.951617     1.943974
      1.936331     1.928688     1.921045     1.913402     1.905759     1.898115     1.890472     1.882829     1.875186     1.867543
      1.859900     1.852257     1.844614     1.836971     1.829327     1.821684     1.814041     1.806398     1.798755     1.791112
      1.783469     1.775826     1.768183     1.760540     1.752896     1.745253     1.737610     1.729967     1.722324     1.714681
      1.707038     1.699395     1.691752     1.684108     1.676465     1.668822     1.661179     1.653536     1.645893     1.638250
      1.630607     1.622964     1.615321     1.607677     1.600034     1.592391     1.584748     1.577105     1.569462     1.561819
      1.554176     1.546533     1.538890     1.531246     1.523603     1.515960     1.508317     1.500674     1.493031     1.485388
      1.477745     1.470102     1.462458     1.454815     1.447172     1.439529     1.431886     1.424243     1.416600     1.408957
      1.401314     1.393671     1.386027     1.378384     1.370741     1.363098     1.355455     1.347812     1.340169     1.332526
      1.324883     1.317240     1.309596     1.301953     1.294310     1.286667     1.279024     1.271381     1.263738     1.256095
      1.248452     1.240808     1.233165     1.225522     1.217879     1.210236     1.202593     1.194950     1.187307     1.179664
      1.172021     1.164377     1.156734     1.149091     1.141448     1.133805     1.126162     1.118519     1.110876     1.103233
      1.095590     1.087946     1.080303     1.072660     1.065017     1.057374     1.049731     1.042088     1.034445     1.026802
      1.019158     1.011515     1.003872     0.996229     0.988586     0.980943     0.973300     0.965657     0.958014     0.950371
      0.942727     0.935084     0.927441     0.919798     0.912155     0.904512     0.896869     0.889226     0.881583     0.873940
      0.866296     0.858653     0.851010     0.843367     0.835724     0.828081     0.820438     0.812795     0.805152     0.797508
      0.789865     0.782222     0.774579     0.766936     0.759293     0.751650     0.744007     0.736364     0.728721     0.721077
      0.713434     0.705791     0.698148     0.690505     0.682862     0.675219     0.667576     0.659933     0.652290     0.644646
      0.637003     0.629360     0.621717     0.614074     0.606431     0.598788     0.591145     0.583502     0.575858     0.568215
      0.560572     0.552929     0.545286     0.537643     0.530000     0.522357     0.514714     0.507071     0.499427     0.491784
      0.484141     0.476498     0.468855     0.461212     0.453569     0.445925     0.438282     0.430639     0.422996     0.415353
      0.407710     0.400067     0.392424     0.384780     0.377137     0.369494     0.361851     0.354208     0.346565     0.338922
      0.331278     0.323635     0.315992     0.308349     0.300706     0.293063     0.285420     0.277777     0.270133     0.262490
      0.254847     0.247204     0.239561     0.231918     0.224275     0.216631     0.208988     0.201345
 NY phased data points follow
   1.82090E+00  5.13622E+00  2.94681E+00  4.53775E+00  4.75913E+00  3.59374E+00  4.58664E+00  4.10994E+00  4.01861E+00  4.91435E+00
  -3.05334E+00 -2.09720E+00 -7.98812E-01  3.85315E+00  6.05336E+00  8.31668E+00 -1.18291E+00  1.47128E+00  2.97300E+00  7.14757E+00
   9.67038E+00 -2.07936E+00  1.21631E+00 -2.46561E+00  2.80618E+00  8.08208E+00  1.50566E-01  3.98481E+00  4.36741E-01  4.69422E+00
   3.51182E+00  3.62052E+00 -2.23759E+00 -2.50680E-01  5.33965E+00  5.17642E-01  2.16680E+00  7.38622E+00  6.25998E-01  3.24086E+00
   4.17902E-01  4.60921E+00 -2.81570E+00  7.24072E-01 -4.32233E-01  2.18268E+00  1.09675E+00  6.16842E-01 -1.00345E-01  4.37021E+00
   2.63599E+00 -4.36035E-01  1.60625E+00 -1.38486E+00  7.92372E+00  3.13362E+00  4.02928E-01  4.89034E+00 -1.11349E+00  4.78834E+00
   3.59351E+00  8.26250E-01  2.02054E+00  6.55253E-01  1.80484E+00  6.61375E+00  6.73538E+00  1.72678E+00  4.62075E+00  4.32881E+00
   6.05743E-01  6.82417E+00  2.98724E+00 -1.86316E+00  3.70727E+00  3.75776E+00 -1.33774E+00  4.07475E+00 -8.79121E-01 -2.35770E+00
   2.99569E+00  2.09889E+00  3.06248E+00  9.89614E-01  1.09523E+00  3.80903E+00 -5.42621E-01 -1.98464E-01  4.22467E+00  7.92426E+00
   5.58542E+00  2.44719E+00 -4.42664E+00  1.77833E+00 -2.23236E+00 -5.09105E-01 -1.05863E+00  3.57011E+00  1.84807E+00 -2.24788E+00
   2.98611E+00 -1.79504E+00 -5.58714E+00 -2.27221E+00 -4.84781E+00 -1.09053E+00  2.82512E+00  2.49217E+00  2.74204E+00 -1.68963E+00
   2.82142E+00  3.40345E+00  3.27927E+00  5.11174E+00  1.79303E+00  3.50405E+00 -1.55686E+00  4.80134E+00 -1.11942E+00  6.00893E+00
   7.65634E-01  3.95267E+00 -9.25651E-01  6.59893E+00  4.03432E-01  2.90164E-01 -8.58480E-01 -1.83204E+00 -3.13904E+00 -1.45445E+00
  -7.03347E+00 -5.14700E+00 -3.54402E+00 -3.89011E-01  5.34915E+00 -3.52938E+00  8.55269E-01  1.32565E+00  2.99812E-02 -2.03783E+00
   1.06694E+00  4.31772E+00  1.90010E+00  2.58938E+00  5.41474E+00  6.64993E+00  3.63464E+00  3.64674E+00  4.37402E+00  4.16065E+00
   5.71103E+00 -4.46321E+00  4.90528E-01  5.85698E+00 -7.05412E-02  3.03659E+00  3.62723E+00  2.03222E+00 -2.88034E-01  5.25846E+00
   4.19522E+00 -1.78422E+00  4.98071E-01 -2.42420E+00  1.31288E+00  9.44876E-01  1.78686E+00 -4.44759E+00  4.17834E+00  1.61351E+00
   7.15110E+00 -3.38796E+00  4.49370E+00  3.11314E+00 -2.74129E+00 -8.74591E-01  3.50499E+00  5.35313E+00  9.08194E-01 -2.19653E+00
   1.41496E+00  2.42994E+00  2.07905E+00  5.90837E+00  8.03148E-02  2.28329E+00  4.59759E+00  4.76221E-01 -7.18119E-02  1.82025E+00
   1.07510E+00  4.19229E+00 -1.16672E+00  2.86545E+00  4.06615E+00  6.11520E+00  1.52306E+00  1.44421E+00  2.98294E+00  4.37719E+00
   1.45542E+00  6.93576E+00 -6.12644E+00 -9.47037E-01  2.04170E+00  1.79982E+00 -2.68313E+00  1.44502E+00  6.08501E-01  6.84454E+00
   4.08979E+00  8.42461E+00 -7.98422E-01  1.11278E+00 -4.72443E+00  6.98442E+00  1.38196E+00  2.66184E+00  9.37867E+00  5.39274E+00
   4.69612E+00  5.09045E+00  3.97816E+00  2.83258E+00  5.51178E+00 -2.12380E+00  1.51207E+00 -5.50418E+00  3.23971E+00  2.59778E+00
   5.70854E+00  5.22377E+00  2.00026E-01  4.49690E+00  2.72819E+00  4.54882E+00  3.74307E+00  2.81555E+00  4.71079E+00  5.52797E+00
   1.90427E+00  2.68386E+00  3.48615E+00 -5.45187E+00 -2.50500E+00  3.15280E+00  7.19574E+00  5.45365E+00  2.99852E+00 -2.15514E+00
   9.08252E+00  3.02730E+00  7.01411E+00  5.63925E+00  7.10914E+00  5.51666E+00  1.15043E+01  1.59152E+01  1.42464E+01  9.74951E+00
   1.45628E+01  1.28630E+01  1.31402E+01  1.54083E+01  1.85644E+01  1.90340E+01  9.78531E+00  1.34562E+01  4.70771E+00  1.19913E+01
   9.47688E-01  3.43838E+00  3.81194E+00  4.74980E+00  4.72736E+00  1.01869E+01  2.52591E+00  3.12108E-02  8.40858E+00  4.03732E+00
   2.37049E+00  2.45298E+00  2.67060E+00 -3.10720E+00  2.45415E-01  3.36816E+00  2.83284E+00  5.98200E+00 -7.49907E-01  1.78645E+00
   6.80766E+00  4.05586E-01  1.48748E+00 -6.32599E-01  2.36867E+00  4.25712E-01  1.08455E+00  1.20413E+00  5.57929E+00  2.93133E+00
   6.23006E+00  6.09527E+00  2.90396E+00  7.64445E+00  1.08516E+01  8.42516E+00  1.07345E+00  8.98544E+00  8.02436E+00  1.72597E+01
   9.86833E+00  2.04669E+01  1.33785E+01  1.74517E+01  2.02140E+01  1.84553E+01  1.54930E+01  1.10953E+01  1.87868E+01  1.33078E+01
   1.33313E+01  1.44026E+01  2.40668E+01  1.88383E+01  1.32901E+01  1.82991E+01  1.92796E+01  1.46351E+01  2.31481E+01  1.92868E+01
   2.10480E+01  1.84964E+01  1.93213E+01  9.06103E+00  1.31548E+01  1.49225E+01  1.55765E+01  2.24681E+01  2.15017E+01  1.39198E+01
   1.64331E+01  1.94706E+01  1.80317E+01  1.96838E+01  2.09418E+01  1.59069E+01  1.96896E+01  1.76416E+01  1.16909E+01  2.09628E+01
   1.64475E+01  1.69926E+01  8.92474E+00  1.24367E+01  1.37050E+01  1.79868E+01  1.48214E+01  1.19300E+01  1.62320E+01  1.88115E+01
   2.12898E+01  1.26561E+01  1.59621E+01  9.97261E+00  1.79672E+01  1.50377E+01  1.17133E+01  1.83895E+01  1.41822E+01  1.83328E+01
   1.57299E+01  1.31384E+01  1.94187E+01  1.52213E+01  1.58011E+01  1.04129E+01  1.37895E+01  1.10102E+01  1.12605E+01  1.59459E+01
   1.60711E+01  1.50608E+01  1.69955E+01  1.96042E+01  1.78484E+01  1.88139E+01  1.49024E+01  1.32267E+01  1.85136E+01  1.51598E+01
   1.75803E+01  1.33509E+01  8.67280E+00  1.87563E+01  1.36685E+01  1.50194E+01  1.80507E+01  1.54618E+01  1.79958E+01  1.43351E+01
   1.56679E+01  1.03126E+01  1.44782E+01  1.41325E+01  1.68502E+01  1.58603E+01  1.12213E+01  1.07397E+01  1.76664E+01  1.31075E+01
   1.41000E+01  1.05482E+01  1.42832E+01  1.91005E+01  1.06189E+01  1.45903E+01  7.53568E+00  1.05854E+01  9.54981E+00  5.63645E+00
   1.32827E+01  8.05768E+00  6.40518E+00  1.16905E+01  7.19938E+00  5.92305E+00  5.30703E+00  6.55549E+00  9.83532E+00  7.84814E+00
   4.45912E+00  6.91560E+00  8.75513E+00  4.24385E+00  5.53639E+00  8.88237E+00  6.11019E+00  7.12038E+00 -5.02996E-01 -2.03176E+00
   8.41364E-01  1.16223E+00  1.58642E+00  2.36317E+00  1.13097E+00 -5.20914E+00 -1.97082E+00  6.40399E-01 -5.56812E-01  5.20495E-02
  -2.42709E+00  9.76559E-03  3.93614E+00  1.94499E-01  1.20368E+00 -3.87258E+00 -1.39108E+00  1.57977E+00 -4.53635E+00 -4.76210E+00
  -7.82731E-01 -2.62462E+00 -5.00702E+00 -7.49510E+00 -5.94945E+00 -2.58348E+00 -7.81393E+00 -7.42510E+00 -4.53992E+00 -9.08910E+00
  -6.83121E+00 -5.16062E+00 -3.36461E+00 -4.53214E+00 -5.47131E+00 -4.19334E+00 -5.60144E+00 -1.04393E+01 -9.23469E-02 -3.68401E+00
  -6.05945E+00 -3.37716E+00 -5.21169E+00 -3.56830E+00 -7.11911E+00 -3.98550E+00 -7.75977E+00 -4.11567E+00 -6.22404E+00 -2.81168E+00
  -2.60558E+00 -6.85175E+00 -8.96803E+00 -9.49699E+00 -9.51060E+00 -8.26025E+00 -7.42134E+00 -8.60405E+00
 NY points of the fit to the data follow
   3.11832E+00  3.24581E+00  3.09102E+00  3.21461E+00  3.09129E+00  3.17666E+00  3.08124E+00  3.11206E+00  3.03558E+00  3.03193E+00
   2.97617E+00  2.98608E+00  2.95009E+00  2.95926E+00  2.94043E+00  2.94485E+00  2.93068E+00  2.92293E+00  2.90588E+00  2.89795E+00
   2.88708E+00  2.87355E+00  2.86890E+00  2.84472E+00  2.85407E+00  2.80848E+00  2.82608E+00  2.74978E+00  2.77664E+00  2.67212E+00
   2.71768E+00  2.59547E+00  2.67387E+00  2.55478E+00  2.66747E+00  2.55277E+00  2.68222E+00  2.56168E+00  2.67886E+00  2.54377E+00
   2.63412E+00  2.49572E+00  2.56583E+00  2.44587E+00  2.50405E+00  2.41566E+00  2.46281E+00  2.39327E+00  2.42582E+00  2.37163E+00
   2.38286E+00  2.34237E+00  2.33817E+00  2.31453E+00  2.31305E+00  2.29969E+00  2.29562E+00  2.29034E+00  2.28062E+00  2.28018E+00
   2.26310E+00  2.26267E+00  2.24233E+00  2.24555E+00  2.22210E+00  2.22969E+00  2.20429E+00  2.21442E+00  2.18756E+00  2.19986E+00
   2.17435E+00  2.18650E+00  2.16500E+00  2.17376E+00  2.15845E+00  2.16225E+00  2.15778E+00  2.15445E+00  2.15753E+00  2.14534E+00
   2.15357E+00  2.13347E+00  2.14520E+00  2.12122E+00  2.13433E+00  2.10858E+00  2.11956E+00  2.09130E+00  2.09164E+00  2.05889E+00
   2.04107E+00  2.00365E+00  1.96943E+00  1.93460E+00  1.89465E+00  1.86967E+00  1.83150E+00  1.81416E+00  1.77942E+00  1.76868E+00
   1.73577E+00  1.72855E+00  1.69676E+00  1.68941E+00  1.66188E+00  1.65226E+00  1.63476E+00  1.62210E+00  1.60862E+00  1.59376E+00
   1.58505E+00  1.56922E+00  1.56234E+00  1.54424E+00  1.53566E+00  1.51702E+00  1.50992E+00  1.49482E+00  1.49170E+00  1.48251E+00
   1.48240E+00  1.47717E+00  1.48161E+00  1.48010E+00  1.48911E+00  1.49298E+00  1.50774E+00  1.51610E+00  1.53665E+00  1.54911E+00
   1.57432E+00  1.59021E+00  1.61832E+00  1.63751E+00  1.66860E+00  1.69247E+00  1.72791E+00  1.75780E+00  1.79831E+00  1.83568E+00
   1.88074E+00  1.92480E+00  1.97265E+00  2.02006E+00  2.06742E+00  2.11124E+00  2.15632E+00  2.19285E+00  2.23587E+00  2.26495E+00
   2.29903E+00  2.31170E+00  2.33089E+00  2.32415E+00  2.32874E+00  2.30276E+00  2.28942E+00  2.24271E+00  2.20985E+00  2.14735E+00
   2.08828E+00  2.01243E+00  1.92797E+00  1.84514E+00  1.74140E+00  1.65529E+00  1.53148E+00  1.44126E+00  1.30521E+00  1.19682E+00
   1.05630E+00  9.14593E-01  7.95142E-01  6.33335E-01  5.56092E-01  3.91163E-01  3.62181E-01  2.04915E-01  2.26879E-01  8.20013E-02
   1.49745E-01  1.79293E-02  1.25695E-01  3.51348E-02  1.60889E-01  1.27381E-01  2.49460E-01  2.70139E-01  3.83719E-01  4.48893E-01
   5.54627E-01  6.52171E-01  7.36998E-01  8.48603E-01  8.95060E-01  9.95769E-01  1.00516E+00  1.08411E+00  1.08333E+00  1.12505E+00
   1.12174E+00  1.11748E+00  1.12304E+00  1.07965E+00  1.10551E+00  1.02386E+00  1.06841E+00  9.53067E-01  1.01662E+00  8.95279E-01
   9.61130E-01  8.48342E-01  9.20316E-01  8.31998E-01  9.26395E-01  8.84085E-01  1.00669E+00  1.01773E+00  1.14749E+00  1.19839E+00
   1.31706E+00  1.39301E+00  1.49665E+00  1.58617E+00  1.68041E+00  1.76281E+00  1.84055E+00  1.91384E+00  1.97504E+00  2.03928E+00
   2.08111E+00  2.12980E+00  2.15615E+00  2.18814E+00  2.21411E+00  2.24865E+00  2.28178E+00  2.32250E+00  2.36459E+00  2.41395E+00
   2.46851E+00  2.53142E+00  2.60737E+00  2.71073E+00  2.91577E+00  3.12355E+00  3.44415E+00  3.77596E+00  4.16882E+00  4.65934E+00
   5.24637E+00  5.98351E+00  6.66090E+00  7.65486E+00  8.37307E+00  9.63192E+00  1.02431E+01  1.17017E+01  1.19816E+01  1.35097E+01
   1.33037E+01  1.47435E+01  1.38536E+01  1.49875E+01  1.33108E+01  1.39504E+01  1.16381E+01  1.17657E+01  9.39767E+00  9.22333E+00
   7.19145E+00  6.91030E+00  5.37301E+00  5.08561E+00  3.87299E+00  3.54460E+00  2.54191E+00  2.18489E+00  1.58104E+00  1.34676E+00
   1.26223E+00  1.21692E+00  1.19403E+00  1.18952E+00  1.20263E+00  1.23311E+00  1.28194E+00  1.35018E+00  1.43942E+00  1.55181E+00
   1.68916E+00  1.85617E+00  2.05386E+00  2.28907E+00  2.56256E+00  2.88179E+00  3.24699E+00  3.66521E+00  4.13480E+00  4.66132E+00
   5.24120E+00  5.87611E+00  6.56007E+00  7.29010E+00  8.05700E+00  8.85335E+00  9.66690E+00  1.04867E+01  1.12990E+01  1.20923E+01
   1.28555E+01  1.35817E+01  1.42450E+01  1.48517E+01  1.53801E+01  1.58361E+01  1.62245E+01  1.65380E+01  1.67864E+01  1.69556E+01
   1.71088E+01  1.71554E+01  1.72558E+01  1.71824E+01  1.72571E+01  1.70773E+01  1.71891E+01  1.69147E+01  1.70934E+01  1.67351E+01
   1.70287E+01  1.66352E+01  1.70506E+01  1.66613E+01  1.71928E+01  1.68876E+01  1.75191E+01  1.73347E+01  1.79381E+01  1.78452E+01
   1.82900E+01  1.82418E+01  1.83862E+01  1.83572E+01  1.81785E+01  1.82615E+01  1.78169E+01  1.80254E+01  1.73498E+01  1.76071E+01
   1.67792E+01  1.71008E+01  1.62302E+01  1.66618E+01  1.59312E+01  1.65937E+01  1.60970E+01  1.68841E+01  1.65150E+01  1.72100E+01
   1.68280E+01  1.71806E+01  1.67406E+01  1.67714E+01  1.63540E+01  1.62364E+01  1.58727E+01  1.57356E+01  1.53427E+01  1.50795E+01
   1.46913E+01  1.43150E+01  1.39539E+01  1.35747E+01  1.33000E+01  1.30986E+01  1.29576E+01  1.28743E+01  1.28480E+01  1.28783E+01
   1.29641E+01  1.31032E+01  1.32919E+01  1.35250E+01  1.37957E+01  1.40958E+01  1.44157E+01  1.47448E+01  1.50723E+01  1.53869E+01
   1.56778E+01  1.59351E+01  1.61502E+01  1.63163E+01  1.64288E+01  1.64852E+01  1.64855E+01  1.64317E+01  1.63282E+01  1.61806E+01
   1.59961E+01  1.57821E+01  1.55464E+01  1.52964E+01  1.50384E+01  1.47775E+01  1.45172E+01  1.42594E+01  1.40042E+01  1.37502E+01
   1.34946E+01  1.32336E+01  1.29627E+01  1.26771E+01  1.23721E+01  1.20436E+01  1.16882E+01  1.13035E+01  1.08884E+01  1.04427E+01
   9.96786E+00  9.46623E+00  8.94121E+00  8.39702E+00  7.83846E+00  7.27066E+00  6.69890E+00  6.12836E+00  5.56393E+00  5.01009E+00
   4.47078E+00  3.94930E+00  3.44834E+00  2.96991E+00  2.51541E+00  2.08564E+00  1.68090E+00  1.30105E+00  9.45552E-01  6.13612E-01
   3.04191E-01  1.61037E-02 -2.51938E-01 -5.01265E-01 -7.33223E-01 -9.49132E-01 -1.15027E+00 -1.33786E+00 -1.51304E+00 -1.67687E+00
  -1.83035E+00 -1.97437E+00 -2.10976E+00 -2.23728E+00 -2.35760E+00 -2.47134E+00 -2.57907E+00 -2.68127E+00 -2.77842E+00 -2.87091E+00
  -2.95913E+00 -3.04340E+00 -3.12403E+00 -3.20129E+00 -3.27544E+00 -3.34669E+00 -3.41526E+00 -3.48134E+00 -3.54508E+00 -3.60666E+00
  -3.66621E+00 -3.72387E+00 -3.77974E+00 -3.83396E+00 -3.88660E+00 -3.93778E+00 -3.98758E+00 -4.03607E+00 -4.08333E+00 -4.12943E+00
  -4.17443E+00 -4.21839E+00 -4.26138E+00 -4.30342E+00 -4.34459E+00 -4.38491E+00 -4.42443E+00 -4.46320E+00 -4.50124E+00 -4.53859E+00
  -4.57528E+00 -4.61134E+00 -4.64681E+00 -4.68169E+00 -4.71603E+00 -4.74984E+00 -4.78313E+00 -4.81594E+00
 NY background values follow
     3.048E+00    3.031E+00    3.014E+00    2.996E+00    2.979E+00    2.961E+00    2.944E+00    2.926E+00    2.909E+00    2.891E+00
     2.874E+00    2.856E+00    2.839E+00    2.821E+00    2.804E+00    2.786E+00    2.769E+00    2.751E+00    2.734E+00    2.716E+00
     2.699E+00    2.681E+00    2.664E+00    2.646E+00    2.629E+00    2.611E+00    2.594E+00    2.576E+00    2.559E+00    2.541E+00
     2.524E+00    2.507E+00    2.489E+00    2.472E+00    2.454E+00    2.437E+00    2.419E+00    2.402E+00    2.384E+00    2.367E+00
     2.349E+00    2.332E+00    2.314E+00    2.297E+00    2.279E+00    2.262E+00    2.244E+00    2.227E+00    2.209E+00    2.192E+00
     2.174E+00    2.157E+00    2.139E+00    2.122E+00    2.104E+00    2.087E+00    2.069E+00    2.052E+00    2.034E+00    2.017E+00
     2.000E+00    1.982E+00    1.965E+00    1.947E+00    1.930E+00    1.912E+00    1.895E+00    1.877E+00    1.860E+00    1.842E+00
     1.825E+00    1.807E+00    1.790E+00    1.772E+00    1.755E+00    1.737E+00    1.720E+00    1.702E+00    1.685E+00    1.667E+00
     1.650E+00    1.632E+00    1.615E+00    1.597E+00    1.580E+00    1.562E+00    1.545E+00    1.527E+00    1.510E+00    1.492E+00
     1.475E+00    1.458E+00    1.440E+00    1.423E+00    1.405E+00    1.388E+00    1.370E+00    1.353E+00    1.335E+00    1.318E+00
     1.300E+00    1.283E+00    1.265E+00    1.248E+00    1.230E+00    1.213E+00    1.195E+00    1.178E+00    1.160E+00    1.143E+00
     1.125E+00    1.108E+00    1.090E+00    1.073E+00    1.055E+00    1.038E+00    1.020E+00    1.003E+00    9.855E-01    9.680E-01
     9.505E-01    9.330E-01    9.155E-01    8.981E-01    8.806E-01    8.631E-01    8.456E-01    8.281E-01    8.106E-01    7.932E-01
     7.757E-01    7.582E-01    7.407E-01    7.232E-01    7.057E-01    6.883E-01    6.708E-01    6.533E-01    6.358E-01    6.183E-01
     6.008E-01    5.833E-01    5.659E-01    5.484E-01    5.309E-01    5.134E-01    4.959E-01    4.784E-01    4.610E-01    4.435E-01
     4.260E-01    4.085E-01    3.910E-01    3.735E-01    3.561E-01    3.386E-01    3.211E-01    3.036E-01    2.861E-01    2.686E-01
     2.512E-01    2.337E-01    2.162E-01    1.987E-01    1.812E-01    1.637E-01    1.463E-01    1.288E-01    1.113E-01    9.380E-02
     7.632E-02    5.883E-02    4.135E-02    2.386E-02    6.378E-03   -1.111E-02   -2.859E-02   -4.608E-02   -6.356E-02   -8.104E-02
    -9.853E-02   -1.160E-01   -1.335E-01   -1.510E-01   -1.685E-01   -1.860E-01   -2.034E-01   -2.209E-01   -2.384E-01   -2.559E-01
    -2.734E-01   -2.909E-01   -3.083E-01   -3.258E-01   -3.433E-01   -3.608E-01   -3.783E-01   -3.958E-01   -4.133E-01   -4.307E-01
    -4.482E-01   -4.657E-01   -4.832E-01   -5.007E-01   -5.182E-01   -5.357E-01   -5.531E-01   -5.706E-01   -5.881E-01   -6.056E-01
    -6.231E-01   -6.406E-01   -6.581E-01   -6.755E-01   -6.930E-01   -7.105E-01   -7.280E-01   -7.455E-01   -7.630E-01   -7.805E-01
    -7.979E-01   -8.154E-01   -8.329E-01   -8.504E-01   -8.679E-01   -8.854E-01   -9.029E-01   -9.203E-01   -9.378E-01   -9.553E-01
    -9.728E-01   -9.903E-01   -1.008E+00   -1.025E+00   -1.043E+00   -1.060E+00   -1.078E+00   -1.095E+00   -1.113E+00   -1.130E+00
    -1.148E+00   -1.165E+00   -1.183E+00   -1.200E+00   -1.218E+00   -1.235E+00   -1.253E+00   -1.270E+00   -1.288E+00   -1.305E+00
    -1.323E+00   -1.340E+00   -1.358E+00   -1.375E+00   -1.392E+00   -1.410E+00   -1.427E+00   -1.445E+00   -1.462E+00   -1.480E+00
    -1.497E+00   -1.515E+00   -1.532E+00   -1.550E+00   -1.567E+00   -1.585E+00   -1.602E+00   -1.620E+00   -1.637E+00   -1.655E+00
    -1.672E+00   -1.690E+00   -1.707E+00   -1.725E+00   -1.742E+00   -1.760E+00   -1.777E+00   -1.795E+00   -1.812E+00   -1.830E+00
    -1.847E+00   -1.865E+00   -1.882E+00   -1.900E+00   -1.917E+00   -1.935E+00   -1.952E+00   -1.970E+00   -1.987E+00   -2.005E+00
    -2.022E+00   -2.040E+00   -2.057E+00   -2.075E+00   -2.092E+00   -2.109E+00   -2.127E+00   -2.144E+00   -2.162E+00   -2.179E+00
    -2.197E+00   -2.214E+00   -2.232E+00   -2.249E+00   -2.267E+00   -2.284E+00   -2.302E+00   -2.319E+00   -2.337E+00   -2.354E+00
    -2.372E+00   -2.389E+00   -2.407E+00   -2.424E+00   -2.442E+00   -2.459E+00   -2.477E+00   -2.494E+00   -2.512E+00   -2.529E+00
    -2.547E+00   -2.564E+00   -2.582E+00   -2.599E+00   -2.617E+00   -2.634E+00   -2.652E+00   -2.669E+00   -2.687E+00   -2.704E+00
    -2.722E+00   -2.739E+00   -2.757E+00   -2.774E+00   -2.792E+00   -2.809E+00   -2.827E+00   -2.844E+00   -2.862E+00   -2.879E+00
    -2.896E+00   -2.914E+00   -2.931E+00   -2.949E+00   -2.966E+00   -2.984E+00   -3.001E+00   -3.019E+00   -3.036E+00   -3.054E+00
    -3.071E+00   -3.089E+00   -3.106E+00   -3.124E+00   -3.141E+00   -3.159E+00   -3.176E+00   -3.194E+00   -3.211E+00   -3.229E+00
    -3.246E+00   -3.264E+00   -3.281E+00   -3.299E+00   -3.316E+00   -3.334E+00   -3.351E+00   -3.369E+00   -3.386E+00   -3.404E+00
    -3.421E+00   -3.439E+00   -3.456E+00   -3.474E+00   -3.491E+00   -3.509E+00   -3.526E+00   -3.544E+00   -3.561E+00   -3.579E+00
    -3.596E+00   -3.614E+00   -3.631E+00   -3.649E+00   -3.666E+00   -3.684E+00   -3.701E+00   -3.719E+00   -3.736E+00   -3.754E+00
    -3.771E+00   -3.788E+00   -3.806E+00   -3.823E+00   -3.841E+00   -3.858E+00   -3.876E+00   -3.893E+00   -3.911E+00   -3.928E+00
    -3.946E+00   -3.963E+00   -3.981E+00   -3.998E+00   -4.016E+00   -4.033E+00   -4.051E+00   -4.068E+00   -4.086E+00   -4.103E+00
    -4.121E+00   -4.138E+00   -4.156E+00   -4.173E+00   -4.191E+00   -4.208E+00   -4.226E+00   -4.243E+00   -4.261E+00   -4.278E+00
    -4.296E+00   -4.313E+00   -4.331E+00   -4.348E+00   -4.366E+00   -4.383E+00   -4.401E+00   -4.418E+00   -4.436E+00   -4.453E+00
    -4.471E+00   -4.488E+00   -4.506E+00   -4.523E+00   -4.541E+00   -4.558E+00   -4.576E+00   -4.593E+00   -4.611E+00   -4.628E+00
    -4.646E+00   -4.663E+00   -4.681E+00   -4.698E+00   -4.716E+00   -4.733E+00   -4.750E+00   -4.768E+00   -4.785E+00   -4.803E+00
    -4.820E+00   -4.838E+00   -4.855E+00   -4.873E+00   -4.890E+00   -4.908E+00   -4.925E+00   -4.943E+00   -4.960E+00   -4.978E+00
    -4.995E+00   -5.013E+00   -5.030E+00   -5.048E+00   -5.065E+00   -5.083E+00   -5.100E+00   -5.118E+00   -5.135E+00   -5.153E+00
    -5.170E+00   -5.188E+00   -5.205E+00   -5.223E+00   -5.240E+00   -5.258E+00   -5.275E+00   -5.293E+00   -5.310E+00   -5.328E+00
    -5.345E+00   -5.363E+00   -5.380E+00   -5.398E+00   -5.415E+00   -5.433E+00   -5.450E+00   -5.468E+00   -5.485E+00   -5.503E+00
    -5.520E+00   -5.538E+00   -5.555E+00   -5.573E+00   -5.590E+00   -5.608E+00   -5.625E+00   -5.643E+00
 Ala      Conc. = 2.40E+02
