 LCModel (Version 6.3-1L) Copyright: S.W. Provencher.          Ref.: Magn. Reson. Med. 30:672-679 (1993).                
 Slice#2 Row#3 Col#4  PD_24_press_2_raw_act
 36 lines in following concentration table = NCONC+1
    Conc.  %SD /Cr+PCr  Metabolite                                         
  465.818  82%   0.362 Ala                                                 
   71.632 483% 5.6E-02 Asp                                                 
  849.346  73%   0.660 Cr                                                  
  436.960 144%   0.340 PCr                                                 
  148.499 149%   0.115 GABA                                                
  138.205 157%   0.107 Glc                                                 
 1.32E+03  69%   1.029 Gln                                                 
  172.310 594%   0.134 Glu                                                 
  657.581   9%   0.511 GPC                                                 
    0.000 999%   0.000 PCh                                                 
  311.290  71%   0.242 GSH                                                 
 1.69E+03  46%   1.313 Ins                                                 
    0.000 999%   0.000 Lac                                                 
 2.70E+03   6%   2.101 NAA                                                 
    0.000 999%   0.000 NAAG                                                
  268.589  21%   0.209 Scyllo                                              
  827.009  41%   0.643 Tau                                                 
 1.29E+03  23%   1.007 -CrCH2                                              
  657.581   9%   0.511 GPC+PCh                                             
 2.70E+03   6%   2.101 NAA+NAAG                                            
 1.29E+03  11%   1.000 Cr+PCr                                              
 1.50E+03 112%   1.163 Glu+Gln                                             
    0.000 999%   0.000 Lip13a                                              
  479.365  50%   0.373 Lip13b                                              
    0.000 999%   0.000 Lip09                                               
 1.57E+03  21%   1.221 MM09                                                
   71.197 162% 5.5E-02 Lip20                                               
 2.28E+03  24%   1.774 MM20                                                
  482.218  29%   0.375 MM12                                                
 2.07E+03  17%   1.612 MM14                                                
 1.29E+03  19%   1.000 MM17                                                
  479.365  50%   0.373 Lip13a+Lip13b                                       
 3.03E+03  17%   2.359 MM14+Lip13a+Lip13b+MM12                             
 1.57E+03  21%   1.221 MM09+Lip09                                          
 2.35E+03  24%   1.829 MM20+Lip20                                          
   6 lines in following misc. output table
  FWHM = 0.076 ppm    S/N =   4                                            
  Data shift = 0.031 ppm                                                   
  Ph: -42 deg     -11.4 deg/ppm                                            
  alphaB,S = 7.5E-01,   1.3E+01                                            
   14 spline knots.   Ns = 9(1)                                            
  (14) 9 infls.   (16) 6 extrs.                                            
  498 points on ppm-axis = NY
      4.000000     3.992357     3.984714     3.977070     3.969427     3.961784     3.954141     3.946497     3.938854     3.931211
      3.923568     3.915925     3.908281     3.900638     3.892995     3.885352     3.877708     3.870065     3.862422     3.854779
      3.847136     3.839492     3.831849     3.824206     3.816563     3.808919     3.801276     3.793633     3.785990     3.778347
      3.770703     3.763060     3.755417     3.747774     3.740130     3.732487     3.724844     3.717201     3.709558     3.701914
      3.694271     3.686628     3.678985     3.671341     3.663698     3.656055     3.648412     3.640769     3.633125     3.625482
      3.617839     3.610196     3.602552     3.594909     3.587266     3.579623     3.571980     3.564336     3.556693     3.549050
      3.541407     3.533763     3.526120     3.518477     3.510834     3.503191     3.495547     3.487904     3.480261     3.472618
      3.464974     3.457331     3.449688     3.442045     3.434402     3.426758     3.419115     3.411472     3.403829     3.396185
      3.388542     3.380899     3.373256     3.365613     3.357969     3.350326     3.342683     3.335040     3.327396     3.319753
      3.312110     3.304467     3.296824     3.289180     3.281537     3.273894     3.266251     3.258607     3.250964     3.243321
      3.235678     3.228034     3.220391     3.212748     3.205105     3.197462     3.189818     3.182175     3.174532     3.166889
      3.159245     3.151602     3.143959     3.136316     3.128673     3.121029     3.113386     3.105743     3.098100     3.090456
      3.082813     3.075170     3.067527     3.059884     3.052240     3.044597     3.036954     3.029311     3.021667     3.014024
      3.006381     2.998738     2.991095     2.983451     2.975808     2.968165     2.960522     2.952878     2.945235     2.937592
      2.929949     2.922306     2.914662     2.907019     2.899376     2.891733     2.884089     2.876446     2.868803     2.861160
      2.853517     2.845873     2.838230     2.830587     2.822944     2.815300     2.807657     2.800014     2.792371     2.784728
      2.777084     2.769441     2.761798     2.754155     2.746511     2.738868     2.731225     2.723582     2.715939     2.708295
      2.700652     2.693009     2.685366     2.677722     2.670079     2.662436     2.654793     2.647150     2.639506     2.631863
      2.624220     2.616577     2.608933     2.601290     2.593647     2.586004     2.578361     2.570717     2.563074     2.555431
      2.547788     2.540144     2.532501     2.524858     2.517215     2.509572     2.501928     2.494285     2.486642     2.478999
      2.471355     2.463712     2.456069     2.448426     2.440783     2.433139     2.425496     2.417853     2.410210     2.402566
      2.394923     2.387280     2.379637     2.371994     2.364350     2.356707     2.349064     2.341421     2.333777     2.326134
      2.318491     2.310848     2.303205     2.295561     2.287918     2.280275     2.272632     2.264988     2.257345     2.249702
      2.242059     2.234416     2.226772     2.219129     2.211486     2.203843     2.196199     2.188556     2.180913     2.173270
      2.165627     2.157983     2.150340     2.142697     2.135054     2.127410     2.119767     2.112124     2.104481     2.096838
      2.089194     2.081551     2.073908     2.066265     2.058621     2.050978     2.043335     2.035692     2.028049     2.020405
      2.012762     2.005119     1.997476     1.989833     1.982190     1.974546     1.966903     1.959260     1.951617     1.943974
      1.936331     1.928688     1.921045     1.913402     1.905759     1.898115     1.890472     1.882829     1.875186     1.867543
      1.859900     1.852257     1.844614     1.836971     1.829327     1.821684     1.814041     1.806398     1.798755     1.791112
      1.783469     1.775826     1.768183     1.760540     1.752896     1.745253     1.737610     1.729967     1.722324     1.714681
      1.707038     1.699395     1.691752     1.684108     1.676465     1.668822     1.661179     1.653536     1.645893     1.638250
      1.630607     1.622964     1.615321     1.607677     1.600034     1.592391     1.584748     1.577105     1.569462     1.561819
      1.554176     1.546533     1.538890     1.531246     1.523603     1.515960     1.508317     1.500674     1.493031     1.485388
      1.477745     1.470102     1.462458     1.454815     1.447172     1.439529     1.431886     1.424243     1.416600     1.408957
      1.401314     1.393671     1.386027     1.378384     1.370741     1.363098     1.355455     1.347812     1.340169     1.332526
      1.324883     1.317240     1.309596     1.301953     1.294310     1.286667     1.279024     1.271381     1.263738     1.256095
      1.248452     1.240808     1.233165     1.225522     1.217879     1.210236     1.202593     1.194950     1.187307     1.179664
      1.172021     1.164377     1.156734     1.149091     1.141448     1.133805     1.126162     1.118519     1.110876     1.103233
      1.095590     1.087946     1.080303     1.072660     1.065017     1.057374     1.049731     1.042088     1.034445     1.026802
      1.019158     1.011515     1.003872     0.996229     0.988586     0.980943     0.973300     0.965657     0.958014     0.950371
      0.942727     0.935084     0.927441     0.919798     0.912155     0.904512     0.896869     0.889226     0.881583     0.873940
      0.866296     0.858653     0.851010     0.843367     0.835724     0.828081     0.820438     0.812795     0.805152     0.797508
      0.789865     0.782222     0.774579     0.766936     0.759293     0.751650     0.744007     0.736364     0.728721     0.721077
      0.713434     0.705791     0.698148     0.690505     0.682862     0.675219     0.667576     0.659933     0.652290     0.644646
      0.637003     0.629360     0.621717     0.614074     0.606431     0.598788     0.591145     0.583502     0.575858     0.568215
      0.560572     0.552929     0.545286     0.537643     0.530000     0.522357     0.514714     0.507071     0.499427     0.491784
      0.484141     0.476498     0.468855     0.461212     0.453569     0.445925     0.438282     0.430639     0.422996     0.415353
      0.407710     0.400067     0.392424     0.384780     0.377137     0.369494     0.361851     0.354208     0.346565     0.338922
      0.331278     0.323635     0.315992     0.308349     0.300706     0.293063     0.285420     0.277777     0.270133     0.262490
      0.254847     0.247204     0.239561     0.231918     0.224275     0.216631     0.208988     0.201345
 NY phased data points follow
  -1.57914E+02 -1.82146E+02 -1.77135E+02 -1.46949E+02 -1.58773E+02 -1.47988E+02 -1.38364E+02 -1.45876E+02 -1.32037E+02 -1.30495E+02
  -1.32122E+02 -1.23920E+02 -1.15652E+02 -1.29166E+02 -1.27964E+02 -1.22125E+02 -1.27868E+02 -1.30030E+02 -1.34315E+02 -1.34838E+02
  -1.22402E+02 -1.17571E+02 -1.33675E+02 -1.26765E+02 -1.24006E+02 -1.25429E+02 -1.22925E+02 -1.19064E+02 -1.02294E+02 -1.07196E+02
  -1.15386E+02 -1.13662E+02 -1.05118E+02 -9.94307E+01 -1.11825E+02 -1.08252E+02 -9.39212E+01 -8.75494E+01 -1.05635E+02 -9.48213E+01
  -9.65673E+01 -8.51290E+01 -1.02716E+02 -9.11781E+01 -9.08057E+01 -8.78551E+01 -8.89122E+01 -9.44571E+01 -8.23375E+01 -8.41838E+01
  -8.85436E+01 -7.66184E+01 -8.67235E+01 -8.07731E+01 -7.85450E+01 -9.55197E+01 -8.19377E+01 -9.03481E+01 -8.08061E+01 -7.69901E+01
  -7.72886E+01 -8.36384E+01 -8.09965E+01 -8.00548E+01 -8.44248E+01 -7.53999E+01 -8.21018E+01 -8.09716E+01 -8.55883E+01 -7.68445E+01
  -7.20902E+01 -6.68488E+01 -8.24558E+01 -6.76288E+01 -7.42910E+01 -7.32860E+01 -7.11832E+01 -6.12157E+01 -7.24618E+01 -5.58123E+01
  -6.85434E+01 -6.60507E+01 -7.38546E+01 -5.21954E+01 -5.05964E+01 -4.89042E+01 -5.19706E+01 -5.05264E+01 -4.85179E+01 -5.29267E+01
  -4.85002E+01 -4.99029E+01 -4.82609E+01 -5.12080E+01 -5.11417E+01 -4.67365E+01 -3.96521E+01 -3.15266E+01 -3.64155E+01 -3.31310E+01
  -2.03683E+01 -2.22157E+01 -1.58877E+01 -1.67784E+01 -1.74950E+01 -3.78395E+00 -1.11460E+01 -2.13164E+01 -2.96494E+01 -3.23971E+01
  -2.53020E+01 -3.07722E+01 -3.42388E+01 -3.60552E+01 -5.07900E+01 -4.20401E+01 -5.51354E+01 -5.53198E+01 -5.88181E+01 -4.33879E+01
  -4.00802E+01 -3.00914E+01 -2.54424E+01 -2.55872E+01 -1.81798E+01 -2.33010E+01 -1.92841E+01 -1.52913E+01 -2.09436E+01 -5.22694E+00
  -1.37512E+01 -1.49345E+01 -2.71296E+01 -2.15629E+01 -3.15966E+01 -3.06635E+01 -3.42603E+01 -3.77672E+01 -4.22289E+01 -3.43234E+01
  -4.85015E+01 -3.43940E+01 -4.11413E+01 -4.39884E+01 -4.36222E+01 -4.58293E+01 -3.66676E+01 -3.17597E+01 -3.40839E+01 -2.85567E+01
  -3.36891E+01 -3.18245E+01 -3.92888E+01 -3.41151E+01 -4.11476E+01 -3.56422E+01 -2.96463E+01 -3.53425E+01 -3.13449E+01 -2.49051E+01
  -2.21624E+01 -2.40270E+01 -3.58519E+01 -2.26725E+01 -2.80435E+01 -3.32626E+01 -2.54614E+01 -3.74834E+01 -3.13925E+01 -3.39331E+01
  -3.08329E+01 -2.92778E+01 -2.84042E+01 -3.60671E+01 -4.17042E+01 -3.89583E+01 -2.74833E+01 -3.89962E+01 -3.94933E+01 -3.14509E+01
  -2.85010E+01 -2.64380E+01 -3.61845E+01 -3.85084E+01 -2.44686E+01 -3.26322E+01 -3.68375E+01 -2.23668E+01 -2.29187E+01 -2.09956E+01
  -2.68983E+01 -2.00977E+01 -1.46620E+01 -1.45946E+01 -1.48972E+01 -2.07504E+01 -2.39569E+01 -1.74575E+01 -9.18690E+00 -1.47410E+01
  -1.89926E+01 -1.89510E+01 -1.55828E+01 -2.97999E+01 -1.75502E+01 -2.02836E+01 -1.92000E+01 -1.39238E+01 -1.63755E+01 -1.08523E+01
  -1.39286E+01 -1.38081E+01 -1.44871E+01 -1.19618E+01 -8.49377E+00 -1.06027E+01 -6.55050E+00 -1.44783E+01 -2.28715E+01 -5.71944E+00
   6.73074E+00 -5.94641E+00 -6.64002E+00 -3.03786E+00 -1.37488E+01  5.67198E+00 -8.57994E+00  4.50767E+00  7.85106E-01 -7.97388E+00
  -3.24814E+00  1.34100E+01 -3.86209E+00 -4.42105E+00 -3.67915E+00  6.92041E+00  2.76661E-02 -1.37360E+00 -4.56753E+00 -6.12199E-01
  -1.19457E+00 -1.63204E+00 -3.40294E+00 -5.89928E+00  8.01789E+00 -9.53868E+00 -6.05287E-01 -2.65097E+00 -9.81438E+00 -2.28425E+00
  -3.92003E+00 -1.02345E+01 -1.42581E+01  7.28610E-01  2.08449E+01  1.96905E+01  4.62808E+01  5.29668E+01  4.96063E+01  7.28208E+01
   6.25138E+01  6.06582E+01  6.85185E+01  5.99046E+01  5.14882E+01  4.30404E+01  2.82383E+01  1.11840E+01  2.56888E+01  1.20090E+01
   1.01560E+01  1.59128E+01 -3.92382E-01 -2.06304E+00 -5.26590E-01 -1.23741E-01  9.77215E+00 -2.29708E+00  1.62490E+00  1.05619E+01
   2.14560E+01 -2.50170E+00  6.70209E+00 -9.97522E-01 -3.97437E+00 -1.05492E+00 -5.47591E+00 -5.54022E+00  2.47116E+00  3.05190E+00
  -4.90418E+00  3.06393E+00 -1.74698E+01 -5.32023E+00 -6.24141E+00  2.81330E+00  2.97841E+00 -6.28699E+00 -1.71673E+00 -7.70305E+00
  -1.32076E+01  1.74475E+00 -1.40497E+01 -7.35447E+00 -9.41436E+00 -4.22417E+00 -1.10648E+01 -1.61358E+00  4.52504E+00 -2.09564E+00
   9.78629E+00  1.25265E+01  1.46110E+01  2.05671E+01  2.12568E+01  3.73099E+01  2.72593E+01  2.57346E+01  2.09392E+01  2.86872E+01
   2.85610E+01  3.11592E+01  2.79601E+01  2.95217E+01  2.29864E+01  2.74084E+01  2.83976E+01  2.73987E+01  2.55589E+01  3.38905E+01
   1.44043E+01  2.44469E+01  1.63057E+01  2.02501E+01  1.48240E+01  6.77568E+00  8.54528E+00  9.42300E+00  1.05113E+01  6.98764E+00
   4.48184E+00  1.90120E+01  7.64960E+00  4.96739E+00  2.65274E+00  2.06562E+01  1.33037E+01  1.27427E+01  1.37731E+01  1.22990E+01
   7.70329E+00  1.40148E+01  1.84871E+01  1.17166E+01  8.26995E+00  1.36199E+01  8.11128E+00  1.48156E+01  2.29136E+01  1.42018E+01
   4.18184E+00  2.74052E+00  1.13131E+00 -2.54507E+00  1.87162E+01  1.49514E+01  1.71346E+01  1.21015E+01  7.18318E+00  1.68095E+01
   8.40508E+00  3.89425E+00  9.16305E+00  1.04432E+01  1.06079E+01  1.88243E+01  1.58440E+01  5.08640E+00  7.28777E+00  1.21877E+01
   7.04382E-01  1.01674E+01  6.66435E+00  2.19963E+01  1.36115E+00  1.00648E+01  5.20522E+00 -5.69296E+00  9.59173E+00  3.46143E+00
  -8.75700E+00 -3.19784E+00  1.02847E+01  6.56505E+00  5.17732E-01  2.13921E+01  1.69595E+01  6.90319E+00  1.28259E+01  6.08772E+00
   1.38718E+01  8.33911E+00  1.61012E+01  2.38466E+01  2.34079E+00  2.29249E+01  1.66418E+01  7.40235E+00  8.75955E+00  2.40354E+01
   2.00745E+01  2.12529E+01  1.52912E+01  1.81741E+01  9.37526E+00  1.93978E+01  2.19724E+01  1.80898E+01  8.97251E+00  9.89174E+00
   1.13782E+01  8.19932E+00  1.07372E+01  1.61433E+01  1.98025E+01  1.68035E+01  4.11341E+00  9.01465E+00  1.31672E+01  1.07473E+01
   9.64923E+00  2.60408E+01  8.65382E+00  1.11481E+01  1.42903E+01  1.64303E+01  1.91286E+01  2.27988E+01  1.86361E+01  1.25776E+01
   1.78779E+01  1.30014E+01  1.24126E+01  1.17909E+01  1.71512E+01  1.10242E+01  1.75320E+01  1.30737E+01  1.61953E+01  1.77592E+01
   1.88491E+01  1.93683E+01  1.45174E+01  1.50038E+01  1.24094E+01  1.99480E+01  3.19243E+01  1.07102E+01  2.07805E+00  4.20553E+00
   2.11819E+01  1.31949E+01  1.27899E+01  1.71218E+01  1.99378E+01  2.25960E+01  2.10039E+01  1.78337E+01 -4.37842E+00  1.40155E+01
   8.81555E+00  8.48080E+00  9.78995E+00  1.35470E+01  1.22628E+01  3.98745E+00  1.66180E+01  1.36523E+01  7.28328E+00  2.54277E+01
   1.66923E+01  9.64563E+00  1.13528E+01  2.15837E+01  1.13840E+01  1.80457E+01  8.76168E+00  2.27518E+01  4.00119E+00  1.37508E+01
   1.78616E+01  2.64034E+00  1.96635E+01  6.16632E+00  7.57498E+00  8.94547E+00  5.90387E+00  6.62851E+00
 NY points of the fit to the data follow
  -1.46751E+02 -1.52443E+02 -1.52827E+02 -1.49768E+02 -1.47421E+02 -1.45836E+02 -1.44272E+02 -1.40439E+02 -1.36779E+02 -1.35923E+02
  -1.34730E+02 -1.30723E+02 -1.25897E+02 -1.22538E+02 -1.22026E+02 -1.23570E+02 -1.24547E+02 -1.23499E+02 -1.20274E+02 -1.19710E+02
  -1.21033E+02 -1.22942E+02 -1.23460E+02 -1.21968E+02 -1.19878E+02 -1.18029E+02 -1.15879E+02 -1.13952E+02 -1.12513E+02 -1.11226E+02
  -1.10023E+02 -1.08338E+02 -1.06004E+02 -1.04838E+02 -1.04998E+02 -1.05019E+02 -1.04651E+02 -1.04948E+02 -1.05298E+02 -1.03523E+02
  -1.00343E+02 -9.82020E+01 -9.71028E+01 -9.56593E+01 -9.36423E+01 -9.18359E+01 -9.09023E+01 -9.03987E+01 -8.92789E+01 -8.82571E+01
  -8.86857E+01 -8.93114E+01 -8.94263E+01 -8.92717E+01 -8.83834E+01 -8.71377E+01 -8.64127E+01 -8.61357E+01 -8.58267E+01 -8.50076E+01
  -8.40887E+01 -8.28321E+01 -8.16854E+01 -8.11828E+01 -8.04740E+01 -7.95126E+01 -7.93480E+01 -7.85480E+01 -7.62465E+01 -7.45998E+01
  -7.36534E+01 -7.26624E+01 -7.21682E+01 -7.16643E+01 -7.07494E+01 -7.02189E+01 -6.98102E+01 -6.99266E+01 -6.97338E+01 -6.63319E+01
  -6.32728E+01 -6.28453E+01 -6.17066E+01 -5.93681E+01 -5.74393E+01 -5.60432E+01 -5.62145E+01 -5.62889E+01 -5.48090E+01 -5.47961E+01
  -5.64017E+01 -5.69084E+01 -5.75724E+01 -5.94223E+01 -6.30462E+01 -5.82052E+01 -4.49261E+01 -3.81295E+01 -3.45087E+01 -2.70621E+01
  -2.01484E+01 -1.54586E+01 -1.37069E+01 -1.48812E+01 -1.24286E+01 -9.32267E+00 -1.30747E+01 -2.02748E+01 -2.72483E+01 -3.34757E+01
  -3.58260E+01 -3.67658E+01 -3.90409E+01 -4.39702E+01 -4.78358E+01 -4.85429E+01 -4.87223E+01 -4.99317E+01 -5.23114E+01 -4.66350E+01
  -3.68841E+01 -3.26216E+01 -2.94802E+01 -2.39033E+01 -1.98388E+01 -1.67210E+01 -1.53039E+01 -1.52631E+01 -1.26722E+01 -1.13042E+01
  -1.49555E+01 -2.01240E+01 -2.48166E+01 -2.86838E+01 -2.98552E+01 -3.04565E+01 -3.21589E+01 -3.57951E+01 -3.77617E+01 -3.79309E+01
  -3.76884E+01 -3.71494E+01 -3.65657E+01 -3.60739E+01 -3.57273E+01 -3.54713E+01 -3.51981E+01 -3.48986E+01 -3.46309E+01 -3.43314E+01
  -3.40767E+01 -3.37586E+01 -3.32676E+01 -3.31084E+01 -3.34304E+01 -3.35308E+01 -3.34968E+01 -3.31122E+01 -3.24096E+01 -3.22078E+01
  -3.20927E+01 -3.15930E+01 -3.14206E+01 -3.14597E+01 -3.12768E+01 -3.10034E+01 -3.04670E+01 -2.99205E+01 -3.01846E+01 -3.12157E+01
  -3.15959E+01 -3.11251E+01 -3.05570E+01 -3.04948E+01 -3.08201E+01 -3.09329E+01 -3.04415E+01 -3.00253E+01 -2.98438E+01 -2.97097E+01
  -2.96135E+01 -2.89549E+01 -2.82748E+01 -2.79920E+01 -2.72547E+01 -2.58491E+01 -2.45585E+01 -2.32985E+01 -2.27547E+01 -2.21540E+01
  -2.12466E+01 -2.07100E+01 -2.04766E+01 -2.01262E+01 -1.98337E+01 -1.96356E+01 -1.89759E+01 -1.75752E+01 -1.59122E+01 -1.47498E+01
  -1.37269E+01 -1.26345E+01 -1.32107E+01 -1.45807E+01 -1.43191E+01 -1.44831E+01 -1.59516E+01 -1.69499E+01 -1.72977E+01 -1.73957E+01
  -1.73039E+01 -1.76728E+01 -1.74860E+01 -1.59325E+01 -1.46832E+01 -1.39806E+01 -1.29089E+01 -1.18750E+01 -1.09943E+01 -9.97472E+00
  -8.78603E+00 -8.01602E+00 -7.61852E+00 -7.18118E+00 -7.10145E+00 -7.13882E+00 -6.74900E+00 -6.22165E+00 -6.82718E+00 -7.79600E+00
  -7.62275E+00 -7.05087E+00 -6.93499E+00 -6.22514E+00 -4.78035E+00 -3.93314E+00 -3.40518E+00 -3.13379E+00 -3.15316E+00 -2.86323E+00
  -2.42074E+00 -2.45805E+00 -2.48267E+00 -2.50305E+00 -2.81768E+00 -2.92173E+00 -2.38441E+00 -1.78027E+00 -1.10361E+00 -4.64061E-01
  -8.32487E-01 -6.43118E+00 -8.49323E+00  1.02317E+01  2.68661E+01  3.13307E+01  3.94422E+01  4.98851E+01  5.59788E+01  6.08771E+01
   5.97731E+01  5.96466E+01  6.57008E+01  6.38850E+01  5.31456E+01  4.25241E+01  3.21539E+01  2.53245E+01  2.34396E+01  2.03411E+01
   1.42341E+01  5.76321E+00  2.69233E+00  1.75572E+00  1.21481E+00  8.46418E-01  5.42934E-01  2.49684E-01  2.83976E-02 -1.60177E-01
  -3.55698E-01 -5.28891E-01 -6.63943E-01 -7.74061E-01 -8.62063E-01 -9.23448E-01 -9.74779E-01 -1.00538E+00 -1.00580E+00 -9.95361E-01
  -9.82599E-01 -9.52327E-01 -9.11396E-01 -8.57186E-01 -7.77313E-01 -6.82727E-01 -5.70090E-01 -4.18559E-01 -2.20263E-01  2.88251E-02
   3.39782E-01  7.23864E-01  1.19286E+00  1.75305E+00  2.41953E+00  3.19799E+00  4.09369E+00  5.10987E+00  6.24491E+00  7.49210E+00
   8.84146E+00  1.02775E+01  1.17798E+01  1.33234E+01  1.48792E+01  1.64146E+01  1.78903E+01  1.92348E+01  2.03783E+01  2.22683E+01
   2.48025E+01  2.58596E+01  2.59753E+01  2.63781E+01  2.63784E+01  2.57423E+01  2.41370E+01  2.15134E+01  2.06458E+01  2.05060E+01
   1.87789E+01  1.69787E+01  1.60719E+01  1.53907E+01  1.52580E+01  1.48468E+01  1.40228E+01  1.38046E+01  1.37502E+01  1.34897E+01
   1.29373E+01  1.20725E+01  1.12032E+01  1.07909E+01  1.05679E+01  1.02844E+01  9.68686E+00  9.38891E+00  9.40331E+00  9.63015E+00
   1.00100E+01  1.04874E+01  1.10023E+01  1.14920E+01  1.18972E+01  1.21688E+01  1.22748E+01  1.22041E+01  1.19670E+01  1.15922E+01
   1.11213E+01  1.06006E+01  1.00746E+01  9.57899E+00  9.13875E+00  8.76679E+00  8.46620E+00  8.23217E+00  8.05552E+00  7.92480E+00
   7.82922E+00  7.75947E+00  7.70893E+00  7.67289E+00  7.64880E+00  7.63528E+00  7.63251E+00  7.64139E+00  7.66378E+00  7.70144E+00
   7.75653E+00  7.83098E+00  7.92725E+00  8.04772E+00  8.19509E+00  8.37159E+00  8.57962E+00  8.82116E+00  9.09851E+00  9.41343E+00
   9.76749E+00  1.01612E+01  1.05945E+01  1.10663E+01  1.15747E+01  1.21163E+01  1.26867E+01  1.32792E+01  1.38865E+01  1.44993E+01
   1.51081E+01  1.57018E+01  1.62692E+01  1.67984E+01  1.72785E+01  1.76992E+01  1.80520E+01  1.83296E+01  1.85272E+01  1.86417E+01
   1.86731E+01  1.86236E+01  1.84980E+01  1.83026E+01  1.80456E+01  1.77365E+01  1.73858E+01  1.70041E+01  1.66022E+01  1.61898E+01
   1.57762E+01  1.53693E+01  1.49763E+01  1.46027E+01  1.42528E+01  1.39294E+01  1.36343E+01  1.33682E+01  1.31314E+01  1.29230E+01
   1.27419E+01  1.25861E+01  1.24539E+01  1.23433E+01  1.22526E+01  1.21794E+01  1.21221E+01  1.20786E+01  1.20474E+01  1.20269E+01
   1.20160E+01  1.20132E+01  1.20175E+01  1.20278E+01  1.20433E+01  1.20633E+01  1.20873E+01  1.21143E+01  1.21440E+01  1.21756E+01
   1.22091E+01  1.22440E+01  1.22799E+01  1.23165E+01  1.23535E+01  1.23907E+01  1.24284E+01  1.24661E+01  1.25040E+01  1.25416E+01
   1.25790E+01  1.26162E+01  1.26533E+01  1.26901E+01  1.27267E+01  1.27627E+01  1.27983E+01  1.28335E+01  1.28685E+01  1.29030E+01
   1.29371E+01  1.29707E+01  1.30039E+01  1.30366E+01  1.30692E+01  1.31012E+01  1.31329E+01  1.31640E+01  1.31949E+01  1.32255E+01
   1.32559E+01  1.32859E+01  1.33156E+01  1.33450E+01  1.33743E+01  1.34034E+01  1.34323E+01  1.34610E+01  1.34896E+01  1.35179E+01
   1.35464E+01  1.35747E+01  1.36031E+01  1.36313E+01  1.36595E+01  1.36878E+01  1.37162E+01  1.37446E+01
 NY background values follow
    -1.511E+02   -1.500E+02   -1.490E+02   -1.479E+02   -1.469E+02   -1.458E+02   -1.448E+02   -1.437E+02   -1.427E+02   -1.416E+02
    -1.406E+02   -1.395E+02   -1.385E+02   -1.374E+02   -1.364E+02   -1.353E+02   -1.343E+02   -1.333E+02   -1.322E+02   -1.312E+02
    -1.301E+02   -1.291E+02   -1.281E+02   -1.270E+02   -1.260E+02   -1.250E+02   -1.239E+02   -1.229E+02   -1.219E+02   -1.209E+02
    -1.199E+02   -1.188E+02   -1.178E+02   -1.168E+02   -1.158E+02   -1.148E+02   -1.138E+02   -1.128E+02   -1.118E+02   -1.109E+02
    -1.099E+02   -1.089E+02   -1.079E+02   -1.070E+02   -1.060E+02   -1.050E+02   -1.041E+02   -1.031E+02   -1.022E+02   -1.013E+02
    -1.003E+02   -9.939E+01   -9.847E+01   -9.755E+01   -9.664E+01   -9.573E+01   -9.483E+01   -9.393E+01   -9.304E+01   -9.215E+01
    -9.127E+01   -9.039E+01   -8.952E+01   -8.866E+01   -8.780E+01   -8.694E+01   -8.610E+01   -8.525E+01   -8.442E+01   -8.359E+01
    -8.276E+01   -8.194E+01   -8.113E+01   -8.032E+01   -7.952E+01   -7.873E+01   -7.794E+01   -7.716E+01   -7.638E+01   -7.561E+01
    -7.485E+01   -7.409E+01   -7.334E+01   -7.260E+01   -7.186E+01   -7.113E+01   -7.041E+01   -6.969E+01   -6.898E+01   -6.827E+01
    -6.758E+01   -6.689E+01   -6.620E+01   -6.553E+01   -6.485E+01   -6.419E+01   -6.353E+01   -6.288E+01   -6.224E+01   -6.160E+01
    -6.097E+01   -6.034E+01   -5.973E+01   -5.911E+01   -5.850E+01   -5.790E+01   -5.731E+01   -5.672E+01   -5.613E+01   -5.555E+01
    -5.498E+01   -5.441E+01   -5.385E+01   -5.329E+01   -5.274E+01   -5.220E+01   -5.166E+01   -5.112E+01   -5.059E+01   -5.006E+01
    -4.954E+01   -4.902E+01   -4.851E+01   -4.800E+01   -4.750E+01   -4.700E+01   -4.651E+01   -4.602E+01   -4.553E+01   -4.505E+01
    -4.457E+01   -4.410E+01   -4.363E+01   -4.316E+01   -4.270E+01   -4.225E+01   -4.179E+01   -4.134E+01   -4.089E+01   -4.045E+01
    -4.001E+01   -3.957E+01   -3.914E+01   -3.871E+01   -3.828E+01   -3.786E+01   -3.744E+01   -3.703E+01   -3.661E+01   -3.620E+01
    -3.579E+01   -3.539E+01   -3.499E+01   -3.459E+01   -3.420E+01   -3.380E+01   -3.341E+01   -3.303E+01   -3.264E+01   -3.226E+01
    -3.188E+01   -3.151E+01   -3.114E+01   -3.076E+01   -3.040E+01   -3.003E+01   -2.967E+01   -2.931E+01   -2.895E+01   -2.859E+01
    -2.824E+01   -2.789E+01   -2.754E+01   -2.719E+01   -2.685E+01   -2.650E+01   -2.616E+01   -2.582E+01   -2.548E+01   -2.515E+01
    -2.482E+01   -2.448E+01   -2.416E+01   -2.383E+01   -2.350E+01   -2.318E+01   -2.286E+01   -2.254E+01   -2.222E+01   -2.190E+01
    -2.159E+01   -2.128E+01   -2.097E+01   -2.066E+01   -2.035E+01   -2.005E+01   -1.975E+01   -1.945E+01   -1.916E+01   -1.887E+01
    -1.857E+01   -1.829E+01   -1.800E+01   -1.772E+01   -1.744E+01   -1.716E+01   -1.689E+01   -1.661E+01   -1.634E+01   -1.608E+01
    -1.582E+01   -1.555E+01   -1.530E+01   -1.504E+01   -1.479E+01   -1.454E+01   -1.430E+01   -1.405E+01   -1.382E+01   -1.358E+01
    -1.335E+01   -1.312E+01   -1.289E+01   -1.267E+01   -1.245E+01   -1.224E+01   -1.202E+01   -1.181E+01   -1.161E+01   -1.141E+01
    -1.121E+01   -1.101E+01   -1.082E+01   -1.063E+01   -1.045E+01   -1.026E+01   -1.008E+01   -9.908E+00   -9.734E+00   -9.563E+00
    -9.394E+00   -9.228E+00   -9.065E+00   -8.904E+00   -8.745E+00   -8.589E+00   -8.436E+00   -8.284E+00   -8.135E+00   -7.988E+00
    -7.843E+00   -7.700E+00   -7.558E+00   -7.419E+00   -7.282E+00   -7.146E+00   -7.012E+00   -6.880E+00   -6.749E+00   -6.620E+00
    -6.492E+00   -6.365E+00   -6.240E+00   -6.116E+00   -5.993E+00   -5.872E+00   -5.751E+00   -5.632E+00   -5.513E+00   -5.395E+00
    -5.278E+00   -5.162E+00   -5.046E+00   -4.932E+00   -4.817E+00   -4.704E+00   -4.591E+00   -4.479E+00   -4.367E+00   -4.256E+00
    -4.146E+00   -4.037E+00   -3.928E+00   -3.820E+00   -3.712E+00   -3.605E+00   -3.499E+00   -3.393E+00   -3.288E+00   -3.184E+00
    -3.080E+00   -2.977E+00   -2.875E+00   -2.773E+00   -2.672E+00   -2.571E+00   -2.472E+00   -2.372E+00   -2.274E+00   -2.176E+00
    -2.079E+00   -1.982E+00   -1.886E+00   -1.790E+00   -1.695E+00   -1.601E+00   -1.508E+00   -1.415E+00   -1.322E+00   -1.231E+00
    -1.140E+00   -1.049E+00   -9.591E-01   -8.698E-01   -7.811E-01   -6.930E-01   -6.055E-01   -5.186E-01   -4.323E-01   -3.466E-01
    -2.615E-01   -1.769E-01   -9.296E-02   -9.541E-03    7.332E-02    1.556E-01    2.374E-01    3.186E-01    3.993E-01    4.795E-01
     5.591E-01    6.383E-01    7.169E-01    7.950E-01    8.727E-01    9.498E-01    1.026E+00    1.103E+00    1.178E+00    1.254E+00
     1.328E+00    1.403E+00    1.477E+00    1.550E+00    1.623E+00    1.696E+00    1.768E+00    1.840E+00    1.911E+00    1.982E+00
     2.053E+00    2.123E+00    2.193E+00    2.263E+00    2.332E+00    2.400E+00    2.469E+00    2.537E+00    2.604E+00    2.672E+00
     2.739E+00    2.806E+00    2.872E+00    2.938E+00    3.004E+00    3.070E+00    3.135E+00    3.200E+00    3.266E+00    3.331E+00
     3.396E+00    3.461E+00    3.526E+00    3.591E+00    3.656E+00    3.722E+00    3.788E+00    3.853E+00    3.919E+00    3.986E+00
     4.053E+00    4.120E+00    4.187E+00    4.255E+00    4.323E+00    4.392E+00    4.462E+00    4.532E+00    4.602E+00    4.674E+00
     4.746E+00    4.818E+00    4.892E+00    4.966E+00    5.041E+00    5.117E+00    5.194E+00    5.272E+00    5.351E+00    5.430E+00
     5.511E+00    5.593E+00    5.676E+00    5.761E+00    5.846E+00    5.933E+00    6.021E+00    6.110E+00    6.200E+00    6.292E+00
     6.385E+00    6.479E+00    6.574E+00    6.670E+00    6.767E+00    6.865E+00    6.963E+00    7.062E+00    7.162E+00    7.262E+00
     7.363E+00    7.464E+00    7.565E+00    7.667E+00    7.769E+00    7.871E+00    7.973E+00    8.075E+00    8.176E+00    8.278E+00
     8.380E+00    8.481E+00    8.581E+00    8.682E+00    8.782E+00    8.881E+00    8.979E+00    9.077E+00    9.174E+00    9.270E+00
     9.366E+00    9.460E+00    9.553E+00    9.645E+00    9.736E+00    9.825E+00    9.913E+00    1.000E+01    1.009E+01    1.017E+01
     1.025E+01    1.033E+01    1.041E+01    1.049E+01    1.056E+01    1.063E+01    1.071E+01    1.078E+01    1.084E+01    1.091E+01
     1.098E+01    1.104E+01    1.110E+01    1.116E+01    1.122E+01    1.128E+01    1.134E+01    1.139E+01    1.145E+01    1.150E+01
     1.155E+01    1.161E+01    1.166E+01    1.171E+01    1.175E+01    1.180E+01    1.185E+01    1.190E+01    1.194E+01    1.199E+01
     1.203E+01    1.207E+01    1.212E+01    1.216E+01    1.220E+01    1.224E+01    1.228E+01    1.232E+01    1.236E+01    1.240E+01
     1.244E+01    1.248E+01    1.252E+01    1.256E+01    1.260E+01    1.264E+01    1.268E+01    1.272E+01
 Ala      Conc. = 4.66E+02
