 LCModel (Version 6.3-1L) Copyright: S.W. Provencher.          Ref.: Magn. Reson. Med. 30:672-679 (1993).                
 Slice#1 Row#11 Col#12  PD_24_press_2_raw_act
 36 lines in following concentration table = NCONC+1
    Conc.  %SD /Cr+PCr  Metabolite                                         
    0.000 999%   0.000 Ala                                                 
  113.654  59%   0.000 Asp                                                 
    0.000 999%   0.000 Cr                                                  
    0.000 999%   0.000 PCr                                                 
   39.748 103%   0.000 GABA                                                
   65.600  62%   0.000 Glc                                                 
  995.625  55%   0.000 Gln                                                 
    0.000 999%   0.000 Glu                                                 
    0.000 999%   0.000 GPC                                                 
   90.555  23%   0.000 PCh                                                 
    0.000 999%   0.000 GSH                                                 
  459.763  49%   0.000 Ins                                                 
    0.000 999%   0.000 Lac                                                 
 1.12E+03  27%   0.000 NAA                                                 
   18.304 999%   0.000 NAAG                                                
   46.500  26%   0.000 Scyllo                                              
  175.574  37%   0.000 Tau                                                 
   20.055 169%   0.000 -CrCH2                                              
   90.555  23%   0.000 GPC+PCh                                             
 1.14E+03  12%   0.000 NAA+NAAG                                            
    0.000 999%   0.000 Cr+PCr                                              
  995.625  55%   0.000 Glu+Gln                                             
 2.47E+03  28%   0.000 Lip13a                                              
   75.732 130%   0.000 Lip13b                                              
  865.861  25%   0.000 Lip09                                               
 1.67E+03  13%   0.000 MM09                                                
  444.388  33%   0.000 Lip20                                               
 3.24E+03  11%   0.000 MM20                                                
  498.821  23%   0.000 MM12                                                
 1.12E+03  25%   0.000 MM14                                                
    0.000 999%   0.000 MM17                                                
 2.54E+03  27%   0.000 Lip13a+Lip13b                                       
 4.17E+03  15%   0.000 MM14+Lip13a+Lip13b+MM12                             
 2.53E+03  11%   0.000 MM09+Lip09                                          
 3.69E+03   9%   0.000 MM20+Lip20                                          
   6 lines in following misc. output table
  FWHM = 0.168 ppm    S/N =   8                                            
  Data shift = 0.214 ppm                                                   
  Ph:-102 deg     127.9 deg/ppm                                            
  alphaB,S = 4.7E-01,   1.1E+02                                            
    8 spline knots.   Ns = 9(2)                                            
  (13) 9 infls.   ( 7) 1 extrs.                                            
  498 points on ppm-axis = NY
      4.000000     3.992357     3.984714     3.977070     3.969427     3.961784     3.954141     3.946497     3.938854     3.931211
      3.923568     3.915925     3.908281     3.900638     3.892995     3.885352     3.877708     3.870065     3.862422     3.854779
      3.847136     3.839492     3.831849     3.824206     3.816563     3.808919     3.801276     3.793633     3.785990     3.778347
      3.770703     3.763060     3.755417     3.747774     3.740130     3.732487     3.724844     3.717201     3.709558     3.701914
      3.694271     3.686628     3.678985     3.671341     3.663698     3.656055     3.648412     3.640769     3.633125     3.625482
      3.617839     3.610196     3.602552     3.594909     3.587266     3.579623     3.571980     3.564336     3.556693     3.549050
      3.541407     3.533763     3.526120     3.518477     3.510834     3.503191     3.495547     3.487904     3.480261     3.472618
      3.464974     3.457331     3.449688     3.442045     3.434402     3.426758     3.419115     3.411472     3.403829     3.396185
      3.388542     3.380899     3.373256     3.365613     3.357969     3.350326     3.342683     3.335040     3.327396     3.319753
      3.312110     3.304467     3.296824     3.289180     3.281537     3.273894     3.266251     3.258607     3.250964     3.243321
      3.235678     3.228034     3.220391     3.212748     3.205105     3.197462     3.189818     3.182175     3.174532     3.166889
      3.159245     3.151602     3.143959     3.136316     3.128673     3.121029     3.113386     3.105743     3.098100     3.090456
      3.082813     3.075170     3.067527     3.059884     3.052240     3.044597     3.036954     3.029311     3.021667     3.014024
      3.006381     2.998738     2.991095     2.983451     2.975808     2.968165     2.960522     2.952878     2.945235     2.937592
      2.929949     2.922306     2.914662     2.907019     2.899376     2.891733     2.884089     2.876446     2.868803     2.861160
      2.853517     2.845873     2.838230     2.830587     2.822944     2.815300     2.807657     2.800014     2.792371     2.784728
      2.777084     2.769441     2.761798     2.754155     2.746511     2.738868     2.731225     2.723582     2.715939     2.708295
      2.700652     2.693009     2.685366     2.677722     2.670079     2.662436     2.654793     2.647150     2.639506     2.631863
      2.624220     2.616577     2.608933     2.601290     2.593647     2.586004     2.578361     2.570717     2.563074     2.555431
      2.547788     2.540144     2.532501     2.524858     2.517215     2.509572     2.501928     2.494285     2.486642     2.478999
      2.471355     2.463712     2.456069     2.448426     2.440783     2.433139     2.425496     2.417853     2.410210     2.402566
      2.394923     2.387280     2.379637     2.371994     2.364350     2.356707     2.349064     2.341421     2.333777     2.326134
      2.318491     2.310848     2.303205     2.295561     2.287918     2.280275     2.272632     2.264988     2.257345     2.249702
      2.242059     2.234416     2.226772     2.219129     2.211486     2.203843     2.196199     2.188556     2.180913     2.173270
      2.165627     2.157983     2.150340     2.142697     2.135054     2.127410     2.119767     2.112124     2.104481     2.096838
      2.089194     2.081551     2.073908     2.066265     2.058621     2.050978     2.043335     2.035692     2.028049     2.020405
      2.012762     2.005119     1.997476     1.989833     1.982190     1.974546     1.966903     1.959260     1.951617     1.943974
      1.936331     1.928688     1.921045     1.913402     1.905759     1.898115     1.890472     1.882829     1.875186     1.867543
      1.859900     1.852257     1.844614     1.836971     1.829327     1.821684     1.814041     1.806398     1.798755     1.791112
      1.783469     1.775826     1.768183     1.760540     1.752896     1.745253     1.737610     1.729967     1.722324     1.714681
      1.707038     1.699395     1.691752     1.684108     1.676465     1.668822     1.661179     1.653536     1.645893     1.638250
      1.630607     1.622964     1.615321     1.607677     1.600034     1.592391     1.584748     1.577105     1.569462     1.561819
      1.554176     1.546533     1.538890     1.531246     1.523603     1.515960     1.508317     1.500674     1.493031     1.485388
      1.477745     1.470102     1.462458     1.454815     1.447172     1.439529     1.431886     1.424243     1.416600     1.408957
      1.401314     1.393671     1.386027     1.378384     1.370741     1.363098     1.355455     1.347812     1.340169     1.332526
      1.324883     1.317240     1.309596     1.301953     1.294310     1.286667     1.279024     1.271381     1.263738     1.256095
      1.248452     1.240808     1.233165     1.225522     1.217879     1.210236     1.202593     1.194950     1.187307     1.179664
      1.172021     1.164377     1.156734     1.149091     1.141448     1.133805     1.126162     1.118519     1.110876     1.103233
      1.095590     1.087946     1.080303     1.072660     1.065017     1.057374     1.049731     1.042088     1.034445     1.026802
      1.019158     1.011515     1.003872     0.996229     0.988586     0.980943     0.973300     0.965657     0.958014     0.950371
      0.942727     0.935084     0.927441     0.919798     0.912155     0.904512     0.896869     0.889226     0.881583     0.873940
      0.866296     0.858653     0.851010     0.843367     0.835724     0.828081     0.820438     0.812795     0.805152     0.797508
      0.789865     0.782222     0.774579     0.766936     0.759293     0.751650     0.744007     0.736364     0.728721     0.721077
      0.713434     0.705791     0.698148     0.690505     0.682862     0.675219     0.667576     0.659933     0.652290     0.644646
      0.637003     0.629360     0.621717     0.614074     0.606431     0.598788     0.591145     0.583502     0.575858     0.568215
      0.560572     0.552929     0.545286     0.537643     0.530000     0.522357     0.514714     0.507071     0.499427     0.491784
      0.484141     0.476498     0.468855     0.461212     0.453569     0.445925     0.438282     0.430639     0.422996     0.415353
      0.407710     0.400067     0.392424     0.384780     0.377137     0.369494     0.361851     0.354208     0.346565     0.338922
      0.331278     0.323635     0.315992     0.308349     0.300706     0.293063     0.285420     0.277777     0.270133     0.262490
      0.254847     0.247204     0.239561     0.231918     0.224275     0.216631     0.208988     0.201345
 NY phased data points follow
  -4.41384E+00 -2.58271E+00 -4.62368E+00 -2.69690E+00 -3.77467E+00 -1.46234E+00 -3.67878E+00 -2.31647E+00 -3.11183E+00 -4.46979E+00
  -1.70627E+00  1.24709E+00 -1.24827E+00 -2.51249E+00 -3.34259E+00 -2.34835E+00 -3.03023E+00 -2.34019E+00 -2.98725E+00 -9.08058E-01
  -3.92181E+00 -3.15482E+00 -3.66879E+00 -8.79297E-02 -4.04118E+00 -1.58217E+00 -2.41283E+00  3.79194E-01 -2.34657E+00 -2.30753E+00
  -2.51016E+00 -3.50841E+00 -2.94866E-01 -5.02852E+00 -1.73304E+00 -2.78464E+00 -1.63614E+00 -3.60761E+00 -3.16637E+00 -2.22918E+00
  -1.95987E+00 -8.57315E-01 -4.91123E+00 -2.62232E+00 -2.64413E+00 -2.68161E+00 -2.14494E+00 -2.20205E+00 -2.49228E+00 -1.99876E+00
  -1.51024E+00 -1.73664E+00 -1.27901E+00 -2.86383E+00 -2.61130E+00 -2.49666E+00 -2.80213E+00 -1.92523E+00 -3.63046E+00 -1.04783E+00
  -3.40728E+00 -5.82805E-01 -8.13096E-01 -2.36095E+00 -1.59579E+00 -9.50637E-01 -2.08500E+00  2.15234E-01 -1.07893E-01 -6.68748E-01
   7.91609E-03 -8.35384E-01 -1.10368E+00 -1.67046E+00 -6.96706E-01 -6.02016E-02 -2.98009E+00 -4.49170E+00  7.26856E-01  3.55939E-01
   1.29890E+00 -8.15570E-01 -3.79607E-01 -1.93821E+00  6.99775E-01 -1.94411E+00 -1.12527E+00 -1.61506E+00 -1.49459E+00 -1.57979E+00
  -5.11311E-02 -1.80708E+00 -7.41608E-01 -1.65898E+00  8.57551E-01  7.24871E-01 -1.67574E+00  1.47807E-01 -1.05148E+00 -2.86331E+00
  -1.56244E+00 -1.54104E+00 -1.72766E+00  1.01166E+00 -7.61403E-01  5.66491E-02 -1.87443E+00  3.96325E+00 -1.29480E+00 -1.25626E+00
  -5.74654E-02 -1.73849E+00 -8.86571E-01 -6.81962E-01  6.07481E-01 -2.35331E+00 -1.65909E+00 -5.25405E-01 -1.93815E+00 -2.49491E+00
  -2.06867E+00  5.73952E-01  7.84304E-02  3.92108E-01 -1.09853E-01 -1.99939E+00  1.15709E+00  2.68119E-01 -1.61627E+00 -8.24899E-01
   5.18796E-01 -1.10079E+00  2.66654E-01  1.04616E+00 -8.86404E-01  1.08437E+00  1.19249E+00 -2.69257E-01  6.06942E-01 -2.07964E+00
  -6.67458E-01  1.36321E+00  1.51355E+00  1.39495E+00  1.39155E-01  1.28680E+00  1.23505E+00  5.05761E-01  3.49968E-01  1.54284E+00
   4.59684E-01  5.48732E-01  1.09824E+00  3.49264E-01  9.84195E-01  2.09355E+00  1.58863E+00  9.75404E-01  3.58046E-01  3.89947E-01
   2.89180E+00 -2.50452E-01  1.33308E+00  4.31012E+00  3.70211E+00  3.79577E+00  1.76732E+00  2.61140E+00  4.13244E+00  2.06125E+00
   3.46219E+00  3.83018E+00  4.67189E+00  5.57543E+00  3.84247E+00  3.91842E+00  3.03073E+00  4.89141E+00  3.86235E+00  2.03754E+00
   3.46989E+00  3.43469E+00  3.48756E+00  2.74564E+00  6.04732E+00  2.11386E+00  2.11326E+00  3.73107E+00  3.76053E+00  4.23311E+00
   3.28649E+00  2.90719E+00  4.95577E+00  6.10208E+00  5.38987E+00  5.52016E+00  3.08085E+00  6.90850E+00  4.93643E+00  4.96514E+00
   4.69201E+00  6.31092E+00  6.84663E+00  4.16391E+00  3.81313E+00  5.03514E+00  4.36497E+00  4.90205E+00  6.07030E+00  6.33526E+00
   6.33340E+00  6.66197E+00  6.73044E+00  7.63462E+00  8.31755E+00  7.95412E+00  5.98817E+00  7.02502E+00  5.28025E+00  7.10428E+00
   9.05332E+00  7.03554E+00  8.30519E+00  9.56545E+00  6.43353E+00  7.91053E+00  8.74048E+00  8.04668E+00  6.80215E+00  7.45567E+00
   7.68531E+00  9.69591E+00  8.62212E+00  8.24460E+00  8.99584E+00  1.14427E+01  1.11784E+01  1.01303E+01  9.93506E+00  8.26798E+00
   1.11204E+01  8.29450E+00  1.32871E+01  1.08352E+01  1.19298E+01  1.23548E+01  1.46731E+01  1.39843E+01  1.38582E+01  1.76700E+01
   1.61361E+01  1.57855E+01  1.73738E+01  1.81903E+01  1.69481E+01  1.84813E+01  1.87724E+01  1.93941E+01  1.77696E+01  1.56367E+01
   1.49302E+01  1.44230E+01  1.46435E+01  1.55589E+01  1.01474E+01  9.13303E+00  1.09270E+01  9.04020E+00  8.34509E+00  5.90249E+00
   4.95203E+00  5.46006E+00  3.69657E+00 -3.45771E-02 -9.40073E-01  1.06489E+00 -6.30761E-01 -1.92260E+00 -3.29432E+00 -4.54581E+00
  -4.92904E+00 -3.81304E+00 -6.84012E+00 -6.91645E+00 -7.94180E+00 -9.08230E+00 -1.07677E+01 -9.99933E+00 -9.54598E+00 -1.08837E+01
  -1.03753E+01 -1.20695E+01 -1.15135E+01 -1.22325E+01 -1.14782E+01 -1.17556E+01 -1.26587E+01 -1.26119E+01 -1.40918E+01 -1.29321E+01
  -1.50944E+01 -1.38319E+01 -1.41735E+01 -1.35195E+01 -1.80087E+01 -1.55056E+01 -1.54266E+01 -1.50706E+01 -1.49639E+01 -1.37797E+01
  -1.47297E+01 -1.27629E+01 -1.40771E+01 -1.32336E+01 -1.28776E+01 -1.08678E+01 -1.10938E+01 -1.22510E+01 -1.03898E+01 -1.24856E+01
  -1.39105E+01 -1.33241E+01 -9.88676E+00 -8.80344E+00 -8.67703E+00 -1.03935E+01 -1.01245E+01 -5.99898E+00 -8.62727E+00 -7.31184E+00
  -9.78297E+00 -7.45174E+00 -6.96372E+00 -6.30086E+00 -7.15674E+00 -7.48820E+00 -7.44565E+00 -5.91755E+00 -5.62681E+00 -5.69650E+00
  -6.44009E+00 -6.93058E+00 -7.11390E+00 -6.51236E+00 -4.55798E+00 -5.13816E+00 -6.32935E+00 -4.61546E+00 -7.25561E+00 -6.51345E+00
  -4.72229E+00 -5.39638E+00 -6.13150E+00 -4.12339E+00 -1.59605E+00 -3.36518E+00 -2.49372E-01 -4.75225E+00 -3.40605E+00 -3.19640E+00
  -5.05606E+00 -2.89914E+00 -4.73174E+00 -3.08301E+00 -3.62064E+00 -3.84104E+00 -2.46640E+00 -3.17627E+00 -3.25925E+00 -4.40647E+00
  -3.10613E+00 -3.99629E+00 -3.92003E+00 -4.38551E+00 -2.09137E+00 -3.18679E+00  1.18787E+00 -5.14921E-01 -2.22868E+00 -8.31478E-01
  -1.02857E+00  1.14447E+00 -1.83234E+00 -8.92873E-01  1.05883E+00  2.10507E-01 -6.16950E-01 -7.48479E-01  2.03195E+00  2.13186E+00
  -7.98464E-01  3.30743E-01 -4.31931E-01 -1.32427E+00 -1.13671E+00  2.35623E+00 -1.93396E+00  2.00608E+00  5.67023E-01  3.10524E-01
   3.98887E-01  6.39015E-01  1.16748E+00 -2.64083E-01  2.55067E+00  6.17446E-01  5.17477E-01  4.36913E-01 -2.29723E+00 -1.12369E+00
  -3.15256E-01 -4.98982E-01 -4.84439E-01  1.52638E+00  1.98803E+00 -2.26790E+00 -3.51023E-01  7.84592E-01 -9.34953E-01 -1.05081E+00
   2.10679E+00  4.17534E-01  5.93227E-01 -1.40563E+00  8.83477E-02  7.12838E-01  1.41718E+00  1.61814E+00  7.77354E-01  2.00489E+00
   1.81277E+00  6.38029E-01  7.12373E-01  1.19585E+00  1.66045E+00 -9.37610E-01  1.33092E+00  7.78140E-01  3.29185E-01  3.25301E+00
   8.35725E-01  1.31715E+00  2.86792E+00  8.62482E-01 -2.93655E-01  2.18524E+00  6.02315E-01  1.57679E+00 -2.70199E+00  2.87970E+00
   8.59111E-01  2.80249E+00  4.98961E-01  1.90071E+00 -4.70781E-01  5.74978E-01  1.27485E+00  3.48731E-01  1.71163E+00  1.37825E+00
   2.48620E-01  3.18132E+00  2.36673E+00  1.74567E+00  2.43087E+00  1.99250E+00  6.61558E-01  2.17654E+00  2.40609E+00  1.24961E+00
   7.87771E-01 -3.19482E-01  1.90166E+00  2.18434E+00  1.61964E+00  1.64389E+00  3.35349E+00  1.97202E+00  1.57507E+00  2.27115E+00
   5.43925E-01  1.03310E+00  1.16112E+00  9.33676E-01 -9.71041E-02  2.30510E+00  5.11459E-01  2.83812E+00  2.47241E+00  3.02721E-01
   6.88425E-01  2.44911E+00  1.31142E+00  1.63775E+00  1.48765E+00  1.59973E+00  3.26468E+00  1.98472E+00
 NY points of the fit to the data follow
  -1.80248E+00 -1.89415E+00 -1.99499E+00 -2.06072E+00 -2.13640E+00 -2.18838E+00 -2.22845E+00 -2.30079E+00 -2.38008E+00 -2.40893E+00
  -2.46253E+00 -2.43153E+00 -2.44996E+00 -2.33454E+00 -2.29514E+00 -2.25898E+00 -2.25814E+00 -2.22055E+00 -2.24516E+00 -2.22595E+00
  -2.22478E+00 -2.18993E+00 -2.17457E+00 -2.12946E+00 -2.05599E+00 -2.07219E+00 -1.97682E+00 -2.07544E+00 -1.96984E+00 -2.10698E+00
  -2.01887E+00 -2.17198E+00 -2.11065E+00 -2.20859E+00 -2.14751E+00 -2.22468E+00 -2.17413E+00 -2.19817E+00 -2.12099E+00 -2.17895E+00
  -2.13531E+00 -2.22770E+00 -2.24020E+00 -2.34451E+00 -2.37147E+00 -2.44302E+00 -2.43541E+00 -2.50920E+00 -2.55088E+00 -2.61699E+00
  -2.68196E+00 -2.69496E+00 -2.74168E+00 -2.57910E+00 -2.56407E+00 -2.48510E+00 -2.52434E+00 -2.49750E+00 -2.57347E+00 -2.58754E+00
  -2.60323E+00 -2.56521E+00 -2.56393E+00 -2.51138E+00 -2.51665E+00 -2.46452E+00 -2.45659E+00 -2.35071E+00 -2.28457E+00 -2.21280E+00
  -2.13719E+00 -2.13582E+00 -2.06697E+00 -2.09555E+00 -1.98666E+00 -2.04430E+00 -1.90129E+00 -1.97470E+00 -1.77869E+00 -1.92782E+00
  -1.66718E+00 -1.85108E+00 -1.54003E+00 -1.70686E+00 -1.24751E+00 -1.36426E+00 -1.05307E+00 -1.13118E+00 -8.57163E-01 -8.74191E-01
  -6.45130E-01 -5.60465E-01 -4.16236E-01 -2.47670E-01 -1.75330E-01  6.72099E-02 -2.78772E-02  3.14813E-01 -2.94272E-03  3.74016E-01
  -1.55425E-01  2.13524E-01 -3.49632E-01  5.03742E-02 -4.79150E-01 -3.86436E-02 -5.80428E-01 -4.54570E-02 -4.87618E-01  5.93032E-03
  -4.58735E-01 -2.29400E-02 -4.83983E-01 -1.03296E-01 -5.06443E-01 -1.85941E-01 -4.56097E-01 -1.72779E-01 -3.69819E-01 -1.55051E-01
  -3.09510E-01 -1.77849E-01 -2.53930E-01 -1.51663E-01  5.01241E-02  1.87800E-01  3.36427E-01  4.40883E-01  5.49718E-01  6.28028E-01
   7.12830E-01  7.68195E-01  8.35421E-01  8.74315E-01  9.24989E-01  9.54838E-01  9.94605E-01  1.01944E+00  1.05550E+00  1.07596E+00
   1.11068E+00  1.12202E+00  1.14065E+00  1.13625E+00  1.17326E+00  1.18247E+00  1.24414E+00  1.26492E+00  1.30968E+00  1.33453E+00
   1.37717E+00  1.40716E+00  1.44795E+00  1.47500E+00  1.51406E+00  1.54183E+00  1.57838E+00  1.61499E+00  1.63139E+00  1.70736E+00
   1.72044E+00  1.79659E+00  1.77517E+00  1.82478E+00  1.81810E+00  1.88135E+00  1.88775E+00  1.94619E+00  1.95262E+00  2.00637E+00
   2.08380E+00  2.16004E+00  2.27293E+00  2.34073E+00  2.48022E+00  2.51066E+00  2.66409E+00  2.69672E+00  2.86889E+00  2.93287E+00
   3.10902E+00  3.18289E+00  3.34271E+00  3.46266E+00  3.67024E+00  3.83591E+00  4.03471E+00  4.23359E+00  4.33565E+00  4.52222E+00
   4.52433E+00  4.67379E+00  4.53540E+00  4.84676E+00  4.75059E+00  5.08897E+00  4.96794E+00  5.32430E+00  5.08942E+00  5.41923E+00
   5.07628E+00  5.35426E+00  4.91838E+00  5.21536E+00  4.82703E+00  5.22291E+00  4.96001E+00  5.44176E+00  5.29581E+00  5.72865E+00
   5.64032E+00  6.04233E+00  5.95392E+00  6.30753E+00  6.25005E+00  6.50523E+00  6.44082E+00  6.64772E+00  6.55203E+00  6.80234E+00
   6.76313E+00  6.99933E+00  6.99955E+00  7.26539E+00  7.23344E+00  7.46837E+00  7.48304E+00  7.73924E+00  7.76610E+00  8.01274E+00
   8.04449E+00  8.19219E+00  8.13570E+00  8.41602E+00  8.46809E+00  8.70173E+00  8.80503E+00  8.98128E+00  9.12881E+00  9.28002E+00
   9.58475E+00  9.96345E+00  1.11001E+01  1.17070E+01  1.25804E+01  1.31366E+01  1.39693E+01  1.45225E+01  1.52677E+01  1.57218E+01
   1.63315E+01  1.67471E+01  1.73994E+01  1.78500E+01  1.82565E+01  1.86169E+01  1.83973E+01  1.84004E+01  1.72021E+01  1.69030E+01
   1.54098E+01  1.50701E+01  1.35714E+01  1.32878E+01  1.15464E+01  1.11837E+01  9.64054E+00  9.28317E+00  7.61326E+00  7.13309E+00
   5.21519E+00  4.54817E+00  2.54837E+00  1.84279E+00  1.89361E-01 -4.48142E-01 -1.96381E+00 -2.64535E+00 -4.27496E+00 -5.12552E+00
  -6.72845E+00 -7.52225E+00 -7.98224E+00 -8.36766E+00 -8.71723E+00 -9.04426E+00 -9.35048E+00 -9.64004E+00 -9.91429E+00 -1.01747E+01
  -1.04220E+01 -1.06593E+01 -1.08858E+01 -1.11022E+01 -1.13098E+01 -1.15077E+01 -1.16979E+01 -1.18787E+01 -1.20508E+01 -1.22134E+01
  -1.23688E+01 -1.25139E+01 -1.26511E+01 -1.27776E+01 -1.28946E+01 -1.29991E+01 -1.30914E+01 -1.31675E+01 -1.32270E+01 -1.32663E+01
  -1.32845E+01 -1.32770E+01 -1.32429E+01 -1.31784E+01 -1.30811E+01 -1.29491E+01 -1.27805E+01 -1.25740E+01 -1.23296E+01 -1.20472E+01
  -1.17291E+01 -1.13773E+01 -1.09963E+01 -1.05906E+01 -1.01672E+01 -9.73222E+00 -9.29447E+00 -8.86106E+00 -8.44138E+00 -8.04237E+00
  -7.67244E+00 -7.33684E+00 -7.04164E+00 -6.78916E+00 -6.58215E+00 -6.41930E+00 -6.29964E+00 -6.21823E+00 -6.17080E+00 -6.14944E+00
  -6.14742E+00 -6.15484E+00 -6.16350E+00 -6.16253E+00 -6.14340E+00 -6.09561E+00 -6.01202E+00 -5.88479E+00 -5.71122E+00 -5.48974E+00
  -5.22566E+00 -4.92643E+00 -4.60629E+00 -4.28008E+00 -3.96640E+00 -3.68033E+00 -3.43635E+00 -3.24151E+00 -3.09992E+00 -3.00781E+00
  -2.95991E+00 -2.94583E+00 -2.95712E+00 -2.98328E+00 -3.01803E+00 -3.05417E+00 -3.08877E+00 -3.11724E+00 -3.13819E+00 -3.14756E+00
  -3.14379E+00 -3.12229E+00 -3.08107E+00 -3.01542E+00 -2.92376E+00 -2.80229E+00 -2.65097E+00 -2.46794E+00 -2.25549E+00 -2.01426E+00
  -1.74910E+00 -1.46315E+00 -1.16350E+00 -8.55233E-01 -5.46912E-01 -2.44479E-01  4.32107E-02  3.10611E-01  5.49870E-01  7.57062E-01
   9.26462E-01  1.05672E+00  1.14495E+00  1.19280E+00  1.20032E+00  1.17198E+00  1.11039E+00  1.02216E+00  9.11572E-01  7.86422E-01
   6.51571E-01  5.14895E-01  3.80854E-01  2.56490E-01  1.45035E-01  5.19932E-02 -2.11671E-02 -7.08171E-02 -9.74372E-02 -9.93202E-02
  -7.88125E-02 -3.59236E-02  2.54652E-02  1.04061E-01  1.94960E-01  2.96128E-01  4.02200E-01  5.10993E-01  6.17276E-01  7.19288E-01
   8.12446E-01  8.95827E-01  9.65831E-01  1.02264E+00  1.06381E+00  1.09065E+00  1.10183E+00  1.09965E+00  1.08363E+00  1.05681E+00
   1.01926E+00  9.74420E-01  9.22549E-01  8.67145E-01  8.08396E-01  7.49606E-01  6.90684E-01  6.34598E-01  5.80853E-01  5.32016E-01
   4.87182E-01  4.48540E-01  4.14831E-01  3.87917E-01  3.66246E-01  3.51439E-01  3.41748E-01  3.38639E-01  3.40244E-01  3.47934E-01
   3.59769E-01  3.77078E-01  3.97908E-01  4.23587E-01  4.52163E-01  4.84972E-01  5.20082E-01  5.58852E-01  5.99385E-01  6.43070E-01
   6.88037E-01  7.35695E-01  7.84198E-01  8.34988E-01  8.86253E-01  9.39456E-01  9.92800E-01  1.04776E+00  1.10257E+00  1.15872E+00
   1.21447E+00  1.27132E+00  1.32753E+00  1.38463E+00  1.44087E+00  1.49781E+00  1.55372E+00  1.61015E+00  1.66538E+00  1.72095E+00
   1.77518E+00  1.82961E+00  1.88255E+00  1.93556E+00  1.98693E+00  2.03824E+00  2.08779E+00  2.13713E+00  2.18460E+00  2.23173E+00
   2.27684E+00  2.32147E+00  2.36394E+00  2.40576E+00  2.44525E+00  2.48389E+00  2.51995E+00  2.55489E+00
 NY background values follow
    -5.942E+00   -6.004E+00   -6.064E+00   -6.122E+00   -6.180E+00   -6.236E+00   -6.291E+00   -6.345E+00   -6.398E+00   -6.449E+00
    -6.499E+00   -6.549E+00   -6.596E+00   -6.643E+00   -6.689E+00   -6.734E+00   -6.777E+00   -6.819E+00   -6.860E+00   -6.900E+00
    -6.939E+00   -6.977E+00   -7.014E+00   -7.050E+00   -7.084E+00   -7.118E+00   -7.150E+00   -7.181E+00   -7.212E+00   -7.241E+00
    -7.269E+00   -7.296E+00   -7.322E+00   -7.346E+00   -7.370E+00   -7.393E+00   -7.414E+00   -7.435E+00   -7.454E+00   -7.472E+00
    -7.490E+00   -7.506E+00   -7.521E+00   -7.535E+00   -7.548E+00   -7.559E+00   -7.570E+00   -7.579E+00   -7.588E+00   -7.595E+00
    -7.601E+00   -7.606E+00   -7.610E+00   -7.612E+00   -7.614E+00   -7.614E+00   -7.613E+00   -7.611E+00   -7.608E+00   -7.604E+00
    -7.598E+00   -7.591E+00   -7.583E+00   -7.573E+00   -7.563E+00   -7.551E+00   -7.538E+00   -7.523E+00   -7.507E+00   -7.490E+00
    -7.472E+00   -7.452E+00   -7.431E+00   -7.409E+00   -7.385E+00   -7.359E+00   -7.333E+00   -7.305E+00   -7.275E+00   -7.244E+00
    -7.212E+00   -7.178E+00   -7.142E+00   -7.106E+00   -7.067E+00   -7.027E+00   -6.985E+00   -6.942E+00   -6.898E+00   -6.851E+00
    -6.803E+00   -6.754E+00   -6.702E+00   -6.649E+00   -6.594E+00   -6.538E+00   -6.480E+00   -6.420E+00   -6.358E+00   -6.295E+00
    -6.229E+00   -6.162E+00   -6.093E+00   -6.022E+00   -5.950E+00   -5.876E+00   -5.800E+00   -5.723E+00   -5.644E+00   -5.564E+00
    -5.482E+00   -5.399E+00   -5.314E+00   -5.228E+00   -5.141E+00   -5.052E+00   -4.963E+00   -4.872E+00   -4.780E+00   -4.687E+00
    -4.593E+00   -4.498E+00   -4.402E+00   -4.305E+00   -4.207E+00   -4.109E+00   -4.010E+00   -3.910E+00   -3.810E+00   -3.710E+00
    -3.608E+00   -3.507E+00   -3.405E+00   -3.302E+00   -3.200E+00   -3.097E+00   -2.994E+00   -2.892E+00   -2.789E+00   -2.686E+00
    -2.583E+00   -2.481E+00   -2.379E+00   -2.277E+00   -2.176E+00   -2.075E+00   -1.974E+00   -1.874E+00   -1.775E+00   -1.677E+00
    -1.579E+00   -1.482E+00   -1.387E+00   -1.292E+00   -1.198E+00   -1.105E+00   -1.014E+00   -9.239E-01   -8.352E-01   -7.479E-01
    -6.622E-01   -5.780E-01   -4.955E-01   -4.147E-01   -3.357E-01   -2.586E-01   -1.834E-01   -1.103E-01   -3.924E-02    2.962E-02
     9.622E-02    1.605E-01    2.224E-01    2.818E-01    3.386E-01    3.928E-01    4.443E-01    4.930E-01    5.388E-01    5.817E-01
     6.216E-01    6.584E-01    6.920E-01    7.223E-01    7.494E-01    7.730E-01    7.932E-01    8.097E-01    8.227E-01    8.319E-01
     8.374E-01    8.390E-01    8.366E-01    8.302E-01    8.197E-01    8.050E-01    7.861E-01    7.628E-01    7.351E-01    7.030E-01
     6.663E-01    6.251E-01    5.795E-01    5.294E-01    4.751E-01    4.164E-01    3.536E-01    2.865E-01    2.153E-01    1.400E-01
     6.078E-02   -2.244E-02   -1.096E-01   -2.005E-01   -2.952E-01   -3.937E-01   -4.957E-01   -6.014E-01   -7.106E-01   -8.232E-01
    -9.393E-01   -1.059E+00   -1.181E+00   -1.307E+00   -1.436E+00   -1.568E+00   -1.703E+00   -1.841E+00   -1.981E+00   -2.125E+00
    -2.271E+00   -2.419E+00   -2.571E+00   -2.724E+00   -2.880E+00   -3.039E+00   -3.199E+00   -3.362E+00   -3.527E+00   -3.694E+00
    -3.862E+00   -4.033E+00   -4.205E+00   -4.379E+00   -4.555E+00   -4.732E+00   -4.910E+00   -5.090E+00   -5.271E+00   -5.453E+00
    -5.637E+00   -5.821E+00   -6.006E+00   -6.192E+00   -6.379E+00   -6.566E+00   -6.754E+00   -6.943E+00   -7.132E+00   -7.321E+00
    -7.511E+00   -7.700E+00   -7.890E+00   -8.079E+00   -8.269E+00   -8.458E+00   -8.647E+00   -8.836E+00   -9.024E+00   -9.211E+00
    -9.398E+00   -9.584E+00   -9.770E+00   -9.954E+00   -1.014E+01   -1.032E+01   -1.050E+01   -1.068E+01   -1.086E+01   -1.104E+01
    -1.121E+01   -1.139E+01   -1.156E+01   -1.173E+01   -1.190E+01   -1.206E+01   -1.223E+01   -1.239E+01   -1.255E+01   -1.271E+01
    -1.286E+01   -1.302E+01   -1.317E+01   -1.332E+01   -1.346E+01   -1.360E+01   -1.374E+01   -1.388E+01   -1.401E+01   -1.414E+01
    -1.427E+01   -1.439E+01   -1.451E+01   -1.463E+01   -1.474E+01   -1.486E+01   -1.496E+01   -1.507E+01   -1.517E+01   -1.527E+01
    -1.537E+01   -1.546E+01   -1.555E+01   -1.563E+01   -1.572E+01   -1.580E+01   -1.587E+01   -1.595E+01   -1.602E+01   -1.609E+01
    -1.615E+01   -1.621E+01   -1.627E+01   -1.633E+01   -1.638E+01   -1.643E+01   -1.648E+01   -1.652E+01   -1.656E+01   -1.660E+01
    -1.664E+01   -1.667E+01   -1.670E+01   -1.673E+01   -1.675E+01   -1.677E+01   -1.679E+01   -1.681E+01   -1.682E+01   -1.683E+01
    -1.684E+01   -1.684E+01   -1.684E+01   -1.684E+01   -1.684E+01   -1.683E+01   -1.682E+01   -1.681E+01   -1.680E+01   -1.678E+01
    -1.676E+01   -1.674E+01   -1.671E+01   -1.669E+01   -1.666E+01   -1.662E+01   -1.659E+01   -1.655E+01   -1.651E+01   -1.647E+01
    -1.643E+01   -1.638E+01   -1.633E+01   -1.628E+01   -1.623E+01   -1.617E+01   -1.611E+01   -1.605E+01   -1.599E+01   -1.593E+01
    -1.586E+01   -1.579E+01   -1.572E+01   -1.565E+01   -1.557E+01   -1.550E+01   -1.542E+01   -1.533E+01   -1.525E+01   -1.517E+01
    -1.508E+01   -1.499E+01   -1.490E+01   -1.481E+01   -1.471E+01   -1.462E+01   -1.452E+01   -1.442E+01   -1.432E+01   -1.421E+01
    -1.411E+01   -1.400E+01   -1.389E+01   -1.378E+01   -1.367E+01   -1.356E+01   -1.345E+01   -1.333E+01   -1.321E+01   -1.309E+01
    -1.297E+01   -1.285E+01   -1.273E+01   -1.261E+01   -1.248E+01   -1.235E+01   -1.223E+01   -1.210E+01   -1.197E+01   -1.184E+01
    -1.171E+01   -1.158E+01   -1.144E+01   -1.131E+01   -1.117E+01   -1.104E+01   -1.090E+01   -1.077E+01   -1.063E+01   -1.049E+01
    -1.036E+01   -1.022E+01   -1.008E+01   -9.940E+00   -9.801E+00   -9.662E+00   -9.522E+00   -9.383E+00   -9.243E+00   -9.103E+00
    -8.963E+00   -8.823E+00   -8.683E+00   -8.543E+00   -8.403E+00   -8.264E+00   -8.125E+00   -7.985E+00   -7.847E+00   -7.708E+00
    -7.570E+00   -7.432E+00   -7.295E+00   -7.158E+00   -7.022E+00   -6.886E+00   -6.751E+00   -6.616E+00   -6.482E+00   -6.349E+00
    -6.216E+00   -6.084E+00   -5.953E+00   -5.823E+00   -5.693E+00   -5.565E+00   -5.437E+00   -5.310E+00   -5.184E+00   -5.059E+00
    -4.935E+00   -4.813E+00   -4.691E+00   -4.570E+00   -4.451E+00   -4.332E+00   -4.215E+00   -4.099E+00   -3.984E+00   -3.870E+00
    -3.758E+00   -3.647E+00   -3.537E+00   -3.429E+00   -3.321E+00   -3.216E+00   -3.111E+00   -3.008E+00   -2.907E+00   -2.807E+00
    -2.708E+00   -2.611E+00   -2.515E+00   -2.421E+00   -2.328E+00   -2.237E+00   -2.147E+00   -2.059E+00   -1.973E+00   -1.888E+00
    -1.805E+00   -1.723E+00   -1.643E+00   -1.564E+00   -1.488E+00   -1.412E+00   -1.339E+00   -1.267E+00
 Asp      Conc. = 1.14E+02
