 LCModel (Version 6.3-1L) Copyright: S.W. Provencher.          Ref.: Magn. Reson. Med. 30:672-679 (1993).                
 Slice#2 Row#4 Col#10  PD_24_press_2_raw_act
 36 lines in following concentration table = NCONC+1
    Conc.  %SD /Cr+PCr  Metabolite                                         
  715.237  65%   0.246 Ala                                                 
    0.000 999%   0.000 Asp                                                 
  879.240  77%   0.302 Cr                                                  
 2.03E+03  34%   0.698 PCr                                                 
  187.408 190% 6.4E-02 GABA                                                
    0.000 999%   0.000 Glc                                                 
 3.44E+03  30%   1.180 Gln                                                 
 4.72E+03  25%   1.622 Glu                                                 
 1.25E+03   4%   0.431 GPC                                                 
    0.000 999%   0.000 PCh                                                 
  926.961  23%   0.318 GSH                                                 
 4.83E+03  12%   1.657 Ins                                                 
  394.155 133%   0.135 Lac                                                 
 2.84E+03  12%   0.975 NAA                                                 
 1.07E+03  35%   0.368 NAAG                                                
  536.408  13%   0.184 Scyllo                                              
  595.434  73%   0.204 Tau                                                 
 1.33E+03  21%   0.457 -CrCH2                                              
 1.25E+03   4%   0.431 GPC+PCh                                             
 3.91E+03   5%   1.342 NAA+NAAG                                            
 2.91E+03   5%   1.000 Cr+PCr                                              
 8.16E+03  24%   2.802 Glu+Gln                                             
 2.89E+03  25%   0.992 Lip13a                                              
    0.000 999%   0.000 Lip13b                                              
    0.000 999%   0.000 Lip09                                               
 1.67E+03  17%   0.573 MM09                                                
  404.900  77%   0.139 Lip20                                               
 3.35E+03  18%   1.151 MM20                                                
  543.446  35%   0.187 MM12                                                
 2.11E+03  25%   0.724 MM14                                                
 2.01E+03  18%   0.689 MM17                                                
 2.89E+03  25%   0.992 Lip13a+Lip13b                                       
 5.54E+03  12%   1.902 MM14+Lip13a+Lip13b+MM12                             
 1.67E+03  17%   0.573 MM09+Lip09                                          
 3.76E+03  16%   1.290 MM20+Lip20                                          
   6 lines in following misc. output table
  FWHM = 0.099 ppm    S/N =   7                                            
  Data shift = 0.015 ppm                                                   
  Ph: -50 deg     -17.8 deg/ppm                                            
  alphaB,S = 4.3E+01,   2.6E+02                                            
   14 spline knots.   Ns =10(1)                                            
  ( 6) 4 infls.   ( 1) 1 extrs.                                            
  498 points on ppm-axis = NY
      4.000000     3.992357     3.984714     3.977070     3.969427     3.961784     3.954141     3.946497     3.938854     3.931211
      3.923568     3.915925     3.908281     3.900638     3.892995     3.885352     3.877708     3.870065     3.862422     3.854779
      3.847136     3.839492     3.831849     3.824206     3.816563     3.808919     3.801276     3.793633     3.785990     3.778347
      3.770703     3.763060     3.755417     3.747774     3.740130     3.732487     3.724844     3.717201     3.709558     3.701914
      3.694271     3.686628     3.678985     3.671341     3.663698     3.656055     3.648412     3.640769     3.633125     3.625482
      3.617839     3.610196     3.602552     3.594909     3.587266     3.579623     3.571980     3.564336     3.556693     3.549050
      3.541407     3.533763     3.526120     3.518477     3.510834     3.503191     3.495547     3.487904     3.480261     3.472618
      3.464974     3.457331     3.449688     3.442045     3.434402     3.426758     3.419115     3.411472     3.403829     3.396185
      3.388542     3.380899     3.373256     3.365613     3.357969     3.350326     3.342683     3.335040     3.327396     3.319753
      3.312110     3.304467     3.296824     3.289180     3.281537     3.273894     3.266251     3.258607     3.250964     3.243321
      3.235678     3.228034     3.220391     3.212748     3.205105     3.197462     3.189818     3.182175     3.174532     3.166889
      3.159245     3.151602     3.143959     3.136316     3.128673     3.121029     3.113386     3.105743     3.098100     3.090456
      3.082813     3.075170     3.067527     3.059884     3.052240     3.044597     3.036954     3.029311     3.021667     3.014024
      3.006381     2.998738     2.991095     2.983451     2.975808     2.968165     2.960522     2.952878     2.945235     2.937592
      2.929949     2.922306     2.914662     2.907019     2.899376     2.891733     2.884089     2.876446     2.868803     2.861160
      2.853517     2.845873     2.838230     2.830587     2.822944     2.815300     2.807657     2.800014     2.792371     2.784728
      2.777084     2.769441     2.761798     2.754155     2.746511     2.738868     2.731225     2.723582     2.715939     2.708295
      2.700652     2.693009     2.685366     2.677722     2.670079     2.662436     2.654793     2.647150     2.639506     2.631863
      2.624220     2.616577     2.608933     2.601290     2.593647     2.586004     2.578361     2.570717     2.563074     2.555431
      2.547788     2.540144     2.532501     2.524858     2.517215     2.509572     2.501928     2.494285     2.486642     2.478999
      2.471355     2.463712     2.456069     2.448426     2.440783     2.433139     2.425496     2.417853     2.410210     2.402566
      2.394923     2.387280     2.379637     2.371994     2.364350     2.356707     2.349064     2.341421     2.333777     2.326134
      2.318491     2.310848     2.303205     2.295561     2.287918     2.280275     2.272632     2.264988     2.257345     2.249702
      2.242059     2.234416     2.226772     2.219129     2.211486     2.203843     2.196199     2.188556     2.180913     2.173270
      2.165627     2.157983     2.150340     2.142697     2.135054     2.127410     2.119767     2.112124     2.104481     2.096838
      2.089194     2.081551     2.073908     2.066265     2.058621     2.050978     2.043335     2.035692     2.028049     2.020405
      2.012762     2.005119     1.997476     1.989833     1.982190     1.974546     1.966903     1.959260     1.951617     1.943974
      1.936331     1.928688     1.921045     1.913402     1.905759     1.898115     1.890472     1.882829     1.875186     1.867543
      1.859900     1.852257     1.844614     1.836971     1.829327     1.821684     1.814041     1.806398     1.798755     1.791112
      1.783469     1.775826     1.768183     1.760540     1.752896     1.745253     1.737610     1.729967     1.722324     1.714681
      1.707038     1.699395     1.691752     1.684108     1.676465     1.668822     1.661179     1.653536     1.645893     1.638250
      1.630607     1.622964     1.615321     1.607677     1.600034     1.592391     1.584748     1.577105     1.569462     1.561819
      1.554176     1.546533     1.538890     1.531246     1.523603     1.515960     1.508317     1.500674     1.493031     1.485388
      1.477745     1.470102     1.462458     1.454815     1.447172     1.439529     1.431886     1.424243     1.416600     1.408957
      1.401314     1.393671     1.386027     1.378384     1.370741     1.363098     1.355455     1.347812     1.340169     1.332526
      1.324883     1.317240     1.309596     1.301953     1.294310     1.286667     1.279024     1.271381     1.263738     1.256095
      1.248452     1.240808     1.233165     1.225522     1.217879     1.210236     1.202593     1.194950     1.187307     1.179664
      1.172021     1.164377     1.156734     1.149091     1.141448     1.133805     1.126162     1.118519     1.110876     1.103233
      1.095590     1.087946     1.080303     1.072660     1.065017     1.057374     1.049731     1.042088     1.034445     1.026802
      1.019158     1.011515     1.003872     0.996229     0.988586     0.980943     0.973300     0.965657     0.958014     0.950371
      0.942727     0.935084     0.927441     0.919798     0.912155     0.904512     0.896869     0.889226     0.881583     0.873940
      0.866296     0.858653     0.851010     0.843367     0.835724     0.828081     0.820438     0.812795     0.805152     0.797508
      0.789865     0.782222     0.774579     0.766936     0.759293     0.751650     0.744007     0.736364     0.728721     0.721077
      0.713434     0.705791     0.698148     0.690505     0.682862     0.675219     0.667576     0.659933     0.652290     0.644646
      0.637003     0.629360     0.621717     0.614074     0.606431     0.598788     0.591145     0.583502     0.575858     0.568215
      0.560572     0.552929     0.545286     0.537643     0.530000     0.522357     0.514714     0.507071     0.499427     0.491784
      0.484141     0.476498     0.468855     0.461212     0.453569     0.445925     0.438282     0.430639     0.422996     0.415353
      0.407710     0.400067     0.392424     0.384780     0.377137     0.369494     0.361851     0.354208     0.346565     0.338922
      0.331278     0.323635     0.315992     0.308349     0.300706     0.293063     0.285420     0.277777     0.270133     0.262490
      0.254847     0.247204     0.239561     0.231918     0.224275     0.216631     0.208988     0.201345
 NY phased data points follow
   3.19854E+01  3.00836E+01  2.83310E+01  2.41507E+01  2.67506E+01  2.96630E+01  2.50241E+01  3.42925E+01  3.25616E+01  4.09933E+01
   3.53563E+01  4.24212E+01  3.90906E+01  3.59757E+01  3.11815E+01  2.92127E+01  2.55213E+01  2.32312E+01  2.09782E+01  2.89447E+01
   2.41817E+01  2.40363E+01  2.26864E+01  2.71213E+01  2.39937E+01  1.69375E+01  3.02639E+01  2.75856E+01  2.53370E+01  3.10366E+01
   3.02169E+01  3.50530E+01  2.72924E+01  2.10576E+01  2.19160E+01  2.66371E+01  3.34974E+01  2.77954E+01  2.64657E+01  4.03695E+01
   3.52635E+01  2.98970E+01  3.21281E+01  3.63877E+01  3.35174E+01  3.11491E+01  4.09681E+01  3.80731E+01  2.98202E+01  3.07234E+01
   3.41537E+01  2.71787E+01  2.66705E+01  2.68546E+01  2.77855E+01  1.47372E+01  2.03442E+01  1.93657E+01  1.77609E+01  1.50061E+01
   1.84529E+01  1.50749E+01  1.64288E+01  1.64584E+01  1.76481E+01  1.11997E+01  1.05196E+01  1.52723E+01  1.65962E+01  1.25990E+01
   1.71141E+01  1.51528E+01  2.29384E+01  9.49097E+00  2.36035E+01  1.27610E+01  1.02920E+01  1.98132E+01  2.22278E+01  2.09877E+01
   1.62657E+01  1.55852E+01  3.22392E+01  2.44483E+01  2.74288E+01  1.90613E+01  2.37229E+01  2.80506E+01  3.06317E+01  3.30016E+01
   3.22981E+01  3.17904E+01  4.08008E+01  3.34275E+01  5.29339E+01  5.13212E+01  4.93785E+01  6.01619E+01  5.79947E+01  6.21876E+01
   6.23402E+01  7.07691E+01  7.67484E+01  7.94063E+01  8.71189E+01  6.60131E+01  6.48916E+01  4.45195E+01  4.21206E+01  2.47300E+01
   2.18757E+01  1.91473E+01  2.23887E+01  2.07928E+01  2.58680E+01  2.14484E+01  2.21001E+01  2.66107E+01  2.89659E+01  3.71302E+01
   4.07806E+01  4.54619E+01  5.01649E+01  4.28117E+01  6.00981E+01  5.90476E+01  6.53599E+01  6.94619E+01  7.30648E+01  6.30857E+01
   5.01813E+01  3.62350E+01  4.20888E+01  2.15274E+01  2.15488E+01  1.48242E+01  1.70684E+01  8.88248E+00  1.61612E+01  1.85160E+01
   1.45791E+01  5.92742E+00  7.62540E+00  1.63221E+01  1.44624E+01  4.11909E+00  6.87916E+00  7.82408E+00  8.51341E+00  1.42471E+00
   3.72167E+00  3.44939E+00  6.51961E+00  5.36515E+00  1.06760E+01  1.10460E+00  8.75127E+00  1.02109E+01  5.24188E+00  3.20549E+00
   7.14092E+00  3.55265E-01  3.61918E+00  2.15735E+00  4.88991E+00 -1.01152E+01 -7.22155E+00  3.72469E+00 -1.02539E+01 -1.56736E+01
  -6.45578E+00 -1.78328E+01 -8.72457E+00 -2.00384E+01 -1.11453E+01 -1.01028E+01 -3.50096E+00 -4.36171E+00 -6.72479E+00 -7.03617E+00
   8.80661E-01 -1.31048E+01  1.26095E+00 -7.15327E+00 -8.58965E+00 -1.31820E+01  3.33851E-01 -3.63149E+00 -1.01978E+01 -8.16324E+00
  -9.36966E+00 -1.14031E+01  4.95109E+00 -1.46299E+00  5.09754E+00  3.18084E+00  4.00748E+00  7.70373E+00  8.19304E+00  1.17919E-01
  -9.80646E-01  7.84336E+00  3.47484E+00  8.42098E+00  1.08290E+01  9.62829E+00  7.54731E+00  1.28824E+01  1.26849E+01  6.01798E+00
   4.78111E+00  1.42495E+01  1.53453E+01  1.24105E+01  1.27044E+01  1.64676E+01  1.74988E+01  1.63549E+01  1.10014E+01  1.10168E+01
   6.14948E+00  5.15468E+00  6.67090E+00  1.33919E+00  1.40295E+01  1.11275E+01  1.17582E+01  1.08167E+01  1.84608E+01  1.70086E+01
   9.61656E+00  1.31058E+01  2.53867E+01  2.54704E+01  1.49318E+01  5.65635E+00  2.05986E+01  1.24022E+01  2.00879E+01  1.41034E+01
   1.52347E+01  1.19214E+01  1.11539E+01  2.17153E+01  1.90364E+01  2.24595E+01  2.30909E+01  3.28929E+01  3.28152E+01  3.54426E+01
   5.13973E+01  4.53921E+01  5.58465E+01  6.07461E+01  7.17124E+01  7.75734E+01  8.00000E+01  8.74135E+01  9.28073E+01  8.77095E+01
   1.02869E+02  1.02262E+02  9.27771E+01  8.08451E+01  7.91735E+01  5.90919E+01  3.84134E+01  3.32502E+01  2.69996E+01  1.38919E+01
   1.89214E+01  2.25586E+01  1.70183E+01  1.68754E+01  1.85711E+01  2.03701E+01  2.37301E+01  1.97441E+01  2.08082E+01  3.30714E+00
   1.48160E+01  1.69122E+01  9.62940E+00  9.63804E+00  1.55064E+01  1.92135E+01  2.55682E+01  1.79588E+01  1.20416E+01  9.33591E+00
   2.04948E+01  1.43297E+01  1.52324E+01  2.33339E+01  2.02183E+01  1.03973E+01  2.34171E+01  2.45063E+01  2.57660E+01  1.85181E+01
   1.63873E+01  1.61035E+01  1.74516E+01  1.70881E+01  2.71453E+01  2.02661E+01  2.60536E+01  1.46861E+01  2.64264E+01  2.20704E+01
   2.29496E+01  3.20195E+01  3.31466E+01  3.15259E+01  3.22556E+01  2.65671E+01  3.26011E+01  2.58496E+01  2.79748E+01  2.24319E+01
   2.14673E+01  2.23856E+01  1.77001E+01  1.07441E+01  1.45708E+01  7.51319E+00  1.93932E+01  1.43949E+01  1.74151E+01  1.83975E+01
   2.29866E+01  2.35396E+01  2.99827E+01  2.52251E+01  1.67900E+01  1.46572E+01  2.56160E+01  3.22549E+01  3.04072E+01  2.13046E+01
   2.86874E+01  2.87386E+01  3.56073E+01  2.68246E+01  2.91418E+01  1.76443E+01  4.22151E+01  2.49112E+01  3.19625E+01  2.72544E+01
   3.00902E+01  3.52874E+01  2.25270E+01  2.70575E+01  2.09401E+01  2.49205E+01  2.86541E+01  3.28724E+01  2.03713E+01  2.87939E+01
   2.05819E+01  2.51160E+01  2.66950E+01  2.70183E+01  2.37198E+01  1.47740E+01  2.49132E+01  2.54843E+01  2.48406E+01  2.92872E+01
   2.14610E+01  2.74425E+01  2.28163E+01  2.51035E+01  1.99310E+01  1.85544E+01  8.78573E+00  1.77362E+01  1.12452E+01  1.84752E+01
   1.38366E+01  1.06951E+01  1.86552E+01  1.73247E+01  1.37250E+01  1.65384E+01  1.46956E+01  2.68646E+00  1.42323E+01  9.42655E+00
   9.26268E+00  9.80940E+00  8.56919E+00  6.15225E+00  1.10804E+01  9.47041E+00  1.64393E+01  1.52003E+01  1.73575E+01  1.79752E+01
   1.71142E+01  1.41200E+01  2.71347E+01  1.51876E+01  1.34991E+01  1.92578E+01  1.72272E+01  2.08937E+01  1.84126E+01  1.48028E+01
   2.03903E+01  1.73235E+01  1.84061E+01  2.52144E+01  1.39184E+01  2.85480E+01  1.78448E+01  1.58736E+01  1.27791E+01  1.69774E+01
   1.89890E+01  9.63736E+00  1.22786E+01  1.03334E+01  1.25274E+01  1.55164E+01  1.38140E+01  1.04127E+01  2.53484E+01  8.21718E+00
   2.17208E+01  1.25491E+01  5.84664E+00  1.23808E+01  1.33436E+01  2.29700E+01  1.93203E+01  2.13142E+01  1.15209E+01  1.55897E+01
   1.08147E+01  1.05631E+01  1.03311E+01  4.03636E+00  1.00309E+01  1.62580E+01  1.43911E+01  9.05863E-02  8.71562E+00  9.19499E+00
   1.38934E+01  6.37896E+00  1.24238E+01  9.87670E+00  3.86075E+00  1.31983E+01  1.56426E+01  7.12785E+00  1.37377E+01  1.00705E+00
   8.04629E+00  5.83105E+00  5.71491E+00  6.83607E+00  1.00121E+01  1.18954E+01  1.55986E+01  6.13275E+00  1.40636E+01  6.81387E+00
   1.04380E+01  6.53223E+00  5.05848E+00  1.68533E+01  9.58885E+00  2.52317E+00  1.62335E+01  8.60897E+00  1.51307E+01  1.94204E+01
   6.98796E+00  1.18034E+01  1.16094E+01  1.05921E+01  1.40290E+01  1.25025E+01 -5.99045E-01  6.73187E+00  1.37722E+01  8.95991E+00
   9.69577E+00  1.29271E+01  6.37097E+00  1.30118E+00  9.22909E+00  4.44954E-02  1.36162E+01  1.44090E+01
 NY points of the fit to the data follow
   2.57563E+01  2.62630E+01  2.74180E+01  2.86715E+01  3.00491E+01  3.16234E+01  3.32989E+01  3.50063E+01  3.64900E+01  3.74238E+01
   3.76513E+01  3.71339E+01  3.58997E+01  3.40407E+01  3.18389E+01  2.95939E+01  2.72230E+01  2.46823E+01  2.19637E+01  1.99892E+01
   1.96302E+01  2.02844E+01  2.16716E+01  2.36025E+01  2.55851E+01  2.69392E+01  2.74912E+01  2.76488E+01  2.80289E+01  2.89098E+01
   3.02291E+01  3.15849E+01  3.25411E+01  3.26276E+01  3.14762E+01  2.93475E+01  2.72888E+01  2.64881E+01  2.70243E+01  2.80474E+01
   2.87499E+01  2.92033E+01  2.96814E+01  3.01979E+01  3.10210E+01  3.21915E+01  3.35511E+01  3.44370E+01  3.42430E+01  3.29543E+01
   3.07586E+01  2.79886E+01  2.50402E+01  2.22580E+01  2.00169E+01  1.84408E+01  1.74167E+01  1.68964E+01  1.68892E+01  1.74912E+01
   1.83159E+01  1.89308E+01  1.91553E+01  1.89236E+01  1.83376E+01  1.77167E+01  1.74026E+01  1.74350E+01  1.77050E+01  1.80148E+01
   1.82391E+01  1.84175E+01  1.85696E+01  1.86789E+01  1.86831E+01  1.85532E+01  1.83973E+01  1.90084E+01  2.02935E+01  2.13323E+01
   2.18651E+01  2.21272E+01  2.23780E+01  2.28482E+01  2.36431E+01  2.46635E+01  2.57799E+01  2.65921E+01  2.67342E+01  2.61178E+01
   2.50305E+01  2.45679E+01  2.78261E+01  3.53563E+01  4.34111E+01  4.98380E+01  5.43658E+01  5.75589E+01  6.03406E+01  6.39304E+01
   6.87015E+01  7.39482E+01  7.83067E+01  7.99157E+01  7.74271E+01  7.08147E+01  6.12738E+01  5.04872E+01  4.01060E+01  3.12434E+01
   2.42931E+01  1.89141E+01  1.43550E+01  1.04688E+01  8.57085E+00  9.39065E+00  1.35752E+01  2.11154E+01  2.91891E+01  3.58417E+01
   4.08586E+01  4.48351E+01  4.85299E+01  5.26558E+01  5.74313E+01  6.23325E+01  6.62677E+01  6.78012E+01  6.58969E+01  6.06566E+01
   5.30636E+01  4.44931E+01  3.61369E+01  2.87824E+01  2.26970E+01  1.76267E+01  1.31264E+01  9.20772E+00  6.83669E+00  6.25236E+00
   6.45287E+00  6.85331E+00  7.19044E+00  7.31364E+00  7.18326E+00  6.89477E+00  6.55583E+00  6.19821E+00  5.87669E+00  5.59321E+00
   5.25342E+00  4.76696E+00  4.18482E+00  3.67027E+00  3.32694E+00  3.20092E+00  3.16932E+00  3.09995E+00  2.93160E+00  2.63488E+00
   2.20837E+00  1.74596E+00  1.37691E+00  1.14761E+00  1.00396E+00  7.98120E-01  3.67700E-01 -2.30722E-01 -7.81838E-01 -1.20606E+00
  -1.51183E+00 -1.77792E+00 -2.04549E+00 -2.33278E+00 -2.59404E+00 -2.83367E+00 -3.01673E+00 -3.10656E+00 -3.01356E+00 -2.63859E+00
  -1.97727E+00 -1.09421E+00 -8.63014E-02  8.51970E-01  1.57685E+00  2.10916E+00  2.43390E+00  2.62849E+00  2.78011E+00  3.11686E+00
   3.78393E+00  4.78636E+00  5.90145E+00  6.80083E+00  7.48996E+00  8.13780E+00  8.79453E+00  9.34441E+00  9.74055E+00  9.61195E+00
   8.76674E+00  8.07087E+00  7.85732E+00  7.82153E+00  7.80433E+00  7.79495E+00  8.08547E+00  8.08238E+00  7.30449E+00  6.08314E+00
   5.08555E+00  4.75101E+00  4.93193E+00  5.65312E+00  7.28192E+00  9.65325E+00  1.18749E+01  1.31789E+01  1.31773E+01  1.19688E+01
   9.93796E+00  7.32080E+00  4.81003E+00  3.68699E+00  4.32366E+00  6.07966E+00  8.31986E+00  1.09888E+01  1.39044E+01  1.63607E+01
   1.80334E+01  1.91042E+01  1.94462E+01  1.89777E+01  1.80350E+01  1.71518E+01  1.67668E+01  1.69058E+01  1.73209E+01  1.76578E+01
   1.76302E+01  1.71549E+01  1.63839E+01  1.57019E+01  1.55978E+01  1.67176E+01  1.98554E+01  2.41809E+01  2.82955E+01  3.24036E+01
   3.91213E+01  4.89879E+01  5.91376E+01  6.80274E+01  7.53580E+01  8.12203E+01  8.58141E+01  8.94155E+01  9.22176E+01  9.42132E+01
   9.48832E+01  9.31848E+01  8.83487E+01  8.05483E+01  7.07584E+01  6.01512E+01  4.97983E+01  4.07565E+01  3.38216E+01  2.85129E+01
   2.38252E+01  1.95842E+01  1.69050E+01  1.58862E+01  1.54052E+01  1.51015E+01  1.48760E+01  1.46145E+01  1.42664E+01  1.38817E+01
   1.34951E+01  1.31425E+01  1.28677E+01  1.26871E+01  1.25819E+01  1.25490E+01  1.25977E+01  1.27214E+01  1.29078E+01  1.31435E+01
   1.34418E+01  1.38244E+01  1.42941E+01  1.48407E+01  1.54580E+01  1.61369E+01  1.68640E+01  1.76216E+01  1.84007E+01  1.91906E+01
   1.99782E+01  2.07487E+01  2.14809E+01  2.21500E+01  2.27402E+01  2.32341E+01  2.36151E+01  2.38746E+01  2.40118E+01  2.40330E+01
   2.39490E+01  2.37730E+01  2.35289E+01  2.32474E+01  2.29668E+01  2.27442E+01  2.26896E+01  2.29390E+01  2.31637E+01  2.30256E+01
   2.25698E+01  2.19605E+01  2.13154E+01  2.06637E+01  1.99903E+01  1.95704E+01  1.95864E+01  1.97256E+01  1.96748E+01  1.93631E+01
   1.89418E+01  1.86408E+01  1.86787E+01  1.92253E+01  2.03474E+01  2.19517E+01  2.38136E+01  2.57251E+01  2.74259E+01  2.86656E+01
   2.93086E+01  2.94241E+01  2.92441E+01  2.89345E+01  2.85673E+01  2.82874E+01  2.81130E+01  2.79804E+01  2.78100E+01  2.74861E+01
   2.70480E+01  2.66153E+01  2.63154E+01  2.62467E+01  2.64453E+01  2.68466E+01  2.72946E+01  2.76168E+01  2.77258E+01  2.76437E+01
   2.73548E+01  2.68323E+01  2.61593E+01  2.54152E+01  2.46339E+01  2.37998E+01  2.28986E+01  2.20181E+01  2.12100E+01  2.04472E+01
   1.97194E+01  1.90255E+01  1.83672E+01  1.77472E+01  1.71679E+01  1.66317E+01  1.61403E+01  1.56949E+01  1.52965E+01  1.49456E+01
   1.46425E+01  1.43872E+01  1.41798E+01  1.40202E+01  1.39084E+01  1.38445E+01  1.38288E+01  1.38614E+01  1.39426E+01  1.40724E+01
   1.42509E+01  1.44775E+01  1.47513E+01  1.50706E+01  1.54327E+01  1.58339E+01  1.62694E+01  1.67330E+01  1.72171E+01  1.77128E+01
   1.82102E+01  1.86983E+01  1.91655E+01  1.96000E+01  1.99900E+01  2.03246E+01  2.05940E+01  2.07897E+01  2.09056E+01  2.09376E+01
   2.08841E+01  2.07461E+01  2.05269E+01  2.02324E+01  1.98700E+01  1.94491E+01  1.89797E+01  1.84730E+01  1.79400E+01  1.73914E+01
   1.68374E+01  1.62871E+01  1.57486E+01  1.52283E+01  1.47317E+01  1.42626E+01  1.38235E+01  1.34160E+01  1.30406E+01  1.26968E+01
   1.23838E+01  1.20999E+01  1.18434E+01  1.16122E+01  1.14043E+01  1.12175E+01  1.10497E+01  1.08990E+01  1.07636E+01  1.06417E+01
   1.05320E+01  1.04329E+01  1.03433E+01  1.02622E+01  1.01886E+01  1.01216E+01  1.00605E+01  1.00048E+01  9.95381E+00  9.90709E+00
   9.86418E+00  9.82476E+00  9.78846E+00  9.75501E+00  9.72413E+00  9.69563E+00  9.66927E+00  9.64493E+00  9.62238E+00  9.60152E+00
   9.58217E+00  9.56425E+00  9.54763E+00  9.53226E+00  9.51799E+00  9.50480E+00  9.49255E+00  9.48123E+00  9.47075E+00  9.46108E+00
   9.45212E+00  9.44387E+00  9.43623E+00  9.42922E+00  9.42275E+00  9.41685E+00  9.41141E+00  9.40646E+00  9.40190E+00  9.39779E+00
   9.39402E+00  9.39063E+00  9.38753E+00  9.38475E+00  9.38222E+00  9.37998E+00  9.37794E+00  9.37615E+00  9.37451E+00  9.37307E+00
   9.37175E+00  9.37060E+00  9.36952E+00  9.36857E+00  9.36764E+00  9.36679E+00  9.36592E+00  9.36511E+00
 NY background values follow
     2.047E+00    2.060E+00    2.072E+00    2.084E+00    2.097E+00    2.109E+00    2.121E+00    2.134E+00    2.146E+00    2.158E+00
     2.171E+00    2.183E+00    2.195E+00    2.208E+00    2.220E+00    2.232E+00    2.245E+00    2.257E+00    2.269E+00    2.282E+00
     2.294E+00    2.306E+00    2.319E+00    2.331E+00    2.343E+00    2.356E+00    2.368E+00    2.380E+00    2.393E+00    2.405E+00
     2.418E+00    2.430E+00    2.442E+00    2.455E+00    2.467E+00    2.479E+00    2.492E+00    2.504E+00    2.516E+00    2.529E+00
     2.541E+00    2.553E+00    2.566E+00    2.578E+00    2.590E+00    2.603E+00    2.615E+00    2.627E+00    2.640E+00    2.652E+00
     2.665E+00    2.677E+00    2.689E+00    2.702E+00    2.714E+00    2.726E+00    2.739E+00    2.751E+00    2.763E+00    2.776E+00
     2.788E+00    2.801E+00    2.813E+00    2.825E+00    2.838E+00    2.850E+00    2.862E+00    2.875E+00    2.887E+00    2.899E+00
     2.912E+00    2.924E+00    2.937E+00    2.949E+00    2.961E+00    2.974E+00    2.986E+00    2.998E+00    3.011E+00    3.023E+00
     3.036E+00    3.048E+00    3.060E+00    3.073E+00    3.085E+00    3.097E+00    3.110E+00    3.122E+00    3.134E+00    3.147E+00
     3.159E+00    3.172E+00    3.184E+00    3.196E+00    3.209E+00    3.221E+00    3.233E+00    3.246E+00    3.258E+00    3.271E+00
     3.283E+00    3.295E+00    3.308E+00    3.320E+00    3.333E+00    3.345E+00    3.357E+00    3.370E+00    3.382E+00    3.394E+00
     3.407E+00    3.419E+00    3.432E+00    3.444E+00    3.456E+00    3.469E+00    3.481E+00    3.493E+00    3.506E+00    3.518E+00
     3.531E+00    3.543E+00    3.555E+00    3.568E+00    3.580E+00    3.593E+00    3.605E+00    3.617E+00    3.630E+00    3.642E+00
     3.654E+00    3.667E+00    3.679E+00    3.692E+00    3.704E+00    3.716E+00    3.729E+00    3.741E+00    3.753E+00    3.766E+00
     3.778E+00    3.791E+00    3.803E+00    3.815E+00    3.828E+00    3.840E+00    3.853E+00    3.865E+00    3.877E+00    3.890E+00
     3.902E+00    3.915E+00    3.927E+00    3.939E+00    3.952E+00    3.964E+00    3.976E+00    3.989E+00    4.001E+00    4.014E+00
     4.026E+00    4.038E+00    4.051E+00    4.063E+00    4.076E+00    4.088E+00    4.100E+00    4.113E+00    4.125E+00    4.137E+00
     4.150E+00    4.162E+00    4.175E+00    4.187E+00    4.199E+00    4.212E+00    4.224E+00    4.237E+00    4.249E+00    4.261E+00
     4.274E+00    4.286E+00    4.299E+00    4.311E+00    4.323E+00    4.336E+00    4.348E+00    4.360E+00    4.373E+00    4.385E+00
     4.398E+00    4.410E+00    4.422E+00    4.435E+00    4.447E+00    4.460E+00    4.472E+00    4.484E+00    4.497E+00    4.509E+00
     4.522E+00    4.534E+00    4.546E+00    4.559E+00    4.571E+00    4.583E+00    4.596E+00    4.608E+00    4.621E+00    4.633E+00
     4.645E+00    4.658E+00    4.670E+00    4.683E+00    4.695E+00    4.707E+00    4.720E+00    4.732E+00    4.744E+00    4.757E+00
     4.769E+00    4.782E+00    4.794E+00    4.806E+00    4.819E+00    4.831E+00    4.844E+00    4.856E+00    4.868E+00    4.881E+00
     4.893E+00    4.905E+00    4.918E+00    4.930E+00    4.943E+00    4.955E+00    4.967E+00    4.980E+00    4.992E+00    5.005E+00
     5.017E+00    5.029E+00    5.042E+00    5.054E+00    5.066E+00    5.079E+00    5.091E+00    5.104E+00    5.116E+00    5.128E+00
     5.141E+00    5.153E+00    5.165E+00    5.178E+00    5.190E+00    5.202E+00    5.215E+00    5.227E+00    5.240E+00    5.252E+00
     5.264E+00    5.277E+00    5.289E+00    5.301E+00    5.314E+00    5.326E+00    5.338E+00    5.351E+00    5.363E+00    5.376E+00
     5.388E+00    5.400E+00    5.413E+00    5.425E+00    5.437E+00    5.450E+00    5.462E+00    5.474E+00    5.487E+00    5.499E+00
     5.511E+00    5.524E+00    5.536E+00    5.549E+00    5.561E+00    5.573E+00    5.586E+00    5.598E+00    5.610E+00    5.623E+00
     5.635E+00    5.647E+00    5.660E+00    5.672E+00    5.684E+00    5.697E+00    5.709E+00    5.721E+00    5.734E+00    5.746E+00
     5.758E+00    5.771E+00    5.783E+00    5.795E+00    5.808E+00    5.820E+00    5.832E+00    5.845E+00    5.857E+00    5.869E+00
     5.882E+00    5.894E+00    5.906E+00    5.918E+00    5.931E+00    5.943E+00    5.955E+00    5.968E+00    5.980E+00    5.992E+00
     6.005E+00    6.017E+00    6.029E+00    6.042E+00    6.054E+00    6.066E+00    6.078E+00    6.091E+00    6.103E+00    6.115E+00
     6.128E+00    6.140E+00    6.152E+00    6.165E+00    6.177E+00    6.189E+00    6.201E+00    6.214E+00    6.226E+00    6.238E+00
     6.251E+00    6.263E+00    6.275E+00    6.287E+00    6.300E+00    6.312E+00    6.324E+00    6.337E+00    6.349E+00    6.361E+00
     6.373E+00    6.386E+00    6.398E+00    6.410E+00    6.422E+00    6.435E+00    6.447E+00    6.459E+00    6.472E+00    6.484E+00
     6.496E+00    6.508E+00    6.521E+00    6.533E+00    6.545E+00    6.557E+00    6.570E+00    6.582E+00    6.594E+00    6.606E+00
     6.619E+00    6.631E+00    6.643E+00    6.655E+00    6.668E+00    6.680E+00    6.692E+00    6.704E+00    6.716E+00    6.729E+00
     6.741E+00    6.753E+00    6.765E+00    6.778E+00    6.790E+00    6.802E+00    6.814E+00    6.826E+00    6.839E+00    6.851E+00
     6.863E+00    6.875E+00    6.888E+00    6.900E+00    6.912E+00    6.924E+00    6.936E+00    6.949E+00    6.961E+00    6.973E+00
     6.985E+00    6.997E+00    7.010E+00    7.022E+00    7.034E+00    7.046E+00    7.058E+00    7.071E+00    7.083E+00    7.095E+00
     7.107E+00    7.119E+00    7.131E+00    7.144E+00    7.156E+00    7.168E+00    7.180E+00    7.192E+00    7.205E+00    7.217E+00
     7.229E+00    7.241E+00    7.253E+00    7.265E+00    7.278E+00    7.290E+00    7.302E+00    7.314E+00    7.326E+00    7.338E+00
     7.350E+00    7.363E+00    7.375E+00    7.387E+00    7.399E+00    7.411E+00    7.423E+00    7.435E+00    7.448E+00    7.460E+00
     7.472E+00    7.484E+00    7.496E+00    7.508E+00    7.520E+00    7.532E+00    7.545E+00    7.557E+00    7.569E+00    7.581E+00
     7.593E+00    7.605E+00    7.617E+00    7.629E+00    7.641E+00    7.654E+00    7.666E+00    7.678E+00    7.690E+00    7.702E+00
     7.714E+00    7.726E+00    7.738E+00    7.750E+00    7.762E+00    7.775E+00    7.787E+00    7.799E+00    7.811E+00    7.823E+00
     7.835E+00    7.847E+00    7.859E+00    7.871E+00    7.883E+00    7.895E+00    7.907E+00    7.919E+00    7.931E+00    7.943E+00
     7.956E+00    7.968E+00    7.980E+00    7.992E+00    8.004E+00    8.016E+00    8.028E+00    8.040E+00    8.052E+00    8.064E+00
     8.076E+00    8.088E+00    8.100E+00    8.112E+00    8.124E+00    8.136E+00    8.148E+00    8.160E+00
 Ala      Conc. = 7.15E+02
