 LCModel (Version 6.3-1L) Copyright: S.W. Provencher.          Ref.: Magn. Reson. Med. 30:672-679 (1993).                
 Slice#1 Row#10 Col#6  PD_24_press_2_raw_act
 36 lines in following concentration table = NCONC+1
    Conc.  %SD /Cr+PCr  Metabolite                                         
  126.687  82% 7.3E-02 Ala                                                 
    0.000 999%   0.000 Asp                                                 
  412.951  59%   0.237 Cr                                                  
 1.33E+03  19%   0.763 PCr                                                 
    0.000 999%   0.000 GABA                                                
   23.540 627% 1.3E-02 Glc                                                 
  532.972  40%   0.306 Gln                                                 
 1.62E+03  15%   0.930 Glu                                                 
  365.565   6%   0.210 GPC                                                 
    0.000 999%   0.000 PCh                                                 
  269.609  26%   0.155 GSH                                                 
 1.20E+03  19%   0.689 Ins                                                 
    8.745 999% 5.0E-03 Lac                                                 
 2.45E+03   5%   1.404 NAA                                                 
  289.293  41%   0.166 NAAG                                                
  110.423  24% 6.3E-02 Scyllo                                              
  282.119  69%   0.162 Tau                                                 
  620.705  18%   0.356 -CrCH2                                              
  365.565   6%   0.210 GPC+PCh                                             
 2.74E+03   3%   1.570 NAA+NAAG                                            
 1.74E+03   4%   1.000 Cr+PCr                                              
 2.15E+03  15%   1.236 Glu+Gln                                             
 1.54E+03  34%   0.884 Lip13a                                              
    0.000 999%   0.000 Lip13b                                              
  251.012 109%   0.144 Lip09                                               
 1.67E+03  18%   0.955 MM09                                                
  202.461  92%   0.116 Lip20                                               
 3.07E+03  13%   1.759 MM20                                                
  549.595  41%   0.315 MM12                                                
 1.11E+03  34%   0.637 MM14                                                
 1.71E+03  14%   0.978 MM17                                                
 1.54E+03  34%   0.884 Lip13a+Lip13b                                       
 3.20E+03  11%   1.837 MM14+Lip13a+Lip13b+MM12                             
 1.92E+03  10%   1.099 MM09+Lip09                                          
 3.27E+03  11%   1.875 MM20+Lip20                                          
   6 lines in following misc. output table
  FWHM = 0.046 ppm    S/N =  14                                            
  Data shift = 0.023 ppm                                                   
  Ph: -26 deg      -4.6 deg/ppm                                            
  alphaB,S = 8.5E+01,   5.0E+01                                            
   14 spline knots.   Ns = 6(1)                                            
   2 inflections.     1 extrema                                            
  498 points on ppm-axis = NY
      4.000000     3.992357     3.984714     3.977070     3.969427     3.961784     3.954141     3.946497     3.938854     3.931211
      3.923568     3.915925     3.908281     3.900638     3.892995     3.885352     3.877708     3.870065     3.862422     3.854779
      3.847136     3.839492     3.831849     3.824206     3.816563     3.808919     3.801276     3.793633     3.785990     3.778347
      3.770703     3.763060     3.755417     3.747774     3.740130     3.732487     3.724844     3.717201     3.709558     3.701914
      3.694271     3.686628     3.678985     3.671341     3.663698     3.656055     3.648412     3.640769     3.633125     3.625482
      3.617839     3.610196     3.602552     3.594909     3.587266     3.579623     3.571980     3.564336     3.556693     3.549050
      3.541407     3.533763     3.526120     3.518477     3.510834     3.503191     3.495547     3.487904     3.480261     3.472618
      3.464974     3.457331     3.449688     3.442045     3.434402     3.426758     3.419115     3.411472     3.403829     3.396185
      3.388542     3.380899     3.373256     3.365613     3.357969     3.350326     3.342683     3.335040     3.327396     3.319753
      3.312110     3.304467     3.296824     3.289180     3.281537     3.273894     3.266251     3.258607     3.250964     3.243321
      3.235678     3.228034     3.220391     3.212748     3.205105     3.197462     3.189818     3.182175     3.174532     3.166889
      3.159245     3.151602     3.143959     3.136316     3.128673     3.121029     3.113386     3.105743     3.098100     3.090456
      3.082813     3.075170     3.067527     3.059884     3.052240     3.044597     3.036954     3.029311     3.021667     3.014024
      3.006381     2.998738     2.991095     2.983451     2.975808     2.968165     2.960522     2.952878     2.945235     2.937592
      2.929949     2.922306     2.914662     2.907019     2.899376     2.891733     2.884089     2.876446     2.868803     2.861160
      2.853517     2.845873     2.838230     2.830587     2.822944     2.815300     2.807657     2.800014     2.792371     2.784728
      2.777084     2.769441     2.761798     2.754155     2.746511     2.738868     2.731225     2.723582     2.715939     2.708295
      2.700652     2.693009     2.685366     2.677722     2.670079     2.662436     2.654793     2.647150     2.639506     2.631863
      2.624220     2.616577     2.608933     2.601290     2.593647     2.586004     2.578361     2.570717     2.563074     2.555431
      2.547788     2.540144     2.532501     2.524858     2.517215     2.509572     2.501928     2.494285     2.486642     2.478999
      2.471355     2.463712     2.456069     2.448426     2.440783     2.433139     2.425496     2.417853     2.410210     2.402566
      2.394923     2.387280     2.379637     2.371994     2.364350     2.356707     2.349064     2.341421     2.333777     2.326134
      2.318491     2.310848     2.303205     2.295561     2.287918     2.280275     2.272632     2.264988     2.257345     2.249702
      2.242059     2.234416     2.226772     2.219129     2.211486     2.203843     2.196199     2.188556     2.180913     2.173270
      2.165627     2.157983     2.150340     2.142697     2.135054     2.127410     2.119767     2.112124     2.104481     2.096838
      2.089194     2.081551     2.073908     2.066265     2.058621     2.050978     2.043335     2.035692     2.028049     2.020405
      2.012762     2.005119     1.997476     1.989833     1.982190     1.974546     1.966903     1.959260     1.951617     1.943974
      1.936331     1.928688     1.921045     1.913402     1.905759     1.898115     1.890472     1.882829     1.875186     1.867543
      1.859900     1.852257     1.844614     1.836971     1.829327     1.821684     1.814041     1.806398     1.798755     1.791112
      1.783469     1.775826     1.768183     1.760540     1.752896     1.745253     1.737610     1.729967     1.722324     1.714681
      1.707038     1.699395     1.691752     1.684108     1.676465     1.668822     1.661179     1.653536     1.645893     1.638250
      1.630607     1.622964     1.615321     1.607677     1.600034     1.592391     1.584748     1.577105     1.569462     1.561819
      1.554176     1.546533     1.538890     1.531246     1.523603     1.515960     1.508317     1.500674     1.493031     1.485388
      1.477745     1.470102     1.462458     1.454815     1.447172     1.439529     1.431886     1.424243     1.416600     1.408957
      1.401314     1.393671     1.386027     1.378384     1.370741     1.363098     1.355455     1.347812     1.340169     1.332526
      1.324883     1.317240     1.309596     1.301953     1.294310     1.286667     1.279024     1.271381     1.263738     1.256095
      1.248452     1.240808     1.233165     1.225522     1.217879     1.210236     1.202593     1.194950     1.187307     1.179664
      1.172021     1.164377     1.156734     1.149091     1.141448     1.133805     1.126162     1.118519     1.110876     1.103233
      1.095590     1.087946     1.080303     1.072660     1.065017     1.057374     1.049731     1.042088     1.034445     1.026802
      1.019158     1.011515     1.003872     0.996229     0.988586     0.980943     0.973300     0.965657     0.958014     0.950371
      0.942727     0.935084     0.927441     0.919798     0.912155     0.904512     0.896869     0.889226     0.881583     0.873940
      0.866296     0.858653     0.851010     0.843367     0.835724     0.828081     0.820438     0.812795     0.805152     0.797508
      0.789865     0.782222     0.774579     0.766936     0.759293     0.751650     0.744007     0.736364     0.728721     0.721077
      0.713434     0.705791     0.698148     0.690505     0.682862     0.675219     0.667576     0.659933     0.652290     0.644646
      0.637003     0.629360     0.621717     0.614074     0.606431     0.598788     0.591145     0.583502     0.575858     0.568215
      0.560572     0.552929     0.545286     0.537643     0.530000     0.522357     0.514714     0.507071     0.499427     0.491784
      0.484141     0.476498     0.468855     0.461212     0.453569     0.445925     0.438282     0.430639     0.422996     0.415353
      0.407710     0.400067     0.392424     0.384780     0.377137     0.369494     0.361851     0.354208     0.346565     0.338922
      0.331278     0.323635     0.315992     0.308349     0.300706     0.293063     0.285420     0.277777     0.270133     0.262490
      0.254847     0.247204     0.239561     0.231918     0.224275     0.216631     0.208988     0.201345
 NY phased data points follow
  -1.11832E+01 -4.36750E+00 -9.20805E+00 -7.15466E+00 -3.83678E+00 -2.69445E-01  3.57491E+00  8.15241E+00  1.93791E+01  2.16534E+01
   2.60317E+01  2.10333E+01  1.73736E+01  1.32342E+01  4.32468E+00  1.89245E+00 -4.20758E+00 -3.08517E+00 -7.20732E+00 -2.42873E+00
  -8.79260E+00 -1.38482E+00 -6.14906E+00 -6.30908E+00 -6.21599E+00  3.83352E+00 -1.01017E+01 -1.08617E-01 -1.99039E+00 -3.25253E+00
   3.11407E+00  9.44710E+00  2.35032E+00  2.61909E+00 -4.57752E+00  1.35221E+00  1.22356E+00  6.15521E+00 -1.30687E+00  3.19929E+00
  -9.74290E-01 -2.11870E-01 -3.01113E-01  6.29672E+00  4.23917E+00  2.96111E+00  4.31173E+00  8.50308E+00  4.30305E+00  2.49552E+00
   2.04522E-01  3.11115E+00 -5.09467E+00  1.95796E+00 -5.73354E+00 -1.75680E+00 -4.61581E+00  7.74777E-01  1.31168E+00  2.43157E-01
  -4.85958E+00 -6.80613E-01 -5.28467E+00 -4.81918E+00 -9.05873E+00 -4.55209E+00 -5.76422E+00 -1.97122E+00 -7.63187E+00 -1.77120E+00
  -6.16829E+00  9.08546E-01 -3.05697E+00 -1.61802E+00 -5.62155E+00 -1.52743E+00 -4.05181E+00 -2.99550E+00 -4.12970E+00 -7.25023E+00
  -6.60462E+00 -5.83929E+00 -7.03530E+00 -1.85697E-01 -2.13879E+00  4.32851E+00 -8.09281E-01 -2.42875E+00 -1.36969E+00  3.08849E+00
  -3.93259E+00  1.40545E+00 -5.61776E-01  1.92477E+00  7.03360E-01  9.91406E-01 -4.80462E-01  8.79898E+00  3.27846E+00  6.43882E+00
   1.68408E+01  2.43696E+01  3.00585E+01  3.37458E+01  2.94942E+01  2.34844E+01  1.25671E+01  1.09740E+01  2.25119E+00  1.32341E+00
  -3.20948E-01 -3.05899E+00 -3.52610E+00  1.60614E+00 -3.56053E+00  1.23487E+00 -2.86696E+00  5.60389E+00 -1.27403E+00  1.82378E-01
   1.26811E+00  9.29161E+00  5.70473E+00  2.10938E+01  3.12596E+01  5.17074E+01  5.51791E+01  6.19485E+01  4.77488E+01  4.47433E+01
   2.99987E+01  2.22059E+01  1.42358E+01  8.81477E+00  8.40643E+00  4.49870E+00 -1.15877E+00  3.21540E+00 -4.98990E-01 -1.06972E+00
  -1.15921E+00 -1.51614E+00 -3.61933E+00 -4.58005E+00 -5.42811E+00 -3.29796E+00 -2.68237E+00 -5.18356E+00 -5.54117E+00 -3.96746E+00
  -3.88552E+00 -5.75532E-01 -6.04197E+00 -1.61103E+00 -4.50015E+00 -1.06304E+00 -6.70952E+00 -3.10261E-01 -1.09410E+00 -1.14280E+00
   1.31600E-01 -3.56756E+00 -8.06975E+00 -6.52485E+00 -8.65696E+00 -2.72366E+00 -6.05815E+00 -4.03309E+00 -1.34336E+01 -1.15331E+01
  -1.29418E+01 -1.43926E+01 -1.53908E+01 -2.01700E+01 -2.38522E+01 -1.60405E+01 -1.83295E+01 -1.54558E+01 -1.45244E+01 -1.13155E+01
  -1.67342E+01 -1.19107E+01 -1.74278E+01 -2.56662E+00 -9.95095E+00 -5.16917E+00 -9.24177E+00 -3.61139E+00 -8.66167E+00 -9.34318E+00
  -5.99911E+00 -5.18975E+00 -6.93959E+00 -5.99376E+00 -7.01194E+00 -8.47221E+00 -1.01314E+01 -1.09302E+01 -1.14932E+01 -6.89489E+00
  -8.61514E+00 -4.36309E+00 -6.20442E-02  1.88407E+00  5.31221E+00 -4.83634E-01 -1.01056E+00 -2.87777E+00 -1.16746E+00 -3.36467E+00
  -4.69705E+00  1.94748E+00  1.47788E+00  9.69695E+00  8.36658E+00  1.28967E+01  1.03705E+01  7.94624E+00 -3.58748E-01 -1.73104E+00
  -7.08321E+00 -7.12171E+00 -1.41530E+01  1.10077E+00  1.16597E-01  3.62209E+00  2.52294E+00  7.61856E+00  5.70572E+00  5.52109E+00
   4.64884E+00  4.56377E+00  4.81645E+00  6.84410E+00  7.92661E-01  5.82680E+00  2.49761E+00  2.26600E+00 -1.06520E+00  2.61958E+00
   1.98041E+00  3.82278E+00 -2.85433E+00  6.80080E+00  1.05387E+01  1.55185E+00  7.15552E-01  8.01614E+00  7.79123E+00  9.75240E+00
   1.06668E+01  1.88686E+01  1.46843E+01  2.35162E+01  2.11754E+01  3.70463E+01  4.38880E+01  6.19643E+01  8.39220E+01  9.70770E+01
   1.02038E+02  9.16244E+01  7.81783E+01  5.94073E+01  4.36606E+01  3.32580E+01  1.77328E+01  1.33194E+01  1.01218E+01  1.00570E+01
   5.27843E+00  5.00824E+00  4.47507E+00  4.52868E+00  5.78150E+00  6.43916E+00 -1.60670E+00 -2.20028E+00 -2.98542E+00  2.17722E+00
  -2.16392E+00  4.98780E-01 -1.07484E+00  1.60934E+00  1.92179E+00 -3.04427E+00  6.22666E-02  1.71319E+00  1.71834E+00  3.21122E+00
  -2.07809E+00  6.02512E+00 -1.52088E+00 -2.29312E+00  3.09984E+00  4.09654E+00  2.22135E+00  7.18523E+00  1.48593E+00  3.10560E+00
   1.07462E+01  1.00285E+01  5.91784E+00  8.80533E+00  1.06980E+01  1.11939E+01  1.06459E+01  1.97417E+01  9.53761E+00  1.56558E+01
   1.38625E+01  1.51599E+01  1.25013E+01  1.61295E+01  1.63058E+01  1.46807E+01  8.44834E+00  9.36748E+00  8.09549E+00  1.46507E+01
   6.77841E+00  4.97397E+00  9.18834E+00  7.40510E+00  2.44816E+00  5.98078E+00  3.86711E+00  2.70916E+00 -5.43343E-01  3.29978E+00
  -1.51959E+00  5.68398E+00  6.94935E+00  4.42424E+00  5.82077E+00  2.86242E+00  8.65756E+00  1.00662E+01  8.17430E+00  8.67530E+00
   3.30189E+00  1.02899E+01  5.96514E+00  7.21897E+00  1.24334E+01  1.23490E+01  5.75267E+00  9.05419E+00  1.29002E+01  9.91623E+00
   6.75024E+00  1.13364E+01  8.25437E+00  9.34924E+00  1.11691E+01  8.22187E+00  9.40883E+00  5.14810E+00  1.25257E+01  9.90746E+00
   9.21841E+00  4.12285E+00  7.44697E+00  9.25210E+00  5.00709E+00  1.22981E+01  9.36747E+00  1.16993E+01  9.94015E+00  5.70514E+00
   4.12511E+00  5.61793E+00  4.15374E+00  5.85135E+00  4.47228E+00  6.35282E+00  2.95878E+00  1.91162E+00  1.24062E+00  5.11348E+00
   2.75630E+00  7.31446E+00  6.04336E+00  8.34881E+00  3.77671E+00  5.47203E+00  5.21835E+00  1.93014E+00  4.70398E+00  4.49326E+00
   3.24357E+00  6.86858E+00  6.80308E+00  1.28547E+01  7.99716E+00  3.00492E+00  2.38457E+00  8.09833E+00  8.11190E+00  1.05994E+01
   8.30130E+00  9.13288E+00  1.54936E+01  1.60643E+01  1.18387E+01  1.20180E+01  1.34159E+01  1.55762E+01  1.45740E+01  1.89135E+01
   1.09675E+01  9.83902E+00  1.49591E+01  1.45450E+01  1.22680E+01  1.36744E+01  1.03816E+01  1.22525E+01  9.80392E+00  7.65017E+00
   7.66590E+00  3.35128E+00  7.32395E+00  5.36406E+00 -7.60806E-01  2.07785E+00  4.91223E+00  2.25003E+00  4.52758E+00  1.31639E+00
   5.11038E+00  8.04135E+00 -1.19088E+00  6.69682E+00  1.38635E+00  2.93614E+00 -9.76368E-01  4.49624E+00  1.94984E+00  2.23079E+00
  -5.75621E-01 -3.91114E+00 -2.00761E+00  2.59844E+00  7.87582E-01  3.21727E+00 -3.07839E+00  1.45011E-01  2.33955E+00  6.45117E-01
  -3.36913E+00  1.58432E-01 -6.86324E-02  3.32682E+00 -2.59316E+00  2.23334E+00  2.93031E+00 -3.41412E-01  7.47306E-01  3.07229E+00
  -2.93542E-01 -2.65668E+00  6.85462E+00  7.10935E+00  2.19071E+00  4.80069E+00 -7.09506E-01  1.47564E+00 -6.32182E-01 -3.41956E-01
   1.90200E+00 -4.44442E+00  3.24375E+00  1.32697E+00  1.34393E-01  3.52258E+00 -9.14648E-01  3.03462E+00  2.66963E+00 -8.58769E-02
  -1.78587E+00 -6.30416E-01 -2.82646E+00  3.43944E-01 -1.73751E+00  8.23816E-01  3.98048E+00  1.79851E+00  5.93226E+00 -7.24281E-01
   9.60665E-01  3.18576E+00 -1.49720E+00 -5.17491E-01  1.31877E+00 -2.32330E+00  3.35751E-01  4.22794E+00
 NY points of the fit to the data follow
  -4.80012E+00 -4.99928E+00 -5.22181E+00 -4.83909E+00 -2.96622E+00 -2.76532E-01  4.06381E+00  1.05745E+01  1.76513E+01  2.25761E+01
   2.35867E+01  2.10557E+01  1.64623E+01  1.14253E+01  7.00230E+00  3.66323E+00  9.86005E-01 -1.28448E+00 -2.42974E+00 -2.80177E+00
  -2.78983E+00 -2.80650E+00 -3.00398E+00 -3.36120E+00 -3.79329E+00 -4.34862E+00 -4.39650E+00 -3.26470E+00 -1.00265E+00  1.68535E+00
   4.01694E+00  5.37184E+00  5.27385E+00  3.79816E+00  1.60933E+00 -7.81336E-01 -2.83715E+00 -4.16286E+00 -4.61864E+00 -4.53777E+00
  -4.02688E+00 -3.00091E+00 -1.56362E+00  1.81935E-01  2.30669E+00  4.46012E+00  5.76177E+00  5.56716E+00  4.09187E+00  1.89723E+00
  -3.84182E-01 -2.29655E+00 -3.61469E+00 -4.33695E+00 -4.59638E+00 -4.37072E+00 -3.63837E+00 -2.67915E+00 -1.80695E+00 -1.31758E+00
  -1.36810E+00 -1.88978E+00 -2.68170E+00 -3.40430E+00 -3.86731E+00 -4.00362E+00 -3.85242E+00 -3.56530E+00 -3.20386E+00 -2.74068E+00
  -2.22896E+00 -1.84808E+00 -1.60384E+00 -1.49209E+00 -1.60334E+00 -1.96520E+00 -2.53249E+00 -3.14186E+00 -3.64760E+00 -3.90873E+00
  -3.73263E+00 -3.06882E+00 -2.28238E+00 -1.31044E+00 -1.65771E-01  5.96184E-01  5.57970E-01 -2.34117E-01 -1.34954E+00 -2.37863E+00
  -3.10270E+00 -3.57063E+00 -3.85764E+00 -4.00072E+00 -4.06922E+00 -3.79202E+00 -2.90251E+00 -2.97860E-01  3.84289E+00  9.53658E+00
   1.75937E+01  2.61448E+01  3.17583E+01  3.22985E+01  2.83296E+01  2.19733E+01  1.52109E+01  9.35125E+00  4.80487E+00  1.38395E+00
  -1.42959E+00 -3.07809E+00 -3.54707E+00 -3.68539E+00 -3.71401E+00 -3.69302E+00 -3.60879E+00 -3.45738E+00 -3.18732E+00 -2.65226E+00
  -1.21823E+00  3.08093E+00  1.02715E+01  2.00348E+01  3.35245E+01  4.79309E+01  5.76379E+01  5.90762E+01  5.29258E+01  4.25937E+01
   3.14490E+01  2.16218E+01  1.37586E+01  7.52646E+00  2.16676E+00 -1.42869E+00 -2.77803E+00 -3.19651E+00 -3.12270E+00 -2.78124E+00
  -2.41845E+00 -2.19768E+00 -2.14464E+00 -2.25234E+00 -2.47541E+00 -2.73871E+00 -2.99996E+00 -3.25051E+00 -3.48750E+00 -3.73135E+00
  -3.94309E+00 -4.13891E+00 -4.30247E+00 -4.38645E+00 -4.39460E+00 -4.44451E+00 -4.56897E+00 -4.83860E+00 -5.34469E+00 -5.89901E+00
  -6.28060E+00 -6.27814E+00 -5.87198E+00 -5.42633E+00 -5.31563E+00 -5.64317E+00 -6.25722E+00 -6.91764E+00 -7.43421E+00 -7.84388E+00
  -8.26599E+00 -8.74027E+00 -9.23508E+00 -9.75005E+00 -1.01418E+01 -1.02445E+01 -9.96601E+00 -9.49402E+00 -9.19616E+00 -9.16994E+00
  -9.22419E+00 -9.21863E+00 -9.05752E+00 -8.78735E+00 -8.54323E+00 -8.15715E+00 -7.24088E+00 -5.78997E+00 -4.09851E+00 -2.58371E+00
  -1.57586E+00 -1.15066E+00 -1.28374E+00 -1.71571E+00 -2.21161E+00 -2.76215E+00 -3.23551E+00 -3.35329E+00 -2.92526E+00 -1.99801E+00
  -6.87912E-01  7.40542E-01  1.95559E+00  2.46050E+00  1.81658E+00  2.45480E-01 -2.04298E+00 -4.77191E+00 -7.09068E+00 -8.17155E+00
  -7.57286E+00 -5.68360E+00 -2.61753E+00  1.05906E+00  4.07955E+00  5.21467E+00  4.07124E+00  1.25688E+00 -2.47121E+00 -6.37952E+00
  -9.40501E+00 -1.05677E+01 -9.59685E+00 -7.04023E+00 -3.61351E+00 -3.98360E-01  2.02210E+00  3.50899E+00  4.13210E+00  4.14459E+00
   3.75681E+00  3.36109E+00  3.31257E+00  3.59244E+00  4.05592E+00  4.70518E+00  5.28868E+00  5.48861E+00  5.41034E+00  5.07396E+00
   4.55463E+00  4.21018E+00  4.40318E+00  5.12516E+00  6.04492E+00  6.93742E+00  7.67483E+00  8.16451E+00  8.44893E+00  9.00233E+00
   1.04211E+01  1.24203E+01  1.51016E+01  1.89362E+01  2.56287E+01  3.55822E+01  4.70976E+01  6.31666E+01  8.23534E+01  9.69994E+01
   1.00726E+02  9.28840E+01  7.77288E+01  6.02642E+01  4.43984E+01  3.17727E+01  2.21459E+01  1.42889E+01  8.45900E+00  6.13287E+00
   5.11794E+00  4.54534E+00  4.23534E+00  3.99197E+00  3.68287E+00  3.30164E+00  2.86798E+00  2.41188E+00  1.97069E+00  1.57513E+00
   1.24435E+00  9.84090E-01  7.85611E-01  6.26911E-01  4.88669E-01  3.60135E-01  2.55000E-01  1.90939E-01  1.83218E-01  2.48261E-01
   4.02344E-01  6.50058E-01  9.88748E-01  1.40980E+00  1.91744E+00  2.51402E+00  3.20096E+00  3.98293E+00  4.86088E+00  5.82403E+00
   6.85782E+00  7.93521E+00  9.02287E+00  1.00835E+01  1.10813E+01  1.19814E+01  1.27535E+01  1.33681E+01  1.38051E+01  1.40506E+01
   1.40990E+01  1.39534E+01  1.36267E+01  1.31386E+01  1.25168E+01  1.17931E+01  1.10037E+01  1.01860E+01  9.37931E+00  8.62410E+00
   7.97199E+00  7.47701E+00  7.07998E+00  6.76927E+00  6.51980E+00  6.16108E+00  5.57066E+00  4.79306E+00  3.99405E+00  3.40415E+00
   3.12212E+00  3.14639E+00  3.55106E+00  4.31604E+00  5.25671E+00  6.18317E+00  6.91295E+00  7.38491E+00  7.66365E+00  7.83262E+00
   7.96051E+00  8.08452E+00  8.18151E+00  8.27820E+00  8.42288E+00  8.57915E+00  8.72085E+00  8.84064E+00  8.94533E+00  9.04894E+00
   9.15587E+00  9.26484E+00  9.37868E+00  9.49019E+00  9.58204E+00  9.63780E+00  9.64660E+00  9.60236E+00  9.50908E+00  9.37193E+00
   9.19607E+00  8.98450E+00  8.73848E+00  8.46402E+00  8.16764E+00  7.85137E+00  7.51932E+00  7.17573E+00  6.82603E+00  6.47491E+00
   6.12758E+00  5.78823E+00  5.46154E+00  5.15131E+00  4.86181E+00  4.59612E+00  4.35760E+00  4.14858E+00  3.97199E+00  3.83002E+00
   3.72546E+00  3.66025E+00  3.63691E+00  3.65734E+00  3.72436E+00  3.84016E+00  4.00756E+00  4.22839E+00  4.50485E+00  4.83805E+00
   5.22920E+00  5.67785E+00  6.18287E+00  6.74080E+00  7.34706E+00  7.99455E+00  8.67482E+00  9.37661E+00  1.00872E+01  1.07915E+01
   1.14736E+01  1.21166E+01  1.27040E+01  1.32192E+01  1.36474E+01  1.39754E+01  1.41933E+01  1.42941E+01  1.42750E+01  1.41361E+01
   1.38821E+01  1.35202E+01  1.30617E+01  1.25196E+01  1.19093E+01  1.12463E+01  1.05472E+01  9.82736E+00  9.10200E+00  8.38414E+00
   7.68546E+00  7.01490E+00  6.37991E+00  5.78539E+00  5.23496E+00  4.72990E+00  4.27049E+00  3.85526E+00  3.48249E+00  3.14937E+00
   2.85325E+00  2.59064E+00  2.35847E+00  2.15318E+00  1.97205E+00  1.81208E+00  1.67105E+00  1.54632E+00  1.43602E+00  1.33805E+00
   1.25118E+00  1.17386E+00  1.10519E+00  1.04380E+00  9.88995E-01  9.39778E-01  8.95838E-01  8.56415E-01  8.21244E-01  7.89553E-01
   7.61186E-01  7.35623E-01  7.12925E-01  6.92615E-01  6.74659E-01  6.58534E-01  6.44310E-01  6.31664E-01  6.20770E-01  6.11241E-01
   6.03124E-01  5.96029E-01  5.90147E-01  5.85243E-01  5.81514E-01  5.78598E-01  5.76585E-01  5.75171E-01  5.74606E-01  5.74685E-01
   5.75592E-01  5.76978E-01  5.78979E-01  5.81360E-01  5.84396E-01  5.87877E-01  5.91953E-01  5.96294E-01  6.01072E-01  6.06103E-01
   6.11663E-01  6.17520E-01  6.23804E-01  6.30217E-01  6.36972E-01  6.43916E-01  6.51301E-01  6.58871E-01  6.66745E-01  6.74663E-01
   6.82872E-01  6.91230E-01  6.99954E-01  7.08770E-01  7.17801E-01  7.26837E-01  7.36143E-01  7.45573E-01
 NY background values follow
    -8.191E+00   -8.175E+00   -8.158E+00   -8.141E+00   -8.124E+00   -8.108E+00   -8.091E+00   -8.074E+00   -8.057E+00   -8.041E+00
    -8.024E+00   -8.007E+00   -7.990E+00   -7.974E+00   -7.957E+00   -7.940E+00   -7.923E+00   -7.907E+00   -7.890E+00   -7.873E+00
    -7.856E+00   -7.840E+00   -7.823E+00   -7.806E+00   -7.789E+00   -7.773E+00   -7.756E+00   -7.739E+00   -7.722E+00   -7.706E+00
    -7.689E+00   -7.672E+00   -7.655E+00   -7.639E+00   -7.622E+00   -7.605E+00   -7.588E+00   -7.571E+00   -7.555E+00   -7.538E+00
    -7.521E+00   -7.504E+00   -7.488E+00   -7.471E+00   -7.454E+00   -7.437E+00   -7.421E+00   -7.404E+00   -7.387E+00   -7.370E+00
    -7.354E+00   -7.337E+00   -7.320E+00   -7.303E+00   -7.287E+00   -7.270E+00   -7.253E+00   -7.236E+00   -7.220E+00   -7.203E+00
    -7.186E+00   -7.169E+00   -7.152E+00   -7.136E+00   -7.119E+00   -7.102E+00   -7.085E+00   -7.069E+00   -7.052E+00   -7.035E+00
    -7.018E+00   -7.002E+00   -6.985E+00   -6.968E+00   -6.951E+00   -6.935E+00   -6.918E+00   -6.901E+00   -6.884E+00   -6.868E+00
    -6.851E+00   -6.834E+00   -6.817E+00   -6.800E+00   -6.784E+00   -6.767E+00   -6.750E+00   -6.733E+00   -6.717E+00   -6.700E+00
    -6.683E+00   -6.666E+00   -6.650E+00   -6.633E+00   -6.616E+00   -6.599E+00   -6.583E+00   -6.566E+00   -6.549E+00   -6.532E+00
    -6.515E+00   -6.499E+00   -6.482E+00   -6.465E+00   -6.448E+00   -6.432E+00   -6.415E+00   -6.398E+00   -6.381E+00   -6.365E+00
    -6.348E+00   -6.331E+00   -6.314E+00   -6.297E+00   -6.281E+00   -6.264E+00   -6.247E+00   -6.230E+00   -6.214E+00   -6.197E+00
    -6.180E+00   -6.163E+00   -6.147E+00   -6.130E+00   -6.113E+00   -6.096E+00   -6.079E+00   -6.063E+00   -6.046E+00   -6.029E+00
    -6.012E+00   -5.996E+00   -5.979E+00   -5.962E+00   -5.945E+00   -5.928E+00   -5.912E+00   -5.895E+00   -5.878E+00   -5.861E+00
    -5.845E+00   -5.828E+00   -5.811E+00   -5.794E+00   -5.778E+00   -5.761E+00   -5.744E+00   -5.727E+00   -5.710E+00   -5.694E+00
    -5.677E+00   -5.660E+00   -5.643E+00   -5.627E+00   -5.610E+00   -5.593E+00   -5.576E+00   -5.559E+00   -5.543E+00   -5.526E+00
    -5.509E+00   -5.492E+00   -5.476E+00   -5.459E+00   -5.442E+00   -5.425E+00   -5.408E+00   -5.392E+00   -5.375E+00   -5.358E+00
    -5.341E+00   -5.325E+00   -5.308E+00   -5.291E+00   -5.274E+00   -5.257E+00   -5.241E+00   -5.224E+00   -5.207E+00   -5.190E+00
    -5.174E+00   -5.157E+00   -5.140E+00   -5.123E+00   -5.106E+00   -5.090E+00   -5.073E+00   -5.056E+00   -5.039E+00   -5.023E+00
    -5.006E+00   -4.989E+00   -4.972E+00   -4.955E+00   -4.939E+00   -4.922E+00   -4.905E+00   -4.888E+00   -4.872E+00   -4.855E+00
    -4.838E+00   -4.821E+00   -4.804E+00   -4.788E+00   -4.771E+00   -4.754E+00   -4.737E+00   -4.720E+00   -4.704E+00   -4.687E+00
    -4.670E+00   -4.653E+00   -4.637E+00   -4.620E+00   -4.603E+00   -4.586E+00   -4.569E+00   -4.553E+00   -4.536E+00   -4.519E+00
    -4.502E+00   -4.486E+00   -4.469E+00   -4.452E+00   -4.435E+00   -4.418E+00   -4.402E+00   -4.385E+00   -4.368E+00   -4.351E+00
    -4.334E+00   -4.318E+00   -4.301E+00   -4.284E+00   -4.267E+00   -4.251E+00   -4.234E+00   -4.217E+00   -4.200E+00   -4.183E+00
    -4.167E+00   -4.150E+00   -4.133E+00   -4.116E+00   -4.099E+00   -4.083E+00   -4.066E+00   -4.049E+00   -4.032E+00   -4.016E+00
    -3.999E+00   -3.982E+00   -3.965E+00   -3.948E+00   -3.932E+00   -3.915E+00   -3.898E+00   -3.881E+00   -3.864E+00   -3.848E+00
    -3.831E+00   -3.814E+00   -3.797E+00   -3.781E+00   -3.764E+00   -3.747E+00   -3.730E+00   -3.713E+00   -3.697E+00   -3.680E+00
    -3.663E+00   -3.646E+00   -3.629E+00   -3.613E+00   -3.596E+00   -3.579E+00   -3.562E+00   -3.545E+00   -3.529E+00   -3.512E+00
    -3.495E+00   -3.478E+00   -3.462E+00   -3.445E+00   -3.428E+00   -3.411E+00   -3.394E+00   -3.378E+00   -3.361E+00   -3.344E+00
    -3.327E+00   -3.310E+00   -3.294E+00   -3.277E+00   -3.260E+00   -3.243E+00   -3.227E+00   -3.210E+00   -3.193E+00   -3.176E+00
    -3.159E+00   -3.143E+00   -3.126E+00   -3.109E+00   -3.092E+00   -3.075E+00   -3.059E+00   -3.042E+00   -3.025E+00   -3.008E+00
    -2.992E+00   -2.975E+00   -2.958E+00   -2.941E+00   -2.924E+00   -2.908E+00   -2.891E+00   -2.874E+00   -2.857E+00   -2.840E+00
    -2.824E+00   -2.807E+00   -2.790E+00   -2.773E+00   -2.757E+00   -2.740E+00   -2.723E+00   -2.706E+00   -2.689E+00   -2.673E+00
    -2.656E+00   -2.639E+00   -2.622E+00   -2.605E+00   -2.589E+00   -2.572E+00   -2.555E+00   -2.538E+00   -2.522E+00   -2.505E+00
    -2.488E+00   -2.471E+00   -2.454E+00   -2.438E+00   -2.421E+00   -2.404E+00   -2.387E+00   -2.370E+00   -2.354E+00   -2.337E+00
    -2.320E+00   -2.303E+00   -2.287E+00   -2.270E+00   -2.253E+00   -2.236E+00   -2.219E+00   -2.203E+00   -2.186E+00   -2.169E+00
    -2.152E+00   -2.135E+00   -2.119E+00   -2.102E+00   -2.085E+00   -2.068E+00   -2.052E+00   -2.035E+00   -2.018E+00   -2.001E+00
    -1.984E+00   -1.968E+00   -1.951E+00   -1.934E+00   -1.917E+00   -1.900E+00   -1.884E+00   -1.867E+00   -1.850E+00   -1.833E+00
    -1.817E+00   -1.800E+00   -1.783E+00   -1.766E+00   -1.749E+00   -1.733E+00   -1.716E+00   -1.699E+00   -1.682E+00   -1.666E+00
    -1.649E+00   -1.632E+00   -1.615E+00   -1.598E+00   -1.582E+00   -1.565E+00   -1.548E+00   -1.531E+00   -1.515E+00   -1.498E+00
    -1.481E+00   -1.464E+00   -1.447E+00   -1.431E+00   -1.414E+00   -1.397E+00   -1.380E+00   -1.363E+00   -1.347E+00   -1.330E+00
    -1.313E+00   -1.296E+00   -1.280E+00   -1.263E+00   -1.246E+00   -1.229E+00   -1.212E+00   -1.196E+00   -1.179E+00   -1.162E+00
    -1.145E+00   -1.129E+00   -1.112E+00   -1.095E+00   -1.078E+00   -1.061E+00   -1.045E+00   -1.028E+00   -1.011E+00   -9.944E-01
    -9.776E-01   -9.608E-01   -9.441E-01   -9.273E-01   -9.105E-01   -8.937E-01   -8.770E-01   -8.602E-01   -8.434E-01   -8.266E-01
    -8.099E-01   -7.931E-01   -7.763E-01   -7.595E-01   -7.428E-01   -7.260E-01   -7.092E-01   -6.925E-01   -6.757E-01   -6.589E-01
    -6.421E-01   -6.254E-01   -6.086E-01   -5.918E-01   -5.751E-01   -5.583E-01   -5.415E-01   -5.247E-01   -5.080E-01   -4.912E-01
    -4.744E-01   -4.577E-01   -4.409E-01   -4.241E-01   -4.074E-01   -3.906E-01   -3.738E-01   -3.571E-01   -3.403E-01   -3.235E-01
    -3.068E-01   -2.900E-01   -2.732E-01   -2.564E-01   -2.397E-01   -2.229E-01   -2.061E-01   -1.894E-01   -1.726E-01   -1.559E-01
    -1.391E-01   -1.223E-01   -1.056E-01   -8.879E-02   -7.203E-02   -5.526E-02   -3.850E-02   -2.174E-02   -4.972E-03    1.179E-02
     2.855E-02    4.532E-02    6.208E-02    7.884E-02    9.560E-02    1.124E-01    1.291E-01    1.459E-01
 Ala      Conc. = 1.27E+02
