 LCModel (Version 6.3-1L) Copyright: S.W. Provencher.          Ref.: Magn. Reson. Med. 30:672-679 (1993).                
 Slice#1 Row#5 Col#4  PD_24_press_2_raw_act
 36 lines in following concentration table = NCONC+1
    Conc.  %SD /Cr+PCr  Metabolite                                         
  550.471  65%   0.273 Ala                                                 
   14.594 999% 7.2E-03 Asp                                                 
    0.000 999%   0.000 Cr                                                  
 2.02E+03   8%   1.000 PCr                                                 
   38.395 705% 1.9E-02 GABA                                                
  105.869 250% 5.3E-02 Glc                                                 
  774.110  98%   0.384 Gln                                                 
 2.15E+03  40%   1.065 Glu                                                 
  732.927   9%   0.364 GPC                                                 
    0.000 999%   0.000 PCh                                                 
  243.395  90%   0.121 GSH                                                 
 1.43E+03  52%   0.710 Ins                                                 
    0.000 999%   0.000 Lac                                                 
 3.05E+03  12%   1.515 NAA                                                 
  129.225 323% 6.4E-02 NAAG                                                
  175.981  37% 8.7E-02 Scyllo                                              
  557.073  72%   0.276 Tau                                                 
 1.51E+03  18%   0.750 -CrCH2                                              
  732.927   9%   0.364 GPC+PCh                                             
 3.18E+03   7%   1.579 NAA+NAAG                                            
 2.02E+03   8%   1.000 Cr+PCr                                              
 2.92E+03  44%   1.449 Glu+Gln                                             
 5.78E+03  23%   2.867 Lip13a                                              
    0.000 999%   0.000 Lip13b                                              
  890.362  81%   0.442 Lip09                                               
 3.43E+03  22%   1.703 MM09                                                
 1.41E+03  38%   0.701 Lip20                                               
 7.03E+03  15%   3.486 MM20                                                
 1.24E+03  41%   0.616 MM12                                                
 3.27E+03  15%   1.623 MM14                                                
    0.000 999%   0.000 MM17                                                
 5.78E+03  23%   2.867 Lip13a+Lip13b                                       
 1.03E+04  10%   5.107 MM14+Lip13a+Lip13b+MM12                             
 4.32E+03  12%   2.145 MM09+Lip09                                          
 8.44E+03  12%   4.187 MM20+Lip20                                          
   6 lines in following misc. output table
  FWHM = 0.061 ppm    S/N =   6                                            
  Data shift = 0.000 ppm                                                   
  Ph: -13 deg       2.4 deg/ppm                                            
  alphaB,S = 9.3E-01,   9.3E+01                                            
   14 spline knots.   Ns = 8(1)                                            
  (11) 2 infls.   (11) 1 extrs.                                            
  498 points on ppm-axis = NY
      4.000000     3.992357     3.984714     3.977070     3.969427     3.961784     3.954141     3.946497     3.938854     3.931211
      3.923568     3.915925     3.908281     3.900638     3.892995     3.885352     3.877708     3.870065     3.862422     3.854779
      3.847136     3.839492     3.831849     3.824206     3.816563     3.808919     3.801276     3.793633     3.785990     3.778347
      3.770703     3.763060     3.755417     3.747774     3.740130     3.732487     3.724844     3.717201     3.709558     3.701914
      3.694271     3.686628     3.678985     3.671341     3.663698     3.656055     3.648412     3.640769     3.633125     3.625482
      3.617839     3.610196     3.602552     3.594909     3.587266     3.579623     3.571980     3.564336     3.556693     3.549050
      3.541407     3.533763     3.526120     3.518477     3.510834     3.503191     3.495547     3.487904     3.480261     3.472618
      3.464974     3.457331     3.449688     3.442045     3.434402     3.426758     3.419115     3.411472     3.403829     3.396185
      3.388542     3.380899     3.373256     3.365613     3.357969     3.350326     3.342683     3.335040     3.327396     3.319753
      3.312110     3.304467     3.296824     3.289180     3.281537     3.273894     3.266251     3.258607     3.250964     3.243321
      3.235678     3.228034     3.220391     3.212748     3.205105     3.197462     3.189818     3.182175     3.174532     3.166889
      3.159245     3.151602     3.143959     3.136316     3.128673     3.121029     3.113386     3.105743     3.098100     3.090456
      3.082813     3.075170     3.067527     3.059884     3.052240     3.044597     3.036954     3.029311     3.021667     3.014024
      3.006381     2.998738     2.991095     2.983451     2.975808     2.968165     2.960522     2.952878     2.945235     2.937592
      2.929949     2.922306     2.914662     2.907019     2.899376     2.891733     2.884089     2.876446     2.868803     2.861160
      2.853517     2.845873     2.838230     2.830587     2.822944     2.815300     2.807657     2.800014     2.792371     2.784728
      2.777084     2.769441     2.761798     2.754155     2.746511     2.738868     2.731225     2.723582     2.715939     2.708295
      2.700652     2.693009     2.685366     2.677722     2.670079     2.662436     2.654793     2.647150     2.639506     2.631863
      2.624220     2.616577     2.608933     2.601290     2.593647     2.586004     2.578361     2.570717     2.563074     2.555431
      2.547788     2.540144     2.532501     2.524858     2.517215     2.509572     2.501928     2.494285     2.486642     2.478999
      2.471355     2.463712     2.456069     2.448426     2.440783     2.433139     2.425496     2.417853     2.410210     2.402566
      2.394923     2.387280     2.379637     2.371994     2.364350     2.356707     2.349064     2.341421     2.333777     2.326134
      2.318491     2.310848     2.303205     2.295561     2.287918     2.280275     2.272632     2.264988     2.257345     2.249702
      2.242059     2.234416     2.226772     2.219129     2.211486     2.203843     2.196199     2.188556     2.180913     2.173270
      2.165627     2.157983     2.150340     2.142697     2.135054     2.127410     2.119767     2.112124     2.104481     2.096838
      2.089194     2.081551     2.073908     2.066265     2.058621     2.050978     2.043335     2.035692     2.028049     2.020405
      2.012762     2.005119     1.997476     1.989833     1.982190     1.974546     1.966903     1.959260     1.951617     1.943974
      1.936331     1.928688     1.921045     1.913402     1.905759     1.898115     1.890472     1.882829     1.875186     1.867543
      1.859900     1.852257     1.844614     1.836971     1.829327     1.821684     1.814041     1.806398     1.798755     1.791112
      1.783469     1.775826     1.768183     1.760540     1.752896     1.745253     1.737610     1.729967     1.722324     1.714681
      1.707038     1.699395     1.691752     1.684108     1.676465     1.668822     1.661179     1.653536     1.645893     1.638250
      1.630607     1.622964     1.615321     1.607677     1.600034     1.592391     1.584748     1.577105     1.569462     1.561819
      1.554176     1.546533     1.538890     1.531246     1.523603     1.515960     1.508317     1.500674     1.493031     1.485388
      1.477745     1.470102     1.462458     1.454815     1.447172     1.439529     1.431886     1.424243     1.416600     1.408957
      1.401314     1.393671     1.386027     1.378384     1.370741     1.363098     1.355455     1.347812     1.340169     1.332526
      1.324883     1.317240     1.309596     1.301953     1.294310     1.286667     1.279024     1.271381     1.263738     1.256095
      1.248452     1.240808     1.233165     1.225522     1.217879     1.210236     1.202593     1.194950     1.187307     1.179664
      1.172021     1.164377     1.156734     1.149091     1.141448     1.133805     1.126162     1.118519     1.110876     1.103233
      1.095590     1.087946     1.080303     1.072660     1.065017     1.057374     1.049731     1.042088     1.034445     1.026802
      1.019158     1.011515     1.003872     0.996229     0.988586     0.980943     0.973300     0.965657     0.958014     0.950371
      0.942727     0.935084     0.927441     0.919798     0.912155     0.904512     0.896869     0.889226     0.881583     0.873940
      0.866296     0.858653     0.851010     0.843367     0.835724     0.828081     0.820438     0.812795     0.805152     0.797508
      0.789865     0.782222     0.774579     0.766936     0.759293     0.751650     0.744007     0.736364     0.728721     0.721077
      0.713434     0.705791     0.698148     0.690505     0.682862     0.675219     0.667576     0.659933     0.652290     0.644646
      0.637003     0.629360     0.621717     0.614074     0.606431     0.598788     0.591145     0.583502     0.575858     0.568215
      0.560572     0.552929     0.545286     0.537643     0.530000     0.522357     0.514714     0.507071     0.499427     0.491784
      0.484141     0.476498     0.468855     0.461212     0.453569     0.445925     0.438282     0.430639     0.422996     0.415353
      0.407710     0.400067     0.392424     0.384780     0.377137     0.369494     0.361851     0.354208     0.346565     0.338922
      0.331278     0.323635     0.315992     0.308349     0.300706     0.293063     0.285420     0.277777     0.270133     0.262490
      0.254847     0.247204     0.239561     0.231918     0.224275     0.216631     0.208988     0.201345
 NY phased data points follow
  -1.26586E+01 -1.33304E+01 -2.62485E+01 -2.06059E+01 -1.31516E+01 -1.69936E+01 -8.54974E-01  1.65129E+00  2.00741E+00  1.19143E+01
   8.88601E+00  5.76136E+00  4.78612E+00  1.53554E+01  3.85936E+00  9.74106E+00  7.09384E-01  3.47615E+00 -5.52553E+00  1.24252E+01
  -2.93914E-01  3.49339E-01 -1.77684E+00 -1.84108E+01 -1.63338E+00 -8.05122E+00 -1.38008E+01 -5.43207E-01  1.87880E+00 -5.33641E+00
  -2.48380E+00  2.47088E+00 -2.52261E+00  7.69982E+00 -4.72241E+00 -3.11077E+00 -5.24462E+00  3.75653E+00 -3.74385E+00 -4.82809E+00
   8.47967E+00  5.20174E+00  1.05383E+01 -2.87147E+00  3.74800E+00  9.77134E+00  7.17690E+00  9.04309E+00  3.94663E+00  1.09821E+01
   1.21553E+01  7.80810E+00  2.10298E+00  9.07386E+00  6.99206E+00 -7.81128E+00 -3.01387E+00  5.15549E+00 -2.39072E+00  1.06853E+01
  -4.65224E+00 -9.99550E-01  1.24418E+00 -1.15115E+01 -6.08686E+00 -1.04533E+01 -1.13199E+00 -8.75313E+00 -1.29176E+01 -1.06145E+01
  -1.46774E+01  1.18321E+00 -2.39231E-01 -7.58270E+00 -3.84841E+00  3.10035E+00 -5.37846E+00  1.88437E+00 -4.79314E+00 -3.15631E+00
   2.66405E+00 -2.54419E+00  4.12977E+00 -2.66844E+00  4.75641E+00 -6.83199E+00 -3.07300E+00  5.31241E+00  1.46414E+01  1.86972E+00
   3.28050E-01 -1.03616E+01  1.06467E+01 -4.97940E+00  2.74309E+00  6.54807E+00  1.57796E+00  4.03978E+00  8.25163E+00  2.38535E+01
   2.48698E+01  4.19905E+01  3.23357E+01  5.01362E+01  4.26471E+01  5.34398E+01  4.84124E+01  5.19003E+01  3.79641E+01  6.43038E+00
   2.06775E+01  5.92257E+00  1.68299E+00  1.52458E+00  5.53906E-01  7.33017E-01 -8.39260E+00 -3.28018E+00 -1.17589E+01 -4.52276E+00
   7.25424E-01 -4.76252E+00  7.65558E+00  1.72556E+01  1.08892E+01  3.15633E+01  4.07653E+01  5.02810E+01  5.58537E+01  5.43912E+01
   5.32142E+01  3.80072E+01  3.27234E+01  2.48206E+01  2.18455E+01  2.20663E+01  2.92222E+00  6.30751E+00 -3.42325E+00 -5.45455E+00
   9.53699E-02  2.55689E+00 -4.18269E+00 -8.21954E+00 -1.08290E+01 -1.40556E+01 -2.27072E+00 -8.61021E+00 -5.21692E+00  3.42487E+00
  -1.68761E+00 -3.30459E-01 -2.95950E+00 -1.56965E+01 -8.75950E+00 -1.15921E+01 -2.10852E+00  1.90947E+00  2.05204E+00 -3.73983E+00
  -1.31054E+01  2.40596E+00 -1.18927E+01 -7.27416E+00 -1.09986E+01 -1.61269E+01 -2.19388E+00 -1.24322E+01 -1.70290E+01 -1.02638E+01
  -2.29010E+01 -1.64337E+01 -1.44392E+01 -9.81555E+00 -2.29569E+01 -1.94749E+01 -3.25033E+01 -2.45110E+01 -2.62551E+01 -2.63411E+01
  -2.16136E+01 -1.98627E+01 -2.10110E+01 -1.92969E+01 -1.47169E+01 -1.24098E+01 -6.31354E+00 -1.34181E+01 -5.87852E+00 -5.30361E+00
  -7.45085E+00 -4.00179E-01 -1.24364E+01 -1.30002E+01 -1.83193E+01 -2.01008E+01 -9.72423E+00 -1.25049E+01 -1.76202E+01 -1.41818E+01
  -1.86383E+01  9.77225E-01 -1.20105E+01 -1.08008E+01 -2.36129E+00  2.07956E+00 -2.17913E+01 -1.93057E+01 -8.28512E+00 -8.47908E+00
  -1.22613E+01 -2.53747E+00 -1.03917E+01  1.09283E+00  8.81232E-01  1.05323E+01 -6.68119E-01  6.86727E+00  3.02262E+00 -8.08749E+00
  -1.39925E+00 -1.40043E+01 -1.30518E+01 -1.72800E+01 -1.78391E+01 -6.11428E+00  6.17028E+00 -5.03101E+00 -1.60645E+00  3.13292E+00
   7.09528E+00 -5.40946E-01 -3.30745E+00  8.23726E+00 -5.91037E+00  6.91832E+00  8.56513E+00  4.43062E+00  6.63853E+00  2.29868E+00
  -9.73020E+00  7.66382E+00  6.09931E+00 -8.73884E+00  3.32382E+00  2.58079E+00  7.18021E+00  8.90768E+00  7.52121E-01  1.27262E+01
   8.94993E+00  1.15126E+01  1.34117E+01  2.32561E+01  2.13793E+01  4.01636E+01  4.68096E+01  6.61838E+01  7.87329E+01  9.92531E+01
   1.00491E+02  9.50981E+01  9.42762E+01  7.99977E+01  5.32125E+01  5.01143E+01  2.10882E+01  1.44232E+01  2.01627E+01  6.17514E+00
   1.21206E-02  7.77298E+00 -1.14108E+00 -1.60993E-01 -2.82347E+00  4.98125E+00 -8.75892E+00 -3.27922E+00 -7.70088E+00 -2.46376E+00
  -1.40696E+01 -4.49828E+00 -3.25418E+00 -1.16521E+01 -1.44767E+01 -1.17512E+01 -1.81789E+01 -8.38283E+00 -5.23588E+00 -7.89224E+00
  -1.77280E+01 -1.55535E+01 -1.26129E+01 -1.02284E+01 -2.04662E+01 -2.84996E+01 -2.79219E+01 -3.10083E+01 -4.01572E+01 -4.89740E+01
  -3.96570E+01 -4.91738E+01 -5.59902E+01 -6.72606E+01 -5.91213E+01 -4.56818E+01 -5.73621E+01 -4.85565E+01 -4.81888E+01 -5.06229E+01
  -3.16261E+01 -2.68516E+01 -2.29614E+01  4.66048E-01 -8.79450E+00  7.35150E+00  1.25286E+01  8.36201E-01  2.65528E+00 -7.20314E+00
   1.76165E+00 -8.78972E-01  9.14565E+00  8.49243E-01  3.69651E-01  4.87572E+00  1.42565E+01  2.14028E+00 -7.68691E-01  1.13696E+01
   4.96341E+00  8.04466E-01  2.87833E+00  2.82050E+00 -2.81909E-01  2.49179E+00 -2.61023E+00  1.38735E+00  8.74388E-01  9.14473E+00
   1.25017E+01  5.60912E+00  1.24180E+01  5.28951E+00  7.37715E-01  1.22025E+00 -2.14336E+00  4.67236E+00  2.10359E+01  9.60837E+00
   7.15111E+00  6.32004E+00  1.89445E+01  1.23540E+01  5.33904E+00  7.34854E+00  1.56568E+01  7.91776E+00  1.06015E+01  5.46323E+00
   3.03391E-01  1.06975E+01  1.41097E+01  1.10737E+01  3.41402E+00  1.86253E+01  1.20949E+01 -2.53607E-01  1.18257E+01 -3.53626E+00
   1.60297E+01  4.71602E+00  5.11582E+00  2.44603E+00  9.04749E+00  8.37246E+00  2.95212E+00  7.04872E+00 -9.56974E+00 -8.03664E+00
   2.75690E+00 -3.37446E-01 -1.02330E+01 -8.09978E+00 -6.83343E+00 -4.48261E+00  9.85129E-01  2.34577E-02 -5.21227E+00  5.63017E-01
  -7.81209E-01  1.28211E+00  8.61832E+00 -1.02115E+01  1.38482E+01  1.04940E+01  1.55913E+01  3.50579E+00 -2.63214E+00  1.69266E+01
   4.46662E+00  2.10364E+01  1.45558E+01  7.42265E+00  6.19045E+00  1.14873E+01  2.10636E+01  1.63681E+01  2.31280E+01  2.48374E+01
   8.13496E+00  1.26182E+01  7.18395E+00 -3.07475E+00  8.00834E+00  1.25083E+01 -1.22248E+00  7.86612E+00 -6.56936E+00  6.04825E+00
   3.76136E+00 -3.18755E+00 -9.80209E+00 -6.36513E+00 -3.18608E+00 -1.48009E+00 -2.18762E+01 -6.73914E+00 -1.15537E+01 -1.10729E+01
  -1.31640E+01 -2.52723E+01 -2.79210E+01 -1.64918E+01 -1.79824E+01 -5.42685E+00 -9.12456E+00 -1.27307E+01 -7.13861E+00  1.02896E-01
  -1.55217E+01 -9.53568E+00 -1.32059E+01 -1.35774E+01 -7.64078E+00 -7.96362E+00 -1.01997E+01 -8.17823E+00 -2.08108E+01 -1.47996E+01
  -1.71057E+01 -1.74426E+01 -9.00690E+00 -1.08325E+01 -1.36029E+01 -1.94412E+01 -9.95383E+00  2.67823E-01 -1.22900E+01 -5.96076E+00
  -1.40832E+01 -1.02335E+01 -1.49950E+00 -6.83332E+00 -6.07843E+00 -1.10753E+00 -1.01134E+01 -1.26413E+01 -1.53393E+01 -1.40148E+01
  -2.10244E+01  7.61613E-01 -1.22148E+01 -9.48705E+00 -5.81073E+00 -1.02845E+01 -2.76393E+00  2.12738E+00 -1.25803E+01 -2.73329E+00
  -1.72583E+01 -1.36326E+01  4.58429E+00 -2.05280E+00 -9.25299E-01 -6.01982E+00 -8.76488E+00 -5.00932E+00 -6.04271E+00 -5.30049E+00
   1.16344E+00 -2.38713E+00 -8.82228E+00 -1.84855E+01  1.62755E+00  8.94790E+00 -1.57690E-01 -8.10117E-02
 NY points of the fit to the data follow
  -3.72309E+00 -4.88829E+00 -6.20222E+00 -7.10683E+00 -7.27675E+00 -6.57486E+00 -4.90313E+00 -2.24369E+00  1.16911E+00  4.84941E+00
   8.14635E+00  1.07964E+01  1.24436E+01  1.24507E+01  1.06813E+01  7.99406E+00  5.56879E+00  3.93620E+00  2.33606E+00  4.03261E-01
  -6.00466E-01 -9.38026E-01 -1.29935E+00 -1.77579E+00 -2.31794E+00 -2.81819E+00 -3.04568E+00 -2.81167E+00 -2.07172E+00 -9.25308E-01
   4.81782E-01  1.91483E+00  3.03406E+00  3.50607E+00  3.21386E+00  2.32893E+00  1.12569E+00 -1.76202E-01 -1.39933E+00 -2.22045E+00
  -2.32563E+00 -1.73319E+00 -5.96545E-01  8.85393E-01  2.54313E+00  4.11943E+00  5.31143E+00  5.88032E+00  5.72600E+00  4.90594E+00
   3.58220E+00  1.86384E+00  6.73456E-02 -1.36834E+00 -2.25409E+00 -2.76348E+00 -3.00387E+00 -2.88363E+00 -2.49331E+00 -2.13406E+00
  -1.97960E+00 -2.02087E+00 -2.24861E+00 -2.63680E+00 -3.10882E+00 -3.52527E+00 -3.75943E+00 -3.80069E+00 -3.67313E+00 -3.37664E+00
  -2.95071E+00 -2.48460E+00 -2.06475E+00 -1.78633E+00 -1.71190E+00 -1.88029E+00 -2.25823E+00 -2.74394E+00 -3.19939E+00 -3.39922E+00
  -3.21770E+00 -2.62779E+00 -1.66642E+00 -5.36654E-01  4.88117E-01  1.21947E+00  1.51893E+00  1.28605E+00  5.51790E-01 -6.20614E-01
  -2.06380E+00 -3.43687E+00 -4.41620E+00 -4.94763E+00 -5.14127E+00 -4.76625E+00 -2.83589E+00  1.48326E+00  8.14383E+00  1.66965E+01
   2.64484E+01  3.63856E+01  4.51214E+01  5.12592E+01  5.38268E+01  5.25350E+01  4.73110E+01  3.87354E+01  2.86374E+01  1.92262E+01
   1.16341E+01  5.56797E+00  4.15295E-01 -3.20203E+00 -4.51833E+00 -4.89558E+00 -5.01552E+00 -5.00009E+00 -4.80965E+00 -4.26625E+00
  -2.72487E+00  7.03885E-01  6.40382E+00  1.41501E+01  2.33551E+01  3.31380E+01  4.22134E+01  4.91790E+01  5.28936E+01  5.29094E+01
   4.90722E+01  4.16649E+01  3.21082E+01  2.25164E+01  1.44291E+01  7.98084E+00  2.51161E+00 -1.77448E+00 -3.73621E+00 -4.32350E+00
  -4.53228E+00 -4.61829E+00 -4.69758E+00 -4.81525E+00 -4.98555E+00 -5.23373E+00 -5.54504E+00 -5.88857E+00 -6.24758E+00 -6.60221E+00
  -6.93234E+00 -7.22744E+00 -7.47599E+00 -7.71971E+00 -8.00970E+00 -8.37311E+00 -8.80373E+00 -9.26391E+00 -9.70676E+00 -1.01011E+01
  -1.04299E+01 -1.06851E+01 -1.08837E+01 -1.10549E+01 -1.12351E+01 -1.14913E+01 -1.18908E+01 -1.24839E+01 -1.32475E+01 -1.40765E+01
  -1.48876E+01 -1.56741E+01 -1.63920E+01 -1.70254E+01 -1.75253E+01 -1.78294E+01 -1.79981E+01 -1.80697E+01 -1.80624E+01 -1.80094E+01
  -1.79768E+01 -1.80005E+01 -1.80433E+01 -1.79790E+01 -1.76679E+01 -1.70918E+01 -1.63591E+01 -1.54967E+01 -1.44881E+01 -1.33898E+01
  -1.23456E+01 -1.15939E+01 -1.12255E+01 -1.12040E+01 -1.13995E+01 -1.16645E+01 -1.18779E+01 -1.19339E+01 -1.16540E+01 -1.10163E+01
  -1.01303E+01 -9.14714E+00 -8.30818E+00 -7.92939E+00 -8.24961E+00 -9.30980E+00 -1.09757E+01 -1.29416E+01 -1.47899E+01 -1.59779E+01
  -1.61370E+01 -1.51966E+01 -1.33100E+01 -1.07982E+01 -8.26630E+00 -6.42936E+00 -5.78521E+00 -6.45462E+00 -8.22260E+00 -1.07361E+01
  -1.34415E+01 -1.54636E+01 -1.62513E+01 -1.58187E+01 -1.43384E+01 -1.20204E+01 -9.09966E+00 -6.27329E+00 -4.09571E+00 -2.66023E+00
  -1.75012E+00 -1.14909E+00 -8.27791E-01 -6.57595E-01 -3.30674E-01  2.64844E-01  9.75080E-01  1.67872E+00  2.31707E+00  2.89529E+00
   3.41814E+00  3.86838E+00  4.29999E+00  4.84372E+00  5.55303E+00  6.39809E+00  7.31342E+00  8.29373E+00  9.31434E+00  1.03671E+01
   1.15058E+01  1.29388E+01  1.53896E+01  2.00962E+01  2.79432E+01  3.87762E+01  5.17744E+01  6.57642E+01  7.90467E+01  8.95308E+01
   9.53721E+01  9.57442E+01  9.04115E+01  7.94660E+01  6.44820E+01  4.85808E+01  3.46177E+01  2.33137E+01  1.36509E+01  5.41160E+00
   4.07184E-01 -1.92758E+00 -3.47642E+00 -4.70087E+00 -5.71622E+00 -6.63517E+00 -7.53857E+00 -8.44018E+00 -9.35182E+00 -1.02570E+01
  -1.11265E+01 -1.19458E+01 -1.27160E+01 -1.34214E+01 -1.40457E+01 -1.45979E+01 -1.50962E+01 -1.55538E+01 -1.59742E+01 -1.63580E+01
  -1.67106E+01 -1.70378E+01 -1.73377E+01 -1.76104E+01 -1.78583E+01 -1.80844E+01 -1.82887E+01 -1.84709E+01 -1.86306E+01 -1.87656E+01
  -1.88727E+01 -1.89496E+01 -1.89916E+01 -1.89939E+01 -1.89519E+01 -1.88595E+01 -1.87083E+01 -1.84884E+01 -1.81887E+01 -1.77977E+01
  -1.73026E+01 -1.66908E+01 -1.59505E+01 -1.50708E+01 -1.40425E+01 -1.28591E+01 -1.15146E+01 -1.00032E+01 -8.31096E+00 -6.40147E+00
  -4.24470E+00 -1.90356E+00  4.64313E-01  2.67582E+00  4.54858E+00  5.89569E+00  6.55559E+00  6.47244E+00  5.78737E+00  4.77093E+00
   3.69945E+00  2.89340E+00  2.65901E+00  3.10587E+00  4.06267E+00  5.21573E+00  6.35763E+00  7.44191E+00  8.20607E+00  8.35554E+00
   7.97798E+00  7.33923E+00  6.69621E+00  6.13709E+00  5.62469E+00  5.27574E+00  5.27712E+00  5.55208E+00  6.02366E+00  6.64196E+00
   7.36421E+00  8.14918E+00  8.95650E+00  9.74681E+00  1.04831E+01  1.11314E+01  1.16624E+01  1.20517E+01  1.22807E+01  1.23372E+01
   1.22151E+01  1.19146E+01  1.14421E+01  1.08086E+01  1.00300E+01  9.12550E+00  8.11699E+00  7.02806E+00  5.88314E+00  4.70646E+00
   3.52163E+00  2.35086E+00  1.21480E+00  1.32074E-01 -8.80660E-01 -1.80893E+00 -2.64009E+00 -3.36333E+00 -3.96925E+00 -4.44983E+00
  -4.79806E+00 -5.00797E+00 -5.07427E+00 -4.99259E+00 -4.75935E+00 -4.37224E+00 -3.83031E+00 -3.13464E+00 -2.28857E+00 -1.29843E+00
  -1.73865E-01  1.07146E+00  2.41978E+00  3.84890E+00  5.33250E+00  6.84030E+00  8.33893E+00  9.79259E+00  1.11645E+01  1.24182E+01
   1.35190E+01  1.44356E+01  1.51417E+01  1.56167E+01  1.58472E+01  1.58276E+01  1.55598E+01  1.50535E+01  1.43254E+01  1.33980E+01
   1.22988E+01  1.10583E+01  9.70913E+00  8.28424E+00  6.81554E+00  5.33278E+00  3.86278E+00  2.42860E+00  1.04938E+00 -2.60030E-01
  -1.48877E+00 -2.62981E+00 -3.67940E+00 -4.63674E+00 -5.50328E+00 -6.28241E+00 -6.97878E+00 -7.59796E+00 -8.14596E+00 -8.62904E+00
  -9.05335E+00 -9.42492E+00 -9.74934E+00 -1.00318E+01 -1.02771E+01 -1.04893E+01 -1.06724E+01 -1.08296E+01 -1.09640E+01 -1.10781E+01
  -1.11741E+01 -1.12541E+01 -1.13197E+01 -1.13724E+01 -1.14136E+01 -1.14444E+01 -1.14657E+01 -1.14785E+01 -1.14835E+01 -1.14814E+01
  -1.14729E+01 -1.14584E+01 -1.14384E+01 -1.14134E+01 -1.13837E+01 -1.13498E+01 -1.13118E+01 -1.12701E+01 -1.12249E+01 -1.11766E+01
  -1.11252E+01 -1.10710E+01 -1.10141E+01 -1.09548E+01 -1.08932E+01 -1.08293E+01 -1.07635E+01 -1.06957E+01 -1.06260E+01 -1.05547E+01
  -1.04817E+01 -1.04072E+01 -1.03313E+01 -1.02539E+01 -1.01753E+01 -1.00955E+01 -1.00145E+01 -9.93239E+00 -9.84928E+00 -9.76519E+00
  -9.68016E+00 -9.59427E+00 -9.50757E+00 -9.42011E+00 -9.33192E+00 -9.24304E+00 -9.15350E+00 -9.06339E+00 -8.97272E+00 -8.88154E+00
  -8.78987E+00 -8.69775E+00 -8.60522E+00 -8.51234E+00 -8.41913E+00 -8.32563E+00 -8.23186E+00 -8.13785E+00
 NY background values follow
    -8.996E+00   -8.998E+00   -9.000E+00   -9.001E+00   -9.003E+00   -9.004E+00   -9.006E+00   -9.008E+00   -9.009E+00   -9.011E+00
    -9.013E+00   -9.014E+00   -9.016E+00   -9.018E+00   -9.020E+00   -9.022E+00   -9.024E+00   -9.026E+00   -9.028E+00   -9.030E+00
    -9.033E+00   -9.035E+00   -9.038E+00   -9.041E+00   -9.044E+00   -9.047E+00   -9.050E+00   -9.053E+00   -9.057E+00   -9.060E+00
    -9.064E+00   -9.068E+00   -9.072E+00   -9.077E+00   -9.081E+00   -9.086E+00   -9.091E+00   -9.096E+00   -9.102E+00   -9.108E+00
    -9.114E+00   -9.120E+00   -9.127E+00   -9.133E+00   -9.140E+00   -9.148E+00   -9.155E+00   -9.163E+00   -9.172E+00   -9.180E+00
    -9.189E+00   -9.198E+00   -9.208E+00   -9.218E+00   -9.228E+00   -9.239E+00   -9.250E+00   -9.261E+00   -9.272E+00   -9.284E+00
    -9.297E+00   -9.310E+00   -9.323E+00   -9.336E+00   -9.350E+00   -9.364E+00   -9.379E+00   -9.394E+00   -9.410E+00   -9.426E+00
    -9.442E+00   -9.459E+00   -9.476E+00   -9.494E+00   -9.512E+00   -9.531E+00   -9.550E+00   -9.569E+00   -9.589E+00   -9.610E+00
    -9.631E+00   -9.652E+00   -9.674E+00   -9.696E+00   -9.719E+00   -9.743E+00   -9.767E+00   -9.791E+00   -9.816E+00   -9.842E+00
    -9.868E+00   -9.894E+00   -9.921E+00   -9.949E+00   -9.977E+00   -1.001E+01   -1.004E+01   -1.007E+01   -1.010E+01   -1.013E+01
    -1.016E+01   -1.019E+01   -1.022E+01   -1.026E+01   -1.029E+01   -1.032E+01   -1.036E+01   -1.039E+01   -1.043E+01   -1.047E+01
    -1.050E+01   -1.054E+01   -1.058E+01   -1.062E+01   -1.066E+01   -1.070E+01   -1.074E+01   -1.078E+01   -1.082E+01   -1.086E+01
    -1.091E+01   -1.095E+01   -1.099E+01   -1.104E+01   -1.108E+01   -1.113E+01   -1.117E+01   -1.122E+01   -1.127E+01   -1.132E+01
    -1.136E+01   -1.141E+01   -1.146E+01   -1.151E+01   -1.156E+01   -1.162E+01   -1.167E+01   -1.172E+01   -1.177E+01   -1.183E+01
    -1.188E+01   -1.194E+01   -1.199E+01   -1.205E+01   -1.211E+01   -1.216E+01   -1.222E+01   -1.228E+01   -1.234E+01   -1.240E+01
    -1.246E+01   -1.252E+01   -1.258E+01   -1.264E+01   -1.270E+01   -1.276E+01   -1.283E+01   -1.289E+01   -1.295E+01   -1.302E+01
    -1.308E+01   -1.315E+01   -1.321E+01   -1.328E+01   -1.335E+01   -1.341E+01   -1.348E+01   -1.355E+01   -1.362E+01   -1.369E+01
    -1.376E+01   -1.383E+01   -1.390E+01   -1.397E+01   -1.404E+01   -1.411E+01   -1.418E+01   -1.425E+01   -1.433E+01   -1.440E+01
    -1.447E+01   -1.455E+01   -1.462E+01   -1.470E+01   -1.477E+01   -1.485E+01   -1.492E+01   -1.500E+01   -1.507E+01   -1.515E+01
    -1.523E+01   -1.530E+01   -1.538E+01   -1.546E+01   -1.554E+01   -1.562E+01   -1.570E+01   -1.577E+01   -1.585E+01   -1.593E+01
    -1.601E+01   -1.609E+01   -1.617E+01   -1.625E+01   -1.633E+01   -1.641E+01   -1.650E+01   -1.658E+01   -1.666E+01   -1.674E+01
    -1.682E+01   -1.690E+01   -1.698E+01   -1.707E+01   -1.715E+01   -1.723E+01   -1.731E+01   -1.740E+01   -1.748E+01   -1.756E+01
    -1.764E+01   -1.773E+01   -1.781E+01   -1.789E+01   -1.797E+01   -1.806E+01   -1.814E+01   -1.822E+01   -1.831E+01   -1.839E+01
    -1.847E+01   -1.856E+01   -1.864E+01   -1.872E+01   -1.880E+01   -1.889E+01   -1.897E+01   -1.905E+01   -1.913E+01   -1.921E+01
    -1.930E+01   -1.938E+01   -1.946E+01   -1.954E+01   -1.962E+01   -1.970E+01   -1.978E+01   -1.986E+01   -1.994E+01   -2.002E+01
    -2.009E+01   -2.017E+01   -2.025E+01   -2.032E+01   -2.040E+01   -2.048E+01   -2.055E+01   -2.063E+01   -2.070E+01   -2.077E+01
    -2.084E+01   -2.092E+01   -2.099E+01   -2.106E+01   -2.113E+01   -2.120E+01   -2.126E+01   -2.133E+01   -2.140E+01   -2.146E+01
    -2.153E+01   -2.159E+01   -2.165E+01   -2.172E+01   -2.178E+01   -2.184E+01   -2.190E+01   -2.196E+01   -2.201E+01   -2.207E+01
    -2.212E+01   -2.218E+01   -2.223E+01   -2.228E+01   -2.234E+01   -2.239E+01   -2.243E+01   -2.248E+01   -2.253E+01   -2.258E+01
    -2.262E+01   -2.266E+01   -2.271E+01   -2.275E+01   -2.279E+01   -2.283E+01   -2.286E+01   -2.290E+01   -2.294E+01   -2.297E+01
    -2.300E+01   -2.303E+01   -2.306E+01   -2.309E+01   -2.312E+01   -2.315E+01   -2.317E+01   -2.320E+01   -2.322E+01   -2.324E+01
    -2.326E+01   -2.328E+01   -2.329E+01   -2.331E+01   -2.332E+01   -2.333E+01   -2.335E+01   -2.335E+01   -2.336E+01   -2.337E+01
    -2.337E+01   -2.338E+01   -2.338E+01   -2.338E+01   -2.338E+01   -2.338E+01   -2.338E+01   -2.337E+01   -2.336E+01   -2.336E+01
    -2.335E+01   -2.334E+01   -2.333E+01   -2.331E+01   -2.330E+01   -2.329E+01   -2.327E+01   -2.325E+01   -2.323E+01   -2.321E+01
    -2.319E+01   -2.317E+01   -2.314E+01   -2.312E+01   -2.309E+01   -2.307E+01   -2.304E+01   -2.301E+01   -2.298E+01   -2.295E+01
    -2.291E+01   -2.288E+01   -2.284E+01   -2.281E+01   -2.277E+01   -2.273E+01   -2.269E+01   -2.265E+01   -2.261E+01   -2.257E+01
    -2.253E+01   -2.248E+01   -2.244E+01   -2.239E+01   -2.234E+01   -2.229E+01   -2.224E+01   -2.219E+01   -2.214E+01   -2.209E+01
    -2.204E+01   -2.199E+01   -2.193E+01   -2.187E+01   -2.182E+01   -2.176E+01   -2.170E+01   -2.164E+01   -2.158E+01   -2.152E+01
    -2.146E+01   -2.140E+01   -2.133E+01   -2.127E+01   -2.120E+01   -2.114E+01   -2.107E+01   -2.100E+01   -2.094E+01   -2.087E+01
    -2.080E+01   -2.072E+01   -2.065E+01   -2.058E+01   -2.051E+01   -2.043E+01   -2.036E+01   -2.028E+01   -2.020E+01   -2.013E+01
    -2.005E+01   -1.997E+01   -1.989E+01   -1.981E+01   -1.973E+01   -1.964E+01   -1.956E+01   -1.948E+01   -1.939E+01   -1.931E+01
    -1.922E+01   -1.914E+01   -1.905E+01   -1.896E+01   -1.887E+01   -1.878E+01   -1.869E+01   -1.860E+01   -1.851E+01   -1.842E+01
    -1.833E+01   -1.823E+01   -1.814E+01   -1.805E+01   -1.795E+01   -1.786E+01   -1.776E+01   -1.766E+01   -1.757E+01   -1.747E+01
    -1.737E+01   -1.727E+01   -1.717E+01   -1.707E+01   -1.697E+01   -1.687E+01   -1.677E+01   -1.667E+01   -1.657E+01   -1.646E+01
    -1.636E+01   -1.626E+01   -1.615E+01   -1.605E+01   -1.594E+01   -1.584E+01   -1.573E+01   -1.562E+01   -1.552E+01   -1.541E+01
    -1.530E+01   -1.520E+01   -1.509E+01   -1.498E+01   -1.487E+01   -1.476E+01   -1.465E+01   -1.454E+01   -1.443E+01   -1.432E+01
    -1.421E+01   -1.410E+01   -1.399E+01   -1.388E+01   -1.376E+01   -1.365E+01   -1.354E+01   -1.343E+01   -1.332E+01   -1.320E+01
    -1.309E+01   -1.298E+01   -1.286E+01   -1.275E+01   -1.264E+01   -1.252E+01   -1.241E+01   -1.229E+01   -1.218E+01   -1.207E+01
    -1.195E+01   -1.184E+01   -1.172E+01   -1.161E+01   -1.149E+01   -1.138E+01   -1.126E+01   -1.115E+01   -1.103E+01   -1.092E+01
    -1.080E+01   -1.069E+01   -1.058E+01   -1.046E+01   -1.035E+01   -1.023E+01   -1.012E+01   -1.000E+01
 Ala      Conc. = 5.50E+02
