 LCModel (Version 6.3-1L) Copyright: S.W. Provencher.          Ref.: Magn. Reson. Med. 30:672-679 (1993).                
 Slice#1 Row#8 Col#9  PD_24_press_2_raw_act
 36 lines in following concentration table = NCONC+1
    Conc.  %SD /Cr+PCr  Metabolite                                         
  460.621  36%   0.302 Ala                                                 
  111.286 261% 7.3E-02 Asp                                                 
  579.614  51%   0.381 Cr                                                  
  943.129  32%   0.619 PCr                                                 
    0.000 999%   0.000 GABA                                                
  190.189 102%   0.125 Glc                                                 
  739.192  44%   0.485 Gln                                                 
 1.72E+03  21%   1.131 Glu                                                 
  623.085   4%   0.409 GPC                                                 
    0.000 999%   0.000 PCh                                                 
  573.738  18%   0.377 GSH                                                 
 2.42E+03  14%   1.589 Ins                                                 
  204.124  86%   0.134 Lac                                                 
 3.18E+03   6%   2.089 NAA                                                 
   59.051 380% 3.9E-02 NAAG                                                
  203.029  17%   0.133 Scyllo                                              
    0.000 999%   0.000 Tau                                                 
  203.449  67%   0.134 -CrCH2                                              
  623.085   4%   0.409 GPC+PCh                                             
 3.24E+03   4%   2.128 NAA+NAAG                                            
 1.52E+03   5%   1.000 Cr+PCr                                              
 2.46E+03  21%   1.616 Glu+Gln                                             
 1.88E+03  42%   1.234 Lip13a                                              
    0.000 999%   0.000 Lip13b                                              
  560.018  62%   0.368 Lip09                                               
 1.89E+03  21%   1.238 MM09                                                
  166.370 136%   0.109 Lip20                                               
 1.89E+03  25%   1.240 MM20                                                
  633.087  50%   0.416 MM12                                                
 1.94E+03  29%   1.273 MM14                                                
 1.14E+03  24%   0.747 MM17                                                
 1.88E+03  42%   1.234 Lip13a+Lip13b                                       
 4.45E+03  10%   2.923 MM14+Lip13a+Lip13b+MM12                             
 2.45E+03  10%   1.606 MM09+Lip09                                          
 2.05E+03  22%   1.349 MM20+Lip20                                          
   6 lines in following misc. output table
  FWHM = 0.054 ppm    S/N =  12                                            
  Data shift = 0.000 ppm                                                   
  Ph: -19 deg      -5.7 deg/ppm                                            
  alphaB,S = 4.4E+00,   1.2E+02                                            
   14 spline knots.   Ns = 7(1)                                            
  (13) 2 infls.   ( 3) 1 extrs.                                            
  498 points on ppm-axis = NY
      4.000000     3.992357     3.984714     3.977070     3.969427     3.961784     3.954141     3.946497     3.938854     3.931211
      3.923568     3.915925     3.908281     3.900638     3.892995     3.885352     3.877708     3.870065     3.862422     3.854779
      3.847136     3.839492     3.831849     3.824206     3.816563     3.808919     3.801276     3.793633     3.785990     3.778347
      3.770703     3.763060     3.755417     3.747774     3.740130     3.732487     3.724844     3.717201     3.709558     3.701914
      3.694271     3.686628     3.678985     3.671341     3.663698     3.656055     3.648412     3.640769     3.633125     3.625482
      3.617839     3.610196     3.602552     3.594909     3.587266     3.579623     3.571980     3.564336     3.556693     3.549050
      3.541407     3.533763     3.526120     3.518477     3.510834     3.503191     3.495547     3.487904     3.480261     3.472618
      3.464974     3.457331     3.449688     3.442045     3.434402     3.426758     3.419115     3.411472     3.403829     3.396185
      3.388542     3.380899     3.373256     3.365613     3.357969     3.350326     3.342683     3.335040     3.327396     3.319753
      3.312110     3.304467     3.296824     3.289180     3.281537     3.273894     3.266251     3.258607     3.250964     3.243321
      3.235678     3.228034     3.220391     3.212748     3.205105     3.197462     3.189818     3.182175     3.174532     3.166889
      3.159245     3.151602     3.143959     3.136316     3.128673     3.121029     3.113386     3.105743     3.098100     3.090456
      3.082813     3.075170     3.067527     3.059884     3.052240     3.044597     3.036954     3.029311     3.021667     3.014024
      3.006381     2.998738     2.991095     2.983451     2.975808     2.968165     2.960522     2.952878     2.945235     2.937592
      2.929949     2.922306     2.914662     2.907019     2.899376     2.891733     2.884089     2.876446     2.868803     2.861160
      2.853517     2.845873     2.838230     2.830587     2.822944     2.815300     2.807657     2.800014     2.792371     2.784728
      2.777084     2.769441     2.761798     2.754155     2.746511     2.738868     2.731225     2.723582     2.715939     2.708295
      2.700652     2.693009     2.685366     2.677722     2.670079     2.662436     2.654793     2.647150     2.639506     2.631863
      2.624220     2.616577     2.608933     2.601290     2.593647     2.586004     2.578361     2.570717     2.563074     2.555431
      2.547788     2.540144     2.532501     2.524858     2.517215     2.509572     2.501928     2.494285     2.486642     2.478999
      2.471355     2.463712     2.456069     2.448426     2.440783     2.433139     2.425496     2.417853     2.410210     2.402566
      2.394923     2.387280     2.379637     2.371994     2.364350     2.356707     2.349064     2.341421     2.333777     2.326134
      2.318491     2.310848     2.303205     2.295561     2.287918     2.280275     2.272632     2.264988     2.257345     2.249702
      2.242059     2.234416     2.226772     2.219129     2.211486     2.203843     2.196199     2.188556     2.180913     2.173270
      2.165627     2.157983     2.150340     2.142697     2.135054     2.127410     2.119767     2.112124     2.104481     2.096838
      2.089194     2.081551     2.073908     2.066265     2.058621     2.050978     2.043335     2.035692     2.028049     2.020405
      2.012762     2.005119     1.997476     1.989833     1.982190     1.974546     1.966903     1.959260     1.951617     1.943974
      1.936331     1.928688     1.921045     1.913402     1.905759     1.898115     1.890472     1.882829     1.875186     1.867543
      1.859900     1.852257     1.844614     1.836971     1.829327     1.821684     1.814041     1.806398     1.798755     1.791112
      1.783469     1.775826     1.768183     1.760540     1.752896     1.745253     1.737610     1.729967     1.722324     1.714681
      1.707038     1.699395     1.691752     1.684108     1.676465     1.668822     1.661179     1.653536     1.645893     1.638250
      1.630607     1.622964     1.615321     1.607677     1.600034     1.592391     1.584748     1.577105     1.569462     1.561819
      1.554176     1.546533     1.538890     1.531246     1.523603     1.515960     1.508317     1.500674     1.493031     1.485388
      1.477745     1.470102     1.462458     1.454815     1.447172     1.439529     1.431886     1.424243     1.416600     1.408957
      1.401314     1.393671     1.386027     1.378384     1.370741     1.363098     1.355455     1.347812     1.340169     1.332526
      1.324883     1.317240     1.309596     1.301953     1.294310     1.286667     1.279024     1.271381     1.263738     1.256095
      1.248452     1.240808     1.233165     1.225522     1.217879     1.210236     1.202593     1.194950     1.187307     1.179664
      1.172021     1.164377     1.156734     1.149091     1.141448     1.133805     1.126162     1.118519     1.110876     1.103233
      1.095590     1.087946     1.080303     1.072660     1.065017     1.057374     1.049731     1.042088     1.034445     1.026802
      1.019158     1.011515     1.003872     0.996229     0.988586     0.980943     0.973300     0.965657     0.958014     0.950371
      0.942727     0.935084     0.927441     0.919798     0.912155     0.904512     0.896869     0.889226     0.881583     0.873940
      0.866296     0.858653     0.851010     0.843367     0.835724     0.828081     0.820438     0.812795     0.805152     0.797508
      0.789865     0.782222     0.774579     0.766936     0.759293     0.751650     0.744007     0.736364     0.728721     0.721077
      0.713434     0.705791     0.698148     0.690505     0.682862     0.675219     0.667576     0.659933     0.652290     0.644646
      0.637003     0.629360     0.621717     0.614074     0.606431     0.598788     0.591145     0.583502     0.575858     0.568215
      0.560572     0.552929     0.545286     0.537643     0.530000     0.522357     0.514714     0.507071     0.499427     0.491784
      0.484141     0.476498     0.468855     0.461212     0.453569     0.445925     0.438282     0.430639     0.422996     0.415353
      0.407710     0.400067     0.392424     0.384780     0.377137     0.369494     0.361851     0.354208     0.346565     0.338922
      0.331278     0.323635     0.315992     0.308349     0.300706     0.293063     0.285420     0.277777     0.270133     0.262490
      0.254847     0.247204     0.239561     0.231918     0.224275     0.216631     0.208988     0.201345
 NY phased data points follow
   1.92047E+00  5.95635E+00  8.42120E+00  1.01764E+01  1.21478E+01  1.37771E+01  1.65885E+01  1.69982E+01  2.01738E+01  2.40302E+01
   2.68653E+01  2.87506E+01  2.51062E+01  2.44244E+01  1.93514E+01  1.06357E+01  7.42037E+00  1.03258E+01  3.75964E+00  6.81587E+00
  -8.01102E-01  4.40145E-03  9.49400E+00  5.64256E+00  6.52290E+00  8.96550E+00  9.45305E+00  1.50830E+01  2.91163E+00  1.37338E+01
   7.46234E+00  6.28089E+00  8.99227E+00  1.46226E+01  1.38195E+01  9.22152E+00  1.44067E+01  1.18568E+01  6.56929E+00  6.05651E+00
   9.07652E+00  8.23895E+00  9.73850E+00  1.04441E+01  1.19481E+01  9.96028E+00  1.58796E+01  1.42081E+01  1.81378E+01  1.60345E+01
   1.70880E+01  1.39344E+01  1.09284E+01  1.31139E+01  1.22110E+01  6.83212E+00  6.30798E+00  7.35773E+00  8.94939E+00  5.25928E+00
  -7.11071E-01  2.39615E+00  3.00399E+00 -2.58733E+00 -2.53403E+00 -1.03913E+00  4.95210E-01  3.22702E+00 -1.17809E+00 -7.88019E-01
   3.73411E+00  8.11381E-01 -3.27140E+00 -1.54867E+00 -2.40725E+00 -1.28748E+00 -3.44234E+00  6.08804E+00  5.44911E+00  7.40403E+00
   4.92311E+00  5.93615E+00  1.42509E+00  8.32161E+00  6.93541E+00  8.48688E+00  4.29688E+00  4.95044E+00  6.37669E+00  3.26944E+00
   6.76847E+00  4.57165E+00  8.53479E+00  4.57513E+00  3.94090E+00  7.93657E+00  4.76822E+00  8.48569E+00  1.14581E+01  2.23942E+01
   2.71822E+01  3.64053E+01  4.66788E+01  5.07193E+01  4.84166E+01  4.66449E+01  3.43544E+01  2.65152E+01  1.39997E+01  7.19313E+00
   8.23770E+00  3.05372E+00  3.41881E+00  6.62996E+00  2.57585E+00  4.00874E+00  3.29648E+00  5.89989E-01  2.56020E+00 -3.23483E+00
   5.26403E+00  3.94027E+00  7.21163E+00  1.82547E+01  2.30140E+01  2.94639E+01  4.23503E+01  4.58738E+01  5.09277E+01  4.16932E+01
   3.26562E+01  2.48417E+01  1.97416E+01  1.21963E+01  7.87283E+00  8.60946E+00  7.32645E+00  2.18774E+00  3.68830E+00  5.30262E+00
   1.54124E+00  3.56803E+00  4.19861E+00  5.77717E-01  1.99008E+00  4.88356E+00 -2.12533E+00 -2.79559E-01  4.20028E+00  2.24589E+00
  -4.66738E+00 -3.73671E+00  1.50693E+00 -2.56023E+00 -2.86492E-01 -2.48636E+00 -1.68572E+00 -5.52202E+00 -5.35989E+00  5.46410E-01
  -1.78593E+00 -2.88782E+00  7.25324E-01 -4.10810E+00 -1.14491E+01 -1.36288E+01 -6.55461E+00 -1.06075E+01 -1.14402E+01 -1.68490E+01
  -9.09896E+00 -1.37452E+01 -1.27711E+01 -1.60231E+01 -1.07924E+01 -1.63353E+01 -1.85933E+01 -1.84092E+01 -1.60507E+01 -1.65789E+01
  -1.27254E+01 -1.12817E+01 -1.11540E+01 -1.13307E+01 -4.98324E+00 -6.20830E+00 -9.33528E+00 -3.19064E+00 -7.02687E+00 -1.08167E+01
  -7.34515E+00 -1.86484E+00  1.22848E+00 -7.78462E+00 -4.75642E+00 -5.58943E+00 -6.66724E+00 -9.50333E+00 -7.08519E+00 -1.15335E+01
  -2.95166E+00 -4.57137E+00 -2.74275E+00  1.48875E+00  4.08438E+00  2.68326E+00  2.38770E+00 -2.91811E+00  6.95445E-01 -1.73623E-01
   1.19342E+00  2.42924E+00  9.51390E+00  6.83148E+00  1.33165E+01  1.55734E+01  1.14076E+01  4.73369E+00  1.00856E+01  2.61973E+00
   3.58379E+00  3.52265E+00 -2.82313E+00 -3.16953E+00 -2.73172E+00 -5.19856E+00  1.32316E+00  2.44848E+00  9.80028E+00  6.19351E+00
   5.99181E+00  9.50081E+00  5.84848E+00  9.43484E+00  1.62476E+00  5.15263E+00  6.10342E+00  8.72956E+00  2.59118E-01  2.06883E+00
   5.77190E+00  4.78950E+00  5.80412E+00 -1.44574E-01 -8.70169E-01 -7.24857E-01  2.74691E+00  1.79057E+00  7.42063E+00  4.58169E+00
   6.33340E+00  7.82405E+00  1.13299E+01  1.32714E+01  2.95679E+01  3.46287E+01  5.21586E+01  6.70272E+01  8.05045E+01  9.37542E+01
   1.06388E+02  1.11351E+02  9.61260E+01  7.87377E+01  5.56308E+01  4.07105E+01  2.67322E+01  2.16630E+01  1.58437E+01  1.44670E+01
   1.18161E+01  8.28593E+00  3.67961E+00  5.26780E+00  3.65913E+00 -4.94927E+00  2.31052E+00  1.88101E-01 -7.55062E+00 -3.86196E+00
  -3.82316E+00 -5.73380E+00 -8.67697E+00 -2.18829E+00  2.03942E-01 -5.91712E+00  1.47218E+00  1.91105E+00  1.43499E+00  5.82794E+00
   2.30635E+00  5.13053E+00  2.78334E+00  2.04830E+00  7.33009E+00  8.71233E-01  1.18952E+01  4.06924E+00  7.32678E+00  6.88933E+00
   3.31262E+00  2.39011E+00  3.01252E-01  6.39814E+00  5.86161E+00  6.27890E+00  9.98239E+00  6.94164E+00  1.51436E+01  8.15216E+00
   1.01283E+01  1.07818E+01  1.54777E+01  1.09788E+01  1.67390E+01  1.42542E+01  1.22852E+01  1.79304E+01  1.23739E+01  1.07737E+01
   1.54336E+01  1.22585E+01  1.15413E+01  9.58503E+00  5.85356E+00  8.43427E+00  5.49186E+00  1.20464E+01  6.67286E+00  7.13267E+00
   6.68941E+00  4.00862E+00  1.39201E+01  4.29961E+00  7.96134E+00  1.04286E+01  1.56095E+01  1.61985E+01  1.64028E+01  1.85988E+01
   1.64869E+01  2.27334E+01  2.36029E+01  1.92793E+01  2.67511E+01  2.20851E+01  2.13559E+01  2.12969E+01  2.52645E+01  1.87012E+01
   1.77342E+01  1.64182E+01  1.85893E+01  1.59497E+01  1.45701E+01  1.75468E+01  1.62806E+01  1.41167E+01  1.14496E+01  1.55904E+01
   1.74160E+01  1.52296E+01  1.58596E+01  1.64095E+01  1.55757E+01  1.98363E+01  1.16152E+01  4.66982E+00  1.74202E+01  1.52178E+01
   1.66747E+01  1.39296E+01  1.42477E+01  1.09408E+01  7.87889E+00  9.97399E+00  1.53801E+01  8.57365E+00  9.08519E+00  1.12005E+01
   1.22317E+01  9.31226E+00  1.31146E+01  8.63387E-01  7.41195E+00  6.55526E+00  1.20343E+01  8.97614E+00  6.89369E+00  6.21399E+00
   1.38807E+01  1.19627E+01  7.74721E+00  1.48863E+01  1.51791E+01  1.28512E+01  1.65534E+01  1.65756E+01  1.77199E+01  1.36849E+01
   1.79010E+01  2.25388E+01  1.50847E+01  2.31070E+01  2.09332E+01  2.27698E+01  2.53374E+01  2.72346E+01  2.11400E+01  2.04380E+01
   2.93600E+01  1.55384E+01  2.45554E+01  2.06082E+01  1.84180E+01  1.60700E+01  1.95423E+01  2.39452E+01  1.16963E+01  1.76095E+01
   1.62768E+01  8.39460E+00  1.14913E+01  1.17748E+01  1.30724E+01  1.39895E+01  1.18680E+01  8.56228E+00  1.19531E+01  9.68557E+00
   4.98065E+00  5.46852E+00  6.82960E+00  8.85091E+00  1.20521E+01  8.12513E+00  1.24492E+01  4.98420E+00  5.40011E+00  1.22812E+01
   1.12353E+01  6.57724E+00  1.02184E+01  9.93902E+00  3.77121E+00  1.04427E+01  3.23007E+00  7.78113E+00  4.99581E+00  6.01989E+00
   9.31679E+00  6.04009E+00  5.26176E+00  3.93470E+00  3.58144E+00  4.34683E+00  1.01911E+01  7.64892E+00  9.06044E+00  7.99097E+00
   7.77745E+00  3.00368E+00  6.75060E+00  7.47389E+00  4.23314E+00  8.02111E+00  9.67985E+00  5.89182E+00  9.39686E+00  5.24075E+00
   8.62438E+00  6.86422E+00  5.48069E+00  3.41790E+00  8.29805E+00  3.98864E+00  5.51064E+00  7.04105E+00  3.31613E+00  8.13634E+00
   6.05752E+00  9.36505E+00  7.25966E+00  6.70080E+00  9.22098E+00  6.41681E+00  9.30523E+00  1.29008E+01  9.10688E+00  3.45831E+00
   2.75926E+00  7.59403E+00  5.44484E+00  5.73291E+00  9.15430E+00  8.35728E+00  8.99212E+00  1.23527E+01
 NY points of the fit to the data follow
   4.56258E+00  3.85628E+00  4.25459E+00  5.83313E+00  8.17041E+00  1.14223E+01  1.51930E+01  1.90715E+01  2.28199E+01  2.59714E+01
   2.78496E+01  2.78158E+01  2.56999E+01  2.19724E+01  1.75440E+01  1.33681E+01  9.90562E+00  7.12379E+00  5.17846E+00  4.04279E+00
   3.32708E+00  3.12322E+00  3.24989E+00  3.85304E+00  4.64353E+00  5.55152E+00  6.74684E+00  8.29174E+00  1.01936E+01  1.22137E+01
   1.39410E+01  1.48989E+01  1.47504E+01  1.35791E+01  1.17790E+01  9.69718E+00  7.63814E+00  5.58415E+00  3.76734E+00  2.85948E+00
   2.88783E+00  3.89500E+00  5.69261E+00  7.96459E+00  1.04370E+01  1.28103E+01  1.49014E+01  1.63626E+01  1.65948E+01  1.51954E+01
   1.22898E+01  8.62734E+00  5.35251E+00  3.20227E+00  2.09071E+00  1.70762E+00  1.91342E+00  2.68524E+00  3.72928E+00  4.65958E+00
   5.22061E+00  5.24055E+00  4.64346E+00  3.55431E+00  2.31506E+00  1.42663E+00  1.11680E+00  1.27159E+00  1.77147E+00  2.51087E+00
   3.30268E+00  4.03521E+00  4.56018E+00  4.78289E+00  4.67772E+00  4.30249E+00  3.81167E+00  3.35554E+00  3.03300E+00  3.01842E+00
   3.47097E+00  4.13218E+00  4.78363E+00  5.43228E+00  6.08423E+00  6.66892E+00  6.95063E+00  6.58020E+00  5.38871E+00  3.67140E+00
   2.04684E+00  9.69815E-01  5.66644E-01  6.08321E-01  7.83769E-01  1.53455E+00  4.70257E+00  1.00431E+01  1.60387E+01  2.25732E+01
   2.98191E+01  3.75939E+01  4.49885E+01  5.00087E+01  5.03627E+01  4.52393E+01  3.61949E+01  2.60607E+01  1.73077E+01  1.08341E+01
   5.84026E+00  1.45475E+00 -1.04881E+00 -1.58375E+00 -1.64099E+00 -1.58008E+00 -1.46349E+00 -1.27254E+00 -9.32337E-01 -1.35162E-01
   2.34189E+00  6.99436E+00  1.26271E+01  1.88221E+01  2.55545E+01  3.26286E+01  3.94710E+01  4.45918E+01  4.59662E+01  4.25763E+01
   3.53814E+01  2.66935E+01  1.87518E+01  1.25278E+01  7.49810E+00  2.83779E+00 -4.93430E-01 -1.67987E+00 -1.83623E+00 -1.43703E+00
  -7.95005E-01 -2.07557E-01  2.04364E-01  3.92249E-01  3.05683E-01  3.55580E-02 -3.11954E-01 -7.07475E-01 -1.10155E+00 -1.46735E+00
  -1.76393E+00 -1.96343E+00 -2.10335E+00 -2.25553E+00 -2.51525E+00 -2.80668E+00 -3.08364E+00 -3.31816E+00 -3.49469E+00 -3.76118E+00
  -4.08532E+00 -4.29709E+00 -4.26183E+00 -4.00024E+00 -3.72174E+00 -3.68076E+00 -4.01236E+00 -4.62259E+00 -5.28976E+00 -5.96423E+00
  -6.61930E+00 -7.14394E+00 -7.60780E+00 -8.02708E+00 -8.38877E+00 -8.67427E+00 -8.73620E+00 -8.51445E+00 -8.15320E+00 -7.92557E+00
  -8.00154E+00 -8.14654E+00 -8.08172E+00 -7.66049E+00 -6.94234E+00 -6.14798E+00 -5.22527E+00 -3.98264E+00 -2.37100E+00 -6.24476E-01
   7.46325E-01  1.41440E+00  1.41521E+00  9.51759E-01  2.88103E-01 -3.75104E-01 -8.98844E-01 -1.01457E+00 -6.35491E-01  2.51046E-01
   1.54471E+00  2.98004E+00  4.19970E+00  4.70953E+00  4.40496E+00  3.34785E+00  1.54086E+00 -7.54754E-01 -2.96552E+00 -4.49264E+00
  -4.95033E+00 -4.41100E+00 -2.89735E+00 -6.23336E-01  1.93780E+00  4.13100E+00  5.22563E+00  4.88838E+00  3.28786E+00  6.56924E-01
  -2.21228E+00 -4.55466E+00 -6.02016E+00 -6.27250E+00 -5.31289E+00 -3.31568E+00 -7.47044E-01  1.53642E+00  3.08147E+00  3.85743E+00
   4.22766E+00  4.39943E+00  4.34643E+00  4.30495E+00  4.53985E+00  4.93550E+00  5.21506E+00  5.28140E+00  5.13317E+00  4.77087E+00
   4.13522E+00  3.32462E+00  2.65579E+00  2.40114E+00  2.62944E+00  3.19672E+00  4.03972E+00  4.97403E+00  5.73719E+00  6.32303E+00
   6.86811E+00  7.59326E+00  9.48470E+00  1.60774E+01  2.66618E+01  3.88131E+01  5.20764E+01  6.63714E+01  8.13508E+01  9.53655E+01
   1.04710E+02  1.05223E+02  9.56161E+01  7.89534E+01  6.05370E+01  4.47810E+01  3.29598E+01  2.31775E+01  1.41240E+01  9.14087E+00
   7.39602E+00  6.45191E+00  5.82268E+00  5.42414E+00  5.19825E+00  5.00757E+00  4.80654E+00  4.57088E+00  4.29550E+00  4.00226E+00
   3.71834E+00  3.44570E+00  3.19128E+00  2.98164E+00  2.82677E+00  2.71152E+00  2.62038E+00  2.54961E+00  2.50636E+00  2.49780E+00
   2.52149E+00  2.58357E+00  2.69257E+00  2.85387E+00  3.07072E+00  3.34608E+00  3.68311E+00  4.08343E+00  4.54595E+00  5.06921E+00
   5.64907E+00  6.27740E+00  6.94237E+00  7.62851E+00  8.31809E+00  8.99185E+00  9.63059E+00  1.02153E+01  1.07284E+01  1.11560E+01
   1.14883E+01  1.17199E+01  1.18507E+01  1.18865E+01  1.18384E+01  1.17240E+01  1.15675E+01  1.14005E+01  1.12665E+01  1.12399E+01
   1.14519E+01  1.18167E+01  1.21030E+01  1.22969E+01  1.23966E+01  1.23328E+01  1.19629E+01  1.10738E+01  9.70483E+00  8.27446E+00
   7.14117E+00  6.64142E+00  6.96679E+00  8.08364E+00  9.82673E+00  1.20128E+01  1.44877E+01  1.67907E+01  1.83993E+01  1.93234E+01
   1.98575E+01  2.02768E+01  2.05835E+01  2.06475E+01  2.05071E+01  2.03846E+01  2.01706E+01  1.97116E+01  1.90038E+01  1.81769E+01
   1.73673E+01  1.67506E+01  1.64484E+01  1.64754E+01  1.67615E+01  1.71940E+01  1.76822E+01  1.80705E+01  1.81368E+01  1.78899E+01
   1.74515E+01  1.69453E+01  1.64113E+01  1.58010E+01  1.51645E+01  1.45958E+01  1.40668E+01  1.35581E+01  1.30641E+01  1.25838E+01
   1.21184E+01  1.16704E+01  1.12430E+01  1.08393E+01  1.04626E+01  1.01158E+01  9.80227E+00  9.52529E+00  9.28823E+00  9.09412E+00
   8.94614E+00  8.84741E+00  8.80161E+00  8.81242E+00  8.88378E+00  9.01929E+00  9.22272E+00  9.49753E+00  9.84713E+00  1.02740E+01
   1.07796E+01  1.13637E+01  1.20244E+01  1.27578E+01  1.35574E+01  1.44142E+01  1.53159E+01  1.62475E+01  1.71916E+01  1.81283E+01
   1.90367E+01  1.98945E+01  2.06796E+01  2.13707E+01  2.19490E+01  2.23982E+01  2.27062E+01  2.28648E+01  2.28705E+01  2.27248E+01
   2.24341E+01  2.20089E+01  2.14633E+01  2.08143E+01  2.00807E+01  1.92825E+01  1.84398E+01  1.75719E+01  1.66969E+01  1.58302E+01
   1.49857E+01  1.41741E+01  1.34042E+01  1.26819E+01  1.20109E+01  1.13927E+01  1.08276E+01  1.03141E+01  9.85035E+00  9.43310E+00
   9.05895E+00  8.72410E+00  8.42502E+00  8.15810E+00  7.92005E+00  7.70751E+00  7.51757E+00  7.34750E+00  7.19512E+00  7.05836E+00
   6.93548E+00  6.82470E+00  6.72466E+00  6.63409E+00  6.55215E+00  6.47786E+00  6.41046E+00  6.34908E+00  6.29318E+00  6.24221E+00
   6.19587E+00  6.15367E+00  6.11525E+00  6.08013E+00  6.04813E+00  6.01899E+00  5.99265E+00  5.96874E+00  5.94708E+00  5.92739E+00
   5.90966E+00  5.89374E+00  5.87961E+00  5.86699E+00  5.85580E+00  5.84585E+00  5.83724E+00  5.82985E+00  5.82365E+00  5.81840E+00
   5.81410E+00  5.81063E+00  5.80812E+00  5.80645E+00  5.80558E+00  5.80532E+00  5.80571E+00  5.80668E+00  5.80836E+00  5.81059E+00
   5.81335E+00  5.81647E+00  5.82004E+00  5.82401E+00  5.82849E+00  5.83328E+00  5.83839E+00  5.84367E+00  5.84926E+00  5.85510E+00
   5.86124E+00  5.86747E+00  5.87382E+00  5.88018E+00  5.88669E+00  5.89324E+00  5.89984E+00  5.90629E+00
 NY background values follow
    -4.787E+00   -4.776E+00   -4.766E+00   -4.755E+00   -4.745E+00   -4.734E+00   -4.724E+00   -4.713E+00   -4.703E+00   -4.693E+00
    -4.682E+00   -4.672E+00   -4.661E+00   -4.651E+00   -4.640E+00   -4.630E+00   -4.619E+00   -4.609E+00   -4.598E+00   -4.588E+00
    -4.577E+00   -4.567E+00   -4.556E+00   -4.546E+00   -4.535E+00   -4.525E+00   -4.514E+00   -4.503E+00   -4.493E+00   -4.482E+00
    -4.472E+00   -4.461E+00   -4.451E+00   -4.440E+00   -4.429E+00   -4.419E+00   -4.408E+00   -4.398E+00   -4.387E+00   -4.376E+00
    -4.366E+00   -4.355E+00   -4.345E+00   -4.334E+00   -4.323E+00   -4.313E+00   -4.302E+00   -4.291E+00   -4.281E+00   -4.270E+00
    -4.259E+00   -4.249E+00   -4.238E+00   -4.227E+00   -4.216E+00   -4.206E+00   -4.195E+00   -4.184E+00   -4.173E+00   -4.163E+00
    -4.152E+00   -4.141E+00   -4.130E+00   -4.119E+00   -4.109E+00   -4.098E+00   -4.087E+00   -4.076E+00   -4.065E+00   -4.054E+00
    -4.043E+00   -4.033E+00   -4.022E+00   -4.011E+00   -4.000E+00   -3.989E+00   -3.978E+00   -3.967E+00   -3.956E+00   -3.945E+00
    -3.934E+00   -3.923E+00   -3.912E+00   -3.901E+00   -3.889E+00   -3.878E+00   -3.867E+00   -3.856E+00   -3.845E+00   -3.834E+00
    -3.822E+00   -3.811E+00   -3.800E+00   -3.789E+00   -3.777E+00   -3.766E+00   -3.755E+00   -3.743E+00   -3.732E+00   -3.721E+00
    -3.709E+00   -3.698E+00   -3.686E+00   -3.675E+00   -3.663E+00   -3.652E+00   -3.640E+00   -3.629E+00   -3.617E+00   -3.605E+00
    -3.594E+00   -3.582E+00   -3.570E+00   -3.559E+00   -3.547E+00   -3.535E+00   -3.523E+00   -3.512E+00   -3.500E+00   -3.488E+00
    -3.476E+00   -3.464E+00   -3.452E+00   -3.440E+00   -3.428E+00   -3.416E+00   -3.404E+00   -3.392E+00   -3.379E+00   -3.367E+00
    -3.355E+00   -3.343E+00   -3.330E+00   -3.318E+00   -3.306E+00   -3.293E+00   -3.281E+00   -3.269E+00   -3.256E+00   -3.244E+00
    -3.231E+00   -3.218E+00   -3.206E+00   -3.193E+00   -3.180E+00   -3.168E+00   -3.155E+00   -3.142E+00   -3.129E+00   -3.116E+00
    -3.103E+00   -3.090E+00   -3.077E+00   -3.064E+00   -3.051E+00   -3.038E+00   -3.025E+00   -3.011E+00   -2.998E+00   -2.985E+00
    -2.971E+00   -2.958E+00   -2.944E+00   -2.931E+00   -2.917E+00   -2.904E+00   -2.890E+00   -2.876E+00   -2.862E+00   -2.848E+00
    -2.835E+00   -2.821E+00   -2.807E+00   -2.792E+00   -2.778E+00   -2.764E+00   -2.750E+00   -2.736E+00   -2.721E+00   -2.707E+00
    -2.692E+00   -2.678E+00   -2.663E+00   -2.648E+00   -2.634E+00   -2.619E+00   -2.604E+00   -2.589E+00   -2.574E+00   -2.559E+00
    -2.544E+00   -2.529E+00   -2.514E+00   -2.498E+00   -2.483E+00   -2.468E+00   -2.452E+00   -2.437E+00   -2.421E+00   -2.405E+00
    -2.390E+00   -2.374E+00   -2.358E+00   -2.342E+00   -2.326E+00   -2.310E+00   -2.294E+00   -2.278E+00   -2.262E+00   -2.246E+00
    -2.230E+00   -2.214E+00   -2.197E+00   -2.181E+00   -2.164E+00   -2.148E+00   -2.131E+00   -2.115E+00   -2.098E+00   -2.081E+00
    -2.064E+00   -2.048E+00   -2.031E+00   -2.014E+00   -1.997E+00   -1.980E+00   -1.963E+00   -1.945E+00   -1.928E+00   -1.911E+00
    -1.894E+00   -1.876E+00   -1.859E+00   -1.842E+00   -1.824E+00   -1.806E+00   -1.789E+00   -1.771E+00   -1.753E+00   -1.736E+00
    -1.718E+00   -1.700E+00   -1.682E+00   -1.664E+00   -1.646E+00   -1.628E+00   -1.610E+00   -1.592E+00   -1.573E+00   -1.555E+00
    -1.537E+00   -1.518E+00   -1.500E+00   -1.481E+00   -1.463E+00   -1.444E+00   -1.425E+00   -1.406E+00   -1.388E+00   -1.369E+00
    -1.350E+00   -1.331E+00   -1.312E+00   -1.293E+00   -1.273E+00   -1.254E+00   -1.235E+00   -1.216E+00   -1.196E+00   -1.177E+00
    -1.157E+00   -1.138E+00   -1.118E+00   -1.098E+00   -1.079E+00   -1.059E+00   -1.039E+00   -1.019E+00   -9.991E-01   -9.791E-01
    -9.590E-01   -9.389E-01   -9.187E-01   -8.984E-01   -8.781E-01   -8.577E-01   -8.373E-01   -8.168E-01   -7.963E-01   -7.757E-01
    -7.551E-01   -7.344E-01   -7.136E-01   -6.928E-01   -6.720E-01   -6.511E-01   -6.301E-01   -6.091E-01   -5.880E-01   -5.669E-01
    -5.458E-01   -5.245E-01   -5.033E-01   -4.819E-01   -4.606E-01   -4.392E-01   -4.177E-01   -3.962E-01   -3.746E-01   -3.530E-01
    -3.313E-01   -3.096E-01   -2.878E-01   -2.660E-01   -2.442E-01   -2.222E-01   -2.003E-01   -1.783E-01   -1.562E-01   -1.341E-01
    -1.120E-01   -8.981E-02   -6.758E-02   -4.530E-02   -2.298E-02   -6.091E-04    2.180E-02    4.426E-02    6.675E-02    8.929E-02
     1.119E-01    1.345E-01    1.572E-01    1.799E-01    2.026E-01    2.254E-01    2.482E-01    2.711E-01    2.940E-01    3.170E-01
     3.399E-01    3.630E-01    3.860E-01    4.091E-01    4.323E-01    4.554E-01    4.787E-01    5.019E-01    5.252E-01    5.485E-01
     5.719E-01    5.952E-01    6.187E-01    6.421E-01    6.656E-01    6.891E-01    7.127E-01    7.363E-01    7.599E-01    7.836E-01
     8.072E-01    8.310E-01    8.547E-01    8.785E-01    9.023E-01    9.261E-01    9.500E-01    9.739E-01    9.978E-01    1.022E+00
     1.046E+00    1.070E+00    1.094E+00    1.118E+00    1.142E+00    1.166E+00    1.190E+00    1.214E+00    1.239E+00    1.263E+00
     1.287E+00    1.311E+00    1.336E+00    1.360E+00    1.384E+00    1.409E+00    1.433E+00    1.457E+00    1.482E+00    1.506E+00
     1.531E+00    1.555E+00    1.580E+00    1.604E+00    1.629E+00    1.653E+00    1.678E+00    1.702E+00    1.727E+00    1.752E+00
     1.776E+00    1.801E+00    1.826E+00    1.850E+00    1.875E+00    1.900E+00    1.925E+00    1.949E+00    1.974E+00    1.999E+00
     2.024E+00    2.049E+00    2.074E+00    2.098E+00    2.123E+00    2.148E+00    2.173E+00    2.198E+00    2.223E+00    2.248E+00
     2.273E+00    2.298E+00    2.323E+00    2.348E+00    2.373E+00    2.398E+00    2.423E+00    2.448E+00    2.473E+00    2.498E+00
     2.523E+00    2.548E+00    2.573E+00    2.598E+00    2.623E+00    2.648E+00    2.673E+00    2.698E+00    2.723E+00    2.748E+00
     2.773E+00    2.798E+00    2.823E+00    2.849E+00    2.874E+00    2.899E+00    2.924E+00    2.949E+00    2.974E+00    2.999E+00
     3.024E+00    3.049E+00    3.074E+00    3.099E+00    3.125E+00    3.150E+00    3.175E+00    3.200E+00    3.225E+00    3.250E+00
     3.275E+00    3.300E+00    3.325E+00    3.350E+00    3.375E+00    3.400E+00    3.425E+00    3.450E+00    3.476E+00    3.501E+00
     3.526E+00    3.551E+00    3.576E+00    3.601E+00    3.626E+00    3.651E+00    3.676E+00    3.701E+00    3.726E+00    3.751E+00
     3.776E+00    3.801E+00    3.826E+00    3.851E+00    3.876E+00    3.901E+00    3.925E+00    3.950E+00    3.975E+00    4.000E+00
     4.025E+00    4.050E+00    4.075E+00    4.100E+00    4.125E+00    4.149E+00    4.174E+00    4.199E+00
 Ala      Conc. = 4.61E+02
