 LCModel (Version 6.3-1L) Copyright: S.W. Provencher.          Ref.: Magn. Reson. Med. 30:672-679 (1993).                
 Slice#2 Row#6 Col#9  PD_24_press_2_raw_act
 36 lines in following concentration table = NCONC+1
    Conc.  %SD /Cr+PCr  Metabolite                                         
  218.859 106%   0.251 Ala                                                 
  307.666  84%   0.352 Asp                                                 
  366.071 109%   0.419 Cr                                                  
  507.582  80%   0.581 PCr                                                 
  130.504 124%   0.149 GABA                                                
  153.556 105%   0.176 Glc                                                 
  742.571  69%   0.850 Gln                                                 
 2.48E+03  24%   2.839 Glu                                                 
  628.888   7%   0.720 GPC                                                 
    0.000 999%   0.000 PCh                                                 
  444.818  34%   0.509 GSH                                                 
 1.57E+03  32%   1.791 Ins                                                 
    0.000 999%   0.000 Lac                                                 
 1.70E+03  13%   1.945 NAA                                                 
  545.496  43%   0.624 NAAG                                                
   70.291  59% 8.0E-02 Scyllo                                              
  114.728 216%   0.131 Tau                                                 
  165.629 103%   0.190 -CrCH2                                              
  628.888   7%   0.720 GPC+PCh                                             
 2.25E+03   6%   2.570 NAA+NAAG                                            
  873.653  12%   1.000 Cr+PCr                                              
 3.22E+03  26%   3.689 Glu+Gln                                             
    0.000 999%   0.000 Lip13a                                              
   23.872 361% 2.7E-02 Lip13b                                              
    0.000 999%   0.000 Lip09                                               
  946.160  29%   1.083 MM09                                                
    4.338 512% 5.0E-03 Lip20                                               
 1.54E+03  28%   1.762 MM20                                                
  271.594  34%   0.311 MM12                                                
  771.251  34%   0.883 MM14                                                
  472.265  33%   0.541 MM17                                                
   23.872 361% 2.7E-02 Lip13a+Lip13b                                       
 1.07E+03  32%   1.221 MM14+Lip13a+Lip13b+MM12                             
  946.160  29%   1.083 MM09+Lip09                                          
 1.54E+03  28%   1.767 MM20+Lip20                                          
   6 lines in following misc. output table
  FWHM = 0.054 ppm    S/N =   5                                            
  Data shift = 0.015 ppm                                                   
  Ph: -26 deg       3.3 deg/ppm                                            
  alphaB,S = 6.8E-01,   9.2E+01                                            
   14 spline knots.   Ns = 7(1)                                            
  (11) 4 infls.   (11) 1 extrs.                                            
  498 points on ppm-axis = NY
      4.000000     3.992357     3.984714     3.977070     3.969427     3.961784     3.954141     3.946497     3.938854     3.931211
      3.923568     3.915925     3.908281     3.900638     3.892995     3.885352     3.877708     3.870065     3.862422     3.854779
      3.847136     3.839492     3.831849     3.824206     3.816563     3.808919     3.801276     3.793633     3.785990     3.778347
      3.770703     3.763060     3.755417     3.747774     3.740130     3.732487     3.724844     3.717201     3.709558     3.701914
      3.694271     3.686628     3.678985     3.671341     3.663698     3.656055     3.648412     3.640769     3.633125     3.625482
      3.617839     3.610196     3.602552     3.594909     3.587266     3.579623     3.571980     3.564336     3.556693     3.549050
      3.541407     3.533763     3.526120     3.518477     3.510834     3.503191     3.495547     3.487904     3.480261     3.472618
      3.464974     3.457331     3.449688     3.442045     3.434402     3.426758     3.419115     3.411472     3.403829     3.396185
      3.388542     3.380899     3.373256     3.365613     3.357969     3.350326     3.342683     3.335040     3.327396     3.319753
      3.312110     3.304467     3.296824     3.289180     3.281537     3.273894     3.266251     3.258607     3.250964     3.243321
      3.235678     3.228034     3.220391     3.212748     3.205105     3.197462     3.189818     3.182175     3.174532     3.166889
      3.159245     3.151602     3.143959     3.136316     3.128673     3.121029     3.113386     3.105743     3.098100     3.090456
      3.082813     3.075170     3.067527     3.059884     3.052240     3.044597     3.036954     3.029311     3.021667     3.014024
      3.006381     2.998738     2.991095     2.983451     2.975808     2.968165     2.960522     2.952878     2.945235     2.937592
      2.929949     2.922306     2.914662     2.907019     2.899376     2.891733     2.884089     2.876446     2.868803     2.861160
      2.853517     2.845873     2.838230     2.830587     2.822944     2.815300     2.807657     2.800014     2.792371     2.784728
      2.777084     2.769441     2.761798     2.754155     2.746511     2.738868     2.731225     2.723582     2.715939     2.708295
      2.700652     2.693009     2.685366     2.677722     2.670079     2.662436     2.654793     2.647150     2.639506     2.631863
      2.624220     2.616577     2.608933     2.601290     2.593647     2.586004     2.578361     2.570717     2.563074     2.555431
      2.547788     2.540144     2.532501     2.524858     2.517215     2.509572     2.501928     2.494285     2.486642     2.478999
      2.471355     2.463712     2.456069     2.448426     2.440783     2.433139     2.425496     2.417853     2.410210     2.402566
      2.394923     2.387280     2.379637     2.371994     2.364350     2.356707     2.349064     2.341421     2.333777     2.326134
      2.318491     2.310848     2.303205     2.295561     2.287918     2.280275     2.272632     2.264988     2.257345     2.249702
      2.242059     2.234416     2.226772     2.219129     2.211486     2.203843     2.196199     2.188556     2.180913     2.173270
      2.165627     2.157983     2.150340     2.142697     2.135054     2.127410     2.119767     2.112124     2.104481     2.096838
      2.089194     2.081551     2.073908     2.066265     2.058621     2.050978     2.043335     2.035692     2.028049     2.020405
      2.012762     2.005119     1.997476     1.989833     1.982190     1.974546     1.966903     1.959260     1.951617     1.943974
      1.936331     1.928688     1.921045     1.913402     1.905759     1.898115     1.890472     1.882829     1.875186     1.867543
      1.859900     1.852257     1.844614     1.836971     1.829327     1.821684     1.814041     1.806398     1.798755     1.791112
      1.783469     1.775826     1.768183     1.760540     1.752896     1.745253     1.737610     1.729967     1.722324     1.714681
      1.707038     1.699395     1.691752     1.684108     1.676465     1.668822     1.661179     1.653536     1.645893     1.638250
      1.630607     1.622964     1.615321     1.607677     1.600034     1.592391     1.584748     1.577105     1.569462     1.561819
      1.554176     1.546533     1.538890     1.531246     1.523603     1.515960     1.508317     1.500674     1.493031     1.485388
      1.477745     1.470102     1.462458     1.454815     1.447172     1.439529     1.431886     1.424243     1.416600     1.408957
      1.401314     1.393671     1.386027     1.378384     1.370741     1.363098     1.355455     1.347812     1.340169     1.332526
      1.324883     1.317240     1.309596     1.301953     1.294310     1.286667     1.279024     1.271381     1.263738     1.256095
      1.248452     1.240808     1.233165     1.225522     1.217879     1.210236     1.202593     1.194950     1.187307     1.179664
      1.172021     1.164377     1.156734     1.149091     1.141448     1.133805     1.126162     1.118519     1.110876     1.103233
      1.095590     1.087946     1.080303     1.072660     1.065017     1.057374     1.049731     1.042088     1.034445     1.026802
      1.019158     1.011515     1.003872     0.996229     0.988586     0.980943     0.973300     0.965657     0.958014     0.950371
      0.942727     0.935084     0.927441     0.919798     0.912155     0.904512     0.896869     0.889226     0.881583     0.873940
      0.866296     0.858653     0.851010     0.843367     0.835724     0.828081     0.820438     0.812795     0.805152     0.797508
      0.789865     0.782222     0.774579     0.766936     0.759293     0.751650     0.744007     0.736364     0.728721     0.721077
      0.713434     0.705791     0.698148     0.690505     0.682862     0.675219     0.667576     0.659933     0.652290     0.644646
      0.637003     0.629360     0.621717     0.614074     0.606431     0.598788     0.591145     0.583502     0.575858     0.568215
      0.560572     0.552929     0.545286     0.537643     0.530000     0.522357     0.514714     0.507071     0.499427     0.491784
      0.484141     0.476498     0.468855     0.461212     0.453569     0.445925     0.438282     0.430639     0.422996     0.415353
      0.407710     0.400067     0.392424     0.384780     0.377137     0.369494     0.361851     0.354208     0.346565     0.338922
      0.331278     0.323635     0.315992     0.308349     0.300706     0.293063     0.285420     0.277777     0.270133     0.262490
      0.254847     0.247204     0.239561     0.231918     0.224275     0.216631     0.208988     0.201345
 NY phased data points follow
   2.07186E+01  2.87177E+01  1.53178E+01  2.62496E+01  2.46483E+01  3.14686E+01  2.43505E+01  4.30101E+01  3.21920E+01  4.48254E+01
   3.45018E+01  3.67628E+01  3.56725E+01  4.22300E+01  2.46302E+01  2.71745E+01  2.45387E+01  2.75589E+01  2.31732E+01  4.04547E+01
   1.94342E+01  2.68585E+01  2.72662E+01  3.75302E+01  3.29611E+01  3.81852E+01  2.16854E+01  3.40297E+01  2.69667E+01  3.30088E+01
   1.73643E+01  3.54831E+01  2.71635E+01  2.85950E+01  2.88349E+01  2.40100E+01  2.91227E+01  3.03967E+01  1.77723E+01  3.37234E+01
   3.11670E+01  3.46388E+01  2.31004E+01  3.78710E+01  2.07340E+01  3.26192E+01  3.41298E+01  3.75415E+01  2.33436E+01  2.84841E+01
   2.46484E+01  3.66374E+01  2.88352E+01  2.73603E+01  2.61270E+01  2.06665E+01  1.05583E+01  1.86684E+01  1.73386E+01  2.54178E+01
   8.83867E+00  1.58111E+01  4.70254E+00  1.77997E+01  7.12596E+00  6.27322E+00  7.67192E+00  2.27884E+01  2.11553E+01  1.58471E+01
   7.18436E+00  1.92751E+01  1.24654E+01  2.65181E+01  2.26042E+01  2.34656E+01  1.90208E+01  2.01153E+01  3.02750E+00  2.02464E+01
   1.47276E+01  5.73500E+00  1.40316E+01  1.54486E+01  1.14341E+01  1.82165E+01  3.55891E+01  1.74618E+01  1.28523E+01  1.18975E+01
   8.10026E+00  1.69145E+01  5.89681E+00  1.85604E+01  1.08132E+01  2.83854E+01  2.59382E+01  3.01566E+01  2.97546E+01  5.16389E+01
   4.09848E+01  6.14996E+01  7.12750E+01  6.20963E+01  6.02223E+01  5.70025E+01  4.43963E+01  3.70199E+01  1.61989E+01  2.67016E+01
   1.81942E+01  1.70703E+01  7.04493E+00  1.86855E+01  2.41564E-01  4.55577E+00  1.62021E+01  1.11594E+01  1.82679E+01  1.43386E+01
   1.12721E+01  1.59575E+01  1.06150E+01  1.84753E+01  2.47248E+01  2.68972E+01  4.02864E+01  4.89243E+01  4.08052E+01  3.53708E+01
   2.09920E+01  2.34279E+01  2.02447E+01  1.10900E+01  7.18837E+00  1.72041E+01  1.11686E+01  1.14338E+01  4.93929E+00  1.75551E+01
   9.64662E+00  1.03722E+01  5.48217E+00  1.08380E+01  9.69612E+00  9.18750E+00  1.15867E+00  4.71670E+00 -1.65009E+00  3.33870E+00
   2.03199E+00  7.81573E+00  6.44456E-01  9.65796E-01  5.46905E+00  5.00980E+00 -8.61157E+00  5.74705E+00  8.05968E+00  1.32145E+01
   4.87549E+00  7.86578E+00 -4.63170E+00 -1.98281E+00  7.55086E-01 -2.37915E+00  1.22969E+01  1.97500E+00 -2.82824E+00  3.45975E+00
  -1.00670E+01  3.86129E+00 -4.24894E+00 -6.04339E+00 -7.59658E+00 -7.03835E+00  2.96864E+00  1.54476E+00  4.05922E+00  5.76310E+00
   5.48092E+00 -5.14268E+00  5.37601E+00  3.79393E-02  1.14398E+00 -6.30343E-01  5.83982E+00  2.43025E-01 -2.41398E-01  2.97331E+00
  -4.22972E+00  1.77543E+01  6.45613E+00  8.58927E-02  2.40687E+00  4.97753E+00  4.58731E+00  5.00130E+00 -5.69305E+00 -5.62949E+00
   3.81593E+00  1.11457E+01  2.89017E-01  9.83548E+00  1.09948E+01  1.78070E+01  1.07936E+01  9.18182E+00  1.12363E+00  4.16519E+00
   1.37204E+01  9.37768E+00  1.33116E+01  9.36403E+00  1.01467E+01  1.88630E+01  1.74431E+01  2.80758E+01  1.98055E+01  1.20800E+01
   8.23008E+00  3.69165E+00 -1.89859E+00 -1.13691E+00  7.22965E+00  6.63452E+00  1.71947E+01  4.10183E+00  1.10388E+01  1.27144E+01
   1.86358E+01  2.60224E+01  2.78430E+00  8.00184E+00  2.51024E+00  7.81126E+00  6.10658E+00  1.32634E+01  1.34851E+01  1.05406E+01
   1.28472E+01  7.21052E+00  2.16369E+00  1.26564E+01  7.28009E+00  9.76433E+00  1.74740E+01  1.89531E+01  1.07429E+01  2.08291E+01
   2.33120E+01  3.07327E+01  3.24398E+01  1.56250E+01  2.87323E+01  4.09293E+01  4.63483E+01  4.78757E+01  5.89449E+01  6.43800E+01
   7.05273E+01  8.99893E+01  5.76887E+01  5.47449E+01  4.12435E+01  2.25717E+01  1.65205E+01  1.66976E+01  5.20826E+00  1.62340E+01
   1.70802E+01  2.02845E+01  9.68520E+00  2.17148E+01  1.72727E+01  1.90531E+01  2.29959E+01  9.38903E+00  1.00177E+01  9.32251E+00
   8.13084E+00  1.79826E+01  1.22354E+01  1.47848E+01 -3.34719E-01  6.63733E+00  1.34766E+01  1.16155E+01 -4.94829E-02  4.14525E+00
   1.94225E+01  3.42475E+00  1.19216E+01  7.76683E+00  2.86259E+00  4.51362E+00  6.54484E+00  1.95745E+01  8.51868E+00  6.27659E+00
  -9.08511E-02  1.56160E+01  1.00028E+01  4.46936E-01  7.61031E+00  9.67647E+00  1.66124E+01  9.31692E+00  1.41611E+01  7.45553E+00
   3.71467E+00  9.57131E+00 -7.93881E+00  1.50896E+01  1.68206E+01 -2.37869E+00  5.72704E+00  3.16689E+00 -5.36360E+00 -1.39588E+00
   8.03315E-01  8.72538E+00  2.11194E+00  1.48717E+01 -3.01373E+00  1.86813E+01  1.61386E+00  6.18274E+00  1.18624E+01  4.25094E+00
   8.69648E+00  1.12168E+01  2.15673E+00 -2.77546E+00 -5.80025E-01  6.07013E+00  4.93760E+00  7.01352E+00 -4.02905E+00  6.27220E+00
   1.80886E+00  1.52097E+01 -2.21008E+00  3.41518E+00  1.17901E+00  4.00703E+00  3.62481E+00 -6.70305E+00  1.00418E+00 -6.32414E-01
  -2.14581E-01  1.86641E+00  1.84047E+00  7.85156E+00  8.27797E+00 -8.02393E-01 -8.29891E+00  1.08386E+01  8.76001E+00 -4.19306E+00
   3.27852E+00 -1.74646E+00 -1.18037E+01  4.60478E-01 -1.58092E+00 -4.16418E+00 -4.24620E-01 -2.19715E+00  1.28244E+00 -1.80528E+00
  -8.42842E+00 -8.16815E+00 -9.78613E+00 -3.81806E+00 -1.07634E+01 -1.25144E+01 -1.67429E+01 -9.64047E+00 -1.13057E+01 -1.18069E+01
  -1.20462E+01 -1.50478E+01 -8.25012E+00 -5.19890E+00 -1.15396E+01 -7.72630E+00 -3.49449E+00 -1.88977E+01 -1.20765E+01 -3.02080E+00
  -4.07474E+00 -2.57933E+00 -9.08862E+00  3.16364E+00  2.42228E+00  6.28095E+00 -1.45186E+00 -1.10498E+01  4.63727E+00  1.05017E+01
   1.11598E+00 -7.25068E+00 -3.55657E+00 -8.17441E+00 -1.00243E+00 -4.76124E+00  1.33252E+00  1.05325E+01 -5.32315E-02 -1.28493E+00
   4.86812E+00  2.40505E+00  9.38188E-01  1.05217E+01 -3.75603E+00 -6.71193E+00 -8.66613E+00 -1.38580E+00 -2.06748E+00 -9.28676E+00
  -5.76798E+00 -8.73639E-01 -2.79209E+00 -1.16884E+01 -1.84459E+01 -4.19795E+00 -1.42267E+01 -1.05209E+01 -5.73950E+00 -2.59830E+00
  -1.04172E+01 -6.19878E+00 -4.84675E+00 -4.39182E+00 -4.15077E+00  2.10582E-01 -9.42361E+00  3.26847E+00 -1.55092E+01 -4.44310E+00
  -2.42489E+00 -1.07369E+01 -8.52079E+00 -1.08515E+01 -1.89385E+01 -6.88086E+00 -8.35900E+00  4.82472E-01 -5.66530E+00 -8.16152E+00
  -1.18903E+01 -4.58221E+00  3.25628E+00 -5.16063E+00 -1.26125E+01 -7.94286E+00 -2.83302E+00 -3.22634E+00 -1.98005E+00 -6.83348E+00
  -1.73083E+00 -8.99434E+00 -4.04973E+00 -6.41764E+00 -3.72051E+00 -4.55767E+00 -3.43060E+00 -1.01880E+01 -1.38517E+00 -2.62966E+00
  -6.72772E+00 -9.98600E+00 -3.04039E+00 -1.48539E+01 -8.06807E+00  3.71935E+00 -9.21104E+00 -4.35277E-01 -4.80918E+00 -8.95738E+00
  -1.66582E+01 -6.16494E-01 -9.98366E-01  7.54688E+00 -1.68517E+00 -1.48396E+01 -6.28555E+00  2.59800E+00  6.58792E+00 -1.79988E+00
  -6.24501E-01 -1.22753E+00 -3.82468E+00 -1.37009E+01 -6.44668E+00 -3.27005E+00  4.11359E+00  1.82504E+00
 NY points of the fit to the data follow
   2.54299E+01  2.51869E+01  2.56271E+01  2.66098E+01  2.80919E+01  3.00214E+01  3.20812E+01  3.41326E+01  3.60629E+01  3.76224E+01
   3.84114E+01  3.80565E+01  3.65265E+01  3.41755E+01  3.15727E+01  2.91789E+01  2.71536E+01  2.55359E+01  2.44475E+01  2.38274E+01
   2.36252E+01  2.35858E+01  2.36695E+01  2.41283E+01  2.46739E+01  2.52179E+01  2.59042E+01  2.69077E+01  2.83522E+01  2.99925E+01
   3.15016E+01  3.25474E+01  3.28339E+01  3.21982E+01  3.06092E+01  2.83073E+01  2.57613E+01  2.33028E+01  2.14353E+01  2.06366E+01
   2.09040E+01  2.20872E+01  2.37497E+01  2.54734E+01  2.71071E+01  2.86355E+01  2.99439E+01  3.06382E+01  3.02971E+01  2.88229E+01
   2.64918E+01  2.38329E+01  2.14516E+01  1.97009E+01  1.86568E+01  1.82674E+01  1.83808E+01  1.88504E+01  1.94775E+01  2.00322E+01
   2.03096E+01  2.01663E+01  1.95985E+01  1.87437E+01  1.78475E+01  1.72071E+01  1.69246E+01  1.69525E+01  1.72491E+01  1.77366E+01
   1.82805E+01  1.87559E+01  1.90473E+01  1.91046E+01  1.89444E+01  1.86250E+01  1.82051E+01  1.77369E+01  1.73166E+01  1.70857E+01
   1.69821E+01  1.68916E+01  1.67910E+01  1.67310E+01  1.67139E+01  1.66014E+01  1.61962E+01  1.54693E+01  1.46201E+01  1.39576E+01
   1.36793E+01  1.37959E+01  1.42462E+01  1.49487E+01  1.60327E+01  1.85426E+01  2.36120E+01  2.95531E+01  3.55040E+01  4.21262E+01
   5.01212E+01  5.89185E+01  6.59483E+01  6.81996E+01  6.44471E+01  5.59842E+01  4.53352E+01  3.47665E+01  2.57570E+01  1.88761E+01
   1.39941E+01  1.12014E+01  1.04386E+01  1.03654E+01  1.04047E+01  1.04826E+01  1.05750E+01  1.07044E+01  1.09494E+01  1.16632E+01
   1.36620E+01  1.65423E+01  1.96223E+01  2.30028E+01  2.70275E+01  3.16418E+01  3.58984E+01  3.82645E+01  3.76884E+01  3.44184E+01
   2.95880E+01  2.43593E+01  1.95439E+01  1.54846E+01  1.21857E+01  9.72812E+00  8.39752E+00  7.90222E+00  7.92306E+00  8.34287E+00
   8.94583E+00  9.49461E+00  9.87001E+00  1.00182E+01  9.93432E+00  9.68285E+00  9.31188E+00  8.85017E+00  8.36122E+00  7.90901E+00
   7.52982E+00  7.21756E+00  6.94849E+00  6.68706E+00  6.41248E+00  6.18202E+00  6.02218E+00  5.88653E+00  5.72163E+00  5.43942E+00
   5.07968E+00  4.78824E+00  4.67042E+00  4.70962E+00  4.82245E+00  4.91487E+00  4.90524E+00  4.77772E+00  4.55335E+00  4.23950E+00
   3.90942E+00  3.68040E+00  3.51509E+00  3.31185E+00  3.00735E+00  2.66088E+00  2.44219E+00  2.45317E+00  2.59595E+00  2.69784E+00
   2.68995E+00  2.70851E+00  2.92975E+00  3.38872E+00  4.00577E+00  4.68345E+00  5.39801E+00  6.21235E+00  7.14448E+00  8.05421E+00
   8.69030E+00  8.84526E+00  8.54263E+00  7.92879E+00  7.18924E+00  6.52616E+00  6.12436E+00  6.19513E+00  6.84835E+00  8.00544E+00
   9.40843E+00  1.07282E+01  1.16949E+01  1.19314E+01  1.14011E+01  1.02032E+01  8.32702E+00  6.00825E+00  3.77301E+00  2.39372E+00
   2.30806E+00  3.39011E+00  5.53337E+00  8.51259E+00  1.17886E+01  1.43423E+01  1.50826E+01  1.37343E+01  1.07620E+01  6.65792E+00
   2.21957E+00 -1.59320E+00 -3.86393E+00 -3.94910E+00 -1.96896E+00  1.40747E+00  5.20893E+00  8.49001E+00  1.07597E+01  1.18612E+01
   1.20820E+01  1.18047E+01  1.13540E+01  1.10870E+01  1.11467E+01  1.13960E+01  1.15403E+01  1.14868E+01  1.12329E+01  1.07317E+01
   9.91100E+00  8.93600E+00  8.16446E+00  7.88830E+00  8.19114E+00  8.91615E+00  9.89056E+00  1.09170E+01  1.19883E+01  1.35171E+01
   1.53567E+01  1.73482E+01  1.99639E+01  2.49995E+01  3.29006E+01  4.12696E+01  4.86245E+01  5.50753E+01  6.13523E+01  6.71712E+01
   7.06371E+01  6.96367E+01  6.36901E+01  5.41792E+01  4.33070E+01  3.30535E+01  2.43882E+01  1.75304E+01  1.24228E+01  9.41101E+00
   8.16262E+00  7.56725E+00  7.30100E+00  7.27783E+00  7.36172E+00  7.39768E+00  7.33425E+00  7.15247E+00  6.86195E+00  6.50564E+00
   6.14113E+00  5.81179E+00  5.55324E+00  5.38389E+00  5.28926E+00  5.24413E+00  5.22187E+00  5.20332E+00  5.18612E+00  5.17707E+00
   5.18232E+00  5.21053E+00  5.25878E+00  5.31625E+00  5.37125E+00  5.41726E+00  5.44893E+00  5.46369E+00  5.46467E+00  5.45775E+00
   5.44753E+00  5.43743E+00  5.42362E+00  5.39814E+00  5.35459E+00  5.28928E+00  5.20208E+00  5.09448E+00  4.96880E+00  4.83133E+00
   4.68857E+00  4.54568E+00  4.40797E+00  4.28051E+00  4.16812E+00  4.07597E+00  4.00984E+00  3.97690E+00  3.98835E+00  4.06815E+00
   4.26418E+00  4.52042E+00  4.71192E+00  4.84424E+00  4.94606E+00  4.98083E+00  4.82294E+00  4.32324E+00  3.52336E+00  2.67819E+00
   1.95184E+00  1.44290E+00  1.23310E+00  1.39587E+00  1.94563E+00  2.76902E+00  3.65628E+00  4.34980E+00  4.69079E+00  4.70484E+00
   4.47902E+00  4.11122E+00  3.67776E+00  3.21557E+00  2.78120E+00  2.43235E+00  2.14114E+00  1.88558E+00  1.65772E+00  1.45387E+00
   1.27139E+00  1.10731E+00  9.58037E-01  8.19291E-01  6.86566E-01  5.55524E-01  4.22712E-01  2.85932E-01  1.44620E-01 -3.94194E-04
  -1.47187E-01 -2.93453E-01 -4.36932E-01 -5.75945E-01 -7.09460E-01 -8.37275E-01 -9.59771E-01 -1.07781E+00 -1.19231E+00 -1.30409E+00
  -1.41354E+00 -1.52078E+00 -1.62548E+00 -1.72707E+00 -1.82458E+00 -1.91683E+00 -2.00235E+00 -2.07958E+00 -2.14680E+00 -2.20226E+00
  -2.24400E+00 -2.26999E+00 -2.27802E+00 -2.26593E+00 -2.23147E+00 -2.17249E+00 -2.08683E+00 -1.97258E+00 -1.82809E+00 -1.65234E+00
  -1.44490E+00 -1.20622E+00 -9.37694E-01 -6.41901E-01 -3.22671E-01  1.47311E-02  3.63773E-01  7.16670E-01  1.06471E+00  1.39836E+00
   1.70773E+00  1.98289E+00  2.21448E+00  2.39407E+00  2.51475E+00  2.57129E+00  2.56057E+00  2.48164E+00  2.33587E+00  2.12682E+00
   1.86003E+00  1.54261E+00  1.18291E+00  7.90022E-01  3.73430E-01 -5.75176E-02 -4.93932E-01 -9.27853E-01 -1.35233E+00 -1.76166E+00
  -2.15133E+00 -2.51809E+00 -2.85986E+00 -3.17568E+00 -3.46543E+00 -3.72973E+00 -3.96966E+00 -4.18676E+00 -4.38278E+00 -4.55967E+00
  -4.71934E+00 -4.86367E+00 -4.99435E+00 -5.11304E+00 -5.22120E+00 -5.32021E+00 -5.41120E+00 -5.49520E+00 -5.57300E+00 -5.64542E+00
  -5.71308E+00 -5.77661E+00 -5.83642E+00 -5.89293E+00 -5.94642E+00 -5.99727E+00 -6.04573E+00 -6.09206E+00 -6.13640E+00 -6.17894E+00
  -6.21978E+00 -6.25912E+00 -6.29708E+00 -6.33377E+00 -6.36923E+00 -6.40355E+00 -6.43679E+00 -6.46909E+00 -6.50049E+00 -6.53105E+00
  -6.56078E+00 -6.58975E+00 -6.61799E+00 -6.64562E+00 -6.67262E+00 -6.69904E+00 -6.72485E+00 -6.75015E+00 -6.77495E+00 -6.79933E+00
  -6.82327E+00 -6.84680E+00 -6.86988E+00 -6.89262E+00 -6.91503E+00 -6.93715E+00 -6.95895E+00 -6.98045E+00 -7.00166E+00 -7.02267E+00
  -7.04347E+00 -7.06411E+00 -7.08453E+00 -7.10477E+00 -7.12486E+00 -7.14486E+00 -7.16476E+00 -7.18459E+00 -7.20431E+00 -7.22398E+00
  -7.24361E+00 -7.26328E+00 -7.28296E+00 -7.30268E+00 -7.32240E+00 -7.34222E+00 -7.36215E+00 -7.38226E+00
 NY background values follow
     1.816E+01    1.808E+01    1.800E+01    1.793E+01    1.785E+01    1.778E+01    1.770E+01    1.763E+01    1.755E+01    1.748E+01
     1.740E+01    1.732E+01    1.725E+01    1.717E+01    1.710E+01    1.702E+01    1.694E+01    1.687E+01    1.679E+01    1.671E+01
     1.664E+01    1.656E+01    1.649E+01    1.641E+01    1.633E+01    1.626E+01    1.618E+01    1.610E+01    1.603E+01    1.595E+01
     1.588E+01    1.580E+01    1.572E+01    1.565E+01    1.557E+01    1.549E+01    1.542E+01    1.534E+01    1.526E+01    1.519E+01
     1.511E+01    1.504E+01    1.496E+01    1.488E+01    1.481E+01    1.473E+01    1.465E+01    1.458E+01    1.450E+01    1.443E+01
     1.435E+01    1.427E+01    1.420E+01    1.412E+01    1.405E+01    1.397E+01    1.390E+01    1.382E+01    1.374E+01    1.367E+01
     1.359E+01    1.352E+01    1.344E+01    1.337E+01    1.329E+01    1.322E+01    1.314E+01    1.307E+01    1.300E+01    1.292E+01
     1.285E+01    1.277E+01    1.270E+01    1.263E+01    1.255E+01    1.248E+01    1.241E+01    1.233E+01    1.226E+01    1.219E+01
     1.212E+01    1.204E+01    1.197E+01    1.190E+01    1.183E+01    1.176E+01    1.169E+01    1.162E+01    1.155E+01    1.148E+01
     1.141E+01    1.134E+01    1.127E+01    1.120E+01    1.113E+01    1.106E+01    1.099E+01    1.093E+01    1.086E+01    1.079E+01
     1.072E+01    1.066E+01    1.059E+01    1.052E+01    1.046E+01    1.039E+01    1.033E+01    1.026E+01    1.020E+01    1.013E+01
     1.007E+01    1.001E+01    9.942E+00    9.879E+00    9.816E+00    9.754E+00    9.692E+00    9.630E+00    9.569E+00    9.508E+00
     9.447E+00    9.387E+00    9.327E+00    9.267E+00    9.208E+00    9.149E+00    9.091E+00    9.033E+00    8.975E+00    8.918E+00
     8.861E+00    8.804E+00    8.748E+00    8.692E+00    8.637E+00    8.582E+00    8.527E+00    8.473E+00    8.419E+00    8.366E+00
     8.312E+00    8.260E+00    8.208E+00    8.156E+00    8.104E+00    8.053E+00    8.003E+00    7.952E+00    7.903E+00    7.853E+00
     7.804E+00    7.755E+00    7.707E+00    7.659E+00    7.611E+00    7.564E+00    7.517E+00    7.471E+00    7.425E+00    7.379E+00
     7.334E+00    7.289E+00    7.245E+00    7.200E+00    7.157E+00    7.113E+00    7.070E+00    7.027E+00    6.985E+00    6.943E+00
     6.902E+00    6.860E+00    6.820E+00    6.779E+00    6.739E+00    6.699E+00    6.660E+00    6.621E+00    6.582E+00    6.544E+00
     6.506E+00    6.468E+00    6.431E+00    6.394E+00    6.358E+00    6.322E+00    6.286E+00    6.250E+00    6.214E+00    6.179E+00
     6.144E+00    6.110E+00    6.075E+00    6.041E+00    6.007E+00    5.973E+00    5.939E+00    5.906E+00    5.872E+00    5.839E+00
     5.805E+00    5.772E+00    5.739E+00    5.706E+00    5.673E+00    5.640E+00    5.607E+00    5.574E+00    5.541E+00    5.508E+00
     5.475E+00    5.442E+00    5.409E+00    5.376E+00    5.342E+00    5.309E+00    5.275E+00    5.242E+00    5.208E+00    5.174E+00
     5.140E+00    5.105E+00    5.071E+00    5.036E+00    5.001E+00    4.966E+00    4.930E+00    4.894E+00    4.858E+00    4.822E+00
     4.785E+00    4.748E+00    4.711E+00    4.673E+00    4.635E+00    4.597E+00    4.558E+00    4.520E+00    4.480E+00    4.441E+00
     4.401E+00    4.360E+00    4.320E+00    4.279E+00    4.237E+00    4.195E+00    4.153E+00    4.110E+00    4.067E+00    4.024E+00
     3.980E+00    3.936E+00    3.891E+00    3.846E+00    3.800E+00    3.754E+00    3.708E+00    3.661E+00    3.613E+00    3.565E+00
     3.517E+00    3.468E+00    3.419E+00    3.369E+00    3.318E+00    3.268E+00    3.216E+00    3.164E+00    3.112E+00    3.059E+00
     3.005E+00    2.951E+00    2.896E+00    2.841E+00    2.785E+00    2.729E+00    2.672E+00    2.615E+00    2.557E+00    2.499E+00
     2.440E+00    2.380E+00    2.320E+00    2.260E+00    2.199E+00    2.138E+00    2.076E+00    2.014E+00    1.951E+00    1.888E+00
     1.824E+00    1.760E+00    1.695E+00    1.630E+00    1.565E+00    1.499E+00    1.433E+00    1.366E+00    1.299E+00    1.232E+00
     1.164E+00    1.095E+00    1.027E+00    9.578E-01    8.885E-01    8.187E-01    7.487E-01    6.783E-01    6.075E-01    5.364E-01
     4.650E-01    3.932E-01    3.211E-01    2.487E-01    1.761E-01    1.031E-01    2.977E-02   -4.382E-02   -1.177E-01   -1.918E-01
    -2.661E-01   -3.407E-01   -4.155E-01   -4.905E-01   -5.657E-01   -6.410E-01   -7.165E-01   -7.921E-01   -8.678E-01   -9.436E-01
    -1.019E+00   -1.095E+00   -1.171E+00   -1.247E+00   -1.324E+00   -1.400E+00   -1.476E+00   -1.552E+00   -1.627E+00   -1.703E+00
    -1.779E+00   -1.855E+00   -1.930E+00   -2.006E+00   -2.081E+00   -2.156E+00   -2.231E+00   -2.306E+00   -2.380E+00   -2.455E+00
    -2.529E+00   -2.602E+00   -2.676E+00   -2.749E+00   -2.822E+00   -2.895E+00   -2.967E+00   -3.039E+00   -3.110E+00   -3.181E+00
    -3.252E+00   -3.322E+00   -3.392E+00   -3.461E+00   -3.530E+00   -3.598E+00   -3.666E+00   -3.734E+00   -3.801E+00   -3.867E+00
    -3.933E+00   -3.999E+00   -4.064E+00   -4.128E+00   -4.192E+00   -4.256E+00   -4.318E+00   -4.381E+00   -4.443E+00   -4.504E+00
    -4.565E+00   -4.625E+00   -4.684E+00   -4.743E+00   -4.802E+00   -4.859E+00   -4.917E+00   -4.973E+00   -5.029E+00   -5.085E+00
    -5.140E+00   -5.194E+00   -5.247E+00   -5.300E+00   -5.353E+00   -5.404E+00   -5.455E+00   -5.506E+00   -5.555E+00   -5.604E+00
    -5.653E+00   -5.700E+00   -5.747E+00   -5.793E+00   -5.839E+00   -5.884E+00   -5.928E+00   -5.972E+00   -6.014E+00   -6.056E+00
    -6.098E+00   -6.138E+00   -6.178E+00   -6.217E+00   -6.256E+00   -6.294E+00   -6.331E+00   -6.368E+00   -6.404E+00   -6.440E+00
    -6.474E+00   -6.509E+00   -6.542E+00   -6.575E+00   -6.608E+00   -6.640E+00   -6.671E+00   -6.702E+00   -6.732E+00   -6.762E+00
    -6.791E+00   -6.820E+00   -6.848E+00   -6.876E+00   -6.903E+00   -6.930E+00   -6.956E+00   -6.982E+00   -7.007E+00   -7.032E+00
    -7.056E+00   -7.081E+00   -7.104E+00   -7.127E+00   -7.150E+00   -7.173E+00   -7.195E+00   -7.216E+00   -7.238E+00   -7.259E+00
    -7.279E+00   -7.300E+00   -7.320E+00   -7.339E+00   -7.358E+00   -7.377E+00   -7.396E+00   -7.415E+00   -7.433E+00   -7.451E+00
    -7.468E+00   -7.486E+00   -7.503E+00   -7.520E+00   -7.536E+00   -7.553E+00   -7.569E+00   -7.585E+00   -7.601E+00   -7.616E+00
    -7.632E+00   -7.647E+00   -7.662E+00   -7.677E+00   -7.692E+00   -7.707E+00   -7.721E+00   -7.735E+00   -7.750E+00   -7.764E+00
    -7.778E+00   -7.792E+00   -7.806E+00   -7.820E+00   -7.833E+00   -7.847E+00   -7.861E+00   -7.874E+00   -7.888E+00   -7.901E+00
    -7.915E+00   -7.929E+00   -7.942E+00   -7.956E+00   -7.969E+00   -7.983E+00   -7.996E+00   -8.010E+00
 Ala      Conc. = 2.19E+02
