 LCModel (Version 6.3-1L) Copyright: S.W. Provencher.          Ref.: Magn. Reson. Med. 30:672-679 (1993).                
 Slice#3 Row#7 Col#8  PD_24_press_2_raw_act
 36 lines in following concentration table = NCONC+1
    Conc.  %SD /Cr+PCr  Metabolite                                         
  223.184  75%   0.198 Ala                                                 
   93.936 264% 8.3E-02 Asp                                                 
    0.000 999%   0.000 Cr                                                  
 1.13E+03   8%   1.000 PCr                                                 
   94.931 164% 8.4E-02 GABA                                                
  297.299  52%   0.264 Glc                                                 
  896.289  38%   0.795 Gln                                                 
 1.48E+03  26%   1.310 Glu                                                 
  555.390   6%   0.493 GPC                                                 
    0.000 999%   0.000 PCh                                                 
  146.601  79%   0.130 GSH                                                 
  774.248  51%   0.687 Ins                                                 
   69.673 262% 6.2E-02 Lac                                                 
 1.97E+03   6%   1.747 NAA                                                 
  206.071  67%   0.183 NAAG                                                
  125.918  29%   0.112 Scyllo                                              
  526.660  46%   0.467 Tau                                                 
  697.748  23%   0.619 -CrCH2                                              
  555.390   6%   0.493 GPC+PCh                                             
 2.17E+03   5%   1.930 NAA+NAAG                                            
 1.13E+03   8%   1.000 Cr+PCr                                              
 2.37E+03  23%   2.105 Glu+Gln                                             
    0.000 999%   0.000 Lip13a                                              
    0.000 999%   0.000 Lip13b                                              
 6.38E-02 999% 5.7E-05 Lip09                                               
  970.715  27%   0.861 MM09                                                
    0.000 999%   0.000 Lip20                                               
 1.38E+03  36%   1.228 MM20                                                
  286.559  58%   0.254 MM12                                                
 1.23E+03  31%   1.089 MM14                                                
   91.052 331% 8.1E-02 MM17                                                
    0.000 999%   0.000 Lip13a+Lip13b                                       
 1.51E+03  30%   1.343 MM14+Lip13a+Lip13b+MM12                             
  970.779  27%   0.861 MM09+Lip09                                          
 1.38E+03  36%   1.228 MM20+Lip20                                          
   6 lines in following misc. output table
  FWHM = 0.046 ppm    S/N =   6                                            
  Data shift = 0.023 ppm                                                   
  Ph: -71 deg     -28.1 deg/ppm                                            
  alphaB,S = 9.0E-01,   8.5E+01                                            
   14 spline knots.   Ns = 6(1)                                            
  ( 7) 4 infls.   ( 5) 1 extrs.                                            
  498 points on ppm-axis = NY
      4.000000     3.992357     3.984714     3.977070     3.969427     3.961784     3.954141     3.946497     3.938854     3.931211
      3.923568     3.915925     3.908281     3.900638     3.892995     3.885352     3.877708     3.870065     3.862422     3.854779
      3.847136     3.839492     3.831849     3.824206     3.816563     3.808919     3.801276     3.793633     3.785990     3.778347
      3.770703     3.763060     3.755417     3.747774     3.740130     3.732487     3.724844     3.717201     3.709558     3.701914
      3.694271     3.686628     3.678985     3.671341     3.663698     3.656055     3.648412     3.640769     3.633125     3.625482
      3.617839     3.610196     3.602552     3.594909     3.587266     3.579623     3.571980     3.564336     3.556693     3.549050
      3.541407     3.533763     3.526120     3.518477     3.510834     3.503191     3.495547     3.487904     3.480261     3.472618
      3.464974     3.457331     3.449688     3.442045     3.434402     3.426758     3.419115     3.411472     3.403829     3.396185
      3.388542     3.380899     3.373256     3.365613     3.357969     3.350326     3.342683     3.335040     3.327396     3.319753
      3.312110     3.304467     3.296824     3.289180     3.281537     3.273894     3.266251     3.258607     3.250964     3.243321
      3.235678     3.228034     3.220391     3.212748     3.205105     3.197462     3.189818     3.182175     3.174532     3.166889
      3.159245     3.151602     3.143959     3.136316     3.128673     3.121029     3.113386     3.105743     3.098100     3.090456
      3.082813     3.075170     3.067527     3.059884     3.052240     3.044597     3.036954     3.029311     3.021667     3.014024
      3.006381     2.998738     2.991095     2.983451     2.975808     2.968165     2.960522     2.952878     2.945235     2.937592
      2.929949     2.922306     2.914662     2.907019     2.899376     2.891733     2.884089     2.876446     2.868803     2.861160
      2.853517     2.845873     2.838230     2.830587     2.822944     2.815300     2.807657     2.800014     2.792371     2.784728
      2.777084     2.769441     2.761798     2.754155     2.746511     2.738868     2.731225     2.723582     2.715939     2.708295
      2.700652     2.693009     2.685366     2.677722     2.670079     2.662436     2.654793     2.647150     2.639506     2.631863
      2.624220     2.616577     2.608933     2.601290     2.593647     2.586004     2.578361     2.570717     2.563074     2.555431
      2.547788     2.540144     2.532501     2.524858     2.517215     2.509572     2.501928     2.494285     2.486642     2.478999
      2.471355     2.463712     2.456069     2.448426     2.440783     2.433139     2.425496     2.417853     2.410210     2.402566
      2.394923     2.387280     2.379637     2.371994     2.364350     2.356707     2.349064     2.341421     2.333777     2.326134
      2.318491     2.310848     2.303205     2.295561     2.287918     2.280275     2.272632     2.264988     2.257345     2.249702
      2.242059     2.234416     2.226772     2.219129     2.211486     2.203843     2.196199     2.188556     2.180913     2.173270
      2.165627     2.157983     2.150340     2.142697     2.135054     2.127410     2.119767     2.112124     2.104481     2.096838
      2.089194     2.081551     2.073908     2.066265     2.058621     2.050978     2.043335     2.035692     2.028049     2.020405
      2.012762     2.005119     1.997476     1.989833     1.982190     1.974546     1.966903     1.959260     1.951617     1.943974
      1.936331     1.928688     1.921045     1.913402     1.905759     1.898115     1.890472     1.882829     1.875186     1.867543
      1.859900     1.852257     1.844614     1.836971     1.829327     1.821684     1.814041     1.806398     1.798755     1.791112
      1.783469     1.775826     1.768183     1.760540     1.752896     1.745253     1.737610     1.729967     1.722324     1.714681
      1.707038     1.699395     1.691752     1.684108     1.676465     1.668822     1.661179     1.653536     1.645893     1.638250
      1.630607     1.622964     1.615321     1.607677     1.600034     1.592391     1.584748     1.577105     1.569462     1.561819
      1.554176     1.546533     1.538890     1.531246     1.523603     1.515960     1.508317     1.500674     1.493031     1.485388
      1.477745     1.470102     1.462458     1.454815     1.447172     1.439529     1.431886     1.424243     1.416600     1.408957
      1.401314     1.393671     1.386027     1.378384     1.370741     1.363098     1.355455     1.347812     1.340169     1.332526
      1.324883     1.317240     1.309596     1.301953     1.294310     1.286667     1.279024     1.271381     1.263738     1.256095
      1.248452     1.240808     1.233165     1.225522     1.217879     1.210236     1.202593     1.194950     1.187307     1.179664
      1.172021     1.164377     1.156734     1.149091     1.141448     1.133805     1.126162     1.118519     1.110876     1.103233
      1.095590     1.087946     1.080303     1.072660     1.065017     1.057374     1.049731     1.042088     1.034445     1.026802
      1.019158     1.011515     1.003872     0.996229     0.988586     0.980943     0.973300     0.965657     0.958014     0.950371
      0.942727     0.935084     0.927441     0.919798     0.912155     0.904512     0.896869     0.889226     0.881583     0.873940
      0.866296     0.858653     0.851010     0.843367     0.835724     0.828081     0.820438     0.812795     0.805152     0.797508
      0.789865     0.782222     0.774579     0.766936     0.759293     0.751650     0.744007     0.736364     0.728721     0.721077
      0.713434     0.705791     0.698148     0.690505     0.682862     0.675219     0.667576     0.659933     0.652290     0.644646
      0.637003     0.629360     0.621717     0.614074     0.606431     0.598788     0.591145     0.583502     0.575858     0.568215
      0.560572     0.552929     0.545286     0.537643     0.530000     0.522357     0.514714     0.507071     0.499427     0.491784
      0.484141     0.476498     0.468855     0.461212     0.453569     0.445925     0.438282     0.430639     0.422996     0.415353
      0.407710     0.400067     0.392424     0.384780     0.377137     0.369494     0.361851     0.354208     0.346565     0.338922
      0.331278     0.323635     0.315992     0.308349     0.300706     0.293063     0.285420     0.277777     0.270133     0.262490
      0.254847     0.247204     0.239561     0.231918     0.224275     0.216631     0.208988     0.201345
 NY phased data points follow
  -1.45785E+02 -1.45463E+02 -1.29247E+02 -1.18911E+02 -1.19487E+02 -1.18936E+02 -1.09217E+02 -1.14825E+02 -1.04970E+02 -1.02816E+02
  -1.08463E+02 -1.12346E+02 -1.11839E+02 -1.12205E+02 -1.17932E+02 -1.26617E+02 -1.21633E+02 -1.17011E+02 -1.09990E+02 -1.16314E+02
  -1.09275E+02 -1.16472E+02 -1.04669E+02 -1.06866E+02 -9.00226E+01 -9.83580E+01 -9.84487E+01 -9.87467E+01 -1.03857E+02 -9.99497E+01
  -9.93004E+01 -8.99418E+01 -9.27026E+01 -9.62200E+01 -9.04531E+01 -8.21962E+01 -8.38703E+01 -8.62287E+01 -7.99922E+01 -8.63143E+01
  -8.22762E+01 -8.48950E+01 -7.81903E+01 -7.58296E+01 -7.48732E+01 -7.86952E+01 -7.18752E+01 -6.84018E+01 -7.44355E+01 -7.97321E+01
  -6.66757E+01 -7.87602E+01 -6.91171E+01 -6.40430E+01 -6.68070E+01 -6.65645E+01 -7.37693E+01 -5.97359E+01 -7.11532E+01 -7.02343E+01
  -7.37148E+01 -6.78214E+01 -7.10555E+01 -7.53557E+01 -7.26255E+01 -7.89680E+01 -6.94040E+01 -5.99430E+01 -6.34894E+01 -6.26121E+01
  -4.51706E+01 -5.43530E+01 -5.52531E+01 -4.81604E+01 -4.63827E+01 -5.74518E+01 -5.06320E+01 -4.75726E+01 -4.12316E+01 -5.11266E+01
  -4.19699E+01 -4.79640E+01 -4.72429E+01 -4.82723E+01 -4.50338E+01 -4.32448E+01 -3.73782E+01 -4.29349E+01 -3.82038E+01 -4.12121E+01
  -3.15493E+01 -3.24215E+01 -3.16494E+01 -3.14893E+01 -3.28853E+01 -2.97582E+01 -2.37842E+01 -2.35602E+01 -1.36839E+01 -4.23094E+00
   8.19214E+00  1.76133E+01  2.57835E+01  1.92617E+01  6.37411E+00 -5.93193E+00 -1.69524E+01 -2.96848E+01 -2.25771E+01 -3.43625E+01
  -2.86518E+01 -2.28552E+01 -3.55521E+01 -2.35560E+01 -2.51113E+01 -2.59459E+01 -2.88614E+01 -2.78720E+01 -2.55182E+01 -2.41658E+01
  -1.35195E+01 -1.60873E+01 -1.15701E+01 -1.07092E+00  2.42116E+00 -3.13900E-01  1.61816E+01  1.77104E+01  1.80010E+01  8.98432E+00
   2.82053E-01  6.32118E-02 -6.83101E+00 -1.42430E+01 -9.45044E+00 -1.67887E+01 -1.71078E+01 -1.64677E+01 -2.36089E+01 -1.22737E+01
  -9.80643E+00 -1.90180E+01 -2.12472E+01 -9.51762E+00 -1.15379E+01 -5.15030E+00 -1.63250E+00 -8.97471E+00 -7.11154E+00 -8.86821E+00
  -1.16802E+01 -1.84396E+01 -1.78856E+01 -4.55527E+00 -1.46008E+01 -4.79129E+00 -1.27826E+01 -7.63219E+00 -6.10152E+00 -1.01915E+01
  -5.02322E+00 -1.20717E+01 -1.45660E+01 -1.62893E+01 -1.28810E+01 -2.05787E+00 -2.73636E+00 -4.19613E+00 -1.95943E+01 -4.90400E+00
  -7.25571E+00 -1.39342E+01  1.89606E+00 -1.03346E+01  6.85708E-01 -9.96619E+00 -1.52954E+01 -1.06933E+01 -1.37659E+01 -2.01979E+01
  -1.03757E+01 -1.62682E+01 -2.29117E+01 -9.94609E+00 -4.48841E+00 -9.20881E+00 -1.25711E+01  4.04536E+00 -8.24296E+00  7.87502E+00
   2.38021E+00  1.10279E+01  4.59238E+00  1.18163E+01  8.06964E+00  1.06631E+01  1.05115E+01  5.15523E+00  2.25174E+00  1.46063E+01
   1.16268E+00  5.23825E+00  7.44015E+00  8.53871E+00  1.49665E+01  1.10131E+01  3.70773E+00  2.60946E+00  1.40810E+01 -1.89994E+00
  -7.38138E+00 -2.55937E+00 -3.60027E-01  1.06282E+00  9.39009E+00  1.97012E+01  2.28487E+01  2.57390E+01  1.64975E+01  2.42958E+01
   1.27715E+01 -7.49371E-01  1.83042E+00  9.49746E+00  5.75139E+00  1.87850E+01  1.11723E+01  1.65875E+01  1.30173E+01  1.66308E+01
   1.54106E+01  2.37282E+01  1.78660E+01  1.22316E+01  8.54468E+00  2.22370E+01  2.39826E+01  2.64761E+01  2.42895E+01  2.14266E+01
   1.38165E+01  1.26810E+01  5.66716E+00  9.51256E+00  1.40808E+01  1.22602E+01  1.53926E+01  2.09255E+01  1.59656E+01  1.97598E+01
   1.41354E+01  2.06166E+01  3.74407E+01  2.78089E+01  3.24175E+01  4.16334E+01  4.88741E+01  5.70608E+01  5.91583E+01  6.45880E+01
   8.90327E+01  1.11001E+02  9.93926E+01  7.45926E+01  5.55778E+01  4.72931E+01  4.09052E+01  3.57560E+01  3.49354E+01  3.29011E+01
   3.40890E+01  2.87091E+01  3.34349E+01  2.27083E+01  1.99996E+01  2.94894E+01  2.90141E+01  2.72149E+01  1.59549E+01  1.96516E+01
   2.06961E+01  1.94711E+01  1.44339E+01  2.84427E+01  2.00920E+01  2.73615E+01  1.94524E+01  2.27770E+01  2.22710E+01  2.93048E+01
   2.01995E+01  3.38826E+01  2.58187E+01  2.64977E+01  2.26104E+01  2.51556E+01  2.40319E+01  1.88351E+01  2.50104E+01  2.36420E+01
   2.44639E+01  2.23791E+01  3.27710E+01  2.52618E+01  1.96047E+01  1.71358E+01  2.60579E+01  2.92924E+01  3.31164E+01  2.36217E+01
   3.26672E+01  2.74625E+01  1.73866E+01  2.49099E+01  3.46380E+01  3.25672E+01  3.28188E+01  3.76541E+01  4.01940E+01  3.91634E+01
   3.59468E+01  3.57323E+01  3.21199E+01  2.78074E+01  3.75068E+01  3.63247E+01  3.50389E+01  3.12967E+01  3.43599E+01  3.15829E+01
   3.36797E+01  3.66014E+01  4.21792E+01  3.09106E+01  2.63290E+01  3.75039E+01  3.70101E+01  5.14828E+01  3.20903E+01  4.62877E+01
   3.10525E+01  3.37438E+01  3.57471E+01  3.39894E+01  3.29605E+01  3.52045E+01  3.16098E+01  3.36083E+01  2.92594E+01  3.54190E+01
   2.82026E+01  2.58499E+01  2.98975E+01  3.89225E+01  3.28962E+01  3.80823E+01  3.16122E+01  3.21210E+01  3.21730E+01  3.71354E+01
   3.50887E+01  3.40094E+01  3.40424E+01  3.90784E+01  3.44706E+01  3.27311E+01  3.01377E+01  3.56518E+01  4.29883E+01  4.13117E+01
   2.87392E+01  2.74050E+01  3.21760E+01  3.71838E+01  2.85211E+01  4.40917E+01  3.91406E+01  3.44266E+01  3.22051E+01  3.40212E+01
   3.15120E+01  4.13747E+01  3.21810E+01  3.42905E+01  4.01517E+01  3.76551E+01  3.11968E+01  3.47196E+01  3.52234E+01  3.37062E+01
   3.47324E+01  4.18964E+01  3.38202E+01  3.68042E+01  4.16704E+01  4.66902E+01  3.58128E+01  4.32951E+01  4.52329E+01  3.78600E+01
   3.59677E+01  4.12798E+01  3.71690E+01  4.35364E+01  3.32602E+01  3.48883E+01  4.15072E+01  4.65548E+01  4.27304E+01  3.47732E+01
   5.23121E+01  4.71092E+01  4.20313E+01  4.28169E+01  3.91974E+01  4.15959E+01  4.22673E+01  3.52161E+01  3.16950E+01  4.28672E+01
   4.06161E+01  3.66750E+01  3.16392E+01  4.83316E+01  3.43338E+01  4.38088E+01  3.60654E+01  3.94254E+01  3.43001E+01  4.09546E+01
   2.51043E+01  3.44423E+01  4.33639E+01  3.97812E+01  4.21753E+01  4.76260E+01  3.42518E+01  3.71070E+01  3.55040E+01  3.77670E+01
   3.53961E+01  4.21130E+01  3.71668E+01  4.13871E+01  3.62290E+01  3.77658E+01  3.41657E+01  3.95627E+01  3.72806E+01  3.22797E+01
   3.45133E+01  3.87616E+01  3.41206E+01  4.11737E+01  3.12713E+01  3.88944E+01  3.39663E+01  3.03098E+01  3.44450E+01  3.87496E+01
   3.84618E+01  3.35770E+01  3.24026E+01  3.82263E+01  3.44868E+01  2.93711E+01  3.23983E+01  3.35043E+01  3.38403E+01  2.96468E+01
   3.48285E+01  3.92735E+01  3.11085E+01  2.96075E+01  2.89788E+01  3.79949E+01  2.77505E+01  3.06944E+01  3.52680E+01  3.93518E+01
   2.95963E+01  2.80695E+01  3.05029E+01  3.34760E+01  3.71018E+01  3.70439E+01  3.77858E+01  2.94367E+01  3.86254E+01  3.58999E+01
   3.78323E+01  2.91604E+01  3.49177E+01  2.33869E+01  2.60246E+01  2.43148E+01  3.69963E+01  3.75106E+01
 NY points of the fit to the data follow
  -1.28114E+02 -1.26635E+02 -1.24272E+02 -1.21112E+02 -1.18227E+02 -1.15387E+02 -1.12302E+02 -1.09160E+02 -1.06862E+02 -1.06487E+02
  -1.08079E+02 -1.10354E+02 -1.11951E+02 -1.12479E+02 -1.12318E+02 -1.11851E+02 -1.11054E+02 -1.10061E+02 -1.09239E+02 -1.08246E+02
  -1.07045E+02 -1.05718E+02 -1.04480E+02 -1.03410E+02 -1.02372E+02 -1.01467E+02 -1.00700E+02 -9.98361E+01 -9.86100E+01 -9.66727E+01
  -9.40849E+01 -9.11839E+01 -8.84926E+01 -8.66418E+01 -8.59632E+01 -8.62652E+01 -8.72029E+01 -8.83498E+01 -8.90959E+01 -8.89924E+01
  -8.78715E+01 -8.58400E+01 -8.33826E+01 -8.10031E+01 -7.89371E+01 -7.70283E+01 -7.52319E+01 -7.37799E+01 -7.29520E+01 -7.28687E+01
  -7.33846E+01 -7.41378E+01 -7.46709E+01 -7.46756E+01 -7.41975E+01 -7.33486E+01 -7.22645E+01 -7.10733E+01 -6.98386E+01 -6.85954E+01
  -6.74534E+01 -6.65217E+01 -6.58980E+01 -6.54134E+01 -6.48872E+01 -6.41887E+01 -6.32512E+01 -6.21572E+01 -6.10745E+01 -5.99671E+01
  -5.87182E+01 -5.74196E+01 -5.61478E+01 -5.48995E+01 -5.36700E+01 -5.25166E+01 -5.16420E+01 -5.12398E+01 -5.13128E+01 -5.14814E+01
  -5.11029E+01 -4.98751E+01 -4.82352E+01 -4.64127E+01 -4.44304E+01 -4.23886E+01 -4.05836E+01 -3.95910E+01 -3.97781E+01 -4.07562E+01
  -4.17051E+01 -4.21852E+01 -4.22101E+01 -4.18180E+01 -4.07306E+01 -3.71601E+01 -3.01403E+01 -2.20228E+01 -1.34388E+01 -3.56642E+00
   7.71706E+00  1.79780E+01  2.26306E+01  1.87248E+01  8.16308E+00 -4.13208E+00 -1.44007E+01 -2.17392E+01 -2.67123E+01 -2.93348E+01
  -2.98475E+01 -2.97230E+01 -2.94585E+01 -2.91087E+01 -2.87095E+01 -2.82780E+01 -2.77824E+01 -2.72283E+01 -2.65799E+01 -2.55791E+01
  -2.29918E+01 -1.81826E+01 -1.27835E+01 -7.09606E+00 -3.89371E-01  7.56900E+00  1.51075E+01  1.88909E+01  1.67390E+01  9.85797E+00
   1.60925E+00 -5.43541E+00 -1.06604E+01 -1.43518E+01 -1.64491E+01 -1.71180E+01 -1.72977E+01 -1.72331E+01 -1.69092E+01 -1.63443E+01
  -1.56319E+01 -1.49013E+01 -1.42669E+01 -1.37781E+01 -1.34070E+01 -1.31033E+01 -1.28393E+01 -1.25936E+01 -1.23586E+01 -1.21216E+01
  -1.18588E+01 -1.15709E+01 -1.12619E+01 -1.09307E+01 -1.05981E+01 -1.03374E+01 -1.01335E+01 -9.91660E+00 -9.70910E+00 -9.53492E+00
  -9.47645E+00 -9.48184E+00 -9.29578E+00 -8.76042E+00 -8.00086E+00 -7.32978E+00 -6.99919E+00 -7.00872E+00 -7.17420E+00 -7.34986E+00
  -7.50029E+00 -7.60323E+00 -7.55022E+00 -7.38090E+00 -7.24892E+00 -7.24841E+00 -7.21298E+00 -6.85180E+00 -6.14150E+00 -5.37580E+00
  -4.87615E+00 -4.69260E+00 -4.50303E+00 -3.99058E+00 -3.26107E+00 -2.53270E+00 -1.80930E+00 -9.55883E-01  1.53288E-01  1.45757E+00
   2.67138E+00  3.55430E+00  3.95027E+00  3.91436E+00  3.66081E+00  3.42730E+00  3.42530E+00  3.75057E+00  4.44176E+00  5.55133E+00
   7.06114E+00  8.78085E+00  1.03434E+01  1.14281E+01  1.15550E+01  1.06891E+01  9.04632E+00  6.67251E+00  3.93130E+00  1.57776E+00
   5.21229E-01  1.37671E+00  3.75608E+00  7.04395E+00  1.06983E+01  1.41868E+01  1.66517E+01  1.71210E+01  1.53885E+01  1.23953E+01
   9.16531E+00  6.27031E+00  4.24415E+00  3.72525E+00  5.14105E+00  8.09679E+00  1.13868E+01  1.41148E+01  1.59524E+01  1.68947E+01
   1.69505E+01  1.64371E+01  1.59151E+01  1.57380E+01  1.58959E+01  1.62704E+01  1.68617E+01  1.75801E+01  1.83991E+01  1.91252E+01
   1.94387E+01  1.91525E+01  1.83689E+01  1.74546E+01  1.68306E+01  1.67990E+01  1.72778E+01  1.80025E+01  1.88302E+01  1.97875E+01
   2.10867E+01  2.25109E+01  2.40273E+01  2.60734E+01  3.07834E+01  3.95438E+01  4.89354E+01  5.76225E+01  6.69332E+01  7.82971E+01
   8.99469E+01  9.63584E+01  9.29275E+01  8.08349E+01  6.56965E+01  5.21690E+01  4.16174E+01  3.37043E+01  2.87179E+01  2.66634E+01
   2.57150E+01  2.51654E+01  2.48989E+01  2.48783E+01  2.50067E+01  2.51741E+01  2.52765E+01  2.52626E+01  2.51442E+01  2.49692E+01
   2.47781E+01  2.46060E+01  2.44937E+01  2.44623E+01  2.44978E+01  2.45725E+01  2.46655E+01  2.47644E+01  2.48592E+01  2.49461E+01
   2.50339E+01  2.51358E+01  2.52519E+01  2.53738E+01  2.54961E+01  2.56176E+01  2.57390E+01  2.58628E+01  2.59905E+01  2.61251E+01
   2.62717E+01  2.64333E+01  2.66064E+01  2.67877E+01  2.69739E+01  2.71638E+01  2.73561E+01  2.75516E+01  2.77527E+01  2.79631E+01
   2.81844E+01  2.84193E+01  2.86695E+01  2.89377E+01  2.92261E+01  2.95380E+01  2.98761E+01  3.02453E+01  3.06522E+01  3.11121E+01
   3.16627E+01  3.23709E+01  3.31034E+01  3.37146E+01  3.42461E+01  3.47177E+01  3.50103E+01  3.48761E+01  3.41486E+01  3.31241E+01
   3.23304E+01  3.19738E+01  3.20413E+01  3.25023E+01  3.34111E+01  3.47497E+01  3.61529E+01  3.71577E+01  3.75897E+01  3.75723E+01
   3.73377E+01  3.70512E+01  3.67320E+01  3.64095E+01  3.61564E+01  3.59450E+01  3.57198E+01  3.53950E+01  3.49096E+01  3.43562E+01
   3.38782E+01  3.35515E+01  3.33949E+01  3.34093E+01  3.36021E+01  3.39442E+01  3.43054E+01  3.45454E+01  3.46325E+01  3.46169E+01
   3.45605E+01  3.44941E+01  3.44279E+01  3.43879E+01  3.43792E+01  3.43866E+01  3.44015E+01  3.44204E+01  3.44407E+01  3.44617E+01
   3.44828E+01  3.45044E+01  3.45264E+01  3.45501E+01  3.45760E+01  3.46060E+01  3.46412E+01  3.46834E+01  3.47340E+01  3.47952E+01
   3.48686E+01  3.49567E+01  3.50612E+01  3.51847E+01  3.53288E+01  3.54960E+01  3.56881E+01  3.59072E+01  3.61544E+01  3.64308E+01
   3.67363E+01  3.70709E+01  3.74327E+01  3.78195E+01  3.82273E+01  3.86514E+01  3.90851E+01  3.95216E+01  3.99525E+01  4.03693E+01
   4.07621E+01  4.11223E+01  4.14406E+01  4.17097E+01  4.19226E+01  4.20747E+01  4.21624E+01  4.21847E+01  4.21424E+01  4.20387E+01
   4.18780E+01  4.16666E+01  4.14115E+01  4.11213E+01  4.08040E+01  4.04685E+01  4.01226E+01  3.97740E+01  3.94289E+01  3.90932E+01
   3.87710E+01  3.84661E+01  3.81805E+01  3.79156E+01  3.76717E+01  3.74492E+01  3.72469E+01  3.70642E+01  3.68992E+01  3.67507E+01
   3.66169E+01  3.64966E+01  3.63878E+01  3.62896E+01  3.62001E+01  3.61184E+01  3.60433E+01  3.59741E+01  3.59098E+01  3.58497E+01
   3.57929E+01  3.57393E+01  3.56881E+01  3.56393E+01  3.55920E+01  3.55464E+01  3.55017E+01  3.54582E+01  3.54154E+01  3.53734E+01
   3.53316E+01  3.52903E+01  3.52490E+01  3.52079E+01  3.51669E+01  3.51260E+01  3.50848E+01  3.50436E+01  3.50022E+01  3.49607E+01
   3.49190E+01  3.48772E+01  3.48350E+01  3.47926E+01  3.47499E+01  3.47072E+01  3.46641E+01  3.46208E+01  3.45772E+01  3.45334E+01
   3.44893E+01  3.44452E+01  3.44007E+01  3.43561E+01  3.43111E+01  3.42662E+01  3.42209E+01  3.41757E+01  3.41302E+01  3.40847E+01
   3.40389E+01  3.39932E+01  3.39473E+01  3.39015E+01  3.38555E+01  3.38096E+01  3.37636E+01  3.37177E+01  3.36718E+01  3.36260E+01
   3.35801E+01  3.35344E+01  3.34886E+01  3.34431E+01  3.33977E+01  3.33524E+01  3.33071E+01  3.32620E+01
 NY background values follow
    -1.320E+02   -1.309E+02   -1.299E+02   -1.289E+02   -1.279E+02   -1.268E+02   -1.258E+02   -1.248E+02   -1.237E+02   -1.227E+02
    -1.217E+02   -1.206E+02   -1.196E+02   -1.186E+02   -1.175E+02   -1.165E+02   -1.155E+02   -1.145E+02   -1.134E+02   -1.124E+02
    -1.114E+02   -1.104E+02   -1.093E+02   -1.083E+02   -1.073E+02   -1.063E+02   -1.053E+02   -1.042E+02   -1.032E+02   -1.022E+02
    -1.012E+02   -1.002E+02   -9.921E+01   -9.820E+01   -9.720E+01   -9.621E+01   -9.521E+01   -9.422E+01   -9.323E+01   -9.224E+01
    -9.126E+01   -9.028E+01   -8.930E+01   -8.832E+01   -8.735E+01   -8.638E+01   -8.542E+01   -8.445E+01   -8.349E+01   -8.254E+01
    -8.159E+01   -8.064E+01   -7.970E+01   -7.876E+01   -7.782E+01   -7.689E+01   -7.596E+01   -7.503E+01   -7.411E+01   -7.320E+01
    -7.228E+01   -7.138E+01   -7.047E+01   -6.957E+01   -6.868E+01   -6.779E+01   -6.690E+01   -6.602E+01   -6.515E+01   -6.428E+01
    -6.341E+01   -6.255E+01   -6.169E+01   -6.084E+01   -6.000E+01   -5.916E+01   -5.832E+01   -5.749E+01   -5.667E+01   -5.585E+01
    -5.504E+01   -5.423E+01   -5.343E+01   -5.263E+01   -5.184E+01   -5.105E+01   -5.028E+01   -4.950E+01   -4.874E+01   -4.798E+01
    -4.722E+01   -4.647E+01   -4.573E+01   -4.500E+01   -4.427E+01   -4.355E+01   -4.283E+01   -4.212E+01   -4.141E+01   -4.072E+01
    -4.002E+01   -3.934E+01   -3.866E+01   -3.798E+01   -3.731E+01   -3.665E+01   -3.600E+01   -3.535E+01   -3.470E+01   -3.406E+01
    -3.343E+01   -3.280E+01   -3.218E+01   -3.157E+01   -3.096E+01   -3.036E+01   -2.976E+01   -2.917E+01   -2.858E+01   -2.800E+01
    -2.742E+01   -2.685E+01   -2.629E+01   -2.573E+01   -2.518E+01   -2.463E+01   -2.409E+01   -2.355E+01   -2.302E+01   -2.249E+01
    -2.197E+01   -2.146E+01   -2.095E+01   -2.044E+01   -1.995E+01   -1.945E+01   -1.896E+01   -1.848E+01   -1.800E+01   -1.753E+01
    -1.706E+01   -1.660E+01   -1.614E+01   -1.568E+01   -1.524E+01   -1.479E+01   -1.435E+01   -1.392E+01   -1.349E+01   -1.306E+01
    -1.264E+01   -1.222E+01   -1.181E+01   -1.140E+01   -1.099E+01   -1.059E+01   -1.019E+01   -9.800E+00   -9.410E+00   -9.023E+00
    -8.641E+00   -8.262E+00   -7.887E+00   -7.515E+00   -7.146E+00   -6.781E+00   -6.418E+00   -6.059E+00   -5.704E+00   -5.351E+00
    -5.001E+00   -4.654E+00   -4.310E+00   -3.968E+00   -3.630E+00   -3.294E+00   -2.960E+00   -2.629E+00   -2.301E+00   -1.974E+00
    -1.650E+00   -1.329E+00   -1.009E+00   -6.915E-01   -3.763E-01   -6.316E-02    2.478E-01    5.566E-01    8.632E-01    1.168E+00
     1.470E+00    1.770E+00    2.068E+00    2.364E+00    2.658E+00    2.950E+00    3.239E+00    3.526E+00    3.812E+00    4.095E+00
     4.376E+00    4.655E+00    4.931E+00    5.206E+00    5.479E+00    5.749E+00    6.017E+00    6.284E+00    6.548E+00    6.810E+00
     7.070E+00    7.327E+00    7.583E+00    7.837E+00    8.088E+00    8.338E+00    8.585E+00    8.830E+00    9.074E+00    9.315E+00
     9.554E+00    9.791E+00    1.003E+01    1.026E+01    1.049E+01    1.072E+01    1.094E+01    1.117E+01    1.139E+01    1.161E+01
     1.183E+01    1.205E+01    1.226E+01    1.248E+01    1.269E+01    1.290E+01    1.310E+01    1.331E+01    1.351E+01    1.372E+01
     1.392E+01    1.412E+01    1.431E+01    1.451E+01    1.470E+01    1.490E+01    1.509E+01    1.528E+01    1.546E+01    1.565E+01
     1.584E+01    1.602E+01    1.620E+01    1.639E+01    1.657E+01    1.675E+01    1.692E+01    1.710E+01    1.728E+01    1.745E+01
     1.762E+01    1.780E+01    1.797E+01    1.814E+01    1.831E+01    1.848E+01    1.864E+01    1.881E+01    1.898E+01    1.914E+01
     1.931E+01    1.947E+01    1.963E+01    1.979E+01    1.996E+01    2.012E+01    2.028E+01    2.043E+01    2.059E+01    2.075E+01
     2.091E+01    2.106E+01    2.122E+01    2.137E+01    2.153E+01    2.168E+01    2.183E+01    2.198E+01    2.213E+01    2.228E+01
     2.243E+01    2.258E+01    2.273E+01    2.288E+01    2.302E+01    2.317E+01    2.331E+01    2.345E+01    2.360E+01    2.374E+01
     2.388E+01    2.402E+01    2.416E+01    2.430E+01    2.443E+01    2.457E+01    2.471E+01    2.484E+01    2.498E+01    2.511E+01
     2.524E+01    2.537E+01    2.550E+01    2.563E+01    2.576E+01    2.589E+01    2.602E+01    2.614E+01    2.627E+01    2.639E+01
     2.651E+01    2.664E+01    2.676E+01    2.688E+01    2.700E+01    2.712E+01    2.723E+01    2.735E+01    2.747E+01    2.758E+01
     2.770E+01    2.781E+01    2.792E+01    2.803E+01    2.814E+01    2.825E+01    2.836E+01    2.847E+01    2.858E+01    2.868E+01
     2.879E+01    2.889E+01    2.899E+01    2.910E+01    2.920E+01    2.930E+01    2.940E+01    2.950E+01    2.960E+01    2.969E+01
     2.979E+01    2.988E+01    2.998E+01    3.007E+01    3.016E+01    3.026E+01    3.035E+01    3.044E+01    3.052E+01    3.061E+01
     3.070E+01    3.079E+01    3.087E+01    3.096E+01    3.104E+01    3.112E+01    3.120E+01    3.128E+01    3.136E+01    3.144E+01
     3.152E+01    3.160E+01    3.167E+01    3.175E+01    3.182E+01    3.189E+01    3.197E+01    3.204E+01    3.211E+01    3.218E+01
     3.224E+01    3.231E+01    3.238E+01    3.244E+01    3.250E+01    3.257E+01    3.263E+01    3.269E+01    3.275E+01    3.280E+01
     3.286E+01    3.292E+01    3.297E+01    3.302E+01    3.307E+01    3.313E+01    3.318E+01    3.322E+01    3.327E+01    3.332E+01
     3.336E+01    3.340E+01    3.345E+01    3.349E+01    3.353E+01    3.356E+01    3.360E+01    3.364E+01    3.367E+01    3.370E+01
     3.374E+01    3.377E+01    3.380E+01    3.382E+01    3.385E+01    3.388E+01    3.390E+01    3.392E+01    3.394E+01    3.397E+01
     3.398E+01    3.400E+01    3.402E+01    3.403E+01    3.405E+01    3.406E+01    3.407E+01    3.408E+01    3.409E+01    3.410E+01
     3.411E+01    3.411E+01    3.412E+01    3.412E+01    3.412E+01    3.412E+01    3.412E+01    3.412E+01    3.412E+01    3.412E+01
     3.411E+01    3.411E+01    3.410E+01    3.409E+01    3.408E+01    3.407E+01    3.406E+01    3.405E+01    3.404E+01    3.402E+01
     3.400E+01    3.399E+01    3.397E+01    3.395E+01    3.393E+01    3.391E+01    3.389E+01    3.387E+01    3.384E+01    3.382E+01
     3.379E+01    3.377E+01    3.374E+01    3.371E+01    3.368E+01    3.365E+01    3.362E+01    3.359E+01    3.356E+01    3.353E+01
     3.350E+01    3.346E+01    3.343E+01    3.340E+01    3.336E+01    3.333E+01    3.329E+01    3.326E+01    3.322E+01    3.318E+01
     3.315E+01    3.311E+01    3.307E+01    3.304E+01    3.300E+01    3.296E+01    3.292E+01    3.289E+01    3.285E+01    3.281E+01
     3.277E+01    3.274E+01    3.270E+01    3.266E+01    3.263E+01    3.259E+01    3.255E+01    3.252E+01
 Ala      Conc. = 2.23E+02
