 LCModel (Version 6.3-1L) Copyright: S.W. Provencher.          Ref.: Magn. Reson. Med. 30:672-679 (1993).                
 Slice#1 Row#7 Col#10  PD_24_press_2_raw_act
 36 lines in following concentration table = NCONC+1
    Conc.  %SD /Cr+PCr  Metabolite                                         
  500.873  32%   0.526 Ala                                                 
  102.618 230%   0.108 Asp                                                 
  425.012  73%   0.446 Cr                                                  
  526.876  60%   0.554 PCr                                                 
    0.000 999%   0.000 GABA                                                
  135.216 112%   0.142 Glc                                                 
  761.701  42%   0.800 Gln                                                 
  687.178  51%   0.722 Glu                                                 
  459.841   6%   0.483 GPC                                                 
    0.000 999%   0.000 PCh                                                 
  369.372  27%   0.388 GSH                                                 
 1.39E+03  24%   1.456 Ins                                                 
  136.048 128%   0.143 Lac                                                 
 2.57E+03   7%   2.697 NAA                                                 
    9.998 999% 1.1E-02 NAAG                                                
  120.323  27%   0.126 Scyllo                                              
  458.494  48%   0.482 Tau                                                 
  654.424  20%   0.688 -CrCH2                                              
  459.841   6%   0.483 GPC+PCh                                             
 2.58E+03   5%   2.708 NAA+NAAG                                            
  951.888   8%   1.000 Cr+PCr                                              
 1.45E+03  35%   1.522 Glu+Gln                                             
 3.63E+03  26%   3.809 Lip13a                                              
    0.000 999%   0.000 Lip13b                                              
  581.105  75%   0.610 Lip09                                               
 1.96E+03  24%   2.062 MM09                                                
  376.928  80%   0.396 Lip20                                               
 3.58E+03  15%   3.759 MM20                                                
  848.662  36%   0.892 MM12                                                
 2.27E+03  25%   2.386 MM14                                                
  557.299  49%   0.585 MM17                                                
 3.63E+03  26%   3.809 Lip13a+Lip13b                                       
 6.75E+03   9%   7.086 MM14+Lip13a+Lip13b+MM12                             
 2.54E+03  10%   2.673 MM09+Lip09                                          
 3.96E+03  12%   4.155 MM20+Lip20                                          
   6 lines in following misc. output table
  FWHM = 0.054 ppm    S/N =  10                                            
  Data shift =-0.008 ppm                                                   
  Ph: -61 deg     -14.5 deg/ppm                                            
  alphaB,S = 8.5E+01,   1.0E+02                                            
   14 spline knots.   Ns = 7(1)                                            
   2 inflections.     1 extrema                                            
  498 points on ppm-axis = NY
      4.000000     3.992357     3.984714     3.977070     3.969427     3.961784     3.954141     3.946497     3.938854     3.931211
      3.923568     3.915925     3.908281     3.900638     3.892995     3.885352     3.877708     3.870065     3.862422     3.854779
      3.847136     3.839492     3.831849     3.824206     3.816563     3.808919     3.801276     3.793633     3.785990     3.778347
      3.770703     3.763060     3.755417     3.747774     3.740130     3.732487     3.724844     3.717201     3.709558     3.701914
      3.694271     3.686628     3.678985     3.671341     3.663698     3.656055     3.648412     3.640769     3.633125     3.625482
      3.617839     3.610196     3.602552     3.594909     3.587266     3.579623     3.571980     3.564336     3.556693     3.549050
      3.541407     3.533763     3.526120     3.518477     3.510834     3.503191     3.495547     3.487904     3.480261     3.472618
      3.464974     3.457331     3.449688     3.442045     3.434402     3.426758     3.419115     3.411472     3.403829     3.396185
      3.388542     3.380899     3.373256     3.365613     3.357969     3.350326     3.342683     3.335040     3.327396     3.319753
      3.312110     3.304467     3.296824     3.289180     3.281537     3.273894     3.266251     3.258607     3.250964     3.243321
      3.235678     3.228034     3.220391     3.212748     3.205105     3.197462     3.189818     3.182175     3.174532     3.166889
      3.159245     3.151602     3.143959     3.136316     3.128673     3.121029     3.113386     3.105743     3.098100     3.090456
      3.082813     3.075170     3.067527     3.059884     3.052240     3.044597     3.036954     3.029311     3.021667     3.014024
      3.006381     2.998738     2.991095     2.983451     2.975808     2.968165     2.960522     2.952878     2.945235     2.937592
      2.929949     2.922306     2.914662     2.907019     2.899376     2.891733     2.884089     2.876446     2.868803     2.861160
      2.853517     2.845873     2.838230     2.830587     2.822944     2.815300     2.807657     2.800014     2.792371     2.784728
      2.777084     2.769441     2.761798     2.754155     2.746511     2.738868     2.731225     2.723582     2.715939     2.708295
      2.700652     2.693009     2.685366     2.677722     2.670079     2.662436     2.654793     2.647150     2.639506     2.631863
      2.624220     2.616577     2.608933     2.601290     2.593647     2.586004     2.578361     2.570717     2.563074     2.555431
      2.547788     2.540144     2.532501     2.524858     2.517215     2.509572     2.501928     2.494285     2.486642     2.478999
      2.471355     2.463712     2.456069     2.448426     2.440783     2.433139     2.425496     2.417853     2.410210     2.402566
      2.394923     2.387280     2.379637     2.371994     2.364350     2.356707     2.349064     2.341421     2.333777     2.326134
      2.318491     2.310848     2.303205     2.295561     2.287918     2.280275     2.272632     2.264988     2.257345     2.249702
      2.242059     2.234416     2.226772     2.219129     2.211486     2.203843     2.196199     2.188556     2.180913     2.173270
      2.165627     2.157983     2.150340     2.142697     2.135054     2.127410     2.119767     2.112124     2.104481     2.096838
      2.089194     2.081551     2.073908     2.066265     2.058621     2.050978     2.043335     2.035692     2.028049     2.020405
      2.012762     2.005119     1.997476     1.989833     1.982190     1.974546     1.966903     1.959260     1.951617     1.943974
      1.936331     1.928688     1.921045     1.913402     1.905759     1.898115     1.890472     1.882829     1.875186     1.867543
      1.859900     1.852257     1.844614     1.836971     1.829327     1.821684     1.814041     1.806398     1.798755     1.791112
      1.783469     1.775826     1.768183     1.760540     1.752896     1.745253     1.737610     1.729967     1.722324     1.714681
      1.707038     1.699395     1.691752     1.684108     1.676465     1.668822     1.661179     1.653536     1.645893     1.638250
      1.630607     1.622964     1.615321     1.607677     1.600034     1.592391     1.584748     1.577105     1.569462     1.561819
      1.554176     1.546533     1.538890     1.531246     1.523603     1.515960     1.508317     1.500674     1.493031     1.485388
      1.477745     1.470102     1.462458     1.454815     1.447172     1.439529     1.431886     1.424243     1.416600     1.408957
      1.401314     1.393671     1.386027     1.378384     1.370741     1.363098     1.355455     1.347812     1.340169     1.332526
      1.324883     1.317240     1.309596     1.301953     1.294310     1.286667     1.279024     1.271381     1.263738     1.256095
      1.248452     1.240808     1.233165     1.225522     1.217879     1.210236     1.202593     1.194950     1.187307     1.179664
      1.172021     1.164377     1.156734     1.149091     1.141448     1.133805     1.126162     1.118519     1.110876     1.103233
      1.095590     1.087946     1.080303     1.072660     1.065017     1.057374     1.049731     1.042088     1.034445     1.026802
      1.019158     1.011515     1.003872     0.996229     0.988586     0.980943     0.973300     0.965657     0.958014     0.950371
      0.942727     0.935084     0.927441     0.919798     0.912155     0.904512     0.896869     0.889226     0.881583     0.873940
      0.866296     0.858653     0.851010     0.843367     0.835724     0.828081     0.820438     0.812795     0.805152     0.797508
      0.789865     0.782222     0.774579     0.766936     0.759293     0.751650     0.744007     0.736364     0.728721     0.721077
      0.713434     0.705791     0.698148     0.690505     0.682862     0.675219     0.667576     0.659933     0.652290     0.644646
      0.637003     0.629360     0.621717     0.614074     0.606431     0.598788     0.591145     0.583502     0.575858     0.568215
      0.560572     0.552929     0.545286     0.537643     0.530000     0.522357     0.514714     0.507071     0.499427     0.491784
      0.484141     0.476498     0.468855     0.461212     0.453569     0.445925     0.438282     0.430639     0.422996     0.415353
      0.407710     0.400067     0.392424     0.384780     0.377137     0.369494     0.361851     0.354208     0.346565     0.338922
      0.331278     0.323635     0.315992     0.308349     0.300706     0.293063     0.285420     0.277777     0.270133     0.262490
      0.254847     0.247204     0.239561     0.231918     0.224275     0.216631     0.208988     0.201345
 NY phased data points follow
  -2.94262E-01  6.06110E+00 -7.91725E-01  7.31172E+00  2.96258E+00  3.77996E+00 -1.29619E+00  9.14425E+00 -1.91600E+00  1.16393E+01
   3.86806E+00  1.49428E+01  6.24561E+00  1.31795E+01  1.85284E+00  1.29700E+01  3.60397E+00  8.52934E+00  1.50565E+00  8.64258E+00
  -2.59589E+00  4.97903E+00  8.09890E+00  1.03468E+01  1.62767E+00  5.55578E+00  5.25043E+00  6.05720E+00  3.73742E+00  8.05039E+00
   5.94925E+00  1.49054E+01  2.65244E+00  1.37161E+01  6.51177E+00  1.36050E+01  3.10622E+00  6.86932E+00  1.26370E+00  8.45438E+00
   5.29975E+00  7.73452E+00  4.18778E+00  1.18915E+01  3.95412E+00  1.38234E+01  8.84114E+00  1.02432E+01  1.09491E+01  1.58502E+01
   5.88353E+00  1.50364E+01  5.70778E+00  9.96994E+00  8.08108E+00  1.03156E+01  4.99527E+00 -2.94698E+00  3.19067E+00  5.18982E+00
   6.23739E+00  6.46593E+00  8.44861E+00  5.16393E+00  1.41292E-02  1.14833E+01 -1.39733E+00  6.94242E+00  7.01815E+00 -5.69162E-01
  -2.93855E+00  6.22322E+00  4.05100E+00 -6.07189E-01  1.75872E-01  1.62338E+00  1.04562E+01  9.68641E+00  1.73957E+00  6.68591E+00
   8.83531E+00  7.92286E+00  7.85141E+00  7.11279E+00  9.94316E-01  1.07404E+01  3.33749E+00  1.04048E+01  3.39158E+00  1.12462E+01
   3.65796E+00  8.33427E+00 -1.08153E+00  1.65277E+01  9.94993E+00  1.10512E+01  9.80414E+00  9.94689E+00  8.66001E+00  1.92321E+01
   2.75521E+01  3.28162E+01  3.54547E+01  4.11473E+01  3.93563E+01  3.93361E+01  2.79400E+01  2.64413E+01  2.08542E+01  2.03081E+01
   6.01973E+00  6.34353E+00  6.87629E+00  7.66546E+00 -5.82290E-01  1.57657E+00 -1.09395E+00  6.41398E+00  1.99354E+00  6.11287E+00
  -7.02628E-01  1.29259E+01  5.08649E+00  1.40295E+01  1.64491E+01  2.43881E+01  3.17519E+01  3.95112E+01  2.96516E+01  3.11389E+01
   2.34974E+01  1.96723E+01  1.57846E+01  8.50548E+00  8.79629E+00  5.00896E+00  7.73293E+00  7.92837E+00 -3.39220E+00 -1.30672E+00
  -6.26877E+00  3.69143E+00  4.73634E+00 -3.49501E+00 -2.36285E+00  4.98252E+00  6.19939E-01  3.99235E+00  1.16336E+01  4.64204E+00
  -6.59248E+00 -2.96305E+00 -2.99668E+00  5.15997E+00 -2.28899E-01  3.89394E+00  1.67493E+00  1.29243E+00  3.54140E+00 -4.67680E+00
   5.03968E-01  2.94484E+00  1.23936E+00 -5.04505E+00 -5.30403E+00 -7.17758E+00 -1.08021E+01 -5.38096E+00 -1.22130E+01 -1.13969E+01
  -1.15281E+01 -5.83064E+00 -1.06629E+01 -1.02436E+01 -1.19104E+01 -1.14045E+01 -9.97302E+00 -1.59651E+01 -1.25076E+01 -1.06201E+01
  -5.14323E+00 -6.66419E+00 -4.45308E+00 -4.48111E+00 -1.38727E+01  2.24632E+00 -1.27430E+01 -3.13292E+00 -1.82141E+00 -6.38303E+00
  -5.46171E-01 -2.02488E+00  1.61817E+00  8.17978E+00 -4.62362E+00 -4.22223E+00 -7.16486E+00 -4.93008E+00 -5.93115E+00  1.34251E+00
  -8.91487E-01 -3.02467E+00  3.79466E+00  7.14415E+00  9.04670E+00  8.87446E+00  5.48009E+00  1.69867E+00  1.63464E+00 -1.17557E+00
   5.57907E+00 -1.51155E+00  8.99445E+00  1.63836E+01  5.81734E+00  1.37367E+01  5.86602E+00  5.91139E+00  7.94444E+00  1.25719E+01
   9.81036E+00  7.00939E+00  2.64182E+00  8.51470E+00  3.37042E+00  1.04731E+01  1.29783E+00  7.51305E+00  6.02207E+00  7.53414E+00
   1.04797E+01  1.00222E+01  1.35917E+01  1.10041E+01  5.46729E+00  1.29624E+01  6.96386E+00  1.07107E+01  7.16854E+00  1.22973E+01
   5.46042E+00  1.01296E+01  9.27448E+00  5.05415E+00  2.60257E+00  4.89790E+00  1.43152E+01  1.05600E+01  1.55496E+01  1.21306E+01
   2.34742E+01  1.28157E+01  1.58320E+01  1.76405E+01  2.83851E+01  4.01085E+01  4.87513E+01  5.97434E+01  7.39489E+01  8.84600E+01
   9.47616E+01  9.86835E+01  7.98331E+01  6.39343E+01  4.90767E+01  3.95092E+01  2.45970E+01  1.51263E+01  2.13140E+01  1.56307E+01
   1.47358E+01  1.55206E+01  8.25377E+00  1.29667E+01  1.00073E+01  5.45271E+00  9.92354E+00  1.00859E+01  6.81052E+00  5.10777E+00
   1.55943E+00  8.46288E+00 -2.58989E+00  3.52463E+00  7.96493E+00  7.40440E+00  3.99739E+00  5.36785E+00  3.08396E-01  1.54248E+00
   4.78869E+00 -3.49355E+00  4.26264E+00  8.24503E+00  9.13369E-01 -4.21762E-01  6.37185E+00  7.78779E-01  2.94463E+00  6.41076E+00
  -1.85971E+00  6.63756E+00 -2.80794E+00  5.75628E+00  7.41794E+00  7.87423E+00  6.70298E+00  8.75765E+00  6.07896E+00  6.26549E+00
   1.46822E+00  1.22429E+01  7.12612E+00  8.79095E+00  7.56824E+00  1.06516E+01  1.12684E+01  9.27867E+00  1.20894E+01  6.62626E+00
   1.23158E+01  1.38644E+01  5.37112E+00  1.16857E+01  1.07905E+01  5.18832E+00  1.51997E+01  7.03651E+00  4.69745E+00  7.19962E+00
   1.10128E+01  8.25738E+00  1.00050E+01  1.51359E+01  1.05746E+01  2.51374E+01  1.81024E+01  1.98961E+01  2.62058E+01  2.97234E+01
   2.34061E+01  1.71165E+01  2.20724E+01  2.20631E+01  2.62243E+01  2.66289E+01  2.30682E+01  2.19245E+01  1.91693E+01  2.43043E+01
   2.25800E+01  2.04517E+01  1.89683E+01  1.68117E+01  1.17798E+01  1.92483E+01  1.99591E+01  1.71586E+01  1.72769E+01  1.46046E+01
   1.68655E+01  2.27078E+01  1.85774E+01  1.48526E+01  1.98534E+01  1.60150E+01  2.18416E+01  1.44713E+01  2.15749E+01  2.06689E+01
   1.55690E+01  1.61946E+01  1.99713E+01  2.31405E+01  1.83444E+01  1.50078E+01  1.72196E+01  2.02790E+01  1.77768E+01  1.12088E+01
   1.12431E+01  1.65590E+01  1.09581E+01  1.29420E+01  3.45000E+00  1.29032E+01  1.20509E+01  8.43794E+00  1.61338E+01  7.67666E+00
   1.05980E+01  1.31727E+01  2.00858E+01  1.55172E+01  1.36219E+01  1.86293E+01  9.94338E+00  1.05944E+01  1.62920E+01  1.46317E+01
   1.60606E+01  1.96875E+01  1.89554E+01  2.05962E+01  2.70998E+01  1.96808E+01  2.35413E+01  1.99683E+01  1.42336E+01  1.39236E+01
   2.72478E+01  2.41362E+01  1.18661E+01  1.95902E+01  1.92748E+01  1.92148E+01  1.24635E+01  2.21714E+01  1.25591E+01  8.58175E+00
   1.27600E+01  7.57100E+00  1.04950E+01  6.85481E+00  3.28800E+00  5.53377E+00  1.57572E+00  5.32931E+00  3.16171E+00  5.98087E+00
   2.94847E+00  3.71087E+00 -3.08205E-01 -2.86130E+00  1.32198E+01  3.74772E+00  6.44507E-01  2.44526E+00  5.35337E+00  4.51866E+00
   2.04363E+00  4.32397E+00  3.66422E+00  7.38129E+00  3.92001E+00  7.90272E+00  1.33128E+00 -3.62778E+00  5.91360E+00  3.53103E+00
   8.20339E+00  1.19954E+00  7.98662E+00  4.00921E+00  2.94979E+00  4.95972E+00  6.36144E+00  1.07494E+00  2.01521E+00  6.72217E-01
   2.32924E+00  5.10099E+00 -3.68714E+00  1.32872E+00  5.53734E+00 -4.79745E-01  2.47387E+00  7.99330E-01  3.46506E-02  1.16864E+00
   3.09554E-01 -1.47681E+00  4.32947E+00  1.68726E+00  1.00538E+00  4.18242E+00  1.10242E+00 -1.81843E+00  3.76289E+00  8.13424E-01
   4.79609E+00 -3.60442E+00  4.96916E+00  8.85333E+00  1.91731E+00  1.92304E+00  1.33873E+00  6.72967E+00  4.49201E+00 -8.74878E-01
   4.49464E+00  2.76860E+00 -5.37379E-01  2.53480E+00 -2.63798E+00 -8.05836E-01  1.34131E-02  4.43617E+00
 NY points of the fit to the data follow
   3.44370E+00  2.86974E+00  2.46399E+00  2.29007E+00  2.44453E+00  3.05103E+00  3.92037E+00  4.94138E+00  6.19494E+00  7.75441E+00
   9.43513E+00  1.07459E+01  1.11828E+01  1.06446E+01  9.47876E+00  8.16208E+00  6.97245E+00  5.99721E+00  5.21465E+00  4.67613E+00
   4.36973E+00  4.23559E+00  4.08322E+00  4.01303E+00  4.05667E+00  4.24792E+00  4.78353E+00  5.84106E+00  7.45589E+00  9.33691E+00
   1.09816E+01  1.19156E+01  1.19230E+01  1.10966E+01  9.70409E+00  7.99713E+00  6.34135E+00  4.99153E+00  3.98838E+00  3.43506E+00
   3.39452E+00  3.93842E+00  5.02478E+00  6.43686E+00  8.00637E+00  9.58502E+00  1.09855E+01  1.18718E+01  1.18544E+01  1.08000E+01
   8.99630E+00  6.95066E+00  5.14014E+00  3.83864E+00  3.07656E+00  2.82982E+00  3.05513E+00  3.64456E+00  4.37750E+00  5.02775E+00
   5.43908E+00  5.47942E+00  5.16317E+00  4.62226E+00  4.04024E+00  3.63332E+00  3.49190E+00  3.55376E+00  3.80596E+00  4.26499E+00
   4.82642E+00  5.39625E+00  5.87928E+00  6.18555E+00  6.25679E+00  6.08950E+00  5.69593E+00  5.09284E+00  4.45251E+00  4.09851E+00
   4.20476E+00  4.66689E+00  5.32987E+00  6.05906E+00  6.76538E+00  7.30695E+00  7.38940E+00  6.81396E+00  5.70045E+00  4.44459E+00
   3.43083E+00  2.78851E+00  2.48054E+00  2.41049E+00  2.57963E+00  3.25454E+00  5.19564E+00  8.88942E+00  1.36863E+01  1.91837E+01
   2.53206E+01  3.19039E+01  3.80217E+01  4.19777E+01  4.21623E+01  3.82960E+01  3.17816E+01  2.46131E+01  1.80363E+01  1.24228E+01
   7.93182E+00  4.61044E+00  2.63261E+00  2.01586E+00  1.85717E+00  1.82966E+00  1.86615E+00  1.98426E+00  2.22215E+00  2.77411E+00
   4.34954E+00  7.21826E+00  1.09274E+01  1.52638E+01  2.01557E+01  2.52877E+01  2.98139E+01  3.24437E+01  3.21262E+01  2.89194E+01
   2.40615E+01  1.89282E+01  1.41996E+01  1.00618E+01  6.59547E+00  3.85755E+00  2.20816E+00  1.59929E+00  1.49734E+00  1.70739E+00
   2.08028E+00  2.45572E+00  2.72126E+00  2.83669E+00  2.77881E+00  2.57626E+00  2.28986E+00  1.95795E+00  1.61707E+00  1.31349E+00
   1.05724E+00  8.64215E-01  7.16255E-01  5.73053E-01  3.65367E-01  1.08567E-01 -1.72173E-01 -4.61163E-01 -7.36256E-01 -1.03576E+00
  -1.30112E+00 -1.40534E+00 -1.28977E+00 -1.04956E+00 -8.91643E-01 -9.70760E-01 -1.29110E+00 -1.75092E+00 -2.24744E+00 -2.79033E+00
  -3.37727E+00 -3.89536E+00 -4.31654E+00 -4.66417E+00 -4.94924E+00 -5.13175E+00 -5.11123E+00 -4.88832E+00 -4.61422E+00 -4.48028E+00
  -4.53568E+00 -4.58485E+00 -4.47405E+00 -4.20374E+00 -3.82216E+00 -3.33158E+00 -2.60286E+00 -1.54854E+00 -2.61818E-01  1.02311E+00
   2.00883E+00  2.51195E+00  2.54610E+00  2.22796E+00  1.71748E+00  1.17366E+00  7.46954E-01  6.47215E-01  1.00390E+00  1.84375E+00
   3.04231E+00  4.32600E+00  5.34621E+00  5.72686E+00  5.37428E+00  4.33034E+00  2.69820E+00  7.40464E-01 -1.10107E+00 -2.35479E+00
  -2.73051E+00 -2.19562E+00 -8.90108E-01  8.89214E-01  2.78019E+00  4.37979E+00  5.30560E+00  5.43826E+00  4.94107E+00  4.02631E+00
   3.06406E+00  2.35891E+00  2.07896E+00  2.39306E+00  3.22862E+00  4.34376E+00  5.44385E+00  6.32972E+00  6.91575E+00  7.15447E+00
   7.16402E+00  7.12421E+00  7.16741E+00  7.40526E+00  7.90038E+00  8.58748E+00  9.34941E+00  1.00931E+01  1.06718E+01  1.09487E+01
   1.08856E+01  1.05796E+01  1.02205E+01  1.00144E+01  1.01216E+01  1.05442E+01  1.12307E+01  1.20829E+01  1.29831E+01  1.38677E+01
   1.47446E+01  1.56780E+01  1.72301E+01  2.15796E+01  2.90786E+01  3.85584E+01  4.96510E+01  6.23152E+01  7.57026E+01  8.73083E+01
   9.34354E+01  9.14005E+01  8.17451E+01  6.80354E+01  5.38927E+01  4.10517E+01  3.01139E+01  2.14045E+01  1.48892E+01  1.13783E+01
   9.93079E+00  9.04240E+00  8.37873E+00  7.85299E+00  7.40836E+00  6.99573E+00  6.60074E+00  6.21679E+00  5.84459E+00  5.48745E+00
   5.15246E+00  4.84580E+00  4.57651E+00  4.34993E+00  4.16270E+00  4.00848E+00  3.88434E+00  3.78880E+00  3.72185E+00  3.68270E+00
   3.67021E+00  3.68470E+00  3.72634E+00  3.79405E+00  3.88649E+00  4.00096E+00  4.13506E+00  4.28561E+00  4.44992E+00  4.62495E+00
   4.80755E+00  4.99362E+00  5.17972E+00  5.36211E+00  5.53824E+00  5.70566E+00  5.86336E+00  6.01089E+00  6.14965E+00  6.28208E+00
   6.41265E+00  6.54649E+00  6.69065E+00  6.85306E+00  7.04402E+00  7.27577E+00  7.56465E+00  7.93327E+00  8.42250E+00  9.12301E+00
   1.00871E+01  1.11062E+01  1.20502E+01  1.28709E+01  1.34704E+01  1.36498E+01  1.31584E+01  1.19283E+01  1.04109E+01  9.16649E+00
   8.58310E+00  8.80944E+00  9.86772E+00  1.17421E+01  1.42572E+01  1.70036E+01  1.94811E+01  2.11993E+01  2.21716E+01  2.26480E+01
   2.28409E+01  2.28644E+01  2.27503E+01  2.25288E+01  2.23711E+01  2.22485E+01  2.20262E+01  2.16105E+01  2.10302E+01  2.04148E+01
   1.98960E+01  1.95701E+01  1.94718E+01  1.96015E+01  1.99295E+01  2.03619E+01  2.07685E+01  2.10216E+01  2.10492E+01  2.08972E+01
   2.06212E+01  2.02549E+01  1.98243E+01  1.93420E+01  1.88455E+01  1.83608E+01  1.78687E+01  1.73605E+01  1.68356E+01  1.62964E+01
   1.57477E+01  1.51949E+01  1.46450E+01  1.41044E+01  1.35804E+01  1.30798E+01  1.26097E+01  1.21769E+01  1.17880E+01  1.14489E+01
   1.11655E+01  1.09430E+01  1.07865E+01  1.07006E+01  1.06893E+01  1.07558E+01  1.09027E+01  1.11315E+01  1.14430E+01  1.18359E+01
   1.23077E+01  1.28534E+01  1.34663E+01  1.41371E+01  1.48545E+01  1.56043E+01  1.63705E+01  1.71348E+01  1.78784E+01  1.85809E+01
   1.92229E+01  1.97848E+01  2.02494E+01  2.06014E+01  2.08293E+01  2.09247E+01  2.08837E+01  2.07060E+01  2.03962E+01  1.99619E+01
   1.94151E+01  1.87696E+01  1.80419E+01  1.72492E+01  1.64094E+01  1.55399E+01  1.46575E+01  1.37772E+01  1.29122E+01  1.20734E+01
   1.12699E+01  1.05081E+01  9.79287E+00  9.12665E+00  8.51066E+00  7.94430E+00  7.42643E+00  6.95467E+00  6.52648E+00  6.13846E+00
   5.78749E+00  5.47000E+00  5.18304E+00  4.92331E+00  4.68816E+00  4.47464E+00  4.28056E+00  4.10353E+00  3.94194E+00  3.79386E+00
   3.65800E+00  3.53275E+00  3.41719E+00  3.31011E+00  3.21092E+00  3.11858E+00  3.03262E+00  2.95215E+00  2.87690E+00  2.80623E+00
   2.73998E+00  2.67752E+00  2.61871E+00  2.56302E+00  2.51045E+00  2.46058E+00  2.41345E+00  2.36857E+00  2.32598E+00  2.28529E+00
   2.24664E+00  2.20969E+00  2.17455E+00  2.14083E+00  2.10864E+00  2.07768E+00  2.04815E+00  2.01975E+00  1.99260E+00  1.96635E+00
   1.94120E+00  1.91688E+00  1.89360E+00  1.87108E+00  1.84946E+00  1.82843E+00  1.80822E+00  1.78859E+00  1.76975E+00  1.75140E+00
   1.73370E+00  1.71639E+00  1.69971E+00  1.68343E+00  1.66775E+00  1.65237E+00  1.63746E+00  1.62280E+00  1.60863E+00  1.59471E+00
   1.58122E+00  1.56788E+00  1.55487E+00  1.54198E+00  1.52945E+00  1.51702E+00  1.50486E+00  1.49268E+00
 NY background values follow
    -1.875E+00   -1.871E+00   -1.868E+00   -1.864E+00   -1.861E+00   -1.857E+00   -1.853E+00   -1.850E+00   -1.846E+00   -1.843E+00
    -1.839E+00   -1.835E+00   -1.832E+00   -1.828E+00   -1.825E+00   -1.821E+00   -1.817E+00   -1.814E+00   -1.810E+00   -1.807E+00
    -1.803E+00   -1.799E+00   -1.796E+00   -1.792E+00   -1.788E+00   -1.785E+00   -1.781E+00   -1.778E+00   -1.774E+00   -1.770E+00
    -1.767E+00   -1.763E+00   -1.759E+00   -1.756E+00   -1.752E+00   -1.749E+00   -1.745E+00   -1.741E+00   -1.738E+00   -1.734E+00
    -1.730E+00   -1.727E+00   -1.723E+00   -1.720E+00   -1.716E+00   -1.712E+00   -1.709E+00   -1.705E+00   -1.701E+00   -1.698E+00
    -1.694E+00   -1.690E+00   -1.687E+00   -1.683E+00   -1.680E+00   -1.676E+00   -1.672E+00   -1.669E+00   -1.665E+00   -1.661E+00
    -1.658E+00   -1.654E+00   -1.650E+00   -1.647E+00   -1.643E+00   -1.639E+00   -1.636E+00   -1.632E+00   -1.628E+00   -1.625E+00
    -1.621E+00   -1.618E+00   -1.614E+00   -1.610E+00   -1.607E+00   -1.603E+00   -1.599E+00   -1.596E+00   -1.592E+00   -1.588E+00
    -1.585E+00   -1.581E+00   -1.577E+00   -1.574E+00   -1.570E+00   -1.566E+00   -1.563E+00   -1.559E+00   -1.555E+00   -1.552E+00
    -1.548E+00   -1.544E+00   -1.541E+00   -1.537E+00   -1.533E+00   -1.530E+00   -1.526E+00   -1.522E+00   -1.518E+00   -1.515E+00
    -1.511E+00   -1.507E+00   -1.504E+00   -1.500E+00   -1.496E+00   -1.493E+00   -1.489E+00   -1.485E+00   -1.482E+00   -1.478E+00
    -1.474E+00   -1.471E+00   -1.467E+00   -1.463E+00   -1.460E+00   -1.456E+00   -1.452E+00   -1.448E+00   -1.445E+00   -1.441E+00
    -1.437E+00   -1.434E+00   -1.430E+00   -1.426E+00   -1.423E+00   -1.419E+00   -1.415E+00   -1.412E+00   -1.408E+00   -1.404E+00
    -1.400E+00   -1.397E+00   -1.393E+00   -1.389E+00   -1.386E+00   -1.382E+00   -1.378E+00   -1.374E+00   -1.371E+00   -1.367E+00
    -1.363E+00   -1.360E+00   -1.356E+00   -1.352E+00   -1.349E+00   -1.345E+00   -1.341E+00   -1.337E+00   -1.334E+00   -1.330E+00
    -1.326E+00   -1.323E+00   -1.319E+00   -1.315E+00   -1.311E+00   -1.308E+00   -1.304E+00   -1.300E+00   -1.297E+00   -1.293E+00
    -1.289E+00   -1.285E+00   -1.282E+00   -1.278E+00   -1.274E+00   -1.270E+00   -1.267E+00   -1.263E+00   -1.259E+00   -1.256E+00
    -1.252E+00   -1.248E+00   -1.244E+00   -1.241E+00   -1.237E+00   -1.233E+00   -1.230E+00   -1.226E+00   -1.222E+00   -1.218E+00
    -1.215E+00   -1.211E+00   -1.207E+00   -1.203E+00   -1.200E+00   -1.196E+00   -1.192E+00   -1.188E+00   -1.185E+00   -1.181E+00
    -1.177E+00   -1.174E+00   -1.170E+00   -1.166E+00   -1.162E+00   -1.159E+00   -1.155E+00   -1.151E+00   -1.147E+00   -1.144E+00
    -1.140E+00   -1.136E+00   -1.132E+00   -1.129E+00   -1.125E+00   -1.121E+00   -1.117E+00   -1.114E+00   -1.110E+00   -1.106E+00
    -1.103E+00   -1.099E+00   -1.095E+00   -1.091E+00   -1.088E+00   -1.084E+00   -1.080E+00   -1.076E+00   -1.073E+00   -1.069E+00
    -1.065E+00   -1.061E+00   -1.058E+00   -1.054E+00   -1.050E+00   -1.046E+00   -1.043E+00   -1.039E+00   -1.035E+00   -1.031E+00
    -1.028E+00   -1.024E+00   -1.020E+00   -1.016E+00   -1.013E+00   -1.009E+00   -1.005E+00   -1.001E+00   -9.976E-01   -9.938E-01
    -9.901E-01   -9.863E-01   -9.826E-01   -9.788E-01   -9.750E-01   -9.713E-01   -9.675E-01   -9.638E-01   -9.600E-01   -9.563E-01
    -9.525E-01   -9.488E-01   -9.450E-01   -9.413E-01   -9.375E-01   -9.337E-01   -9.300E-01   -9.262E-01   -9.225E-01   -9.187E-01
    -9.150E-01   -9.112E-01   -9.074E-01   -9.037E-01   -8.999E-01   -8.962E-01   -8.924E-01   -8.887E-01   -8.849E-01   -8.811E-01
    -8.774E-01   -8.736E-01   -8.699E-01   -8.661E-01   -8.623E-01   -8.586E-01   -8.548E-01   -8.511E-01   -8.473E-01   -8.435E-01
    -8.398E-01   -8.360E-01   -8.323E-01   -8.285E-01   -8.247E-01   -8.210E-01   -8.172E-01   -8.135E-01   -8.097E-01   -8.059E-01
    -8.022E-01   -7.984E-01   -7.946E-01   -7.909E-01   -7.871E-01   -7.834E-01   -7.796E-01   -7.758E-01   -7.721E-01   -7.683E-01
    -7.646E-01   -7.608E-01   -7.570E-01   -7.533E-01   -7.495E-01   -7.457E-01   -7.420E-01   -7.382E-01   -7.345E-01   -7.307E-01
    -7.269E-01   -7.232E-01   -7.194E-01   -7.156E-01   -7.119E-01   -7.081E-01   -7.044E-01   -7.006E-01   -6.968E-01   -6.931E-01
    -6.893E-01   -6.855E-01   -6.818E-01   -6.780E-01   -6.743E-01   -6.705E-01   -6.667E-01   -6.630E-01   -6.592E-01   -6.554E-01
    -6.517E-01   -6.479E-01   -6.442E-01   -6.404E-01   -6.366E-01   -6.329E-01   -6.291E-01   -6.254E-01   -6.216E-01   -6.178E-01
    -6.141E-01   -6.103E-01   -6.065E-01   -6.028E-01   -5.990E-01   -5.953E-01   -5.915E-01   -5.877E-01   -5.840E-01   -5.802E-01
    -5.765E-01   -5.727E-01   -5.689E-01   -5.652E-01   -5.614E-01   -5.577E-01   -5.539E-01   -5.501E-01   -5.464E-01   -5.426E-01
    -5.389E-01   -5.351E-01   -5.314E-01   -5.276E-01   -5.238E-01   -5.201E-01   -5.163E-01   -5.126E-01   -5.088E-01   -5.050E-01
    -5.013E-01   -4.975E-01   -4.938E-01   -4.900E-01   -4.863E-01   -4.825E-01   -4.788E-01   -4.750E-01   -4.712E-01   -4.675E-01
    -4.637E-01   -4.600E-01   -4.562E-01   -4.525E-01   -4.487E-01   -4.450E-01   -4.412E-01   -4.375E-01   -4.337E-01   -4.300E-01
    -4.262E-01   -4.224E-01   -4.187E-01   -4.149E-01   -4.112E-01   -4.074E-01   -4.037E-01   -3.999E-01   -3.962E-01   -3.924E-01
    -3.887E-01   -3.849E-01   -3.812E-01   -3.774E-01   -3.737E-01   -3.700E-01   -3.662E-01   -3.625E-01   -3.587E-01   -3.550E-01
    -3.512E-01   -3.475E-01   -3.437E-01   -3.400E-01   -3.362E-01   -3.325E-01   -3.287E-01   -3.250E-01   -3.213E-01   -3.175E-01
    -3.138E-01   -3.100E-01   -3.063E-01   -3.026E-01   -2.988E-01   -2.951E-01   -2.913E-01   -2.876E-01   -2.839E-01   -2.801E-01
    -2.764E-01   -2.726E-01   -2.689E-01   -2.652E-01   -2.614E-01   -2.577E-01   -2.539E-01   -2.502E-01   -2.465E-01   -2.427E-01
    -2.390E-01   -2.353E-01   -2.315E-01   -2.278E-01   -2.241E-01   -2.203E-01   -2.166E-01   -2.129E-01   -2.092E-01   -2.054E-01
    -2.017E-01   -1.980E-01   -1.942E-01   -1.905E-01   -1.868E-01   -1.830E-01   -1.793E-01   -1.756E-01   -1.719E-01   -1.681E-01
    -1.644E-01   -1.607E-01   -1.570E-01   -1.532E-01   -1.495E-01   -1.458E-01   -1.421E-01   -1.384E-01   -1.346E-01   -1.309E-01
    -1.272E-01   -1.235E-01   -1.198E-01   -1.160E-01   -1.123E-01   -1.086E-01   -1.049E-01   -1.012E-01   -9.746E-02   -9.375E-02
    -9.003E-02   -8.632E-02   -8.261E-02   -7.890E-02   -7.518E-02   -7.147E-02   -6.776E-02   -6.405E-02   -6.034E-02   -5.664E-02
    -5.293E-02   -4.922E-02   -4.551E-02   -4.181E-02   -3.810E-02   -3.440E-02   -3.069E-02   -2.699E-02
 Ala      Conc. = 5.01E+02
