 LCModel (Version 6.3-1L) Copyright: S.W. Provencher.          Ref.: Magn. Reson. Med. 30:672-679 (1993).                
 Slice#1 Row#7 Col#8  PD_24_press_2_raw_act
 36 lines in following concentration table = NCONC+1
    Conc.  %SD /Cr+PCr  Metabolite                                         
  610.035  35%   0.416 Ala                                                 
    0.000 999%   0.000 Asp                                                 
  939.734  32%   0.640 Cr                                                  
  528.422  58%   0.360 PCr                                                 
   98.558 193% 6.7E-02 GABA                                                
   88.855 210% 6.1E-02 Glc                                                 
  615.409  69%   0.419 Gln                                                 
 2.09E+03  23%   1.422 Glu                                                 
  460.566   8%   0.314 GPC                                                 
    0.000 999%   0.000 PCh                                                 
  639.314  20%   0.435 GSH                                                 
 2.14E+03  20%   1.459 Ins                                                 
  568.577  41%   0.387 Lac                                                 
 2.61E+03   8%   1.775 NAA                                                 
  458.052  48%   0.312 NAAG                                                
   75.905  54% 5.2E-02 Scyllo                                              
    0.000 999%   0.000 Tau                                                 
    0.000 999%   0.000 -CrCH2                                              
  460.566   8%   0.314 GPC+PCh                                             
 3.06E+03   5%   2.087 NAA+NAAG                                            
 1.47E+03   7%   1.000 Cr+PCr                                              
 2.70E+03  26%   1.841 Glu+Gln                                             
  926.878  78%   0.631 Lip13a                                              
    0.000 999%   0.000 Lip13b                                              
    0.000 999%   0.000 Lip09                                               
 3.16E+03  11%   2.150 MM09                                                
   77.260 336% 5.3E-02 Lip20                                               
 3.86E+03  17%   2.628 MM20                                                
 1.42E+03  21%   0.970 MM12                                                
 3.97E+03  17%   2.704 MM14                                                
 1.91E+03  22%   1.304 MM17                                                
  926.878  78%   0.631 Lip13a+Lip13b                                       
 6.32E+03  10%   4.306 MM14+Lip13a+Lip13b+MM12                             
 3.16E+03  11%   2.150 MM09+Lip09                                          
 3.94E+03  16%   2.681 MM20+Lip20                                          
   6 lines in following misc. output table
  FWHM = 0.054 ppm    S/N =   8                                            
  Data shift = 0.008 ppm                                                   
  Ph: -12 deg       7.6 deg/ppm                                            
  alphaB,S = 4.1E+00,   1.1E+02                                            
   14 spline knots.   Ns = 7(1)                                            
  ( 9) 2 infls.   ( 5) 1 extrs.                                            
  498 points on ppm-axis = NY
      4.000000     3.992357     3.984714     3.977070     3.969427     3.961784     3.954141     3.946497     3.938854     3.931211
      3.923568     3.915925     3.908281     3.900638     3.892995     3.885352     3.877708     3.870065     3.862422     3.854779
      3.847136     3.839492     3.831849     3.824206     3.816563     3.808919     3.801276     3.793633     3.785990     3.778347
      3.770703     3.763060     3.755417     3.747774     3.740130     3.732487     3.724844     3.717201     3.709558     3.701914
      3.694271     3.686628     3.678985     3.671341     3.663698     3.656055     3.648412     3.640769     3.633125     3.625482
      3.617839     3.610196     3.602552     3.594909     3.587266     3.579623     3.571980     3.564336     3.556693     3.549050
      3.541407     3.533763     3.526120     3.518477     3.510834     3.503191     3.495547     3.487904     3.480261     3.472618
      3.464974     3.457331     3.449688     3.442045     3.434402     3.426758     3.419115     3.411472     3.403829     3.396185
      3.388542     3.380899     3.373256     3.365613     3.357969     3.350326     3.342683     3.335040     3.327396     3.319753
      3.312110     3.304467     3.296824     3.289180     3.281537     3.273894     3.266251     3.258607     3.250964     3.243321
      3.235678     3.228034     3.220391     3.212748     3.205105     3.197462     3.189818     3.182175     3.174532     3.166889
      3.159245     3.151602     3.143959     3.136316     3.128673     3.121029     3.113386     3.105743     3.098100     3.090456
      3.082813     3.075170     3.067527     3.059884     3.052240     3.044597     3.036954     3.029311     3.021667     3.014024
      3.006381     2.998738     2.991095     2.983451     2.975808     2.968165     2.960522     2.952878     2.945235     2.937592
      2.929949     2.922306     2.914662     2.907019     2.899376     2.891733     2.884089     2.876446     2.868803     2.861160
      2.853517     2.845873     2.838230     2.830587     2.822944     2.815300     2.807657     2.800014     2.792371     2.784728
      2.777084     2.769441     2.761798     2.754155     2.746511     2.738868     2.731225     2.723582     2.715939     2.708295
      2.700652     2.693009     2.685366     2.677722     2.670079     2.662436     2.654793     2.647150     2.639506     2.631863
      2.624220     2.616577     2.608933     2.601290     2.593647     2.586004     2.578361     2.570717     2.563074     2.555431
      2.547788     2.540144     2.532501     2.524858     2.517215     2.509572     2.501928     2.494285     2.486642     2.478999
      2.471355     2.463712     2.456069     2.448426     2.440783     2.433139     2.425496     2.417853     2.410210     2.402566
      2.394923     2.387280     2.379637     2.371994     2.364350     2.356707     2.349064     2.341421     2.333777     2.326134
      2.318491     2.310848     2.303205     2.295561     2.287918     2.280275     2.272632     2.264988     2.257345     2.249702
      2.242059     2.234416     2.226772     2.219129     2.211486     2.203843     2.196199     2.188556     2.180913     2.173270
      2.165627     2.157983     2.150340     2.142697     2.135054     2.127410     2.119767     2.112124     2.104481     2.096838
      2.089194     2.081551     2.073908     2.066265     2.058621     2.050978     2.043335     2.035692     2.028049     2.020405
      2.012762     2.005119     1.997476     1.989833     1.982190     1.974546     1.966903     1.959260     1.951617     1.943974
      1.936331     1.928688     1.921045     1.913402     1.905759     1.898115     1.890472     1.882829     1.875186     1.867543
      1.859900     1.852257     1.844614     1.836971     1.829327     1.821684     1.814041     1.806398     1.798755     1.791112
      1.783469     1.775826     1.768183     1.760540     1.752896     1.745253     1.737610     1.729967     1.722324     1.714681
      1.707038     1.699395     1.691752     1.684108     1.676465     1.668822     1.661179     1.653536     1.645893     1.638250
      1.630607     1.622964     1.615321     1.607677     1.600034     1.592391     1.584748     1.577105     1.569462     1.561819
      1.554176     1.546533     1.538890     1.531246     1.523603     1.515960     1.508317     1.500674     1.493031     1.485388
      1.477745     1.470102     1.462458     1.454815     1.447172     1.439529     1.431886     1.424243     1.416600     1.408957
      1.401314     1.393671     1.386027     1.378384     1.370741     1.363098     1.355455     1.347812     1.340169     1.332526
      1.324883     1.317240     1.309596     1.301953     1.294310     1.286667     1.279024     1.271381     1.263738     1.256095
      1.248452     1.240808     1.233165     1.225522     1.217879     1.210236     1.202593     1.194950     1.187307     1.179664
      1.172021     1.164377     1.156734     1.149091     1.141448     1.133805     1.126162     1.118519     1.110876     1.103233
      1.095590     1.087946     1.080303     1.072660     1.065017     1.057374     1.049731     1.042088     1.034445     1.026802
      1.019158     1.011515     1.003872     0.996229     0.988586     0.980943     0.973300     0.965657     0.958014     0.950371
      0.942727     0.935084     0.927441     0.919798     0.912155     0.904512     0.896869     0.889226     0.881583     0.873940
      0.866296     0.858653     0.851010     0.843367     0.835724     0.828081     0.820438     0.812795     0.805152     0.797508
      0.789865     0.782222     0.774579     0.766936     0.759293     0.751650     0.744007     0.736364     0.728721     0.721077
      0.713434     0.705791     0.698148     0.690505     0.682862     0.675219     0.667576     0.659933     0.652290     0.644646
      0.637003     0.629360     0.621717     0.614074     0.606431     0.598788     0.591145     0.583502     0.575858     0.568215
      0.560572     0.552929     0.545286     0.537643     0.530000     0.522357     0.514714     0.507071     0.499427     0.491784
      0.484141     0.476498     0.468855     0.461212     0.453569     0.445925     0.438282     0.430639     0.422996     0.415353
      0.407710     0.400067     0.392424     0.384780     0.377137     0.369494     0.361851     0.354208     0.346565     0.338922
      0.331278     0.323635     0.315992     0.308349     0.300706     0.293063     0.285420     0.277777     0.270133     0.262490
      0.254847     0.247204     0.239561     0.231918     0.224275     0.216631     0.208988     0.201345
 NY phased data points follow
   3.27377E+01  2.63046E+01  2.06990E+01  2.47077E+01  3.20625E+01  4.10742E+01  2.70603E+01  4.19349E+01  3.95346E+01  4.92539E+01
   3.72970E+01  5.03242E+01  4.08110E+01  3.69989E+01  3.51097E+01  3.02600E+01  3.55062E+01  2.43333E+01  3.61595E+01  3.16295E+01
   2.24774E+01  3.25932E+01  2.76218E+01  3.09272E+01  3.11179E+01  2.14116E+01  2.54073E+01  3.36203E+01  2.82881E+01  2.35690E+01
   1.93053E+01  2.09626E+01  1.97269E+01  2.70750E+01  2.59576E+01  2.15352E+01  2.50021E+01  1.70820E+01  2.07465E+01  1.61252E+01
   1.19549E+01  2.21155E+01  2.02933E+01  2.60977E+01  2.10237E+01  3.58401E+01  3.13534E+01  3.30646E+01  2.08070E+01  1.35371E+01
   2.11367E+01  2.07942E+01  1.64473E+01  2.07396E+01  1.91633E+01  1.80196E+01  2.25324E+01  2.38495E+01  1.50910E+01  1.71447E+01
   1.87370E+01  1.93724E+01  1.68028E+01  1.93616E+01  4.91279E+00  1.58430E+01  5.31712E+00  7.46023E+00  2.20113E+01  1.90468E+01
   3.05299E+00  1.02859E+01  1.30857E+01  1.48331E+01  7.34954E+00  1.30612E+01  1.46679E+01  1.47394E+01  4.31440E+00  1.21181E+01
  -8.02012E-01  5.81115E+00  1.73983E+01  7.36509E+00  1.01605E+01  1.46174E+01  1.62808E+01  6.54693E+00  8.81210E+00  1.26998E+01
   2.13080E+01  1.04251E+01  1.00490E+01  8.94374E+00  1.67219E+01  2.09195E+01  8.64708E+00  1.40569E+01  2.13696E+01  1.71918E+01
   3.48064E+01  4.39349E+01  5.07110E+01  5.41754E+01  4.85791E+01  3.56625E+01  2.61661E+01  2.42563E+01  2.47873E+01  2.06618E+01
   1.05984E+01  2.58063E+01  3.02131E+00  2.88632E+00  1.28205E+01  1.54782E+00  7.54472E+00  1.13054E+01  9.98361E+00  6.32673E+00
   7.60628E+00  1.71329E+01  1.39265E+01  2.44172E+01  3.15201E+01  5.27942E+01  5.35411E+01  6.01596E+01  5.08763E+01  5.03587E+01
   3.73686E+01  3.65322E+01  3.69360E+01  3.00318E+01  1.05243E+01  1.78448E+01  1.11794E+01  1.48138E+01  1.49607E+01  1.22212E+01
   1.67870E+01  1.44807E+01  8.15509E+00  1.38701E+01  5.53819E+00  1.27175E+01  7.53368E+00  1.24899E+01  1.37104E+01 -3.87449E+00
   1.03332E+01  4.26034E+00  1.01141E+01  1.07072E+01  4.26528E+00  1.98163E+00  1.01389E+00  7.64379E+00  1.52525E+01  2.67278E+00
   6.60475E+00  2.57224E+00  1.09225E+01  2.56157E+00  9.00768E+00 -3.32319E+00 -1.18300E+00  3.73626E-01 -6.38609E+00 -3.42664E+00
  -1.69510E+00  4.49444E+00 -7.12984E-01 -2.87555E-01 -7.36529E+00 -1.04512E+01 -1.82283E+01  3.73883E+00 -7.40535E+00 -4.58876E+00
  -9.65596E+00 -1.06741E+01 -9.34546E+00  3.77526E-02  3.58358E-01 -6.23729E+00 -2.53779E-01 -2.83747E-01 -1.37970E+00 -5.10313E-01
   3.64090E+00  5.88081E+00  9.52746E+00  8.12449E+00  1.48821E+00 -5.47165E+00 -6.43068E-01 -8.31445E+00 -8.11880E+00 -8.40357E-01
  -8.14867E+00  6.41167E+00  4.95972E-01  1.20913E+01  2.06511E+01  3.73076E+00  9.67141E+00 -6.20570E+00 -4.66599E+00  8.16269E+00
   1.52335E+01  3.94408E+00  8.72894E+00  1.31273E+01  1.72276E+01  4.07601E+00  1.59849E+01  1.37925E+01  9.56041E-01  6.28447E+00
  -6.70059E+00 -6.70402E-01 -4.17838E+00  5.24753E+00  4.30404E+00  1.75017E+01  1.08105E+01  1.59652E+01  1.02571E+01  1.73727E+01
   1.48989E+01  1.57297E+01  1.41216E+01  9.88330E+00  1.08301E+01  7.35451E+00  3.92194E+00  1.17688E+01  1.85333E+01  6.57722E+00
   1.51312E+01  1.07362E+01  1.02814E+01  2.28275E+00  1.23926E+01  1.49638E+01  2.07489E+01  1.91381E+01  2.75495E+01  2.24554E+01
   1.85601E+01  2.46983E+01  2.33188E+01  4.30284E+01  4.45751E+01  5.39396E+01  5.60169E+01  7.70770E+01  9.43980E+01  1.21194E+02
   1.02362E+02  1.01210E+02  9.07395E+01  6.69883E+01  4.57353E+01  3.95678E+01  2.79777E+01  1.84613E+01  2.00632E+01  1.52455E+01
   1.85572E+00  1.06151E+01  1.83092E+00  5.84613E+00  9.14276E+00  6.73951E+00  2.57343E+00  3.40598E-01  5.38800E+00  5.26826E+00
   1.17778E+01  1.00880E+01 -3.40608E+00  3.93884E+00  3.68568E+00  1.02605E+01  1.83154E+01  8.04412E+00  1.26326E+01  3.22885E+00
   9.41148E+00 -2.91801E+00  2.69878E+00  9.26492E+00  4.78521E+00  1.13950E+01  9.10783E+00  1.31273E+01  9.11938E+00  9.18623E+00
   1.72082E+01  1.65711E+01  1.99759E+01  1.61494E+01  1.56953E+01  1.90502E+01  1.33354E+01  2.57851E+01  5.44332E+00  1.25412E+01
   5.14628E+00  6.54550E+00  2.20811E+01  1.50762E+01  9.68721E+00  9.91412E+00  2.15865E+01  1.50211E+01  2.77671E+01  1.13470E+01
   1.91554E+01  1.57213E+01  9.47197E+00  1.57285E+01  1.30536E+01  1.70818E+01  1.57406E+01  1.51315E+01  1.65232E+01  1.61744E+01
   9.76639E+00  1.04629E+01  1.78178E+01  2.24656E+01  2.64096E+01  3.21314E+01  2.58555E+01  3.83427E+01  2.11731E+01  3.90806E+01
   2.57702E+01  2.09841E+01  2.73196E+01  2.57758E+01  3.62107E+01  2.41128E+01  3.50639E+01  1.88645E+01  2.00449E+01  8.51479E+00
   6.93486E+00  1.06726E+01  1.17596E+01  1.03762E+01  1.45289E+01  1.64569E+01  8.99079E+00  1.17199E+01  8.46530E+00  1.89093E+01
   2.77649E+00  1.35544E+01  1.51766E+01  1.15252E+01  1.17788E+01  8.43661E+00  1.68947E+01  1.82360E+01  2.20860E+01  1.30984E+01
   2.23359E+01  1.82058E+01  1.51698E+01  1.70201E+01  1.34890E+01  1.89108E+01  1.01126E+01  1.64571E+01  9.59469E+00  1.51699E+01
   1.59078E+01  8.31953E+00  1.41671E+01  1.03459E+01  3.06585E+00  1.80268E+01  4.56105E+00  6.04786E+00  1.50209E+01  1.35970E+01
   1.38044E+01  1.36304E+01  1.22149E+01  9.41462E+00  1.47933E+00  2.03112E+01  2.43191E+01  2.41333E+01  9.78281E+00  1.45053E+01
   2.65267E+01  2.27720E+01  2.45856E+01  1.73673E+01  3.17174E+01  1.90515E+01  3.31668E+01  1.61126E+01  2.14841E+01  1.81239E+01
   1.15103E+01  2.22577E+01  6.56182E+00  9.73546E+00  1.26993E+01  9.31251E+00  9.73274E+00 -6.77218E+00  1.77087E+00  1.83718E+00
   1.80709E+01 -4.25909E+00  2.94881E+00  3.77395E+00 -6.42050E-02  4.55009E+00  6.19907E-01 -7.51114E+00  4.66503E+00 -1.14646E+00
  -1.31053E+00  6.16592E+00  9.80092E-01  5.02312E+00  4.23969E+00 -1.18863E+00 -1.48526E+00 -4.78697E+00  2.32941E+00  2.31259E+00
  -9.12345E+00 -7.30722E+00 -1.68535E+00 -2.32737E+00  1.90752E+00 -2.56088E+00  3.56730E+00 -2.50397E+00 -3.55600E+00 -4.66713E+00
  -6.03075E+00  2.46935E+00 -3.24993E+00 -8.74082E+00  8.42466E+00  5.78297E+00 -5.35479E+00  7.13577E-01 -7.90404E-01 -1.60755E-01
  -2.98880E-03 -1.10306E+01 -5.74906E+00  6.84693E+00 -6.25748E+00  5.64169E-01 -3.00721E+00  2.19761E+00 -2.50280E+00  2.54734E+00
  -4.08420E+00 -4.21217E+00 -1.53562E+00 -2.00963E+00  1.08621E+00 -2.57250E+00 -1.14616E+01 -2.93694E+00 -3.29551E+00 -1.17558E+01
  -1.73156E+00 -7.13494E+00 -2.98164E+00 -4.69326E+00 -6.33662E+00 -4.89461E+00 -3.42720E-01 -9.98636E+00 -9.79387E+00  1.61278E+00
   5.67590E-02 -1.49904E-01 -1.38495E+00  3.69329E+00 -2.50605E+00 -4.74991E+00 -1.00811E+01 -4.83945E+00
 NY points of the fit to the data follow
   1.95931E+01  1.94468E+01  2.01834E+01  2.15759E+01  2.36945E+01  2.71509E+01  3.16757E+01  3.62977E+01  4.05146E+01  4.39846E+01
   4.60486E+01  4.59109E+01  4.34752E+01  3.94954E+01  3.49257E+01  3.05721E+01  2.69455E+01  2.42173E+01  2.24169E+01  2.11014E+01
   1.99401E+01  1.93338E+01  1.95857E+01  2.01301E+01  2.06019E+01  2.15427E+01  2.34627E+01  2.60133E+01  2.83179E+01  2.98621E+01
   3.05631E+01  3.02508E+01  2.88506E+01  2.67408E+01  2.42430E+01  2.15800E+01  1.90780E+01  1.70925E+01  1.60546E+01  1.59655E+01
   1.66906E+01  1.81997E+01  2.03529E+01  2.31399E+01  2.62840E+01  2.88958E+01  2.99114E+01  2.88271E+01  2.60948E+01  2.27483E+01
   1.95942E+01  1.71759E+01  1.57089E+01  1.49683E+01  1.46598E+01  1.48241E+01  1.56575E+01  1.68943E+01  1.78818E+01  1.81683E+01
   1.76948E+01  1.66166E+01  1.53174E+01  1.41922E+01  1.35621E+01  1.35073E+01  1.37977E+01  1.42491E+01  1.48319E+01  1.54468E+01
   1.59403E+01  1.61676E+01  1.60863E+01  1.57735E+01  1.53308E+01  1.48609E+01  1.44432E+01  1.40718E+01  1.37512E+01  1.35001E+01
   1.33385E+01  1.31941E+01  1.30475E+01  1.28548E+01  1.24409E+01  1.16777E+01  1.06856E+01  9.79214E+00  9.28416E+00  9.30680E+00
   9.75329E+00  1.03818E+01  1.09592E+01  1.13405E+01  1.15044E+01  1.17279E+01  1.30870E+01  1.61846E+01  2.05865E+01  2.69250E+01
   3.53861E+01  4.41037E+01  4.99042E+01  5.06877E+01  4.68030E+01  4.01983E+01  3.30019E+01  2.67919E+01  2.19869E+01  1.81094E+01
   1.46600E+01  1.16019E+01  9.75608E+00  9.39639E+00  9.44126E+00  9.55519E+00  9.68618E+00  9.87329E+00  1.02128E+01  1.09853E+01
   1.29180E+01  1.66450E+01  2.20429E+01  2.91190E+01  3.80394E+01  4.75840E+01  5.50517E+01  5.79222E+01  5.56783E+01  4.97753E+01
   4.22313E+01  3.46464E+01  2.78066E+01  2.17302E+01  1.63569E+01  1.19307E+01  9.19035E+00  8.51781E+00  9.06301E+00  9.76002E+00
   1.01906E+01  1.02902E+01  1.01766E+01  9.90331E+00  9.51923E+00  9.09908E+00  8.62944E+00  8.08484E+00  7.52666E+00  6.99385E+00
   6.54870E+00  6.18507E+00  5.92528E+00  5.76887E+00  5.63138E+00  5.48547E+00  5.27964E+00  4.92132E+00  4.42655E+00  3.88683E+00
   3.52700E+00  3.51613E+00  3.74671E+00  3.90357E+00  3.73983E+00  3.23989E+00  2.56022E+00  1.90756E+00  1.41522E+00  1.02969E+00
   5.96147E-01  9.67077E-02 -5.10299E-01 -1.14933E+00 -1.59999E+00 -1.70443E+00 -1.48565E+00 -1.20395E+00 -1.11263E+00 -1.24116E+00
  -1.46348E+00 -1.52937E+00 -1.30704E+00 -8.57941E-01 -1.96043E-01  7.82210E-01  2.21630E+00  4.08037E+00  5.98982E+00  7.44272E+00
   8.03502E+00  7.75546E+00  6.93450E+00  5.92040E+00  5.00055E+00  4.41046E+00  4.26276E+00  4.66537E+00  5.58142E+00  6.87143E+00
   8.32417E+00  9.73222E+00  1.07165E+01  1.08220E+01  9.94960E+00  8.21557E+00  5.76517E+00  3.13568E+00  1.14193E+00  5.10569E-01
   1.25051E+00  3.25504E+00  6.31264E+00  9.66857E+00  1.20642E+01  1.24853E+01  1.08311E+01  7.81105E+00  4.11796E+00  4.27154E-01
  -2.18684E+00 -2.91888E+00 -1.78056E+00  6.48101E-01  3.55396E+00  6.38295E+00  8.47972E+00  9.63961E+00  1.01408E+01  1.04123E+01
   1.08193E+01  1.13562E+01  1.19799E+01  1.27187E+01  1.34179E+01  1.37361E+01  1.34684E+01  1.28226E+01  1.21183E+01  1.14716E+01
   1.09999E+01  1.10674E+01  1.18417E+01  1.30763E+01  1.43972E+01  1.55277E+01  1.63525E+01  1.68186E+01  1.72511E+01  1.83387E+01
   2.02070E+01  2.28350E+01  2.66243E+01  3.33512E+01  4.30431E+01  5.35147E+01  6.58268E+01  8.11702E+01  9.67177E+01  1.06741E+02
   1.07255E+02  9.86795E+01  8.43963E+01  6.85172E+01  5.44361E+01  4.34049E+01  3.43065E+01  2.59391E+01  1.82907E+01  1.32517E+01
   1.13931E+01  1.05712E+01  1.01058E+01  9.78250E+00  9.42280E+00  8.97055E+00  8.46433E+00  7.93752E+00  7.42779E+00  6.97294E+00
   6.59349E+00  6.28859E+00  6.06635E+00  5.93205E+00  5.87023E+00  5.87053E+00  5.93010E+00  6.05663E+00  6.26368E+00  6.55778E+00
   6.93727E+00  7.39503E+00  7.91600E+00  8.48683E+00  9.09361E+00  9.72768E+00  1.03808E+01  1.10434E+01  1.17061E+01  1.23537E+01
   1.29656E+01  1.35248E+01  1.40118E+01  1.44072E+01  1.46992E+01  1.48836E+01  1.49614E+01  1.49380E+01  1.48214E+01  1.46281E+01
   1.43785E+01  1.40958E+01  1.38062E+01  1.35378E+01  1.33194E+01  1.31808E+01  1.31536E+01  1.32743E+01  1.35952E+01  1.42209E+01
   1.52611E+01  1.64776E+01  1.77730E+01  1.91176E+01  2.01334E+01  2.02438E+01  1.91609E+01  1.71928E+01  1.52287E+01  1.39048E+01
   1.34565E+01  1.41156E+01  1.59820E+01  1.87921E+01  2.19099E+01  2.47095E+01  2.68812E+01  2.81324E+01  2.85884E+01  2.86898E+01
   2.88139E+01  2.89338E+01  2.87782E+01  2.83516E+01  2.77573E+01  2.66276E+01  2.44147E+01  2.11250E+01  1.75103E+01  1.43231E+01
   1.19385E+01  1.07062E+01  1.08015E+01  1.19839E+01  1.36461E+01  1.51728E+01  1.63061E+01  1.69002E+01  1.68887E+01  1.65699E+01
   1.61663E+01  1.57083E+01  1.51307E+01  1.43856E+01  1.36857E+01  1.31724E+01  1.27481E+01  1.23591E+01  1.19828E+01  1.16091E+01
   1.12346E+01  1.08600E+01  1.04889E+01  1.01274E+01  9.78308E+00  9.46467E+00  9.18178E+00  8.94436E+00  8.76242E+00  8.64572E+00
   8.60351E+00  8.64424E+00  8.77518E+00  9.00216E+00  9.32930E+00  9.75868E+00  1.02900E+01  1.09202E+01  1.16433E+01  1.24498E+01
   1.33273E+01  1.42599E+01  1.52284E+01  1.62111E+01  1.71837E+01  1.81206E+01  1.89955E+01  1.97828E+01  2.04579E+01  2.09991E+01
   2.13882E+01  2.16113E+01  2.16597E+01  2.15303E+01  2.12252E+01  2.07521E+01  2.01233E+01  1.93556E+01  1.84687E+01  1.74847E+01
   1.64269E+01  1.53184E+01  1.41817E+01  1.30377E+01  1.19051E+01  1.07998E+01  9.73479E+00  8.72016E+00  7.76315E+00  6.86838E+00
   6.03808E+00  5.27251E+00  4.57028E+00  3.92883E+00  3.34474E+00  2.81403E+00  2.33236E+00  1.89529E+00  1.49842E+00  1.13762E+00
   8.09031E-01  5.09071E-01  2.34472E-01 -1.77201E-02 -2.50113E-01 -4.64963E-01 -6.64245E-01 -8.49715E-01 -1.02294E+00 -1.18528E+00
  -1.33790E+00 -1.48176E+00 -1.61775E+00 -1.74665E+00 -1.86917E+00 -1.98594E+00 -2.09746E+00 -2.20417E+00 -2.30647E+00 -2.40476E+00
  -2.49941E+00 -2.59070E+00 -2.67885E+00 -2.76409E+00 -2.84663E+00 -2.92671E+00 -3.00451E+00 -3.08019E+00 -3.15386E+00 -3.22565E+00
  -3.29569E+00 -3.36413E+00 -3.43107E+00 -3.49658E+00 -3.56073E+00 -3.62359E+00 -3.68528E+00 -3.74588E+00 -3.80546E+00 -3.86403E+00
  -3.92163E+00 -3.97835E+00 -4.03424E+00 -4.08938E+00 -4.14377E+00 -4.19743E+00 -4.25040E+00 -4.30275E+00 -4.35454E+00 -4.40580E+00
  -4.45651E+00 -4.50670E+00 -4.55642E+00 -4.60571E+00 -4.65462E+00 -4.70316E+00 -4.75133E+00 -4.79914E+00 -4.84664E+00 -4.89390E+00
  -4.94094E+00 -4.98775E+00 -5.03434E+00 -5.08074E+00 -5.12703E+00 -5.17325E+00 -5.21942E+00 -5.26554E+00
 NY background values follow
     1.216E+01    1.211E+01    1.206E+01    1.201E+01    1.196E+01    1.191E+01    1.186E+01    1.181E+01    1.176E+01    1.171E+01
     1.166E+01    1.161E+01    1.156E+01    1.151E+01    1.146E+01    1.141E+01    1.137E+01    1.132E+01    1.127E+01    1.122E+01
     1.117E+01    1.112E+01    1.107E+01    1.102E+01    1.097E+01    1.092E+01    1.087E+01    1.082E+01    1.077E+01    1.072E+01
     1.067E+01    1.062E+01    1.057E+01    1.052E+01    1.047E+01    1.042E+01    1.037E+01    1.032E+01    1.027E+01    1.022E+01
     1.017E+01    1.013E+01    1.008E+01    1.003E+01    9.976E+00    9.927E+00    9.877E+00    9.828E+00    9.778E+00    9.729E+00
     9.679E+00    9.630E+00    9.580E+00    9.531E+00    9.481E+00    9.432E+00    9.382E+00    9.333E+00    9.284E+00    9.234E+00
     9.185E+00    9.135E+00    9.086E+00    9.037E+00    8.988E+00    8.938E+00    8.889E+00    8.840E+00    8.791E+00    8.741E+00
     8.692E+00    8.643E+00    8.594E+00    8.545E+00    8.496E+00    8.447E+00    8.398E+00    8.349E+00    8.300E+00    8.251E+00
     8.202E+00    8.154E+00    8.105E+00    8.056E+00    8.007E+00    7.959E+00    7.910E+00    7.862E+00    7.813E+00    7.764E+00
     7.716E+00    7.668E+00    7.619E+00    7.571E+00    7.522E+00    7.474E+00    7.426E+00    7.378E+00    7.330E+00    7.282E+00
     7.234E+00    7.186E+00    7.138E+00    7.090E+00    7.042E+00    6.994E+00    6.946E+00    6.898E+00    6.851E+00    6.803E+00
     6.756E+00    6.708E+00    6.661E+00    6.613E+00    6.566E+00    6.518E+00    6.471E+00    6.424E+00    6.377E+00    6.330E+00
     6.283E+00    6.235E+00    6.189E+00    6.142E+00    6.095E+00    6.048E+00    6.001E+00    5.954E+00    5.908E+00    5.861E+00
     5.815E+00    5.768E+00    5.722E+00    5.675E+00    5.629E+00    5.583E+00    5.537E+00    5.491E+00    5.445E+00    5.399E+00
     5.353E+00    5.307E+00    5.261E+00    5.215E+00    5.169E+00    5.124E+00    5.078E+00    5.033E+00    4.987E+00    4.942E+00
     4.897E+00    4.851E+00    4.806E+00    4.761E+00    4.716E+00    4.671E+00    4.626E+00    4.581E+00    4.537E+00    4.492E+00
     4.447E+00    4.403E+00    4.358E+00    4.314E+00    4.270E+00    4.225E+00    4.181E+00    4.137E+00    4.093E+00    4.049E+00
     4.005E+00    3.962E+00    3.918E+00    3.874E+00    3.831E+00    3.787E+00    3.744E+00    3.701E+00    3.658E+00    3.614E+00
     3.571E+00    3.528E+00    3.486E+00    3.443E+00    3.400E+00    3.357E+00    3.315E+00    3.272E+00    3.230E+00    3.188E+00
     3.146E+00    3.104E+00    3.062E+00    3.020E+00    2.978E+00    2.936E+00    2.894E+00    2.853E+00    2.811E+00    2.770E+00
     2.728E+00    2.687E+00    2.646E+00    2.605E+00    2.564E+00    2.523E+00    2.482E+00    2.441E+00    2.400E+00    2.360E+00
     2.319E+00    2.279E+00    2.238E+00    2.198E+00    2.158E+00    2.117E+00    2.077E+00    2.037E+00    1.997E+00    1.958E+00
     1.918E+00    1.878E+00    1.838E+00    1.799E+00    1.759E+00    1.720E+00    1.681E+00    1.641E+00    1.602E+00    1.563E+00
     1.524E+00    1.485E+00    1.446E+00    1.408E+00    1.369E+00    1.330E+00    1.292E+00    1.253E+00    1.215E+00    1.176E+00
     1.138E+00    1.100E+00    1.062E+00    1.024E+00    9.858E-01    9.479E-01    9.101E-01    8.724E-01    8.347E-01    7.971E-01
     7.595E-01    7.221E-01    6.847E-01    6.474E-01    6.101E-01    5.730E-01    5.359E-01    4.988E-01    4.619E-01    4.250E-01
     3.882E-01    3.514E-01    3.148E-01    2.782E-01    2.416E-01    2.052E-01    1.688E-01    1.325E-01    9.620E-02    6.002E-02
     2.391E-02   -1.213E-02   -4.810E-02   -8.400E-02   -1.198E-01   -1.556E-01   -1.913E-01   -2.269E-01   -2.625E-01   -2.980E-01
    -3.334E-01   -3.688E-01   -4.041E-01   -4.393E-01   -4.745E-01   -5.096E-01   -5.446E-01   -5.796E-01   -6.145E-01   -6.493E-01
    -6.841E-01   -7.188E-01   -7.535E-01   -7.881E-01   -8.226E-01   -8.571E-01   -8.915E-01   -9.259E-01   -9.602E-01   -9.944E-01
    -1.029E+00   -1.063E+00   -1.097E+00   -1.131E+00   -1.165E+00   -1.199E+00   -1.232E+00   -1.266E+00   -1.300E+00   -1.333E+00
    -1.367E+00   -1.401E+00   -1.434E+00   -1.468E+00   -1.501E+00   -1.534E+00   -1.568E+00   -1.601E+00   -1.634E+00   -1.667E+00
    -1.700E+00   -1.733E+00   -1.766E+00   -1.799E+00   -1.832E+00   -1.865E+00   -1.897E+00   -1.930E+00   -1.963E+00   -1.995E+00
    -2.028E+00   -2.060E+00   -2.093E+00   -2.125E+00   -2.158E+00   -2.190E+00   -2.222E+00   -2.255E+00   -2.287E+00   -2.319E+00
    -2.351E+00   -2.383E+00   -2.415E+00   -2.447E+00   -2.479E+00   -2.511E+00   -2.543E+00   -2.574E+00   -2.606E+00   -2.638E+00
    -2.670E+00   -2.701E+00   -2.733E+00   -2.764E+00   -2.796E+00   -2.827E+00   -2.859E+00   -2.890E+00   -2.922E+00   -2.953E+00
    -2.984E+00   -3.016E+00   -3.047E+00   -3.078E+00   -3.109E+00   -3.140E+00   -3.172E+00   -3.203E+00   -3.234E+00   -3.265E+00
    -3.296E+00   -3.327E+00   -3.357E+00   -3.388E+00   -3.419E+00   -3.450E+00   -3.481E+00   -3.511E+00   -3.542E+00   -3.573E+00
    -3.603E+00   -3.634E+00   -3.665E+00   -3.695E+00   -3.726E+00   -3.756E+00   -3.787E+00   -3.817E+00   -3.847E+00   -3.878E+00
    -3.908E+00   -3.938E+00   -3.969E+00   -3.999E+00   -4.029E+00   -4.059E+00   -4.090E+00   -4.120E+00   -4.150E+00   -4.180E+00
    -4.210E+00   -4.240E+00   -4.270E+00   -4.300E+00   -4.330E+00   -4.360E+00   -4.390E+00   -4.420E+00   -4.449E+00   -4.479E+00
    -4.509E+00   -4.539E+00   -4.568E+00   -4.598E+00   -4.628E+00   -4.657E+00   -4.687E+00   -4.717E+00   -4.746E+00   -4.776E+00
    -4.805E+00   -4.835E+00   -4.864E+00   -4.894E+00   -4.923E+00   -4.953E+00   -4.982E+00   -5.012E+00   -5.041E+00   -5.070E+00
    -5.100E+00   -5.129E+00   -5.158E+00   -5.187E+00   -5.217E+00   -5.246E+00   -5.275E+00   -5.304E+00   -5.333E+00   -5.363E+00
    -5.392E+00   -5.421E+00   -5.450E+00   -5.479E+00   -5.508E+00   -5.537E+00   -5.566E+00   -5.595E+00   -5.624E+00   -5.653E+00
    -5.682E+00   -5.711E+00   -5.740E+00   -5.769E+00   -5.798E+00   -5.827E+00   -5.856E+00   -5.885E+00   -5.913E+00   -5.942E+00
    -5.971E+00   -6.000E+00   -6.029E+00   -6.057E+00   -6.086E+00   -6.115E+00   -6.144E+00   -6.172E+00   -6.201E+00   -6.230E+00
    -6.259E+00   -6.287E+00   -6.316E+00   -6.345E+00   -6.373E+00   -6.402E+00   -6.431E+00   -6.459E+00   -6.488E+00   -6.516E+00
    -6.545E+00   -6.574E+00   -6.602E+00   -6.631E+00   -6.659E+00   -6.688E+00   -6.716E+00   -6.745E+00   -6.773E+00   -6.802E+00
    -6.830E+00   -6.859E+00   -6.887E+00   -6.916E+00   -6.944E+00   -6.973E+00   -7.001E+00   -7.030E+00
 Ala      Conc. = 6.10E+02
