 LCModel (Version 6.3-1L) Copyright: S.W. Provencher.          Ref.: Magn. Reson. Med. 30:672-679 (1993).                
 Slice#3 Row#2 Col#12  PD_24_press_2_raw_act
 36 lines in following concentration table = NCONC+1
    Conc.  %SD /Cr+PCr  Metabolite                                         
    0.000 999%   0.000 Ala                                                 
    8.483  99%   0.945 Asp                                                 
    8.981 173%   1.000 Cr                                                  
    0.000 999%   0.000 PCr                                                 
    4.870 103%   0.542 GABA                                                
    5.304  95%   0.591 Glc                                                 
   16.760 249%   1.866 Gln                                                 
   60.109  93%   6.693 Glu                                                 
   13.497 211%   1.503 GPC                                                 
    7.249 391%   0.807 PCh                                                 
    7.206 245%   0.802 GSH                                                 
   33.255 178%   3.703 Ins                                                 
    0.000 999%   0.000 Lac                                                 
   46.268  56%   5.152 NAA                                                 
   54.079  52%   6.021 NAAG                                                
    1.647 101%   0.183 Scyllo                                              
    9.858  84%   1.098 Tau                                                 
    1.855 333%   0.206 -CrCH2                                              
   20.746  56%   2.310 GPC+PCh                                             
  100.347  48%  11.173 NAA+NAAG                                            
    8.981 173%   1.000 Cr+PCr                                              
   76.870  86%   8.559 Glu+Gln                                             
 7.88E+03   7% 877.466 Lip13a                                              
    0.000 999%   0.000 Lip13b                                              
 1.73E+03  14% 192.399 Lip09                                               
    0.000 999%   0.000 MM09                                                
 1.04E+03  16% 115.698 Lip20                                               
    0.000 999%   0.000 MM20                                                
    0.434 999% 4.8E-02 MM12                                                
   15.977 282%   1.779 MM14                                                
    0.000 999%   0.000 MM17                                                
 7.88E+03   7% 877.466 Lip13a+Lip13b                                       
 7.90E+03   7% 879.293 MM14+Lip13a+Lip13b+MM12                             
 1.73E+03  14% 192.399 MM09+Lip09                                          
 1.04E+03  16% 115.698 MM20+Lip20                                          
   6 lines in following misc. output table
  FWHM = 0.023 ppm    S/N =   3                                            
  Data shift = 0.000 ppm                                                   
  Ph: -46 deg      52.5 deg/ppm                                            
  alphaB,S = 8.5E+01,   1.6E+00                                            
   14 spline knots.   Ns = 5(1)                                            
  ( 4) 2 infls.   ( 2) 2 extrs.                                            
  498 points on ppm-axis = NY
      4.000000     3.992357     3.984714     3.977070     3.969427     3.961784     3.954141     3.946497     3.938854     3.931211
      3.923568     3.915925     3.908281     3.900638     3.892995     3.885352     3.877708     3.870065     3.862422     3.854779
      3.847136     3.839492     3.831849     3.824206     3.816563     3.808919     3.801276     3.793633     3.785990     3.778347
      3.770703     3.763060     3.755417     3.747774     3.740130     3.732487     3.724844     3.717201     3.709558     3.701914
      3.694271     3.686628     3.678985     3.671341     3.663698     3.656055     3.648412     3.640769     3.633125     3.625482
      3.617839     3.610196     3.602552     3.594909     3.587266     3.579623     3.571980     3.564336     3.556693     3.549050
      3.541407     3.533763     3.526120     3.518477     3.510834     3.503191     3.495547     3.487904     3.480261     3.472618
      3.464974     3.457331     3.449688     3.442045     3.434402     3.426758     3.419115     3.411472     3.403829     3.396185
      3.388542     3.380899     3.373256     3.365613     3.357969     3.350326     3.342683     3.335040     3.327396     3.319753
      3.312110     3.304467     3.296824     3.289180     3.281537     3.273894     3.266251     3.258607     3.250964     3.243321
      3.235678     3.228034     3.220391     3.212748     3.205105     3.197462     3.189818     3.182175     3.174532     3.166889
      3.159245     3.151602     3.143959     3.136316     3.128673     3.121029     3.113386     3.105743     3.098100     3.090456
      3.082813     3.075170     3.067527     3.059884     3.052240     3.044597     3.036954     3.029311     3.021667     3.014024
      3.006381     2.998738     2.991095     2.983451     2.975808     2.968165     2.960522     2.952878     2.945235     2.937592
      2.929949     2.922306     2.914662     2.907019     2.899376     2.891733     2.884089     2.876446     2.868803     2.861160
      2.853517     2.845873     2.838230     2.830587     2.822944     2.815300     2.807657     2.800014     2.792371     2.784728
      2.777084     2.769441     2.761798     2.754155     2.746511     2.738868     2.731225     2.723582     2.715939     2.708295
      2.700652     2.693009     2.685366     2.677722     2.670079     2.662436     2.654793     2.647150     2.639506     2.631863
      2.624220     2.616577     2.608933     2.601290     2.593647     2.586004     2.578361     2.570717     2.563074     2.555431
      2.547788     2.540144     2.532501     2.524858     2.517215     2.509572     2.501928     2.494285     2.486642     2.478999
      2.471355     2.463712     2.456069     2.448426     2.440783     2.433139     2.425496     2.417853     2.410210     2.402566
      2.394923     2.387280     2.379637     2.371994     2.364350     2.356707     2.349064     2.341421     2.333777     2.326134
      2.318491     2.310848     2.303205     2.295561     2.287918     2.280275     2.272632     2.264988     2.257345     2.249702
      2.242059     2.234416     2.226772     2.219129     2.211486     2.203843     2.196199     2.188556     2.180913     2.173270
      2.165627     2.157983     2.150340     2.142697     2.135054     2.127410     2.119767     2.112124     2.104481     2.096838
      2.089194     2.081551     2.073908     2.066265     2.058621     2.050978     2.043335     2.035692     2.028049     2.020405
      2.012762     2.005119     1.997476     1.989833     1.982190     1.974546     1.966903     1.959260     1.951617     1.943974
      1.936331     1.928688     1.921045     1.913402     1.905759     1.898115     1.890472     1.882829     1.875186     1.867543
      1.859900     1.852257     1.844614     1.836971     1.829327     1.821684     1.814041     1.806398     1.798755     1.791112
      1.783469     1.775826     1.768183     1.760540     1.752896     1.745253     1.737610     1.729967     1.722324     1.714681
      1.707038     1.699395     1.691752     1.684108     1.676465     1.668822     1.661179     1.653536     1.645893     1.638250
      1.630607     1.622964     1.615321     1.607677     1.600034     1.592391     1.584748     1.577105     1.569462     1.561819
      1.554176     1.546533     1.538890     1.531246     1.523603     1.515960     1.508317     1.500674     1.493031     1.485388
      1.477745     1.470102     1.462458     1.454815     1.447172     1.439529     1.431886     1.424243     1.416600     1.408957
      1.401314     1.393671     1.386027     1.378384     1.370741     1.363098     1.355455     1.347812     1.340169     1.332526
      1.324883     1.317240     1.309596     1.301953     1.294310     1.286667     1.279024     1.271381     1.263738     1.256095
      1.248452     1.240808     1.233165     1.225522     1.217879     1.210236     1.202593     1.194950     1.187307     1.179664
      1.172021     1.164377     1.156734     1.149091     1.141448     1.133805     1.126162     1.118519     1.110876     1.103233
      1.095590     1.087946     1.080303     1.072660     1.065017     1.057374     1.049731     1.042088     1.034445     1.026802
      1.019158     1.011515     1.003872     0.996229     0.988586     0.980943     0.973300     0.965657     0.958014     0.950371
      0.942727     0.935084     0.927441     0.919798     0.912155     0.904512     0.896869     0.889226     0.881583     0.873940
      0.866296     0.858653     0.851010     0.843367     0.835724     0.828081     0.820438     0.812795     0.805152     0.797508
      0.789865     0.782222     0.774579     0.766936     0.759293     0.751650     0.744007     0.736364     0.728721     0.721077
      0.713434     0.705791     0.698148     0.690505     0.682862     0.675219     0.667576     0.659933     0.652290     0.644646
      0.637003     0.629360     0.621717     0.614074     0.606431     0.598788     0.591145     0.583502     0.575858     0.568215
      0.560572     0.552929     0.545286     0.537643     0.530000     0.522357     0.514714     0.507071     0.499427     0.491784
      0.484141     0.476498     0.468855     0.461212     0.453569     0.445925     0.438282     0.430639     0.422996     0.415353
      0.407710     0.400067     0.392424     0.384780     0.377137     0.369494     0.361851     0.354208     0.346565     0.338922
      0.331278     0.323635     0.315992     0.308349     0.300706     0.293063     0.285420     0.277777     0.270133     0.262490
      0.254847     0.247204     0.239561     0.231918     0.224275     0.216631     0.208988     0.201345
 NY phased data points follow
   6.17096E+00 -3.87594E+00 -2.30538E+00  4.92442E+00  3.95977E+00  6.92079E+00  5.52246E+00  5.35453E-01 -2.58692E+00  5.94737E+00
   4.84234E+00  6.89449E-01  4.89417E+00  3.85756E+00  4.60827E+00 -1.39553E+00  8.50554E+00  6.28751E+00  3.15011E+00  1.25216E+01
   9.56497E+00 -5.89219E+00  9.96656E+00  6.89526E-01  4.51023E+00  5.00853E+00  4.53977E+00  6.94649E+00  2.45901E+00  5.76009E+00
  -4.75053E+00  5.51018E+00  4.29899E+00  7.89064E-01  1.55318E+00 -1.77899E+00  3.01926E+00  2.42815E+00  7.53444E+00  3.43862E-01
   1.03560E+01  7.87066E+00  3.79531E+00  3.76619E+00  4.25745E+00  5.89912E+00  1.72568E+00  2.41887E+00  2.39642E+00  6.25090E+00
  -3.28877E+00  3.16119E+00 -2.38332E+00  1.61787E+00  2.35181E+00 -1.36628E+00  4.07796E+00  1.60319E+00  6.89406E+00  7.15597E+00
   7.02793E+00 -1.41456E+00  5.47926E+00  5.37499E+00  5.28539E+00  3.12290E-01  4.78060E+00  7.27693E+00  2.94275E+00 -3.45227E+00
   4.10615E+00  4.45111E+00  3.97729E+00  8.54618E+00  1.25391E-01  8.91776E+00  6.18616E+00  2.40609E+00 -9.79177E-01 -1.11339E+00
  -1.20589E-01  1.45384E+00  4.54517E+00  1.66765E+00  3.39424E+00 -3.57559E+00  4.82853E+00  4.28815E+00  1.18005E+00  8.73110E-01
   4.45577E+00  4.07887E+00  5.88100E-02 -4.65416E+00  6.40293E+00 -5.00888E+00  2.91332E+00 -2.53087E+00 -1.20401E+00  1.33677E+00
   2.78612E+00  4.69909E+00  7.38732E+00  1.34933E+01  3.43210E+00  2.69137E+00 -1.97585E+00 -2.63820E+00 -2.39512E+00 -4.71802E+00
   4.63522E-01  3.33799E+00  7.80008E-01 -7.53617E+00 -2.84688E+00  5.58757E-01 -4.15458E+00  2.25535E-02 -3.95465E+00  1.14196E+00
  -1.85637E+00  3.19051E-01 -4.76890E-02 -9.16986E+00 -1.27495E+00  5.27967E+00  1.45782E+00  2.56295E+00  1.04437E+00  1.36341E+00
   2.46100E+00  3.86537E-01  1.16448E+00 -1.39245E+00 -5.51584E+00  1.36512E-01  6.01788E+00 -2.66606E+00  6.62667E-01 -1.47440E+00
   3.51454E-02 -2.48724E+00  1.66465E+00  2.78571E-01  2.86457E+00 -7.98763E-01  3.93710E+00  1.02944E+00 -2.79667E+00  1.61148E+00
  -2.67960E+00  1.45143E+00  9.49774E-01  4.00089E-01  2.14260E-01  2.29027E+00 -1.80141E+00  3.82429E-01  5.52819E+00 -7.41803E+00
  -3.93468E+00  4.70109E+00 -1.50403E+00 -1.10280E-01  1.99008E+00  1.29043E+00  1.93149E+00 -2.70023E+00  1.96549E+00 -1.21569E+00
  -3.34356E+00 -6.15732E+00 -3.11124E+00  5.54180E+00 -2.40950E+00 -6.17720E-01  3.92410E+00  9.27382E-01  9.72988E-01  2.57449E+00
   5.84397E+00 -6.16310E+00  3.74935E+00 -3.70693E+00 -8.95219E-01  3.98165E+00 -5.93383E-01  3.21725E+00  7.22500E-01 -2.76273E-01
   2.25308E+00  1.35013E+00  1.66983E+00 -4.65909E+00 -3.62443E+00  3.88688E+00 -3.97057E+00 -4.29532E+00 -5.28972E+00 -6.04473E-01
  -9.62982E+00 -2.13413E+00 -2.08174E+00  4.44836E+00 -3.05016E+00 -5.02249E+00  3.79159E-01 -7.85164E+00 -2.26256E+00 -6.49446E+00
  -3.13084E+00 -1.28238E+00 -6.02029E+00 -9.38495E-02 -2.79712E+00  1.28745E+00 -2.15330E+00  1.13715E+00  1.71468E-01 -4.49215E+00
  -9.21622E-01 -4.25313E+00 -7.21796E+00 -5.15748E+00 -7.96714E+00 -6.40348E-02 -1.05658E+01 -1.93251E+00  9.44821E-03 -4.26970E+00
  -6.47980E+00  2.37183E-01 -5.85963E+00 -3.85185E+00 -9.71960E+00 -1.92755E+00 -1.05970E+01 -3.66761E-01 -6.75709E+00 -1.21645E+00
  -1.16311E+00 -7.74164E+00 -5.72114E+00 -8.35046E+00 -4.21571E+00  4.76706E-01 -4.82568E+00 -2.55175E+00 -1.66030E+00 -5.00982E+00
  -5.42643E+00 -6.84418E+00 -8.35544E+00 -5.25665E+00 -1.26648E+00 -5.26470E+00 -3.30355E+00  3.78543E+00  3.05154E+00  4.45964E+00
   2.01786E+00 -9.02754E-01  6.69371E-01 -7.26932E+00  7.86281E-01 -9.07673E+00 -3.94455E+00 -5.16955E+00  6.44869E-01 -5.09971E+00
  -5.34546E+00 -8.40470E+00 -6.45142E+00 -6.04953E-02 -9.49993E+00 -5.31804E+00 -6.99935E+00 -1.06645E+01 -2.32874E+00 -3.60228E+00
  -9.98333E+00 -9.17550E+00 -5.06281E+00 -1.00896E+01 -9.64957E+00 -1.29705E+01 -1.57113E+01 -1.10546E+01 -3.69173E+00 -1.17948E+01
  -7.54893E+00 -1.72931E+01 -1.33058E+01 -1.92009E+01 -1.50385E+01 -1.21490E+01 -6.03169E+00 -1.25446E+01 -1.30522E+01 -1.28741E+01
  -1.07018E+01 -2.04766E+00 -1.06285E+01 -7.70160E+00 -7.43561E+00 -7.44992E+00 -1.26539E+01 -1.79173E+00 -1.02186E+01 -1.37947E+01
  -1.02676E+01 -9.05782E+00 -1.62588E+01 -7.55760E+00 -1.07879E+01 -1.16859E+01 -2.00979E+01 -1.42272E+01 -1.30541E+01 -1.66382E+01
  -1.22405E+01 -1.44802E+01 -2.63060E+00 -1.59525E+01 -5.82259E+00 -9.25623E+00 -4.98686E+00 -1.10907E+01 -7.58079E+00 -7.42075E+00
  -1.95354E+00 -6.46468E-01 -6.63050E-01  8.19112E+00  5.70360E+00  7.08568E+00  1.08517E+01  9.80698E+00  1.01838E+01  1.46102E+01
   1.68687E+01  1.94404E+01  1.91918E+01  2.27091E+01  2.16497E+01  2.26106E+01  1.59073E+01  2.10506E+01  1.60794E+01  2.06154E+01
   2.53966E+01  2.39172E+01  2.93652E+01  1.40509E+01  2.02140E+01  1.94609E+01  1.59148E+01  1.62208E+01  1.55698E+01  1.14951E+01
   1.64561E+01  1.27812E+01  2.19124E+01  1.68152E+01  1.92005E+01  1.23785E+01  1.06396E+01  9.48017E+00  4.68282E+00  1.10257E+01
   1.24352E+01  7.78224E+00  1.43564E+01  7.97772E+00  1.60926E+01  7.02439E+00  7.84424E+00  7.04528E+00  8.69941E+00  8.12739E+00
   6.11407E-01  8.80888E+00  8.83034E+00  2.86672E+00  5.99052E+00  9.35126E+00  4.34416E+00  3.31150E+00 -1.57104E+00  3.90705E+00
   2.38646E+00 -1.51278E+00  6.03902E+00 -5.31847E-01  2.23225E+00  4.56648E+00  2.09124E+00  5.14954E+00  3.74357E+00  2.14515E+00
  -3.94015E-01  1.38660E+00  3.36101E+00  3.77108E+00 -3.24764E+00  1.24137E+00 -1.66392E+00  4.72952E-01  5.86606E-01 -3.82250E-02
   4.71735E+00 -1.07148E+00  4.26500E+00  2.33459E+00 -2.29498E+00  2.36074E+00  1.71151E+00  2.78788E+00  5.62375E+00 -1.87592E-01
   1.08989E+00 -4.23384E+00  8.75872E+00  6.00115E+00 -1.79213E+00  1.03434E+01  1.95646E-01  5.22185E-01 -3.21592E+00  1.00686E+01
   2.03100E+00  3.75600E+00  3.44342E+00  7.80607E+00  2.30908E+00  2.01382E+00  4.07435E+00  2.52162E+00  9.01113E-01  2.88256E+00
  -9.39985E-01 -1.58886E+00  1.61216E+00  3.46597E+00  2.46733E+00 -1.87139E+00  2.69882E+00  7.55724E+00 -1.77907E+00 -3.16705E+00
  -1.04008E+00  1.40368E+00 -1.67869E+00  4.65500E+00  1.68016E+00  2.69701E+00  6.53744E+00  3.30522E+00  2.12059E+00  3.06138E+00
   1.51989E+00 -3.14440E+00 -2.27717E+00  7.24035E+00 -2.36263E+00  3.17452E-01  2.85037E+00 -2.01621E+00  9.37572E+00  2.90470E+00
   4.42838E-01  6.73334E+00  1.54343E+00  1.16972E+00  5.63913E-01  1.71513E+00 -4.20688E+00  6.95688E+00  1.31687E+00  7.34990E+00
  -8.98572E-01  5.20441E+00  7.00462E+00  7.02243E+00  5.89086E+00  2.50541E+00  1.81178E+00  7.40250E+00  5.38311E+00 -2.25047E-01
   4.96167E-02  2.03482E+00  5.59392E+00  3.90034E+00  5.76210E+00  1.21695E+00  2.50009E+00  6.79094E+00
 NY points of the fit to the data follow
   3.83934E+00  3.90559E+00  4.02652E+00  4.12920E+00  4.17946E+00  4.08124E+00  3.85729E+00  3.87002E+00  4.15564E+00  4.42886E+00
   4.59491E+00  4.62567E+00  4.44703E+00  4.11319E+00  3.76954E+00  3.54253E+00  3.54443E+00  3.73295E+00  3.80707E+00  3.77802E+00
   3.79246E+00  3.89106E+00  4.05594E+00  4.15298E+00  3.94055E+00  3.54562E+00  3.38267E+00  3.39162E+00  3.58381E+00  4.03333E+00
   4.59412E+00  4.94074E+00  4.86803E+00  4.36659E+00  3.61173E+00  3.01391E+00  2.76453E+00  2.74317E+00  3.01387E+00  3.44177E+00
   3.77773E+00  3.76175E+00  3.55883E+00  3.49897E+00  3.65788E+00  3.95791E+00  4.24527E+00  4.26973E+00  4.00898E+00  3.52784E+00
   2.97124E+00  2.60902E+00  2.61723E+00  2.86473E+00  3.05256E+00  3.11894E+00  3.16774E+00  3.23180E+00  3.33937E+00  3.41657E+00
   3.39065E+00  3.24503E+00  3.02211E+00  2.79953E+00  2.65596E+00  2.69879E+00  2.81236E+00  2.87720E+00  2.92928E+00  2.94705E+00
   2.88395E+00  2.84070E+00  2.90751E+00  2.97075E+00  2.96626E+00  2.92519E+00  2.76884E+00  2.55996E+00  2.41330E+00  2.31962E+00
   2.28856E+00  2.34435E+00  2.53945E+00  2.74021E+00  2.80036E+00  2.70329E+00  2.49783E+00  2.23572E+00  2.03651E+00  1.95988E+00
   1.98939E+00  2.10041E+00  2.24526E+00  2.21961E+00  2.07490E+00  1.96048E+00  1.75037E+00  9.37672E-01 -3.70535E-01  6.42793E-01
   3.89238E+00  7.00505E+00  9.05093E+00  9.44504E+00  7.35420E+00  3.61246E+00 -9.27849E-03 -2.26066E+00 -2.09832E+00 -1.79208E-02
   1.07139E+00  1.16503E+00  1.13716E+00  1.11551E+00  1.11398E+00  1.10598E+00  1.07853E+00  1.03846E+00  1.00476E+00  9.60477E-01
   8.92437E-01  7.69069E-01  5.20136E-01  5.63048E-01  1.04134E+00  1.56497E+00  1.93988E+00  2.12281E+00  1.92117E+00  1.40127E+00
   8.98218E-01  5.44556E-01  4.65722E-01  7.05003E-01  7.85651E-01  6.38681E-01  5.26771E-01  5.16490E-01  6.15363E-01  7.88439E-01
   9.39018E-01  9.89736E-01  9.89611E-01  9.51856E-01  8.93063E-01  8.63852E-01  8.55813E-01  8.41641E-01  8.17296E-01  8.13591E-01
   8.15274E-01  7.38383E-01  6.16691E-01  4.75559E-01  3.47402E-01  3.77446E-01  5.38063E-01  6.25178E-01  5.78359E-01  4.06246E-01
   9.09494E-02 -1.77168E-01 -2.75874E-01 -2.68841E-01 -1.88396E-01 -1.14395E-01 -2.87801E-01 -6.56651E-01 -9.47207E-01 -1.09462E+00
  -1.07801E+00 -9.23840E-01 -9.13294E-01 -1.10039E+00 -1.35192E+00 -1.60703E+00 -1.79609E+00 -1.81081E+00 -1.72049E+00 -1.78855E+00
  -1.97661E+00 -2.18053E+00 -2.33802E+00 -2.37647E+00 -2.30656E+00 -2.22828E+00 -2.23839E+00 -2.34019E+00 -2.36399E+00 -2.25084E+00
  -2.08783E+00 -2.03601E+00 -2.16618E+00 -2.42078E+00 -2.75131E+00 -3.10834E+00 -3.34455E+00 -3.39410E+00 -3.30553E+00 -3.15972E+00
  -2.98760E+00 -2.79395E+00 -2.58968E+00 -2.43753E+00 -2.41515E+00 -2.40871E+00 -2.65490E+00 -3.23736E+00 -3.84499E+00 -4.38493E+00
  -4.77713E+00 -4.92841E+00 -4.49804E+00 -3.53517E+00 -2.50070E+00 -1.75862E+00 -1.45573E+00 -1.47351E+00 -1.98127E+00 -3.10820E+00
  -4.41081E+00 -5.22205E+00 -5.29503E+00 -4.93360E+00 -4.23351E+00 -3.31126E+00 -2.45263E+00 -1.99061E+00 -2.20240E+00 -2.80061E+00
  -3.30848E+00 -3.59511E+00 -3.77372E+00 -3.74104E+00 -3.55676E+00 -3.29210E+00 -3.06201E+00 -2.98740E+00 -2.96064E+00 -3.15654E+00
  -3.58551E+00 -3.99097E+00 -4.26299E+00 -4.36043E+00 -4.18676E+00 -3.76512E+00 -3.33960E+00 -3.10797E+00 -3.22389E+00 -3.65214E+00
  -4.32968E+00 -6.21257E+00 -7.41515E+00 -5.83266E+00 -2.97102E+00 -1.22248E+00 -1.27770E-01  1.38526E+00  2.03175E+00  1.65435E+00
   1.01337E+00  3.98363E-01  1.17536E-01 -1.04584E+00 -3.54972E+00 -5.69361E+00 -5.86332E+00 -5.03050E+00 -4.96058E+00 -5.16970E+00
  -5.38325E+00 -5.55671E+00 -5.65374E+00 -5.65898E+00 -5.68850E+00 -5.79576E+00 -5.98346E+00 -6.24376E+00 -6.54235E+00 -6.82567E+00
  -7.01729E+00 -7.13087E+00 -7.20709E+00 -7.28557E+00 -7.36578E+00 -7.45326E+00 -7.55144E+00 -7.70331E+00 -7.89680E+00 -8.06925E+00
  -8.19948E+00 -8.31498E+00 -8.39385E+00 -8.45004E+00 -8.50254E+00 -8.57068E+00 -8.68068E+00 -8.82780E+00 -8.96896E+00 -9.09850E+00
  -9.21871E+00 -9.31961E+00 -9.40310E+00 -9.47442E+00 -9.54380E+00 -9.62760E+00 -9.71798E+00 -9.80171E+00 -9.88133E+00 -9.95357E+00
  -1.00170E+01 -1.00711E+01 -1.01144E+01 -1.01448E+01 -1.01600E+01 -1.01568E+01 -1.01312E+01 -1.00788E+01 -9.99435E+00 -9.87188E+00
  -9.70573E+00 -9.48903E+00 -9.21415E+00 -8.87291E+00 -8.45692E+00 -7.95750E+00 -7.36619E+00 -6.67490E+00 -5.87650E+00 -4.96498E+00
  -3.93623E+00 -2.78819E+00 -1.52161E+00 -1.40234E-01  1.34863E+00  2.93407E+00  4.60137E+00  6.33226E+00  8.10498E+00  9.89496E+00
   1.16752E+01  1.34175E+01  1.50928E+01  1.66727E+01  1.81304E+01  1.94412E+01  2.05843E+01  2.15428E+01  2.23046E+01  2.28627E+01
   2.32152E+01  2.33654E+01  2.33213E+01  2.30950E+01  2.27021E+01  2.21612E+01  2.14922E+01  2.07166E+01  1.98558E+01  1.89307E+01
   1.79613E+01  1.69658E+01  1.59607E+01  1.49602E+01  1.39762E+01  1.30185E+01  1.20949E+01  1.12110E+01  1.03708E+01  9.57669E+00
   8.82986E+00  8.13053E+00  7.47803E+00  6.87119E+00  6.30832E+00  5.78761E+00  5.30700E+00  4.86454E+00  4.45817E+00  4.08605E+00
   3.74638E+00  3.43761E+00  3.15828E+00  2.90720E+00  2.68321E+00  2.48541E+00  2.31296E+00  2.16520E+00  2.04149E+00  1.94133E+00
   1.86414E+00  1.80944E+00  1.77667E+00  1.76528E+00  1.77454E+00  1.80372E+00  1.85185E+00  1.91790E+00  2.00060E+00  2.09861E+00
   2.21030E+00  2.33398E+00  2.46769E+00  2.60945E+00  2.75708E+00  2.90840E+00  3.06112E+00  3.21301E+00  3.36183E+00  3.50550E+00
   3.64200E+00  3.76957E+00  3.88654E+00  3.99158E+00  4.08353E+00  4.16160E+00  4.22517E+00  4.27399E+00  4.30797E+00  4.32736E+00
   4.33255E+00  4.32421E+00  4.30310E+00  4.27018E+00  4.22643E+00  4.17298E+00  4.11093E+00  4.04147E+00  3.96570E+00  3.88475E+00
   3.79962E+00  3.71135E+00  3.62082E+00  3.52890E+00  3.43631E+00  3.34375E+00  3.25178E+00  3.16095E+00  3.07165E+00  2.98430E+00
   2.89916E+00  2.81652E+00  2.73652E+00  2.65938E+00  2.58517E+00  2.51400E+00  2.44587E+00  2.38085E+00  2.31891E+00  2.26008E+00
   2.20429E+00  2.15153E+00  2.10172E+00  2.05485E+00  2.01082E+00  1.96961E+00  1.93111E+00  1.89529E+00  1.86204E+00  1.83133E+00
   1.80307E+00  1.77722E+00  1.75367E+00  1.73239E+00  1.71329E+00  1.69634E+00  1.68146E+00  1.66861E+00  1.65770E+00  1.64871E+00
   1.64155E+00  1.63622E+00  1.63263E+00  1.63076E+00  1.63053E+00  1.63194E+00  1.63492E+00  1.63945E+00  1.64547E+00  1.65297E+00
   1.66187E+00  1.67219E+00  1.68385E+00  1.69686E+00  1.71115E+00  1.72672E+00  1.74351E+00  1.76153E+00  1.78073E+00  1.80110E+00
   1.82259E+00  1.84520E+00  1.86889E+00  1.89366E+00  1.91946E+00  1.94629E+00  1.97410E+00  2.00291E+00
 NY background values follow
     1.417E+00    1.413E+00    1.409E+00    1.404E+00    1.398E+00    1.393E+00    1.387E+00    1.380E+00    1.374E+00    1.367E+00
     1.359E+00    1.352E+00    1.344E+00    1.335E+00    1.327E+00    1.318E+00    1.308E+00    1.299E+00    1.289E+00    1.278E+00
     1.268E+00    1.256E+00    1.245E+00    1.233E+00    1.221E+00    1.209E+00    1.196E+00    1.183E+00    1.170E+00    1.157E+00
     1.143E+00    1.128E+00    1.114E+00    1.099E+00    1.084E+00    1.068E+00    1.052E+00    1.036E+00    1.020E+00    1.003E+00
     9.862E-01    9.689E-01    9.513E-01    9.334E-01    9.152E-01    8.967E-01    8.779E-01    8.588E-01    8.394E-01    8.198E-01
     7.998E-01    7.796E-01    7.591E-01    7.383E-01    7.172E-01    6.959E-01    6.743E-01    6.524E-01    6.302E-01    6.078E-01
     5.851E-01    5.621E-01    5.389E-01    5.154E-01    4.917E-01    4.676E-01    4.434E-01    4.189E-01    3.941E-01    3.691E-01
     3.438E-01    3.183E-01    2.926E-01    2.666E-01    2.403E-01    2.139E-01    1.871E-01    1.602E-01    1.330E-01    1.056E-01
     7.800E-02    5.015E-02    2.207E-02   -6.229E-03   -3.475E-02   -6.348E-02   -9.243E-02   -1.216E-01   -1.510E-01   -1.805E-01
    -2.103E-01   -2.403E-01   -2.705E-01   -3.009E-01   -3.315E-01   -3.622E-01   -3.932E-01   -4.244E-01   -4.557E-01   -4.872E-01
    -5.190E-01   -5.509E-01   -5.829E-01   -6.152E-01   -6.476E-01   -6.802E-01   -7.129E-01   -7.459E-01   -7.790E-01   -8.122E-01
    -8.456E-01   -8.792E-01   -9.129E-01   -9.468E-01   -9.808E-01   -1.015E+00   -1.049E+00   -1.084E+00   -1.118E+00   -1.153E+00
    -1.188E+00   -1.223E+00   -1.258E+00   -1.293E+00   -1.329E+00   -1.364E+00   -1.400E+00   -1.436E+00   -1.471E+00   -1.507E+00
    -1.543E+00   -1.580E+00   -1.616E+00   -1.652E+00   -1.689E+00   -1.725E+00   -1.762E+00   -1.799E+00   -1.836E+00   -1.873E+00
    -1.910E+00   -1.947E+00   -1.984E+00   -2.021E+00   -2.058E+00   -2.096E+00   -2.133E+00   -2.171E+00   -2.208E+00   -2.246E+00
    -2.284E+00   -2.322E+00   -2.359E+00   -2.397E+00   -2.435E+00   -2.473E+00   -2.511E+00   -2.549E+00   -2.587E+00   -2.625E+00
    -2.663E+00   -2.701E+00   -2.740E+00   -2.778E+00   -2.816E+00   -2.854E+00   -2.893E+00   -2.931E+00   -2.969E+00   -3.007E+00
    -3.046E+00   -3.084E+00   -3.122E+00   -3.160E+00   -3.199E+00   -3.237E+00   -3.275E+00   -3.313E+00   -3.351E+00   -3.390E+00
    -3.428E+00   -3.466E+00   -3.504E+00   -3.542E+00   -3.580E+00   -3.618E+00   -3.656E+00   -3.694E+00   -3.732E+00   -3.769E+00
    -3.807E+00   -3.845E+00   -3.882E+00   -3.920E+00   -3.957E+00   -3.995E+00   -4.032E+00   -4.070E+00   -4.107E+00   -4.144E+00
    -4.181E+00   -4.218E+00   -4.255E+00   -4.292E+00   -4.328E+00   -4.365E+00   -4.401E+00   -4.438E+00   -4.474E+00   -4.510E+00
    -4.546E+00   -4.582E+00   -4.618E+00   -4.654E+00   -4.690E+00   -4.725E+00   -4.761E+00   -4.796E+00   -4.831E+00   -4.866E+00
    -4.901E+00   -4.936E+00   -4.970E+00   -5.005E+00   -5.039E+00   -5.073E+00   -5.107E+00   -5.141E+00   -5.175E+00   -5.208E+00
    -5.242E+00   -5.275E+00   -5.308E+00   -5.341E+00   -5.373E+00   -5.406E+00   -5.438E+00   -5.470E+00   -5.502E+00   -5.534E+00
    -5.566E+00   -5.597E+00   -5.629E+00   -5.660E+00   -5.690E+00   -5.721E+00   -5.751E+00   -5.782E+00   -5.812E+00   -5.841E+00
    -5.871E+00   -5.900E+00   -5.930E+00   -5.959E+00   -5.987E+00   -6.016E+00   -6.044E+00   -6.072E+00   -6.100E+00   -6.127E+00
    -6.155E+00   -6.182E+00   -6.209E+00   -6.235E+00   -6.261E+00   -6.288E+00   -6.313E+00   -6.339E+00   -6.364E+00   -6.389E+00
    -6.414E+00   -6.439E+00   -6.463E+00   -6.487E+00   -6.511E+00   -6.534E+00   -6.557E+00   -6.580E+00   -6.603E+00   -6.625E+00
    -6.647E+00   -6.669E+00   -6.690E+00   -6.711E+00   -6.732E+00   -6.753E+00   -6.773E+00   -6.793E+00   -6.813E+00   -6.832E+00
    -6.851E+00   -6.870E+00   -6.888E+00   -6.906E+00   -6.924E+00   -6.942E+00   -6.959E+00   -6.976E+00   -6.992E+00   -7.008E+00
    -7.024E+00   -7.040E+00   -7.055E+00   -7.070E+00   -7.084E+00   -7.098E+00   -7.112E+00   -7.126E+00   -7.139E+00   -7.152E+00
    -7.164E+00   -7.176E+00   -7.188E+00   -7.199E+00   -7.210E+00   -7.221E+00   -7.231E+00   -7.241E+00   -7.251E+00   -7.260E+00
    -7.269E+00   -7.277E+00   -7.285E+00   -7.293E+00   -7.301E+00   -7.307E+00   -7.314E+00   -7.320E+00   -7.326E+00   -7.332E+00
    -7.337E+00   -7.341E+00   -7.346E+00   -7.350E+00   -7.353E+00   -7.356E+00   -7.359E+00   -7.361E+00   -7.363E+00   -7.365E+00
    -7.366E+00   -7.367E+00   -7.367E+00   -7.367E+00   -7.366E+00   -7.365E+00   -7.364E+00   -7.362E+00   -7.360E+00   -7.358E+00
    -7.355E+00   -7.351E+00   -7.348E+00   -7.343E+00   -7.339E+00   -7.334E+00   -7.328E+00   -7.322E+00   -7.316E+00   -7.309E+00
    -7.302E+00   -7.294E+00   -7.286E+00   -7.278E+00   -7.269E+00   -7.260E+00   -7.250E+00   -7.240E+00   -7.229E+00   -7.218E+00
    -7.206E+00   -7.194E+00   -7.182E+00   -7.169E+00   -7.156E+00   -7.142E+00   -7.128E+00   -7.113E+00   -7.098E+00   -7.083E+00
    -7.067E+00   -7.051E+00   -7.034E+00   -7.016E+00   -6.999E+00   -6.980E+00   -6.962E+00   -6.943E+00   -6.923E+00   -6.903E+00
    -6.883E+00   -6.862E+00   -6.840E+00   -6.819E+00   -6.796E+00   -6.774E+00   -6.750E+00   -6.727E+00   -6.703E+00   -6.678E+00
    -6.653E+00   -6.627E+00   -6.601E+00   -6.575E+00   -6.548E+00   -6.521E+00   -6.493E+00   -6.465E+00   -6.436E+00   -6.407E+00
    -6.377E+00   -6.347E+00   -6.316E+00   -6.285E+00   -6.254E+00   -6.222E+00   -6.189E+00   -6.156E+00   -6.123E+00   -6.089E+00
    -6.055E+00   -6.020E+00   -5.985E+00   -5.949E+00   -5.913E+00   -5.876E+00   -5.839E+00   -5.802E+00   -5.764E+00   -5.725E+00
    -5.686E+00   -5.647E+00   -5.607E+00   -5.567E+00   -5.526E+00   -5.485E+00   -5.443E+00   -5.401E+00   -5.358E+00   -5.315E+00
    -5.271E+00   -5.227E+00   -5.183E+00   -5.138E+00   -5.092E+00   -5.046E+00   -5.000E+00   -4.953E+00   -4.906E+00   -4.858E+00
    -4.810E+00   -4.761E+00   -4.712E+00   -4.663E+00   -4.613E+00   -4.562E+00   -4.511E+00   -4.460E+00   -4.408E+00   -4.356E+00
    -4.303E+00   -4.250E+00   -4.196E+00   -4.142E+00   -4.088E+00   -4.033E+00   -3.977E+00   -3.922E+00   -3.865E+00   -3.808E+00
    -3.751E+00   -3.694E+00   -3.636E+00   -3.577E+00   -3.518E+00   -3.459E+00   -3.399E+00   -3.339E+00   -3.278E+00   -3.217E+00
    -3.155E+00   -3.093E+00   -3.031E+00   -2.968E+00   -2.905E+00   -2.841E+00   -2.777E+00   -2.712E+00   -2.647E+00   -2.582E+00
    -2.516E+00   -2.450E+00   -2.383E+00   -2.316E+00   -2.249E+00   -2.181E+00   -2.112E+00   -2.044E+00
 Asp      Conc. = 8.48E+00
