 LCModel (Version 6.3-1L) Copyright: S.W. Provencher.          Ref.: Magn. Reson. Med. 30:672-679 (1993).                
 Slice#2 Row#5 Col#10  PD_24_press_2_raw_act
 36 lines in following concentration table = NCONC+1
    Conc.  %SD /Cr+PCr  Metabolite                                         
    2.718 999% 1.1E-03 Ala                                                 
    0.000 999%   0.000 Asp                                                 
 1.41E+03  44%   0.574 Cr                                                  
 1.05E+03  60%   0.426 PCr                                                 
   41.770 736% 1.7E-02 GABA                                                
  143.308 206% 5.8E-02 Glc                                                 
 2.68E+03  26%   1.090 Gln                                                 
 3.60E+03  22%   1.465 Glu                                                 
 1.06E+03   5%   0.430 GPC                                                 
    0.000 999%   0.000 PCh                                                 
  620.219  29%   0.252 GSH                                                 
 3.33E+03  18%   1.356 Ins                                                 
    0.000 999%   0.000 Lac                                                 
 3.44E+03   8%   1.398 NAA                                                 
  545.787  57%   0.222 NAAG                                                
  333.689  18%   0.136 Scyllo                                              
  525.696  75%   0.214 Tau                                                 
 1.60E+03  15%   0.649 -CrCH2                                              
 1.06E+03   5%   0.430 GPC+PCh                                             
 3.98E+03   4%   1.620 NAA+NAAG                                            
 2.46E+03   5%   1.000 Cr+PCr                                              
 6.29E+03  20%   2.556 Glu+Gln                                             
 3.12E+03  23%   1.270 Lip13a                                              
    0.000 999%   0.000 Lip13b                                              
    0.000 999%   0.000 Lip09                                               
 2.44E+03  15%   0.992 MM09                                                
  670.162  55%   0.272 Lip20                                               
 6.18E+03  12%   2.511 MM20                                                
  735.854  35%   0.299 MM12                                                
 1.62E+03  37%   0.658 MM14                                                
 2.71E+03  18%   1.101 MM17                                                
 3.12E+03  23%   1.270 Lip13a+Lip13b                                       
 5.48E+03  13%   2.228 MM14+Lip13a+Lip13b+MM12                             
 2.44E+03  15%   0.992 MM09+Lip09                                          
 6.85E+03  11%   2.784 MM20+Lip20                                          
   6 lines in following misc. output table
  FWHM = 0.069 ppm    S/N =  10                                            
  Data shift = 0.015 ppm                                                   
  Ph: -34 deg      -8.9 deg/ppm                                            
  alphaB,S = 7.7E-01,   5.5E+01                                            
   14 spline knots.   Ns = 9(1)                                            
  (15) 6 infls.   (13) 1 extrs.                                            
  498 points on ppm-axis = NY
      4.000000     3.992357     3.984714     3.977070     3.969427     3.961784     3.954141     3.946497     3.938854     3.931211
      3.923568     3.915925     3.908281     3.900638     3.892995     3.885352     3.877708     3.870065     3.862422     3.854779
      3.847136     3.839492     3.831849     3.824206     3.816563     3.808919     3.801276     3.793633     3.785990     3.778347
      3.770703     3.763060     3.755417     3.747774     3.740130     3.732487     3.724844     3.717201     3.709558     3.701914
      3.694271     3.686628     3.678985     3.671341     3.663698     3.656055     3.648412     3.640769     3.633125     3.625482
      3.617839     3.610196     3.602552     3.594909     3.587266     3.579623     3.571980     3.564336     3.556693     3.549050
      3.541407     3.533763     3.526120     3.518477     3.510834     3.503191     3.495547     3.487904     3.480261     3.472618
      3.464974     3.457331     3.449688     3.442045     3.434402     3.426758     3.419115     3.411472     3.403829     3.396185
      3.388542     3.380899     3.373256     3.365613     3.357969     3.350326     3.342683     3.335040     3.327396     3.319753
      3.312110     3.304467     3.296824     3.289180     3.281537     3.273894     3.266251     3.258607     3.250964     3.243321
      3.235678     3.228034     3.220391     3.212748     3.205105     3.197462     3.189818     3.182175     3.174532     3.166889
      3.159245     3.151602     3.143959     3.136316     3.128673     3.121029     3.113386     3.105743     3.098100     3.090456
      3.082813     3.075170     3.067527     3.059884     3.052240     3.044597     3.036954     3.029311     3.021667     3.014024
      3.006381     2.998738     2.991095     2.983451     2.975808     2.968165     2.960522     2.952878     2.945235     2.937592
      2.929949     2.922306     2.914662     2.907019     2.899376     2.891733     2.884089     2.876446     2.868803     2.861160
      2.853517     2.845873     2.838230     2.830587     2.822944     2.815300     2.807657     2.800014     2.792371     2.784728
      2.777084     2.769441     2.761798     2.754155     2.746511     2.738868     2.731225     2.723582     2.715939     2.708295
      2.700652     2.693009     2.685366     2.677722     2.670079     2.662436     2.654793     2.647150     2.639506     2.631863
      2.624220     2.616577     2.608933     2.601290     2.593647     2.586004     2.578361     2.570717     2.563074     2.555431
      2.547788     2.540144     2.532501     2.524858     2.517215     2.509572     2.501928     2.494285     2.486642     2.478999
      2.471355     2.463712     2.456069     2.448426     2.440783     2.433139     2.425496     2.417853     2.410210     2.402566
      2.394923     2.387280     2.379637     2.371994     2.364350     2.356707     2.349064     2.341421     2.333777     2.326134
      2.318491     2.310848     2.303205     2.295561     2.287918     2.280275     2.272632     2.264988     2.257345     2.249702
      2.242059     2.234416     2.226772     2.219129     2.211486     2.203843     2.196199     2.188556     2.180913     2.173270
      2.165627     2.157983     2.150340     2.142697     2.135054     2.127410     2.119767     2.112124     2.104481     2.096838
      2.089194     2.081551     2.073908     2.066265     2.058621     2.050978     2.043335     2.035692     2.028049     2.020405
      2.012762     2.005119     1.997476     1.989833     1.982190     1.974546     1.966903     1.959260     1.951617     1.943974
      1.936331     1.928688     1.921045     1.913402     1.905759     1.898115     1.890472     1.882829     1.875186     1.867543
      1.859900     1.852257     1.844614     1.836971     1.829327     1.821684     1.814041     1.806398     1.798755     1.791112
      1.783469     1.775826     1.768183     1.760540     1.752896     1.745253     1.737610     1.729967     1.722324     1.714681
      1.707038     1.699395     1.691752     1.684108     1.676465     1.668822     1.661179     1.653536     1.645893     1.638250
      1.630607     1.622964     1.615321     1.607677     1.600034     1.592391     1.584748     1.577105     1.569462     1.561819
      1.554176     1.546533     1.538890     1.531246     1.523603     1.515960     1.508317     1.500674     1.493031     1.485388
      1.477745     1.470102     1.462458     1.454815     1.447172     1.439529     1.431886     1.424243     1.416600     1.408957
      1.401314     1.393671     1.386027     1.378384     1.370741     1.363098     1.355455     1.347812     1.340169     1.332526
      1.324883     1.317240     1.309596     1.301953     1.294310     1.286667     1.279024     1.271381     1.263738     1.256095
      1.248452     1.240808     1.233165     1.225522     1.217879     1.210236     1.202593     1.194950     1.187307     1.179664
      1.172021     1.164377     1.156734     1.149091     1.141448     1.133805     1.126162     1.118519     1.110876     1.103233
      1.095590     1.087946     1.080303     1.072660     1.065017     1.057374     1.049731     1.042088     1.034445     1.026802
      1.019158     1.011515     1.003872     0.996229     0.988586     0.980943     0.973300     0.965657     0.958014     0.950371
      0.942727     0.935084     0.927441     0.919798     0.912155     0.904512     0.896869     0.889226     0.881583     0.873940
      0.866296     0.858653     0.851010     0.843367     0.835724     0.828081     0.820438     0.812795     0.805152     0.797508
      0.789865     0.782222     0.774579     0.766936     0.759293     0.751650     0.744007     0.736364     0.728721     0.721077
      0.713434     0.705791     0.698148     0.690505     0.682862     0.675219     0.667576     0.659933     0.652290     0.644646
      0.637003     0.629360     0.621717     0.614074     0.606431     0.598788     0.591145     0.583502     0.575858     0.568215
      0.560572     0.552929     0.545286     0.537643     0.530000     0.522357     0.514714     0.507071     0.499427     0.491784
      0.484141     0.476498     0.468855     0.461212     0.453569     0.445925     0.438282     0.430639     0.422996     0.415353
      0.407710     0.400067     0.392424     0.384780     0.377137     0.369494     0.361851     0.354208     0.346565     0.338922
      0.331278     0.323635     0.315992     0.308349     0.300706     0.293063     0.285420     0.277777     0.270133     0.262490
      0.254847     0.247204     0.239561     0.231918     0.224275     0.216631     0.208988     0.201345
 NY phased data points follow
   2.34669E+01  1.46967E+01  1.42004E+01  1.55340E+01  1.57634E+01  2.28423E+01  2.43017E+01  1.78696E+01  1.95200E+01  2.92284E+01
   2.85161E+01  2.91602E+01  3.74897E+01  3.27237E+01  2.93602E+01  2.73599E+01  2.63494E+01  2.42356E+01  2.39840E+01  1.95428E+01
   2.19227E+01  1.76443E+01  1.74117E+01  2.37577E+01  2.23819E+01  2.13848E+01  1.07854E+01  2.46189E+01  2.34243E+01  2.28151E+01
   2.56372E+01  2.39367E+01  2.74798E+01  2.06070E+01  2.09244E+01  1.74156E+01  2.32431E+01  2.98599E+01  1.94704E+01  2.25208E+01
   2.71418E+01  2.86173E+01  2.38513E+01  1.95637E+01  2.72836E+01  2.79922E+01  2.97637E+01  3.59870E+01  3.19653E+01  3.34332E+01
   3.13558E+01  2.46512E+01  2.47708E+01  2.38174E+01  2.40177E+01  2.46533E+01  2.12304E+01  1.98698E+01  2.35669E+01  1.09185E+01
   1.39998E+01  2.07786E+01  6.51010E+00  1.02882E+01  1.03005E+01  1.39244E+01  1.03217E+01  3.60807E+00  9.03232E+00  9.57052E+00
   7.55952E+00  1.28630E+01  1.10867E+01  1.68557E+01  1.38727E+01  2.31761E+01  1.25513E+01  1.90519E+01  2.60883E+01  2.06955E+01
   1.65141E+01  1.13934E+01  1.59196E+01  1.70548E+01  1.70469E+01  1.95232E+01  1.67088E+01  1.71248E+01  1.80163E+01  2.30379E+01
   2.02909E+01  1.64708E+01  3.22390E+01  2.93482E+01  2.34227E+01  4.28720E+01  3.34802E+01  4.69785E+01  4.78019E+01  5.48500E+01
   5.68542E+01  6.15781E+01  7.98297E+01  7.53368E+01  8.69575E+01  6.83249E+01  6.01329E+01  4.55463E+01  3.63944E+01  2.75540E+01
   1.67414E+01  2.46291E+01  1.11448E+01  1.86975E+01  1.10009E+01  1.88161E+01  1.52671E+01  1.96414E+01  2.03471E+01  2.74473E+01
   3.26094E+01  2.80374E+01  4.56179E+01  5.26005E+01  5.37132E+01  5.87553E+01  5.90382E+01  6.43108E+01  7.86507E+01  6.31150E+01
   5.81168E+01  3.73537E+01  3.42117E+01  2.67863E+01  1.69813E+01  1.65467E+01  1.03287E+01  1.67488E+01  1.13909E+01  1.64638E+01
   1.10017E+01  2.13342E+01  7.49923E+00  1.12140E+01  1.25614E+01  8.62190E+00  1.00519E+01  5.99608E+00  7.55779E+00  1.39894E+01
   5.39000E+00  1.16585E+01 -3.56787E+00  1.04772E+01  5.33119E+00  3.32557E+00 -8.87984E-01  1.51822E+01  6.86494E+00  6.55241E+00
   1.18767E+00 -3.04391E-01  1.28206E+00  6.65782E+00 -1.17206E+00 -3.75910E+00 -1.11841E+01 -4.45518E+00 -3.88500E+00 -6.28472E+00
  -2.43866E+00 -1.22471E+01 -2.18823E+01 -1.89082E+01 -1.53566E+01 -2.07318E+01 -1.39881E+01 -8.95057E+00 -1.22993E+01 -1.20858E+01
  -3.86541E+00 -8.69730E+00 -9.81125E+00 -9.38675E+00 -1.23217E+01 -4.15628E+00 -1.16799E+01 -4.77353E+00 -2.68033E+00 -1.06353E+01
  -8.39740E+00 -6.49661E+00  3.74799E+00  1.90475E+00 -3.98727E+00 -1.29676E+00 -7.01406E+00 -8.33469E+00 -4.31249E+00 -2.96897E+00
  -3.39248E+00  6.03408E+00 -1.74444E+00  9.65012E+00  3.39118E+00  9.28451E+00  8.68095E+00  7.32771E+00  1.17496E+01  1.86081E+00
   1.44966E+00  1.58417E+01  1.95248E+01  1.85907E+01  1.72026E+01  2.36064E+01  2.24131E+01  2.43195E+01  1.73937E+01  1.49836E+01
   7.63683E+00  5.19786E+00  6.48040E+00  3.06689E+00  1.05921E+01  1.39384E+01  1.44264E+01  1.89955E+01  2.26713E+01  2.19074E+01
   2.03377E+01  1.66393E+01  1.92908E+01  2.43648E+01  1.50551E+01  1.91406E+01  1.59141E+01  1.41017E+01  2.06225E+01  2.31478E+01
   1.90385E+01  1.89025E+01  1.38737E+01  1.90133E+01  2.09533E+01  2.29468E+01  2.78015E+01  3.67211E+01  3.38791E+01  3.80377E+01
   4.38984E+01  5.06742E+01  5.51016E+01  6.18392E+01  7.08031E+01  9.16874E+01  9.39739E+01  1.01191E+02  1.12648E+02  1.13152E+02
   1.21173E+02  1.25530E+02  1.09697E+02  9.46119E+01  7.59567E+01  5.68007E+01  4.26476E+01  4.44044E+01  3.13542E+01  2.36038E+01
   2.90830E+01  2.17212E+01  2.15219E+01  2.69824E+01  2.09016E+01  2.45818E+01  1.96406E+01  1.99437E+01  2.17560E+01  2.09541E+01
   1.64442E+01  2.17818E+01  2.06542E+01  1.48542E+01  1.90712E+01  1.78814E+01  2.95975E+01  1.88200E+01  1.90628E+01  1.43459E+01
   2.39616E+01  2.54588E+01  1.62040E+01  1.80864E+01  2.31852E+01  1.48690E+01  1.58950E+01  1.79375E+01  2.33469E+01  1.84059E+01
   1.51777E+01  2.04539E+01  1.74567E+01  1.66239E+01  2.01392E+01  1.67432E+01  2.49945E+01  1.89645E+01  1.62750E+01  1.59664E+01
   1.58898E+01  3.03557E+01  2.18807E+01  1.73954E+01  1.48178E+01  1.59495E+01  2.05137E+01  2.10187E+01  1.55813E+01  1.19816E+01
   5.87529E+00  1.49273E+01  1.43338E+01  5.20492E+00  3.58773E+00  2.08005E+01  1.25511E+01  1.22035E+01  1.00452E+01  1.45599E+01
   1.75779E+01  1.31404E+01  1.94928E+01  1.11322E+01  1.85198E+01  1.54609E+01  1.32240E+01  1.90651E+01  2.39564E+01  1.16264E+01
   1.94896E+01  9.96094E+00  2.85387E+01  2.26670E+01  2.06761E+01  1.19581E+01  2.50249E+01  3.01659E+01  2.55295E+01  2.94265E+01
   2.08806E+01  3.47982E+01  2.22404E+01  2.79128E+01  2.73177E+01  2.55554E+01  2.10111E+01  3.60144E+01  2.18361E+01  2.43022E+01
   1.95469E+01  3.00327E+01  2.55614E+01  2.78155E+01  2.04206E+01  1.67714E+01  2.24944E+01  2.20349E+01  2.13855E+01  2.35319E+01
   1.68087E+01  1.87801E+01  1.91886E+01  1.05777E+01  1.52074E+01  1.30471E+01  1.15849E+01  1.08022E+01  1.32989E+01  1.12546E+01
   1.49559E+01  6.08936E+00  7.19620E+00  1.68692E+01  1.00799E+01  8.12422E+00  5.63370E+00  6.27630E+00 -1.18416E+00  1.38381E+01
   1.24626E+01  9.84534E+00  1.43182E+01  1.33656E+01  7.56518E+00  1.42333E+01  1.65002E+01  1.99268E+01  2.05168E+01  1.66392E+01
   1.77525E+01  2.06665E+01  1.91259E+01  1.42585E+01  1.23536E+01  1.69032E+01  2.41276E+01  2.36897E+01  1.68509E+01  2.56846E+01
   2.25445E+01  1.95107E+01  1.77650E+01  2.38189E+01  1.84246E+01  1.88117E+01  1.90157E+01  1.17413E+01  1.49290E+01  1.34425E+01
   1.39953E+01  1.43938E+01  8.95228E+00  6.62925E+00  7.22229E+00  1.02523E+01  8.63289E+00  4.23391E+00  1.08855E+01  1.01108E+01
   1.06271E+01  1.35601E+01  5.24108E+00  7.60488E+00  9.01212E+00  9.05821E+00  1.18942E+01  5.36413E+00  6.67559E+00  9.51754E+00
   1.49188E+01  4.26297E+00  2.75299E+00  1.31784E+01  7.73050E+00  1.10310E+01  7.61260E+00  2.44375E+00  4.98890E+00  8.42299E-01
   1.24181E+01  9.19513E+00  7.15221E+00  3.09745E+00  3.69684E+00  9.35792E+00  1.17016E+01  2.00289E+00  6.99113E+00  4.67230E+00
  -1.98989E+00 -1.52802E+00 -1.62171E+00  5.01102E+00  9.73534E-01  1.34602E+00  4.42577E+00 -2.44530E-01  4.99910E+00  4.52586E+00
   4.45941E+00  1.02786E+01  5.29302E+00  6.20612E+00  6.01586E+00  2.10166E-01  5.79918E+00  1.06736E+01  5.75694E+00  8.98844E+00
   4.88047E+00  1.55291E+00  3.13811E+00  5.89873E+00  7.13868E+00  4.54122E+00  7.42046E+00  2.77522E+00  9.79818E+00  6.82765E+00
   4.63015E+00  6.43930E+00  3.59378E+00 -1.08057E+00  2.30213E+00  2.68893E+00  7.77353E+00  1.15801E+00
 NY points of the fit to the data follow
   1.64715E+01  1.51510E+01  1.65692E+01  1.83880E+01  1.89874E+01  1.99290E+01  2.17201E+01  2.33962E+01  2.46331E+01  2.59615E+01
   2.81236E+01  3.13801E+01  3.41927E+01  3.43789E+01  3.19130E+01  2.85896E+01  2.56165E+01  2.33036E+01  2.16465E+01  2.00890E+01
   1.89971E+01  1.86724E+01  1.88140E+01  1.94447E+01  2.02987E+01  2.12603E+01  2.18530E+01  2.21479E+01  2.30146E+01  2.51143E+01
   2.77917E+01  2.98861E+01  3.04022E+01  2.92374E+01  2.68722E+01  2.37467E+01  2.05281E+01  1.85718E+01  1.88779E+01  2.05312E+01
   2.19871E+01  2.30954E+01  2.42468E+01  2.56568E+01  2.68310E+01  2.78852E+01  2.92959E+01  3.08459E+01  3.15690E+01  3.04270E+01
   2.74466E+01  2.37703E+01  2.03013E+01  1.78520E+01  1.65529E+01  1.60396E+01  1.58474E+01  1.56753E+01  1.56271E+01  1.59865E+01
   1.67270E+01  1.72083E+01  1.69172E+01  1.62284E+01  1.52524E+01  1.42347E+01  1.38145E+01  1.42199E+01  1.48673E+01  1.53373E+01
   1.57030E+01  1.59639E+01  1.61130E+01  1.63011E+01  1.62848E+01  1.59950E+01  1.56335E+01  1.55587E+01  1.63397E+01  1.65765E+01
   1.60545E+01  1.61348E+01  1.68306E+01  1.75253E+01  1.81326E+01  1.88261E+01  1.95781E+01  2.02095E+01  1.98717E+01  1.79109E+01
   1.54600E+01  1.36805E+01  1.34226E+01  1.71679E+01  2.65339E+01  3.32757E+01  3.69404E+01  4.22286E+01  4.90503E+01  5.50599E+01
   6.09281E+01  6.79783E+01  7.58151E+01  8.20287E+01  8.17670E+01  7.23808E+01  5.81377E+01  4.45270E+01  3.43588E+01  2.72887E+01
   2.23219E+01  1.86296E+01  1.48443E+01  1.07390E+01  8.96296E+00  8.71859E+00  9.24077E+00  1.20751E+01  1.97026E+01  2.62249E+01
   2.98318E+01  3.45451E+01  4.07663E+01  4.63787E+01  5.18251E+01  5.81282E+01  6.48495E+01  7.04676E+01  7.13452E+01  6.45766E+01
   5.31280E+01  4.16794E+01  3.29533E+01  2.68468E+01  2.22548E+01  1.84852E+01  1.47228E+01  1.06684E+01  8.62877E+00  8.37590E+00
   8.67017E+00  8.98799E+00  9.07256E+00  8.79374E+00  8.29872E+00  7.74835E+00  7.20511E+00  6.78226E+00  6.43036E+00  6.06057E+00
   5.71673E+00  5.23893E+00  4.54058E+00  3.98970E+00  3.65259E+00  3.42730E+00  3.35652E+00  3.16721E+00  2.84237E+00  2.47399E+00
   1.95053E+00  1.23377E+00  6.88438E-01  5.78920E-01  6.94387E-01  6.61810E-01  1.26502E-01 -9.68196E-01 -2.00274E+00 -2.61081E+00
  -3.02307E+00 -3.38780E+00 -3.83021E+00 -4.17716E+00 -4.52111E+00 -4.96546E+00 -5.34272E+00 -5.43460E+00 -5.22362E+00 -4.66912E+00
  -4.09841E+00 -3.76097E+00 -3.35648E+00 -2.56861E+00 -1.74108E+00 -9.91932E-01 -3.58988E-01  1.56109E-01  8.20578E-01  1.63899E+00
   2.58640E+00  3.52957E+00  4.10681E+00  4.10857E+00  3.91243E+00  4.33876E+00  5.17886E+00  6.19942E+00  7.23349E+00  8.19305E+00
   8.54366E+00  8.66749E+00  9.14326E+00  8.70061E+00  6.94175E+00  5.16942E+00  3.55336E+00  2.29640E+00  6.50254E-01 -8.89452E-01
  -5.73999E-01  2.06018E+00  5.58986E+00  8.28772E+00  1.02859E+01  1.26788E+01  1.47045E+01  1.45472E+01  1.22023E+01  9.13360E+00
   6.02665E+00  3.25803E+00  1.47392E+00  1.47464E+00  3.87077E+00  7.71256E+00  1.09618E+01  1.38141E+01  1.64032E+01  1.78752E+01
   1.84164E+01  1.88577E+01  1.93221E+01  1.92662E+01  1.89370E+01  1.90278E+01  1.97639E+01  2.09641E+01  2.21978E+01  2.29672E+01
   2.29297E+01  2.21119E+01  2.07044E+01  1.95450E+01  1.98715E+01  2.17879E+01  2.46121E+01  2.83739E+01  3.18989E+01  3.44642E+01
   3.88675E+01  5.05770E+01  6.29742E+01  7.00187E+01  7.73735E+01  8.72245E+01  9.57840E+01  1.01888E+02  1.07387E+02  1.13303E+02
   1.18993E+02  1.20319E+02  1.11803E+02  9.50209E+01  7.67871E+01  6.17278E+01  5.04405E+01  4.22993E+01  3.66079E+01  3.16358E+01
   2.57259E+01  2.14756E+01  1.98043E+01  1.89576E+01  1.84417E+01  1.80942E+01  1.77291E+01  1.72454E+01  1.67584E+01  1.63331E+01
   1.60020E+01  1.57799E+01  1.56865E+01  1.57168E+01  1.58380E+01  1.60263E+01  1.62747E+01  1.65821E+01  1.69303E+01  1.73084E+01
   1.77197E+01  1.81669E+01  1.86285E+01  1.90771E+01  1.94892E+01  1.98479E+01  2.01354E+01  2.03448E+01  2.04740E+01  2.05164E+01
   2.04766E+01  2.03600E+01  2.01628E+01  1.98864E+01  1.95362E+01  1.91169E+01  1.86404E+01  1.81200E+01  1.75733E+01  1.70155E+01
   1.64583E+01  1.59136E+01  1.53960E+01  1.49141E+01  1.44778E+01  1.40930E+01  1.37661E+01  1.35001E+01  1.32982E+01  1.31563E+01
   1.30731E+01  1.30479E+01  1.30786E+01  1.31587E+01  1.32853E+01  1.34529E+01  1.36597E+01  1.38995E+01  1.41645E+01  1.44502E+01
   1.47589E+01  1.50890E+01  1.54397E+01  1.58086E+01  1.61973E+01  1.66059E+01  1.70362E+01  1.74866E+01  1.79598E+01  1.84581E+01
   1.89860E+01  1.95453E+01  2.01375E+01  2.07597E+01  2.14092E+01  2.20780E+01  2.27587E+01  2.34400E+01  2.41093E+01  2.47498E+01
   2.53461E+01  2.58800E+01  2.63358E+01  2.66962E+01  2.69481E+01  2.70789E+01  2.70818E+01  2.69512E+01  2.66877E+01  2.62936E+01
   2.57771E+01  2.51480E+01  2.44213E+01  2.36117E+01  2.27376E+01  2.18158E+01  2.08656E+01  1.99034E+01  1.89468E+01  1.80092E+01
   1.71046E+01  1.62423E+01  1.54324E+01  1.46805E+01  1.39928E+01  1.33716E+01  1.28198E+01  1.23373E+01  1.19256E+01  1.15835E+01
   1.13116E+01  1.11080E+01  1.09733E+01  1.09059E+01  1.09069E+01  1.09753E+01  1.11122E+01  1.13166E+01  1.15894E+01  1.19292E+01
   1.23364E+01  1.28078E+01  1.33414E+01  1.39315E+01  1.45730E+01  1.52568E+01  1.59743E+01  1.67121E+01  1.74576E+01  1.81940E+01
   1.89061E+01  1.95755E+01  2.01860E+01  2.07197E+01  2.11621E+01  2.14988E+01  2.17202E+01  2.18178E+01  2.17888E+01  2.16315E+01
   2.13507E+01  2.09521E+01  2.04474E+01  1.98483E+01  1.91706E+01  1.84292E+01  1.76420E+01  1.68243E+01  1.59933E+01  1.51623E+01
   1.43452E+01  1.35517E+01  1.27918E+01  1.20712E+01  1.13958E+01  1.07673E+01  1.01881E+01  9.65672E+00  9.17331E+00  8.73472E+00
   8.33946E+00  7.98326E+00  7.66392E+00  7.37702E+00  7.12058E+00  6.89042E+00  6.68476E+00  6.49966E+00  6.33383E+00  6.18398E+00
   6.04945E+00  5.92740E+00  5.81740E+00  5.71689E+00  5.62588E+00  5.54230E+00  5.46650E+00  5.39655E+00  5.33283E+00  5.27354E+00
   5.21937E+00  5.16883E+00  5.12271E+00  5.07943E+00  5.03976E+00  5.00227E+00  4.96794E+00  4.93549E+00  4.90587E+00  4.87766E+00
   4.85178E+00  4.82697E+00  4.80438E+00  4.78277E+00  4.76314E+00  4.74415E+00  4.72685E+00  4.71005E+00  4.69494E+00  4.68030E+00
   4.66713E+00  4.65415E+00  4.64250E+00  4.63106E+00  4.62101E+00  4.61110E+00  4.60235E+00  4.59355E+00  4.58588E+00  4.57823E+00
   4.57176E+00  4.56520E+00  4.55961E+00  4.55381E+00  4.54906E+00  4.54421E+00  4.54039E+00  4.53634E+00  4.53314E+00  4.52969E+00
   4.52723E+00  4.52461E+00  4.52292E+00  4.52090E+00  4.51972E+00  4.51831E+00  4.51791E+00  4.51735E+00
 NY background values follow
     6.358E+00    6.330E+00    6.302E+00    6.274E+00    6.246E+00    6.218E+00    6.191E+00    6.163E+00    6.135E+00    6.107E+00
     6.079E+00    6.052E+00    6.024E+00    5.996E+00    5.968E+00    5.941E+00    5.913E+00    5.885E+00    5.857E+00    5.829E+00
     5.802E+00    5.774E+00    5.746E+00    5.718E+00    5.690E+00    5.662E+00    5.634E+00    5.606E+00    5.578E+00    5.550E+00
     5.522E+00    5.494E+00    5.466E+00    5.438E+00    5.410E+00    5.381E+00    5.353E+00    5.325E+00    5.297E+00    5.268E+00
     5.240E+00    5.211E+00    5.183E+00    5.154E+00    5.126E+00    5.097E+00    5.068E+00    5.039E+00    5.011E+00    4.982E+00
     4.953E+00    4.924E+00    4.895E+00    4.865E+00    4.836E+00    4.807E+00    4.777E+00    4.748E+00    4.719E+00    4.689E+00
     4.659E+00    4.630E+00    4.600E+00    4.570E+00    4.540E+00    4.510E+00    4.480E+00    4.449E+00    4.419E+00    4.389E+00
     4.358E+00    4.328E+00    4.297E+00    4.266E+00    4.235E+00    4.204E+00    4.173E+00    4.142E+00    4.111E+00    4.079E+00
     4.048E+00    4.016E+00    3.984E+00    3.952E+00    3.920E+00    3.888E+00    3.856E+00    3.824E+00    3.792E+00    3.759E+00
     3.726E+00    3.694E+00    3.661E+00    3.628E+00    3.595E+00    3.561E+00    3.528E+00    3.495E+00    3.461E+00    3.427E+00
     3.394E+00    3.360E+00    3.326E+00    3.293E+00    3.259E+00    3.225E+00    3.191E+00    3.157E+00    3.123E+00    3.089E+00
     3.055E+00    3.021E+00    2.987E+00    2.953E+00    2.919E+00    2.885E+00    2.851E+00    2.817E+00    2.783E+00    2.749E+00
     2.716E+00    2.682E+00    2.648E+00    2.615E+00    2.581E+00    2.548E+00    2.514E+00    2.481E+00    2.448E+00    2.415E+00
     2.382E+00    2.349E+00    2.317E+00    2.284E+00    2.252E+00    2.219E+00    2.187E+00    2.155E+00    2.124E+00    2.092E+00
     2.061E+00    2.030E+00    1.999E+00    1.968E+00    1.938E+00    1.908E+00    1.879E+00    1.849E+00    1.821E+00    1.792E+00
     1.764E+00    1.737E+00    1.710E+00    1.683E+00    1.657E+00    1.631E+00    1.606E+00    1.582E+00    1.558E+00    1.535E+00
     1.512E+00    1.490E+00    1.469E+00    1.448E+00    1.428E+00    1.409E+00    1.390E+00    1.372E+00    1.355E+00    1.339E+00
     1.324E+00    1.309E+00    1.296E+00    1.283E+00    1.271E+00    1.260E+00    1.250E+00    1.241E+00    1.233E+00    1.226E+00
     1.220E+00    1.215E+00    1.212E+00    1.209E+00    1.207E+00    1.206E+00    1.206E+00    1.207E+00    1.209E+00    1.212E+00
     1.216E+00    1.220E+00    1.226E+00    1.232E+00    1.239E+00    1.247E+00    1.255E+00    1.264E+00    1.274E+00    1.285E+00
     1.296E+00    1.308E+00    1.321E+00    1.334E+00    1.347E+00    1.362E+00    1.376E+00    1.392E+00    1.407E+00    1.424E+00
     1.440E+00    1.457E+00    1.475E+00    1.493E+00    1.511E+00    1.529E+00    1.548E+00    1.567E+00    1.586E+00    1.606E+00
     1.626E+00    1.646E+00    1.666E+00    1.686E+00    1.707E+00    1.727E+00    1.748E+00    1.769E+00    1.789E+00    1.810E+00
     1.831E+00    1.852E+00    1.873E+00    1.894E+00    1.915E+00    1.936E+00    1.956E+00    1.977E+00    1.998E+00    2.019E+00
     2.040E+00    2.061E+00    2.082E+00    2.102E+00    2.123E+00    2.143E+00    2.164E+00    2.184E+00    2.205E+00    2.225E+00
     2.245E+00    2.265E+00    2.285E+00    2.305E+00    2.324E+00    2.344E+00    2.363E+00    2.382E+00    2.401E+00    2.420E+00
     2.439E+00    2.457E+00    2.476E+00    2.494E+00    2.512E+00    2.529E+00    2.547E+00    2.564E+00    2.581E+00    2.597E+00
     2.614E+00    2.630E+00    2.646E+00    2.662E+00    2.677E+00    2.692E+00    2.707E+00    2.722E+00    2.736E+00    2.750E+00
     2.764E+00    2.777E+00    2.791E+00    2.804E+00    2.816E+00    2.829E+00    2.841E+00    2.853E+00    2.865E+00    2.876E+00
     2.887E+00    2.898E+00    2.908E+00    2.919E+00    2.929E+00    2.939E+00    2.948E+00    2.957E+00    2.966E+00    2.975E+00
     2.983E+00    2.992E+00    2.999E+00    3.007E+00    3.014E+00    3.021E+00    3.028E+00    3.035E+00    3.041E+00    3.047E+00
     3.053E+00    3.058E+00    3.064E+00    3.068E+00    3.073E+00    3.078E+00    3.082E+00    3.086E+00    3.089E+00    3.092E+00
     3.096E+00    3.098E+00    3.101E+00    3.103E+00    3.106E+00    3.107E+00    3.109E+00    3.111E+00    3.112E+00    3.113E+00
     3.114E+00    3.115E+00    3.116E+00    3.116E+00    3.116E+00    3.116E+00    3.116E+00    3.116E+00    3.116E+00    3.116E+00
     3.115E+00    3.114E+00    3.114E+00    3.113E+00    3.112E+00    3.111E+00    3.110E+00    3.109E+00    3.108E+00    3.106E+00
     3.105E+00    3.104E+00    3.102E+00    3.101E+00    3.100E+00    3.098E+00    3.097E+00    3.095E+00    3.094E+00    3.092E+00
     3.091E+00    3.090E+00    3.088E+00    3.087E+00    3.086E+00    3.084E+00    3.083E+00    3.082E+00    3.081E+00    3.080E+00
     3.079E+00    3.078E+00    3.077E+00    3.076E+00    3.076E+00    3.075E+00    3.075E+00    3.074E+00    3.074E+00    3.074E+00
     3.073E+00    3.073E+00    3.073E+00    3.074E+00    3.074E+00    3.074E+00    3.075E+00    3.076E+00    3.076E+00    3.077E+00
     3.078E+00    3.080E+00    3.081E+00    3.082E+00    3.084E+00    3.086E+00    3.088E+00    3.090E+00    3.092E+00    3.095E+00
     3.097E+00    3.100E+00    3.103E+00    3.106E+00    3.110E+00    3.113E+00    3.117E+00    3.121E+00    3.125E+00    3.129E+00
     3.134E+00    3.139E+00    3.144E+00    3.149E+00    3.154E+00    3.159E+00    3.165E+00    3.171E+00    3.177E+00    3.183E+00
     3.189E+00    3.195E+00    3.202E+00    3.208E+00    3.215E+00    3.222E+00    3.229E+00    3.236E+00    3.243E+00    3.250E+00
     3.258E+00    3.265E+00    3.273E+00    3.281E+00    3.288E+00    3.296E+00    3.304E+00    3.312E+00    3.320E+00    3.328E+00
     3.336E+00    3.344E+00    3.353E+00    3.361E+00    3.369E+00    3.378E+00    3.386E+00    3.394E+00    3.403E+00    3.411E+00
     3.420E+00    3.428E+00    3.436E+00    3.445E+00    3.453E+00    3.462E+00    3.470E+00    3.478E+00    3.487E+00    3.495E+00
     3.504E+00    3.512E+00    3.520E+00    3.529E+00    3.537E+00    3.546E+00    3.554E+00    3.562E+00    3.571E+00    3.579E+00
     3.587E+00    3.596E+00    3.604E+00    3.612E+00    3.621E+00    3.629E+00    3.637E+00    3.646E+00    3.654E+00    3.662E+00
     3.671E+00    3.679E+00    3.687E+00    3.696E+00    3.704E+00    3.712E+00    3.721E+00    3.729E+00    3.737E+00    3.746E+00
     3.754E+00    3.762E+00    3.771E+00    3.779E+00    3.787E+00    3.795E+00    3.804E+00    3.812E+00
 Ala      Conc. = 2.72E+00
