 LCModel (Version 6.3-1L) Copyright: S.W. Provencher.          Ref.: Magn. Reson. Med. 30:672-679 (1993).                
 Slice#1 Row#8 Col#2  PD_24_press_2_raw_act
 36 lines in following concentration table = NCONC+1
    Conc.  %SD /Cr+PCr  Metabolite                                         
  565.305  47%   0.496 Ala                                                 
   27.426 999% 2.4E-02 Asp                                                 
 1.14E+03   9%   1.000 Cr                                                  
    0.000 999%   0.000 PCr                                                 
    0.000 999%   0.000 GABA                                                
    0.000 999%   0.000 Glc                                                 
  775.424  74%   0.681 Gln                                                 
 1.52E+03  41%   1.331 Glu                                                 
  393.150  11%   0.345 GPC                                                 
    0.000 999%   0.000 PCh                                                 
  806.664  19%   0.708 GSH                                                 
  882.446  60%   0.775 Ins                                                 
    0.000 999%   0.000 Lac                                                 
 1.99E+03  16%   1.747 NAA                                                 
  921.615  33%   0.809 NAAG                                                
   31.721 137% 2.8E-02 Scyllo                                              
   75.896 365% 6.7E-02 Tau                                                 
  248.396  72%   0.218 -CrCH2                                              
  393.150  11%   0.345 GPC+PCh                                             
 2.91E+03   6%   2.556 NAA+NAAG                                            
 1.14E+03   9%   1.000 Cr+PCr                                              
 2.29E+03  44%   2.012 Glu+Gln                                             
 7.95E+03  24%   6.977 Lip13a                                              
  166.259 219%   0.146 Lip13b                                              
 1.98E+03  35%   1.739 Lip09                                               
 2.70E+03  21%   2.373 MM09                                                
 1.84E+03  38%   1.618 Lip20                                               
 1.15E+04  10%  10.057 MM20                                                
 1.29E+03  53%   1.132 MM12                                                
 8.74E+03   6%   7.671 MM14                                                
    0.000 999%   0.000 MM17                                                
 8.11E+03  22%   7.123 Lip13a+Lip13b                                       
 1.81E+04   7%  15.925 MM14+Lip13a+Lip13b+MM12                             
 4.68E+03  15%   4.112 MM09+Lip09                                          
 1.33E+04   7%  11.674 MM20+Lip20                                          
   6 lines in following misc. output table
  FWHM = 0.084 ppm    S/N =  10                                            
  Data shift =-0.092 ppm                                                   
  Ph:  34 deg      26.3 deg/ppm                                            
  alphaB,S = 3.7E-01,   1.1E+01                                            
   14 spline knots.   Ns =10(1)                                            
  (17) 9 infls.   (19) 5 extrs.                                            
  498 points on ppm-axis = NY
      4.000000     3.992357     3.984714     3.977070     3.969427     3.961784     3.954141     3.946497     3.938854     3.931211
      3.923568     3.915925     3.908281     3.900638     3.892995     3.885352     3.877708     3.870065     3.862422     3.854779
      3.847136     3.839492     3.831849     3.824206     3.816563     3.808919     3.801276     3.793633     3.785990     3.778347
      3.770703     3.763060     3.755417     3.747774     3.740130     3.732487     3.724844     3.717201     3.709558     3.701914
      3.694271     3.686628     3.678985     3.671341     3.663698     3.656055     3.648412     3.640769     3.633125     3.625482
      3.617839     3.610196     3.602552     3.594909     3.587266     3.579623     3.571980     3.564336     3.556693     3.549050
      3.541407     3.533763     3.526120     3.518477     3.510834     3.503191     3.495547     3.487904     3.480261     3.472618
      3.464974     3.457331     3.449688     3.442045     3.434402     3.426758     3.419115     3.411472     3.403829     3.396185
      3.388542     3.380899     3.373256     3.365613     3.357969     3.350326     3.342683     3.335040     3.327396     3.319753
      3.312110     3.304467     3.296824     3.289180     3.281537     3.273894     3.266251     3.258607     3.250964     3.243321
      3.235678     3.228034     3.220391     3.212748     3.205105     3.197462     3.189818     3.182175     3.174532     3.166889
      3.159245     3.151602     3.143959     3.136316     3.128673     3.121029     3.113386     3.105743     3.098100     3.090456
      3.082813     3.075170     3.067527     3.059884     3.052240     3.044597     3.036954     3.029311     3.021667     3.014024
      3.006381     2.998738     2.991095     2.983451     2.975808     2.968165     2.960522     2.952878     2.945235     2.937592
      2.929949     2.922306     2.914662     2.907019     2.899376     2.891733     2.884089     2.876446     2.868803     2.861160
      2.853517     2.845873     2.838230     2.830587     2.822944     2.815300     2.807657     2.800014     2.792371     2.784728
      2.777084     2.769441     2.761798     2.754155     2.746511     2.738868     2.731225     2.723582     2.715939     2.708295
      2.700652     2.693009     2.685366     2.677722     2.670079     2.662436     2.654793     2.647150     2.639506     2.631863
      2.624220     2.616577     2.608933     2.601290     2.593647     2.586004     2.578361     2.570717     2.563074     2.555431
      2.547788     2.540144     2.532501     2.524858     2.517215     2.509572     2.501928     2.494285     2.486642     2.478999
      2.471355     2.463712     2.456069     2.448426     2.440783     2.433139     2.425496     2.417853     2.410210     2.402566
      2.394923     2.387280     2.379637     2.371994     2.364350     2.356707     2.349064     2.341421     2.333777     2.326134
      2.318491     2.310848     2.303205     2.295561     2.287918     2.280275     2.272632     2.264988     2.257345     2.249702
      2.242059     2.234416     2.226772     2.219129     2.211486     2.203843     2.196199     2.188556     2.180913     2.173270
      2.165627     2.157983     2.150340     2.142697     2.135054     2.127410     2.119767     2.112124     2.104481     2.096838
      2.089194     2.081551     2.073908     2.066265     2.058621     2.050978     2.043335     2.035692     2.028049     2.020405
      2.012762     2.005119     1.997476     1.989833     1.982190     1.974546     1.966903     1.959260     1.951617     1.943974
      1.936331     1.928688     1.921045     1.913402     1.905759     1.898115     1.890472     1.882829     1.875186     1.867543
      1.859900     1.852257     1.844614     1.836971     1.829327     1.821684     1.814041     1.806398     1.798755     1.791112
      1.783469     1.775826     1.768183     1.760540     1.752896     1.745253     1.737610     1.729967     1.722324     1.714681
      1.707038     1.699395     1.691752     1.684108     1.676465     1.668822     1.661179     1.653536     1.645893     1.638250
      1.630607     1.622964     1.615321     1.607677     1.600034     1.592391     1.584748     1.577105     1.569462     1.561819
      1.554176     1.546533     1.538890     1.531246     1.523603     1.515960     1.508317     1.500674     1.493031     1.485388
      1.477745     1.470102     1.462458     1.454815     1.447172     1.439529     1.431886     1.424243     1.416600     1.408957
      1.401314     1.393671     1.386027     1.378384     1.370741     1.363098     1.355455     1.347812     1.340169     1.332526
      1.324883     1.317240     1.309596     1.301953     1.294310     1.286667     1.279024     1.271381     1.263738     1.256095
      1.248452     1.240808     1.233165     1.225522     1.217879     1.210236     1.202593     1.194950     1.187307     1.179664
      1.172021     1.164377     1.156734     1.149091     1.141448     1.133805     1.126162     1.118519     1.110876     1.103233
      1.095590     1.087946     1.080303     1.072660     1.065017     1.057374     1.049731     1.042088     1.034445     1.026802
      1.019158     1.011515     1.003872     0.996229     0.988586     0.980943     0.973300     0.965657     0.958014     0.950371
      0.942727     0.935084     0.927441     0.919798     0.912155     0.904512     0.896869     0.889226     0.881583     0.873940
      0.866296     0.858653     0.851010     0.843367     0.835724     0.828081     0.820438     0.812795     0.805152     0.797508
      0.789865     0.782222     0.774579     0.766936     0.759293     0.751650     0.744007     0.736364     0.728721     0.721077
      0.713434     0.705791     0.698148     0.690505     0.682862     0.675219     0.667576     0.659933     0.652290     0.644646
      0.637003     0.629360     0.621717     0.614074     0.606431     0.598788     0.591145     0.583502     0.575858     0.568215
      0.560572     0.552929     0.545286     0.537643     0.530000     0.522357     0.514714     0.507071     0.499427     0.491784
      0.484141     0.476498     0.468855     0.461212     0.453569     0.445925     0.438282     0.430639     0.422996     0.415353
      0.407710     0.400067     0.392424     0.384780     0.377137     0.369494     0.361851     0.354208     0.346565     0.338922
      0.331278     0.323635     0.315992     0.308349     0.300706     0.293063     0.285420     0.277777     0.270133     0.262490
      0.254847     0.247204     0.239561     0.231918     0.224275     0.216631     0.208988     0.201345
 NY phased data points follow
  -2.54899E+01 -2.29682E+01 -2.09311E+01 -2.31631E+01 -2.40999E+01 -1.03637E+01 -2.23645E+01 -1.40523E+01 -2.27209E+01 -1.44505E+01
  -1.66574E+01 -9.57798E+00 -1.31169E+01 -6.54391E+00 -8.41594E+00  1.62475E+00 -6.21792E+00  2.34616E+00 -4.79204E+00  5.89073E-01
   1.59461E+00  4.79091E+00 -9.06754E+00 -2.74833E+00 -5.73828E+00 -1.93992E+00 -1.05584E+01 -2.93352E+00 -8.89201E+00 -3.95731E+00
  -8.56791E+00 -6.28373E+00 -1.15084E+01  8.35989E-01 -9.71704E+00 -5.82550E+00 -9.45120E+00 -8.38384E+00 -1.55973E+01 -5.07173E+00
  -1.31862E+01 -1.00915E+01 -1.71014E+01 -6.27467E+00 -1.65967E+01 -8.99675E+00 -7.86781E+00 -1.11112E+01 -1.18323E+01 -1.10172E+01
  -1.51096E+01 -8.45012E+00 -1.03763E+01 -5.33396E+00 -1.32093E+01 -6.53034E+00 -1.16923E+01 -1.31837E+01 -1.82563E+01 -1.24601E+01
  -1.60058E+01 -1.35039E+01 -1.52832E+01 -1.29925E+01 -1.56601E+01 -1.68535E+01 -2.01433E+01 -1.65209E+01 -1.66496E+01 -2.07950E+01
  -1.90472E+01 -2.43038E+01 -2.27875E+01 -2.49308E+01 -2.31247E+01 -2.04219E+01 -2.42199E+01 -2.31226E+01 -2.56878E+01 -1.68876E+01
  -2.61542E+01 -2.37554E+01 -2.48917E+01 -1.74284E+01 -2.52644E+01 -2.38696E+01 -2.40969E+01 -2.09391E+01 -2.94976E+01 -2.52136E+01
  -2.41982E+01 -2.07085E+01 -2.63868E+01 -2.29031E+01 -1.79037E+01 -2.46095E+01 -2.38405E+01 -1.70912E+01 -3.08818E+01 -2.26330E+01
  -1.65420E+01 -1.67596E+01 -1.87133E+01 -1.09857E+01 -1.22698E+01 -7.28051E+00 -1.21055E+01 -7.30120E+00 -1.56134E+00 -2.23182E+00
   6.95189E+00  1.34928E+00 -2.43243E+00  3.34735E+00 -5.70353E+00 -4.17053E+00 -7.20302E+00 -1.98199E+01 -1.32865E+01 -1.39910E+01
  -1.64069E+01 -1.76659E+01 -2.08106E+01 -2.23754E+01 -2.62006E+01 -1.98837E+01 -1.79503E+01 -8.90650E+00 -1.51375E+01 -3.41762E+00
  -6.41065E+00  2.89394E+00  6.58621E+00  5.36894E+00  9.26986E+00  8.16729E+00 -4.16328E-01 -4.94773E+00 -1.04253E+01 -1.04359E+01
  -1.99608E+01 -1.90114E+01 -1.41128E+01 -1.56945E+01 -2.22967E+01 -2.37522E+01 -2.58309E+01 -2.53645E+01 -2.74045E+01 -3.32540E+01
  -2.98238E+01 -3.09130E+01 -3.23982E+01 -3.01918E+01 -2.73992E+01 -2.92177E+01 -3.17234E+01 -2.75688E+01 -2.90169E+01 -3.38070E+01
  -3.25432E+01 -3.30959E+01 -3.91298E+01 -3.80406E+01 -3.14702E+01 -3.21376E+01 -3.82121E+01 -3.75399E+01 -3.97154E+01 -4.11246E+01
  -3.85960E+01 -4.43215E+01 -4.69616E+01 -4.09748E+01 -5.09477E+01 -4.98580E+01 -4.68736E+01 -4.87466E+01 -5.67879E+01 -5.18575E+01
  -5.30326E+01 -4.91212E+01 -5.63183E+01 -4.75107E+01 -4.68452E+01 -4.50387E+01 -4.52306E+01 -4.03668E+01 -4.06673E+01 -4.26071E+01
  -4.33414E+01 -3.92656E+01 -4.22091E+01 -3.99726E+01 -4.04259E+01 -3.80924E+01 -3.97875E+01 -3.46672E+01 -3.52833E+01 -3.82484E+01
  -3.89662E+01 -3.29247E+01 -3.22990E+01 -3.22873E+01 -3.11853E+01 -2.91179E+01 -2.82987E+01 -2.73127E+01 -2.94921E+01 -2.48951E+01
  -3.22352E+01 -2.29106E+01 -3.06209E+01 -2.47961E+01 -2.64344E+01 -2.96384E+01 -2.75713E+01 -1.82177E+01 -1.56038E+01 -1.76661E+01
  -1.71260E+01 -1.85252E+01 -2.40107E+01 -1.83239E+01 -1.89550E+01 -2.53668E+01 -2.41409E+01 -1.87822E+01 -2.37461E+01 -2.12851E+01
  -1.83289E+01 -1.49839E+01 -1.58464E+01 -1.77399E+01 -1.63033E+01 -1.32034E+01 -1.50539E+01 -6.01630E+00 -8.02738E+00 -1.00794E+01
  -1.24538E+01 -1.14097E+01 -4.19113E+00 -1.24954E+01 -1.20473E+01 -7.43845E+00 -1.02081E+01 -9.49835E+00 -3.44959E+00 -3.91683E+00
  -4.66540E+00 -1.70735E+00 -1.80013E+00  2.10400E+00  5.28537E+00  1.09472E+01  1.61339E+01  2.11470E+01  2.15458E+01  2.85825E+01
   3.97214E+01  3.90536E+01  4.79539E+01  4.71972E+01  4.73579E+01  4.00991E+01  3.63376E+01  2.66104E+01  1.31345E+01  1.85742E+00
  -2.98890E+00 -1.89867E+01 -2.90147E+01 -2.43626E+01 -3.12187E+01 -2.82603E+01 -4.15546E+01 -3.86631E+01 -3.88596E+01 -4.64866E+01
  -3.90264E+01 -4.64285E+01 -5.03335E+01 -3.92578E+01 -4.38100E+01 -4.48798E+01 -4.76231E+01 -4.81322E+01 -4.32263E+01 -4.40535E+01
  -4.37364E+01 -4.70596E+01 -4.69718E+01 -4.16879E+01 -4.81062E+01 -4.74381E+01 -3.99605E+01 -4.60174E+01 -4.71066E+01 -4.64681E+01
  -4.47511E+01 -4.58401E+01 -5.02171E+01 -4.83964E+01 -4.69902E+01 -4.54623E+01 -4.79162E+01 -5.60641E+01 -5.40709E+01 -4.80422E+01
  -5.67427E+01 -5.17149E+01 -5.64953E+01 -4.73736E+01 -4.59694E+01 -4.86983E+01 -4.87014E+01 -4.55859E+01 -4.81752E+01 -4.35536E+01
  -4.05861E+01 -3.57635E+01 -3.06878E+01 -2.14878E+01 -1.42559E+01 -1.01897E+01 -3.50239E+00 -1.57210E+00  4.54889E+00  9.02556E+00
   1.23006E+01  1.39216E+01  1.58672E+01  2.07513E+01  2.30546E+01  2.06326E+01  2.54404E+01  2.28176E+01  2.31414E+01  2.73393E+01
   2.21494E+01  2.79619E+01  2.65542E+01  2.88071E+01  2.21291E+01  2.28019E+01  1.89655E+01  1.16725E+01  1.07944E+01  1.31449E+01
   8.88740E+00  1.02467E+01  1.24705E+01  3.40868E+00  1.00306E+01  1.07469E+01  3.78885E+00  5.12933E+00 -3.96092E+00 -3.98616E-01
  -1.90202E-01  1.84640E+00 -2.08069E+00 -6.12075E+00 -4.06915E+00 -4.36569E+00 -2.25111E+00 -6.20761E+00 -6.03496E+00 -4.11391E+00
  -1.20159E+01 -1.22091E+01 -1.71871E+01 -8.34245E+00 -1.06590E+01 -1.53792E+01 -1.21959E+01 -1.93232E+01 -1.66516E+01 -1.33229E+01
  -1.47785E+01 -1.48620E+01 -1.87381E+01 -1.21299E+01 -1.56182E+01 -1.44497E+01 -1.49250E+01 -1.32638E+01 -1.17967E+01 -1.53883E+01
  -1.21697E+01 -1.19622E+01 -1.32211E+01 -1.18347E+01 -1.17582E+01 -6.90758E+00 -1.28416E+01 -1.07626E+01 -1.18955E+01 -1.45602E+01
  -1.54492E+01 -1.31192E+01 -1.19229E+01 -1.71664E+01 -1.62879E+01 -1.17299E+01 -7.82999E+00 -1.30918E+01 -1.57113E+01 -1.63513E+01
  -8.48111E+00 -1.22445E+01 -8.64643E+00 -1.23821E+01 -1.23965E+01 -1.47413E+01 -1.20804E+01 -1.41837E+01 -1.23645E+01 -1.41442E+01
  -1.75514E+01 -1.76414E+01 -1.78959E+01 -2.00631E+01 -1.84052E+01 -1.57047E+01 -1.47622E+01 -1.50810E+01 -1.44215E+01 -1.98963E+01
  -2.09472E+01 -1.75333E+01 -2.32938E+01 -1.27029E+01 -1.68897E+01 -1.64318E+01 -1.66688E+01 -2.03174E+01 -1.63634E+01 -1.68593E+01
  -1.93461E+01 -1.58990E+01 -2.17509E+01 -1.65843E+01 -2.02761E+01 -1.42669E+01 -1.93708E+01 -1.71288E+01 -1.98274E+01 -1.54360E+01
  -2.20260E+01 -1.50818E+01 -1.81847E+01 -1.83109E+01 -1.22160E+01 -2.14866E+01 -1.56856E+01 -1.40868E+01 -1.61125E+01 -1.67340E+01
  -1.29954E+01 -1.75594E+01 -1.20361E+01 -1.44486E+01 -1.28974E+01 -1.53354E+01 -1.88831E+01 -1.21366E+01 -1.30933E+01 -9.30932E+00
  -1.58332E+01 -1.88707E+01 -2.08929E+01 -1.52981E+01 -1.70189E+01 -1.10447E+01 -1.33325E+01 -1.25707E+01 -1.48566E+01 -1.61467E+01
  -1.99901E+01 -1.56723E+01 -1.98579E+01 -1.25307E+01 -1.74632E+01 -1.72722E+01 -2.24187E+01 -7.62461E+00 -1.45034E+01 -1.14881E+01
  -1.16751E+01 -9.88771E+00 -7.40957E+00 -8.26416E+00 -1.31885E+01 -1.38618E+01 -1.03423E+01 -1.16599E+01
 NY points of the fit to the data follow
  -1.47862E+01 -1.54950E+01 -1.56521E+01 -1.62889E+01 -1.65969E+01 -1.63615E+01 -1.78231E+01 -1.79844E+01 -1.72078E+01 -1.62725E+01
  -1.47068E+01 -1.29116E+01 -1.10951E+01 -8.49514E+00 -6.88683E+00 -4.24531E+00 -1.62490E+00  1.41293E-01  6.24114E-01  3.55492E-01
   3.57490E-01 -9.92332E-01 -4.11034E+00 -5.07218E+00 -9.01624E+00 -1.13134E+01 -1.12164E+01 -1.03041E+01 -9.40158E+00 -7.80937E+00
  -7.18713E+00 -5.70797E+00 -4.21194E+00 -3.73733E+00 -3.38804E+00 -3.39592E+00 -4.40470E+00 -5.98743E+00 -7.48002E+00 -7.77440E+00
  -1.14503E+01 -1.42601E+01 -1.48359E+01 -1.51255E+01 -1.51671E+01 -1.52729E+01 -1.50007E+01 -1.43042E+01 -1.36334E+01 -1.31961E+01
  -1.25181E+01 -1.21221E+01 -1.24215E+01 -1.31633E+01 -1.37617E+01 -1.44753E+01 -1.54355E+01 -1.61383E+01 -1.67880E+01 -1.77115E+01
  -1.83274E+01 -1.81808E+01 -1.78678E+01 -1.78576E+01 -1.79791E+01 -1.82129E+01 -1.84319E+01 -1.87373E+01 -1.91447E+01 -1.93836E+01
  -1.97475E+01 -2.00203E+01 -2.02004E+01 -2.03147E+01 -2.02389E+01 -2.01754E+01 -2.01629E+01 -2.01737E+01 -2.03060E+01 -2.05678E+01
  -2.09654E+01 -2.11386E+01 -2.13254E+01 -2.16956E+01 -2.19825E+01 -2.21837E+01 -2.23692E+01 -2.26430E+01 -2.28422E+01 -2.30270E+01
  -2.32342E+01 -2.34466E+01 -2.36667E+01 -2.38948E+01 -2.42024E+01 -2.45313E+01 -2.35469E+01 -2.23844E+01 -2.39759E+01 -2.35701E+01
  -2.16555E+01 -1.97823E+01 -1.74215E+01 -1.45008E+01 -1.16652E+01 -7.89482E+00 -5.51172E+00 -2.12194E+00  1.21134E+00  3.08871E+00
   3.57671E+00  3.00787E+00  8.73882E-01 -2.91047E+00 -6.70025E+00 -8.35225E+00 -1.53475E+01 -2.07315E+01 -2.19972E+01 -2.23023E+01
  -2.11171E+01 -2.03397E+01 -2.18853E+01 -2.07673E+01 -1.87739E+01 -1.68241E+01 -1.43561E+01 -1.10898E+01 -7.81981E+00 -3.98226E+00
  -1.54982E+00  2.20412E+00  4.87111E+00  5.97959E+00  5.49989E+00  4.10424E+00  8.85636E-01 -3.87750E+00 -7.84393E+00 -1.08897E+01
  -1.94031E+01 -2.38408E+01 -2.49076E+01 -2.53391E+01 -2.59467E+01 -2.58442E+01 -2.55394E+01 -2.55000E+01 -2.55366E+01 -2.60819E+01
  -2.68396E+01 -2.76504E+01 -2.89095E+01 -2.97284E+01 -3.02196E+01 -3.07546E+01 -3.12330E+01 -3.17848E+01 -3.24014E+01 -3.28566E+01
  -3.33012E+01 -3.37311E+01 -3.40625E+01 -3.44589E+01 -3.49888E+01 -3.54863E+01 -3.59995E+01 -3.66208E+01 -3.72120E+01 -3.75100E+01
  -3.82211E+01 -3.89863E+01 -3.93690E+01 -3.99682E+01 -4.04394E+01 -4.09731E+01 -4.17972E+01 -4.21458E+01 -4.25711E+01 -4.29740E+01
  -4.30998E+01 -4.32526E+01 -4.33101E+01 -4.35154E+01 -4.35394E+01 -4.34282E+01 -4.31095E+01 -4.21603E+01 -4.12867E+01 -4.06029E+01
  -3.97246E+01 -3.89159E+01 -3.77850E+01 -3.69098E+01 -3.62915E+01 -3.57922E+01 -3.58154E+01 -3.60622E+01 -3.59644E+01 -3.62672E+01
  -3.66265E+01 -3.67518E+01 -3.64799E+01 -3.54186E+01 -3.45543E+01 -3.34919E+01 -3.25547E+01 -3.18319E+01 -3.12197E+01 -3.16163E+01
  -3.26051E+01 -3.30030E+01 -3.37163E+01 -3.41750E+01 -3.41680E+01 -3.37548E+01 -3.24931E+01 -3.10920E+01 -2.97541E+01 -2.79830E+01
  -2.68992E+01 -2.52910E+01 -2.48613E+01 -2.53755E+01 -2.54818E+01 -2.60411E+01 -2.64084E+01 -2.66980E+01 -2.67620E+01 -2.53214E+01
  -2.35101E+01 -2.10693E+01 -1.87981E+01 -1.67576E+01 -1.45301E+01 -1.25959E+01 -1.14560E+01 -1.05946E+01 -1.00364E+01 -9.07943E+00
  -8.29074E+00 -7.70279E+00 -6.85782E+00 -6.28025E+00 -5.87062E+00 -5.90347E+00 -6.02351E+00 -4.95956E+00 -3.97065E+00 -4.71166E+00
  -4.36914E+00 -9.79106E-01  3.05374E+00  2.37535E+00  4.92222E+00  9.73923E+00  1.46240E+01  1.91240E+01  2.55626E+01  3.18939E+01
   3.84284E+01  4.13504E+01  4.48958E+01  4.74489E+01  4.57795E+01  4.14953E+01  3.72331E+01  2.65129E+01  1.34827E+01  3.65581E+00
  -1.06211E+00 -1.42487E+01 -2.61777E+01 -3.02342E+01 -3.23593E+01 -3.40460E+01 -3.55960E+01 -3.67221E+01 -3.78033E+01 -3.88419E+01
  -3.97958E+01 -4.06807E+01 -4.15423E+01 -4.23680E+01 -4.30820E+01 -4.38033E+01 -4.44854E+01 -4.51144E+01 -4.55576E+01 -4.59297E+01
  -4.63138E+01 -4.67164E+01 -4.70242E+01 -4.73204E+01 -4.76102E+01 -4.79175E+01 -4.81336E+01 -4.83232E+01 -4.84747E+01 -4.86015E+01
  -4.87071E+01 -4.88100E+01 -4.88506E+01 -4.89121E+01 -4.89621E+01 -4.89557E+01 -4.88843E+01 -4.87397E+01 -4.85208E+01 -4.82320E+01
  -4.78098E+01 -4.72706E+01 -4.66157E+01 -4.57962E+01 -4.47861E+01 -4.35526E+01 -4.20638E+01 -4.02843E+01 -3.80400E+01 -3.53852E+01
  -3.28776E+01 -2.98312E+01 -2.58163E+01 -2.17051E+01 -1.73289E+01 -1.28004E+01 -8.26187E+00 -3.23521E+00  1.43466E+00  5.22537E+00
   9.35974E+00  1.27788E+01  1.56801E+01  1.81960E+01  2.02342E+01  2.18167E+01  2.32852E+01  2.45124E+01  2.51956E+01  2.54220E+01
   2.66092E+01  2.71426E+01  2.69339E+01  2.58987E+01  2.40277E+01  2.22203E+01  2.04483E+01  1.70907E+01  1.42501E+01  1.20537E+01
   1.02685E+01  8.80914E+00  7.61812E+00  6.63918E+00  5.81100E+00  5.07329E+00  4.36955E+00  3.65470E+00  2.89539E+00  2.07288E+00
   1.17849E+00  2.13235E-01 -8.18106E-01 -1.90683E+00 -3.04473E+00 -4.22186E+00 -5.42912E+00 -6.65469E+00 -7.88615E+00 -9.10725E+00
  -1.03011E+01 -1.14481E+01 -1.25297E+01 -1.35265E+01 -1.44219E+01 -1.52005E+01 -1.58509E+01 -1.63639E+01 -1.67355E+01 -1.69637E+01
  -1.70520E+01 -1.70053E+01 -1.68339E+01 -1.65492E+01 -1.61669E+01 -1.57034E+01 -1.51778E+01 -1.46087E+01 -1.40168E+01 -1.34210E+01
  -1.28404E+01 -1.22912E+01 -1.17887E+01 -1.13442E+01 -1.09674E+01 -1.06636E+01 -1.04363E+01 -1.02844E+01 -1.02054E+01 -1.01935E+01
  -1.02424E+01 -1.03433E+01 -1.04883E+01 -1.06680E+01 -1.08751E+01 -1.11017E+01 -1.13432E+01 -1.15942E+01 -1.18527E+01 -1.21163E+01
  -1.23855E+01 -1.26600E+01 -1.29419E+01 -1.32317E+01 -1.35317E+01 -1.38419E+01 -1.41637E+01 -1.44964E+01 -1.48397E+01 -1.51913E+01
  -1.55495E+01 -1.59105E+01 -1.62719E+01 -1.66292E+01 -1.69795E+01 -1.73181E+01 -1.76424E+01 -1.79483E+01 -1.82339E+01 -1.84961E+01
  -1.87342E+01 -1.89458E+01 -1.91313E+01 -1.92894E+01 -1.94215E+01 -1.95271E+01 -1.96079E+01 -1.96642E+01 -1.96982E+01 -1.97103E+01
  -1.97029E+01 -1.96768E+01 -1.96341E+01 -1.95754E+01 -1.95031E+01 -1.94176E+01 -1.93211E+01 -1.92139E+01 -1.90977E+01 -1.89729E+01
  -1.88412E+01 -1.87026E+01 -1.85587E+01 -1.84094E+01 -1.82560E+01 -1.80982E+01 -1.79372E+01 -1.77726E+01 -1.76057E+01 -1.74357E+01
  -1.72638E+01 -1.70894E+01 -1.69137E+01 -1.67359E+01 -1.65570E+01 -1.63764E+01 -1.61950E+01 -1.60120E+01 -1.58285E+01 -1.56437E+01
  -1.54585E+01 -1.52720E+01 -1.50853E+01 -1.48975E+01 -1.47095E+01 -1.45204E+01 -1.43313E+01 -1.41410E+01 -1.39507E+01 -1.37594E+01
  -1.35680E+01 -1.33756E+01 -1.31831E+01 -1.29896E+01 -1.27960E+01 -1.26014E+01 -1.24066E+01 -1.22107E+01 -1.20146E+01 -1.18174E+01
  -1.16199E+01 -1.14213E+01 -1.12224E+01 -1.10222E+01 -1.08216E+01 -1.06196E+01 -1.04173E+01 -1.02135E+01
 NY background values follow
    -2.006E+01   -2.005E+01   -2.003E+01   -2.002E+01   -2.001E+01   -2.000E+01   -1.999E+01   -1.998E+01   -1.997E+01   -1.996E+01
    -1.995E+01   -1.994E+01   -1.994E+01   -1.993E+01   -1.992E+01   -1.992E+01   -1.992E+01   -1.991E+01   -1.991E+01   -1.991E+01
    -1.992E+01   -1.992E+01   -1.992E+01   -1.993E+01   -1.994E+01   -1.995E+01   -1.996E+01   -1.997E+01   -1.998E+01   -2.000E+01
    -2.002E+01   -2.004E+01   -2.006E+01   -2.009E+01   -2.012E+01   -2.015E+01   -2.018E+01   -2.021E+01   -2.025E+01   -2.029E+01
    -2.033E+01   -2.038E+01   -2.043E+01   -2.048E+01   -2.053E+01   -2.059E+01   -2.065E+01   -2.072E+01   -2.078E+01   -2.085E+01
    -2.093E+01   -2.100E+01   -2.108E+01   -2.116E+01   -2.125E+01   -2.134E+01   -2.143E+01   -2.152E+01   -2.162E+01   -2.172E+01
    -2.182E+01   -2.192E+01   -2.203E+01   -2.214E+01   -2.225E+01   -2.236E+01   -2.248E+01   -2.259E+01   -2.272E+01   -2.284E+01
    -2.296E+01   -2.309E+01   -2.322E+01   -2.335E+01   -2.348E+01   -2.362E+01   -2.376E+01   -2.390E+01   -2.404E+01   -2.418E+01
    -2.433E+01   -2.447E+01   -2.462E+01   -2.477E+01   -2.492E+01   -2.507E+01   -2.523E+01   -2.538E+01   -2.554E+01   -2.570E+01
    -2.586E+01   -2.602E+01   -2.619E+01   -2.635E+01   -2.651E+01   -2.668E+01   -2.685E+01   -2.702E+01   -2.719E+01   -2.736E+01
    -2.753E+01   -2.770E+01   -2.788E+01   -2.805E+01   -2.823E+01   -2.840E+01   -2.858E+01   -2.876E+01   -2.894E+01   -2.912E+01
    -2.930E+01   -2.948E+01   -2.966E+01   -2.984E+01   -3.002E+01   -3.021E+01   -3.039E+01   -3.058E+01   -3.076E+01   -3.094E+01
    -3.113E+01   -3.131E+01   -3.150E+01   -3.169E+01   -3.187E+01   -3.206E+01   -3.224E+01   -3.243E+01   -3.262E+01   -3.280E+01
    -3.299E+01   -3.318E+01   -3.336E+01   -3.355E+01   -3.373E+01   -3.392E+01   -3.411E+01   -3.429E+01   -3.448E+01   -3.466E+01
    -3.485E+01   -3.503E+01   -3.521E+01   -3.539E+01   -3.558E+01   -3.576E+01   -3.594E+01   -3.612E+01   -3.629E+01   -3.647E+01
    -3.665E+01   -3.682E+01   -3.700E+01   -3.717E+01   -3.734E+01   -3.751E+01   -3.768E+01   -3.785E+01   -3.801E+01   -3.818E+01
    -3.834E+01   -3.850E+01   -3.866E+01   -3.882E+01   -3.897E+01   -3.913E+01   -3.928E+01   -3.943E+01   -3.957E+01   -3.972E+01
    -3.986E+01   -4.000E+01   -4.014E+01   -4.027E+01   -4.041E+01   -4.054E+01   -4.066E+01   -4.079E+01   -4.091E+01   -4.103E+01
    -4.115E+01   -4.126E+01   -4.137E+01   -4.148E+01   -4.158E+01   -4.169E+01   -4.179E+01   -4.188E+01   -4.198E+01   -4.207E+01
    -4.217E+01   -4.226E+01   -4.235E+01   -4.243E+01   -4.252E+01   -4.261E+01   -4.269E+01   -4.277E+01   -4.286E+01   -4.294E+01
    -4.302E+01   -4.310E+01   -4.319E+01   -4.327E+01   -4.335E+01   -4.343E+01   -4.352E+01   -4.360E+01   -4.369E+01   -4.377E+01
    -4.386E+01   -4.395E+01   -4.404E+01   -4.413E+01   -4.422E+01   -4.431E+01   -4.441E+01   -4.451E+01   -4.461E+01   -4.471E+01
    -4.482E+01   -4.493E+01   -4.504E+01   -4.515E+01   -4.527E+01   -4.539E+01   -4.552E+01   -4.564E+01   -4.578E+01   -4.591E+01
    -4.605E+01   -4.619E+01   -4.633E+01   -4.648E+01   -4.663E+01   -4.678E+01   -4.693E+01   -4.708E+01   -4.724E+01   -4.740E+01
    -4.756E+01   -4.772E+01   -4.788E+01   -4.805E+01   -4.821E+01   -4.838E+01   -4.854E+01   -4.871E+01   -4.888E+01   -4.904E+01
    -4.921E+01   -4.938E+01   -4.954E+01   -4.971E+01   -4.988E+01   -5.004E+01   -5.021E+01   -5.037E+01   -5.053E+01   -5.069E+01
    -5.085E+01   -5.101E+01   -5.116E+01   -5.132E+01   -5.147E+01   -5.162E+01   -5.177E+01   -5.191E+01   -5.205E+01   -5.219E+01
    -5.233E+01   -5.246E+01   -5.259E+01   -5.272E+01   -5.284E+01   -5.296E+01   -5.307E+01   -5.318E+01   -5.329E+01   -5.340E+01
    -5.350E+01   -5.360E+01   -5.369E+01   -5.378E+01   -5.387E+01   -5.395E+01   -5.403E+01   -5.410E+01   -5.417E+01   -5.424E+01
    -5.430E+01   -5.436E+01   -5.441E+01   -5.446E+01   -5.451E+01   -5.455E+01   -5.459E+01   -5.462E+01   -5.465E+01   -5.467E+01
    -5.469E+01   -5.470E+01   -5.471E+01   -5.472E+01   -5.472E+01   -5.472E+01   -5.471E+01   -5.469E+01   -5.467E+01   -5.465E+01
    -5.462E+01   -5.459E+01   -5.455E+01   -5.451E+01   -5.446E+01   -5.441E+01   -5.435E+01   -5.428E+01   -5.421E+01   -5.414E+01
    -5.406E+01   -5.397E+01   -5.389E+01   -5.379E+01   -5.369E+01   -5.359E+01   -5.348E+01   -5.337E+01   -5.325E+01   -5.313E+01
    -5.300E+01   -5.287E+01   -5.273E+01   -5.259E+01   -5.245E+01   -5.230E+01   -5.215E+01   -5.199E+01   -5.183E+01   -5.167E+01
    -5.150E+01   -5.133E+01   -5.115E+01   -5.097E+01   -5.079E+01   -5.060E+01   -5.041E+01   -5.022E+01   -5.002E+01   -4.982E+01
    -4.962E+01   -4.941E+01   -4.920E+01   -4.899E+01   -4.878E+01   -4.856E+01   -4.834E+01   -4.811E+01   -4.789E+01   -4.766E+01
    -4.743E+01   -4.719E+01   -4.695E+01   -4.672E+01   -4.647E+01   -4.623E+01   -4.598E+01   -4.573E+01   -4.548E+01   -4.523E+01
    -4.498E+01   -4.472E+01   -4.446E+01   -4.420E+01   -4.394E+01   -4.367E+01   -4.340E+01   -4.314E+01   -4.287E+01   -4.259E+01
    -4.232E+01   -4.205E+01   -4.177E+01   -4.149E+01   -4.121E+01   -4.093E+01   -4.065E+01   -4.037E+01   -4.008E+01   -3.979E+01
    -3.951E+01   -3.922E+01   -3.893E+01   -3.864E+01   -3.835E+01   -3.806E+01   -3.776E+01   -3.747E+01   -3.717E+01   -3.688E+01
    -3.658E+01   -3.629E+01   -3.599E+01   -3.569E+01   -3.539E+01   -3.509E+01   -3.479E+01   -3.449E+01   -3.419E+01   -3.389E+01
    -3.359E+01   -3.329E+01   -3.299E+01   -3.269E+01   -3.239E+01   -3.209E+01   -3.179E+01   -3.149E+01   -3.119E+01   -3.089E+01
    -3.059E+01   -3.029E+01   -2.999E+01   -2.969E+01   -2.940E+01   -2.910E+01   -2.880E+01   -2.851E+01   -2.821E+01   -2.792E+01
    -2.763E+01   -2.733E+01   -2.704E+01   -2.675E+01   -2.646E+01   -2.618E+01   -2.589E+01   -2.560E+01   -2.532E+01   -2.504E+01
    -2.476E+01   -2.448E+01   -2.420E+01   -2.392E+01   -2.365E+01   -2.338E+01   -2.311E+01   -2.284E+01   -2.257E+01   -2.230E+01
    -2.204E+01   -2.178E+01   -2.152E+01   -2.126E+01   -2.101E+01   -2.076E+01   -2.051E+01   -2.026E+01   -2.001E+01   -1.976E+01
    -1.952E+01   -1.928E+01   -1.904E+01   -1.880E+01   -1.856E+01   -1.833E+01   -1.809E+01   -1.786E+01   -1.763E+01   -1.740E+01
    -1.717E+01   -1.694E+01   -1.671E+01   -1.649E+01   -1.626E+01   -1.604E+01   -1.582E+01   -1.559E+01   -1.537E+01   -1.515E+01
    -1.493E+01   -1.471E+01   -1.449E+01   -1.427E+01   -1.405E+01   -1.383E+01   -1.361E+01   -1.339E+01   -1.318E+01   -1.296E+01
    -1.274E+01   -1.252E+01   -1.230E+01   -1.208E+01   -1.186E+01   -1.164E+01   -1.142E+01   -1.120E+01
 Ala      Conc. = 5.65E+02
