 LCModel (Version 6.3-1L) Copyright: S.W. Provencher.          Ref.: Magn. Reson. Med. 30:672-679 (1993).                
 Slice#2 Row#7 Col#9  PD_24_press_2_raw_act
 36 lines in following concentration table = NCONC+1
    Conc.  %SD /Cr+PCr  Metabolite                                         
    0.000 999%   0.000 Ala                                                 
   54.682 485% 5.4E-02 Asp                                                 
  409.639  62%   0.407 Cr                                                  
  596.217  44%   0.593 PCr                                                 
  157.411 106%   0.156 GABA                                                
  198.957  84%   0.198 Glc                                                 
 1.10E+03  32%   1.092 Gln                                                 
 1.91E+03  21%   1.901 Glu                                                 
  634.619   6%   0.631 GPC                                                 
    0.000 999%   0.000 PCh                                                 
  411.141  28%   0.409 GSH                                                 
 1.37E+03  28%   1.364 Ins                                                 
  175.635 104%   0.175 Lac                                                 
 1.92E+03   9%   1.905 NAA                                                 
  354.990  51%   0.353 NAAG                                                
   92.516  40% 9.2E-02 Scyllo                                              
    0.000 999%   0.000 Tau                                                 
   80.335 190% 8.0E-02 -CrCH2                                              
  634.619   6%   0.631 GPC+PCh                                             
 2.27E+03   5%   2.258 NAA+NAAG                                            
 1.01E+03   9%   1.000 Cr+PCr                                              
 3.01E+03  18%   2.993 Glu+Gln                                             
    0.000 999%   0.000 Lip13a                                              
  130.794 142%   0.130 Lip13b                                              
   34.002 148% 3.4E-02 Lip09                                               
 1.22E+03  20%   1.210 MM09                                                
   19.580 146% 1.9E-02 Lip20                                               
 2.03E+03  21%   2.020 MM20                                                
  350.181  33%   0.348 MM12                                                
 2.77E+03  12%   2.755+MM14                                                
 1.27E+03  19%   1.263 MM17                                                
  130.794 142%   0.130 Lip13a+Lip13b                                       
 3.25E+03  12%   3.233 MM14+Lip13a+Lip13b+MM12                             
 1.25E+03  20%   1.243 MM09+Lip09                                          
 2.05E+03  21%   2.040 MM20+Lip20                                          
   6 lines in following misc. output table
  FWHM = 0.046 ppm    S/N =   6                                            
  Data shift = 0.015 ppm                                                   
  Ph: -28 deg      -6.3 deg/ppm                                            
  alphaB,S = 1.1E+00,   4.8E+01                                            
   14 spline knots.   Ns = 6(1)                                            
  (10) 2 infls.   ( 5) 1 extrs.                                            
  498 points on ppm-axis = NY
      4.000000     3.992357     3.984714     3.977070     3.969427     3.961784     3.954141     3.946497     3.938854     3.931211
      3.923568     3.915925     3.908281     3.900638     3.892995     3.885352     3.877708     3.870065     3.862422     3.854779
      3.847136     3.839492     3.831849     3.824206     3.816563     3.808919     3.801276     3.793633     3.785990     3.778347
      3.770703     3.763060     3.755417     3.747774     3.740130     3.732487     3.724844     3.717201     3.709558     3.701914
      3.694271     3.686628     3.678985     3.671341     3.663698     3.656055     3.648412     3.640769     3.633125     3.625482
      3.617839     3.610196     3.602552     3.594909     3.587266     3.579623     3.571980     3.564336     3.556693     3.549050
      3.541407     3.533763     3.526120     3.518477     3.510834     3.503191     3.495547     3.487904     3.480261     3.472618
      3.464974     3.457331     3.449688     3.442045     3.434402     3.426758     3.419115     3.411472     3.403829     3.396185
      3.388542     3.380899     3.373256     3.365613     3.357969     3.350326     3.342683     3.335040     3.327396     3.319753
      3.312110     3.304467     3.296824     3.289180     3.281537     3.273894     3.266251     3.258607     3.250964     3.243321
      3.235678     3.228034     3.220391     3.212748     3.205105     3.197462     3.189818     3.182175     3.174532     3.166889
      3.159245     3.151602     3.143959     3.136316     3.128673     3.121029     3.113386     3.105743     3.098100     3.090456
      3.082813     3.075170     3.067527     3.059884     3.052240     3.044597     3.036954     3.029311     3.021667     3.014024
      3.006381     2.998738     2.991095     2.983451     2.975808     2.968165     2.960522     2.952878     2.945235     2.937592
      2.929949     2.922306     2.914662     2.907019     2.899376     2.891733     2.884089     2.876446     2.868803     2.861160
      2.853517     2.845873     2.838230     2.830587     2.822944     2.815300     2.807657     2.800014     2.792371     2.784728
      2.777084     2.769441     2.761798     2.754155     2.746511     2.738868     2.731225     2.723582     2.715939     2.708295
      2.700652     2.693009     2.685366     2.677722     2.670079     2.662436     2.654793     2.647150     2.639506     2.631863
      2.624220     2.616577     2.608933     2.601290     2.593647     2.586004     2.578361     2.570717     2.563074     2.555431
      2.547788     2.540144     2.532501     2.524858     2.517215     2.509572     2.501928     2.494285     2.486642     2.478999
      2.471355     2.463712     2.456069     2.448426     2.440783     2.433139     2.425496     2.417853     2.410210     2.402566
      2.394923     2.387280     2.379637     2.371994     2.364350     2.356707     2.349064     2.341421     2.333777     2.326134
      2.318491     2.310848     2.303205     2.295561     2.287918     2.280275     2.272632     2.264988     2.257345     2.249702
      2.242059     2.234416     2.226772     2.219129     2.211486     2.203843     2.196199     2.188556     2.180913     2.173270
      2.165627     2.157983     2.150340     2.142697     2.135054     2.127410     2.119767     2.112124     2.104481     2.096838
      2.089194     2.081551     2.073908     2.066265     2.058621     2.050978     2.043335     2.035692     2.028049     2.020405
      2.012762     2.005119     1.997476     1.989833     1.982190     1.974546     1.966903     1.959260     1.951617     1.943974
      1.936331     1.928688     1.921045     1.913402     1.905759     1.898115     1.890472     1.882829     1.875186     1.867543
      1.859900     1.852257     1.844614     1.836971     1.829327     1.821684     1.814041     1.806398     1.798755     1.791112
      1.783469     1.775826     1.768183     1.760540     1.752896     1.745253     1.737610     1.729967     1.722324     1.714681
      1.707038     1.699395     1.691752     1.684108     1.676465     1.668822     1.661179     1.653536     1.645893     1.638250
      1.630607     1.622964     1.615321     1.607677     1.600034     1.592391     1.584748     1.577105     1.569462     1.561819
      1.554176     1.546533     1.538890     1.531246     1.523603     1.515960     1.508317     1.500674     1.493031     1.485388
      1.477745     1.470102     1.462458     1.454815     1.447172     1.439529     1.431886     1.424243     1.416600     1.408957
      1.401314     1.393671     1.386027     1.378384     1.370741     1.363098     1.355455     1.347812     1.340169     1.332526
      1.324883     1.317240     1.309596     1.301953     1.294310     1.286667     1.279024     1.271381     1.263738     1.256095
      1.248452     1.240808     1.233165     1.225522     1.217879     1.210236     1.202593     1.194950     1.187307     1.179664
      1.172021     1.164377     1.156734     1.149091     1.141448     1.133805     1.126162     1.118519     1.110876     1.103233
      1.095590     1.087946     1.080303     1.072660     1.065017     1.057374     1.049731     1.042088     1.034445     1.026802
      1.019158     1.011515     1.003872     0.996229     0.988586     0.980943     0.973300     0.965657     0.958014     0.950371
      0.942727     0.935084     0.927441     0.919798     0.912155     0.904512     0.896869     0.889226     0.881583     0.873940
      0.866296     0.858653     0.851010     0.843367     0.835724     0.828081     0.820438     0.812795     0.805152     0.797508
      0.789865     0.782222     0.774579     0.766936     0.759293     0.751650     0.744007     0.736364     0.728721     0.721077
      0.713434     0.705791     0.698148     0.690505     0.682862     0.675219     0.667576     0.659933     0.652290     0.644646
      0.637003     0.629360     0.621717     0.614074     0.606431     0.598788     0.591145     0.583502     0.575858     0.568215
      0.560572     0.552929     0.545286     0.537643     0.530000     0.522357     0.514714     0.507071     0.499427     0.491784
      0.484141     0.476498     0.468855     0.461212     0.453569     0.445925     0.438282     0.430639     0.422996     0.415353
      0.407710     0.400067     0.392424     0.384780     0.377137     0.369494     0.361851     0.354208     0.346565     0.338922
      0.331278     0.323635     0.315992     0.308349     0.300706     0.293063     0.285420     0.277777     0.270133     0.262490
      0.254847     0.247204     0.239561     0.231918     0.224275     0.216631     0.208988     0.201345
 NY phased data points follow
   2.00453E+01  2.78934E+01  2.36928E+01  2.53575E+01  3.38169E+01  2.03065E+01  3.70678E+01  3.92903E+01  3.64344E+01  3.83793E+01
   3.81607E+01  3.94882E+01  3.32791E+01  3.38459E+01  3.63592E+01  2.55752E+01  2.93093E+01  2.17199E+01  2.62152E+01  2.80248E+01
   2.41531E+01  1.87090E+01  2.13107E+01  3.13824E+01  2.49530E+01  3.25765E+01  2.47188E+01  2.14349E+01  2.72938E+01  2.79389E+01
   2.13849E+01  2.14185E+01  3.45055E+01  2.49609E+01  2.69411E+01  2.49739E+01  2.19836E+01  1.86168E+01  2.26608E+01  1.99594E+01
   2.31870E+01  1.99029E+01  2.62698E+01  2.37254E+01  2.57675E+01  3.09456E+01  3.80953E+01  2.32001E+01  3.04506E+01  2.47032E+01
   2.21080E+01  2.67287E+01  2.65201E+01  1.84934E+01  2.71077E+01  2.18699E+01  2.12231E+01  1.08748E+01  1.63936E+01  2.68521E+01
   1.91174E+01  2.94211E+00  1.49175E+01  1.37160E+01  8.29097E+00  1.05344E+01  3.21061E+00  1.70719E+00  8.00063E+00  1.03764E+01
   4.38286E+00  2.88499E+00  1.15285E+01  1.02529E+01  1.24061E+01  2.01447E+01  1.37246E+01  1.42274E+01  1.21159E+01  1.24768E+01
   1.36286E+01  5.96150E+00  9.31839E+00  1.28101E+01  9.63347E+00  1.24575E+01  1.58248E+01  1.54669E+01  1.58258E+01  8.20417E+00
   1.07582E+01  1.78105E+01  1.14974E+01  9.99453E+00  1.02135E+01  7.42137E+00  1.41857E+01  2.39028E+01  1.78474E+01  3.45236E+01
   4.80553E+01  4.81578E+01  7.62692E+01  7.76645E+01  7.45257E+01  5.20660E+01  3.84237E+01  2.57520E+01  1.22461E+01  8.04036E+00
   1.96535E+01  7.52853E+00  7.81199E+00  1.07690E+01  1.08404E+01  5.98611E+00  6.78238E+00 -7.93272E+00  2.88562E+00  3.52858E+00
   1.01416E+01  5.46722E+00  1.48467E+01  2.00660E+01  2.69529E+01  2.79770E+01  4.84110E+01  3.66876E+01  4.12272E+01  4.19981E+01
   3.02646E+01  1.92150E+01  2.05283E+01  2.00958E+01  4.52717E+00  1.38025E+01  1.12987E+01 -6.35557E-01  2.44327E+00  8.28733E+00
   3.80896E+00  4.36199E+00  9.05505E+00  2.32327E+00  8.87792E+00  5.85014E+00  2.69496E+00  3.07363E+00  1.19262E+00  8.79845E+00
   1.00246E+01  5.23602E+00 -2.97579E+00  6.81766E+00  2.55679E+00  2.57285E+00 -3.38262E+00  2.65185E+00  2.17974E+00  7.07152E+00
   1.14546E+01 -2.90868E+00 -1.02278E+00 -1.90986E+00 -2.27166E+00 -1.47674E+01  7.11884E+00 -1.11173E+01 -2.57665E-01 -5.28411E+00
  -8.04090E+00 -2.21767E-01 -1.26194E+01 -1.39180E+01 -2.17885E+01 -1.13414E+01 -4.39086E+00 -1.37732E+01 -6.96890E+00 -1.00124E+01
  -7.89393E+00 -5.46887E+00 -4.85978E+00 -1.12348E+01 -7.59219E+00 -1.49273E+01 -3.05974E+00 -1.58021E+01  4.59781E+00  4.90569E-01
   7.27706E+00 -3.03872E+00  3.25098E+00 -2.52133E+00 -3.42749E+00  2.12461E+00 -1.35352E+00  2.09708E+00 -1.77606E+00 -3.49372E+00
  -3.75723E+00  1.70374E+00  1.60997E+01  8.50250E+00  1.12737E+01  3.13647E+00 -7.26169E+00  4.51256E-01 -1.33018E+01 -1.36537E-01
   1.30462E+00 -7.48469E+00  7.60046E+00 -3.93760E+00  3.64450E+00  7.90059E+00  1.08660E+01  1.35735E+01  1.65453E+01  3.96696E+00
   7.74541E+00 -4.20472E+00 -9.33369E+00 -6.22756E+00  2.42912E+00 -2.75610E+00  3.21064E+00  2.42873E+00  7.70045E+00  7.03451E+00
   8.47646E+00  8.55364E+00 -3.71518E+00  3.31448E+00  7.59860E+00  1.11683E+01  5.28658E+00 -3.42353E+00  9.70211E+00  7.84225E+00
   4.92163E+00  9.80534E+00 -5.60900E-01 -7.58624E+00 -3.79928E-01 -5.75599E-01  1.06131E+01  1.09364E+01  1.62092E+01  8.98376E+00
   1.61196E+01  1.65252E+01  2.23695E+01  1.33308E+01  2.51966E+01  3.29210E+01  4.58345E+01  4.64831E+01  6.77565E+01  7.52481E+01
   7.86108E+01  8.06167E+01  6.56570E+01  4.29032E+01  3.86196E+01  2.02790E+01  2.28580E+00  3.63835E+00  1.16869E+01  7.81205E+00
   8.25551E+00  1.00192E+01  4.38994E+00  9.86897E+00  5.17459E+00  6.73112E+00  9.70921E+00  6.27943E+00  1.83462E+01  2.81406E+00
  -2.29217E-01  9.87516E+00  4.52614E+00  4.20857E+00  4.78896E+00 -2.94978E+00  4.64612E+00  4.97322E+00  8.83896E-01  1.38189E+00
   7.34732E+00 -7.64343E+00  1.72413E+00 -1.02076E+00  4.81791E+00  4.25573E+00 -2.50369E+00  6.16496E+00 -1.58983E+00  2.20014E+00
   2.82613E+00  3.24686E+00  1.21999E+01  6.58327E+00  1.17275E+01  4.90261E+00  2.11747E+01  4.59892E+00  1.11670E+01  1.09773E+01
   9.94252E+00  1.39433E+01  3.70146E+00  1.29715E+01  1.80398E+01  2.10220E+01  1.96221E+01  1.49771E+01  1.67941E+01  1.83842E+01
   1.75271E+01  1.28288E+01  1.48489E+01  2.32519E+01  1.37799E+01  2.25644E+01  1.64599E+01  1.90342E+01  2.36515E+01  1.99198E+01
   2.09050E+01  2.51216E+01  2.66343E+01  3.28645E+01  1.88992E+01  1.65269E+01  2.31129E+01  1.89400E+01  1.19944E+01  1.76587E+01
   5.78472E+00  1.63909E+01  1.17935E+01  6.02718E+00  1.41365E+01  1.54977E+01  8.20603E+00  8.41692E+00  3.38423E-01  3.29197E+00
   9.38390E-01 -4.93239E+00 -1.38404E+00  1.62751E+01  8.44853E+00  4.36967E+00 -4.61211E+00 -2.86105E+00  7.10451E+00  1.24548E+00
  -2.50504E+00 -1.87875E+00 -3.11692E+00 -1.49489E+00 -7.60679E+00  3.42662E+00 -2.37596E+00 -6.25923E+00  7.45392E-01 -2.41205E-01
   1.09937E+01 -2.12495E+00 -8.34727E+00  1.40496E+00 -1.66241E+00 -9.11687E-01  2.64650E+00 -1.34385E+01 -5.63742E+00  3.77077E-01
  -9.09864E+00 -2.66128E+00 -8.20814E+00 -1.35464E+01 -1.54162E+01  6.86996E-01 -5.63403E+00 -2.12722E+00 -4.73807E+00 -4.41838E+00
   5.51150E+00 -3.68909E+00 -6.79068E+00 -8.57026E+00 -5.04348E+00  5.64685E+00  5.33879E+00  5.62220E+00 -1.74380E+00  9.76923E+00
   4.34659E+00  4.44968E+00  1.56352E+00  7.22827E+00  7.08716E+00  3.12811E-01 -7.22733E+00  5.90104E+00  5.69202E+00  4.56684E+00
   9.59269E-01  4.79220E+00 -1.84846E+00 -6.79564E-02  3.36495E+00  6.65360E-01 -6.53603E+00 -3.12340E+00 -2.90095E+00 -1.01607E+01
  -4.58960E+00 -7.90184E+00 -1.95018E+00 -4.67521E+00 -1.18553E+01 -8.78762E+00 -7.99524E+00 -3.96150E+00 -8.82099E+00 -1.04249E+01
  -6.44693E+00 -1.05977E+00  6.30035E-02  1.87572E+00  4.72730E+00 -8.17181E-01 -6.24734E+00 -1.48472E+00 -9.01067E+00 -7.66160E+00
  -1.07644E+01 -4.25682E+00 -4.76157E+00 -5.91185E+00 -4.92284E+00 -7.52105E-01 -9.40785E+00 -9.81466E+00 -3.75518E+00  3.64899E+00
  -6.11627E+00 -3.86245E+00  8.44821E-01 -7.39985E+00 -4.20985E-01 -1.47731E+00 -5.75475E+00 -4.04182E+00  3.80351E+00 -2.54736E+00
   3.00873E+00 -3.49497E+00 -3.27757E+00 -1.33256E+00  3.02472E+00 -7.83917E-01  1.95811E-01  4.26378E+00 -1.18329E+00  1.01795E+00
  -1.89476E+00 -6.69679E+00  1.40397E+00 -7.42230E+00 -3.59968E+00 -1.78934E+01  5.50261E+00 -7.54853E-01  4.06490E+00 -4.62719E-01
  -6.21868E-01 -6.98809E+00  7.81214E-01 -1.05405E+00  7.35285E+00 -7.54989E-01 -5.46314E+00 -1.17714E+01 -4.16715E-01 -1.03910E+00
   4.12444E+00 -1.64131E+00  5.62418E+00 -4.96846E+00 -3.61691E+00 -7.33123E+00 -6.77826E-01 -1.65315E+00
 NY points of the fit to the data follow
   2.05235E+01  2.03661E+01  2.08894E+01  2.23998E+01  2.44147E+01  2.69445E+01  3.04433E+01  3.42789E+01  3.76694E+01  4.00318E+01
   4.08976E+01  4.01227E+01  3.79072E+01  3.46108E+01  3.08828E+01  2.75971E+01  2.50640E+01  2.32538E+01  2.20333E+01  2.12631E+01
   2.07742E+01  2.04750E+01  2.01831E+01  1.98510E+01  1.99583E+01  2.03044E+01  2.10123E+01  2.23592E+01  2.44811E+01  2.71258E+01
   2.94959E+01  3.08532E+01  3.08577E+01  2.96185E+01  2.72815E+01  2.43199E+01  2.13905E+01  1.89501E+01  1.72561E+01  1.64048E+01
   1.66525E+01  1.80123E+01  1.99955E+01  2.20067E+01  2.39164E+01  2.57710E+01  2.73819E+01  2.81526E+01  2.75052E+01  2.54701E+01
   2.26024E+01  1.96275E+01  1.71271E+01  1.55387E+01  1.49061E+01  1.49562E+01  1.53972E+01  1.59792E+01  1.65913E+01  1.70621E+01
   1.71390E+01  1.66575E+01  1.56478E+01  1.43846E+01  1.31975E+01  1.24275E+01  1.22500E+01  1.25326E+01  1.30715E+01  1.36825E+01
   1.42484E+01  1.46560E+01  1.48132E+01  1.47018E+01  1.43796E+01  1.39681E+01  1.35383E+01  1.31313E+01  1.27717E+01  1.24851E+01
   1.24340E+01  1.25993E+01  1.27172E+01  1.28697E+01  1.31619E+01  1.34117E+01  1.32655E+01  1.24934E+01  1.12393E+01  9.96114E+00
   9.15009E+00  8.88428E+00  9.02058E+00  9.40034E+00  9.86320E+00  1.04988E+01  1.27097E+01  1.87534E+01  2.61662E+01  3.47861E+01
   4.62338E+01  5.96608E+01  7.11036E+01  7.54483E+01  7.00703E+01  5.70228E+01  4.16970E+01  2.80792E+01  1.79201E+01  1.18711E+01
   8.84499E+00  7.80772E+00  7.51551E+00  7.39093E+00  7.29181E+00  7.20107E+00  7.12263E+00  7.03944E+00  6.99503E+00  7.14357E+00
   8.09443E+00  1.08907E+01  1.50614E+01  1.99361E+01  2.59791E+01  3.31331E+01  3.98231E+01  4.36221E+01  4.27188E+01  3.72799E+01
   2.96011E+01  2.20312E+01  1.57291E+01  1.11429E+01  8.00207E+00  5.92297E+00  4.67301E+00  4.12019E+00  4.24742E+00  4.92115E+00
   5.82803E+00  6.57713E+00  6.93208E+00  6.85115E+00  6.44536E+00  5.90680E+00  5.36728E+00  4.89768E+00  4.49328E+00  4.12235E+00
   3.79190E+00  3.48530E+00  3.20772E+00  2.98649E+00  2.80314E+00  2.59674E+00  2.42287E+00  2.26030E+00  2.00729E+00  1.65560E+00
   1.19173E+00  8.07097E-01  7.33591E-01  9.39275E-01  1.14793E+00  1.11657E+00  7.70360E-01  1.87751E-01 -4.30127E-01 -9.77711E-01
  -1.45292E+00 -1.78906E+00 -1.99267E+00 -2.23939E+00 -2.60694E+00 -3.00960E+00 -3.18706E+00 -3.02057E+00 -2.67775E+00 -2.47602E+00
  -2.53614E+00 -2.74036E+00 -2.80022E+00 -2.58958E+00 -2.20495E+00 -1.67740E+00 -8.93749E-01  1.87145E-01  1.49378E+00  2.82896E+00
   3.77672E+00  4.02567E+00  3.43342E+00  2.25589E+00  9.13096E-01 -1.72998E-01 -6.94990E-01 -4.57898E-01  6.84670E-01  2.60295E+00
   4.87445E+00  6.98015E+00  8.35691E+00  8.60468E+00  7.46180E+00  5.23666E+00  2.16158E+00 -1.55714E+00 -5.11295E+00 -7.44278E+00
  -7.74607E+00 -5.66847E+00 -2.10455E+00  2.14027E+00  6.55848E+00  1.03932E+01  1.24561E+01  1.17922E+01  8.55959E+00  3.89929E+00
  -9.79298E-01 -5.23000E+00 -7.89880E+00 -8.16389E+00 -6.01790E+00 -2.28485E+00  1.65626E+00  4.78261E+00  6.61168E+00  7.00629E+00
   6.29881E+00  5.38479E+00  4.84136E+00  4.78202E+00  5.26042E+00  6.18844E+00  7.25463E+00  8.14844E+00  8.53036E+00  8.18990E+00
   7.09119E+00  5.40212E+00  3.59418E+00  2.43267E+00  2.42828E+00  3.45434E+00  4.98318E+00  6.55584E+00  7.94190E+00  9.21890E+00
   1.08326E+01  1.26424E+01  1.48141E+01  1.83240E+01  2.56772E+01  3.57118E+01  4.50865E+01  5.43616E+01  6.45686E+01  7.44100E+01
   7.99150E+01  7.72503E+01  6.61537E+01  5.05091E+01  3.51098E+01  2.23771E+01  1.34552E+01  8.09242E+00  5.27335E+00  3.95808E+00
   3.18865E+00  2.74792E+00  2.57623E+00  2.62236E+00  2.78981E+00  2.92031E+00  2.88885E+00  2.66944E+00  2.30101E+00  1.85194E+00
   1.40589E+00  1.02457E+00  7.48714E-01  5.90057E-01  5.20525E-01  4.97651E-01  4.98818E-01  5.04204E-01  5.04518E-01  5.14909E-01
   5.56562E-01  6.44375E-01  7.80184E-01  9.53779E-01  1.16258E+00  1.41041E+00  1.70177E+00  2.04173E+00  2.43885E+00  2.89986E+00
   3.42637E+00  4.01162E+00  4.64036E+00  5.29581E+00  5.96154E+00  6.62122E+00  7.26182E+00  7.87318E+00  8.44831E+00  8.98305E+00
   9.47585E+00  9.92842E+00  1.03459E+01  1.07370E+01  1.11140E+01  1.14918E+01  1.18861E+01  1.23120E+01  1.27819E+01  1.33052E+01
   1.38861E+01  1.45234E+01  1.52091E+01  1.59291E+01  1.66629E+01  1.73853E+01  1.80675E+01  1.86787E+01  1.91878E+01  1.95657E+01
   1.97870E+01  1.98318E+01  1.96873E+01  1.93482E+01  1.88172E+01  1.81053E+01  1.72313E+01  1.62224E+01  1.51133E+01  1.39499E+01
   1.28015E+01  1.17483E+01  1.06846E+01  9.57501E+00  8.50019E+00  7.41428E+00  6.16373E+00  4.62363E+00  2.87423E+00  1.30774E+00
   1.85190E-01 -4.22076E-01 -4.84832E-01 -1.74596E-02  8.02443E-01  1.66733E+00  2.24676E+00  2.36112E+00  2.08351E+00  1.57951E+00
   9.89434E-01  4.40154E-01 -1.63225E-02 -3.62695E-01 -6.19601E-01 -8.13843E-01 -9.60543E-01 -1.07086E+00 -1.15417E+00 -1.21795E+00
  -1.26782E+00 -1.30737E+00 -1.33864E+00 -1.36227E+00 -1.37791E+00 -1.38431E+00 -1.37972E+00 -1.36197E+00 -1.32882E+00 -1.27789E+00
  -1.20681E+00 -1.11307E+00 -9.94216E-01 -8.47914E-01 -6.72176E-01 -4.65299E-01 -2.26040E-01  4.63836E-02  3.51948E-01  6.89701E-01
   1.05748E+00  1.45198E+00  1.86855E+00  2.30133E+00  2.74300E+00  3.18501E+00  3.61768E+00  4.03065E+00  4.41322E+00  4.75481E+00
   5.04525E+00  5.27539E+00  5.43744E+00  5.52565E+00  5.53644E+00  5.46866E+00  5.32351E+00  5.10457E+00  4.81760E+00  4.47036E+00
   4.07206E+00  3.63294E+00  3.16361E+00  2.67479E+00  2.17677E+00  1.67916E+00  1.19046E+00  7.17871E-01  2.67081E-01 -1.57567E-01
  -5.53089E-01 -9.17646E-01 -1.25060E+00 -1.55225E+00 -1.82370E+00 -2.06651E+00 -2.28263E+00 -2.47413E+00 -2.64332E+00 -2.79251E+00
  -2.92397E+00 -3.03974E+00 -3.14167E+00 -3.23144E+00 -3.31063E+00 -3.38064E+00 -3.44274E+00 -3.49787E+00 -3.54691E+00 -3.59058E+00
  -3.62962E+00 -3.66462E+00 -3.69609E+00 -3.72435E+00 -3.74975E+00 -3.77258E+00 -3.79321E+00 -3.81187E+00 -3.82877E+00 -3.84399E+00
  -3.85768E+00 -3.87001E+00 -3.88117E+00 -3.89123E+00 -3.90029E+00 -3.90832E+00 -3.91545E+00 -3.92177E+00 -3.92741E+00 -3.93239E+00
  -3.93672E+00 -3.94038E+00 -3.94347E+00 -3.94606E+00 -3.94823E+00 -3.94994E+00 -3.95118E+00 -3.95196E+00 -3.95239E+00 -3.95251E+00
  -3.95235E+00 -3.95185E+00 -3.95100E+00 -3.94983E+00 -3.94842E+00 -3.94680E+00 -3.94497E+00 -3.94285E+00 -3.94048E+00 -3.93788E+00
  -3.93515E+00 -3.93227E+00 -3.92922E+00 -3.92592E+00 -3.92242E+00 -3.91877E+00 -3.91504E+00 -3.91116E+00 -3.90712E+00 -3.90285E+00
  -3.89843E+00 -3.89390E+00 -3.88928E+00 -3.88450E+00 -3.87952E+00 -3.87431E+00 -3.86894E+00 -3.86343E+00
 NY background values follow
     1.665E+01    1.654E+01    1.644E+01    1.634E+01    1.624E+01    1.613E+01    1.603E+01    1.593E+01    1.583E+01    1.572E+01
     1.562E+01    1.552E+01    1.542E+01    1.531E+01    1.521E+01    1.511E+01    1.501E+01    1.490E+01    1.480E+01    1.470E+01
     1.460E+01    1.450E+01    1.439E+01    1.429E+01    1.419E+01    1.409E+01    1.398E+01    1.388E+01    1.378E+01    1.368E+01
     1.358E+01    1.348E+01    1.337E+01    1.327E+01    1.317E+01    1.307E+01    1.297E+01    1.287E+01    1.276E+01    1.266E+01
     1.256E+01    1.246E+01    1.236E+01    1.226E+01    1.216E+01    1.206E+01    1.196E+01    1.186E+01    1.176E+01    1.166E+01
     1.156E+01    1.146E+01    1.136E+01    1.126E+01    1.116E+01    1.106E+01    1.096E+01    1.086E+01    1.076E+01    1.066E+01
     1.056E+01    1.046E+01    1.036E+01    1.027E+01    1.017E+01    1.007E+01    9.973E+00    9.875E+00    9.778E+00    9.681E+00
     9.584E+00    9.488E+00    9.392E+00    9.295E+00    9.200E+00    9.104E+00    9.009E+00    8.914E+00    8.819E+00    8.724E+00
     8.630E+00    8.536E+00    8.442E+00    8.349E+00    8.256E+00    8.163E+00    8.070E+00    7.978E+00    7.886E+00    7.794E+00
     7.703E+00    7.612E+00    7.522E+00    7.431E+00    7.341E+00    7.252E+00    7.162E+00    7.073E+00    6.985E+00    6.897E+00
     6.809E+00    6.721E+00    6.634E+00    6.547E+00    6.461E+00    6.375E+00    6.289E+00    6.204E+00    6.119E+00    6.034E+00
     5.950E+00    5.866E+00    5.783E+00    5.700E+00    5.617E+00    5.535E+00    5.453E+00    5.372E+00    5.291E+00    5.210E+00
     5.130E+00    5.051E+00    4.971E+00    4.892E+00    4.814E+00    4.736E+00    4.658E+00    4.581E+00    4.504E+00    4.428E+00
     4.352E+00    4.277E+00    4.202E+00    4.128E+00    4.054E+00    3.980E+00    3.907E+00    3.834E+00    3.762E+00    3.690E+00
     3.619E+00    3.548E+00    3.478E+00    3.408E+00    3.339E+00    3.270E+00    3.202E+00    3.134E+00    3.067E+00    3.000E+00
     2.934E+00    2.868E+00    2.802E+00    2.738E+00    2.673E+00    2.609E+00    2.546E+00    2.483E+00    2.421E+00    2.359E+00
     2.298E+00    2.238E+00    2.177E+00    2.118E+00    2.059E+00    2.000E+00    1.942E+00    1.885E+00    1.828E+00    1.771E+00
     1.715E+00    1.660E+00    1.605E+00    1.551E+00    1.498E+00    1.445E+00    1.392E+00    1.340E+00    1.289E+00    1.238E+00
     1.188E+00    1.138E+00    1.089E+00    1.041E+00    9.930E-01    9.457E-01    8.989E-01    8.527E-01    8.070E-01    7.619E-01
     7.173E-01    6.732E-01    6.296E-01    5.866E-01    5.440E-01    5.020E-01    4.604E-01    4.194E-01    3.788E-01    3.387E-01
     2.991E-01    2.599E-01    2.212E-01    1.830E-01    1.452E-01    1.078E-01    7.091E-02    3.443E-02   -1.633E-03   -3.727E-02
    -7.250E-02   -1.073E-01   -1.417E-01   -1.758E-01   -2.094E-01   -2.427E-01   -2.755E-01   -3.080E-01   -3.402E-01   -3.720E-01
    -4.034E-01   -4.345E-01   -4.652E-01   -4.956E-01   -5.257E-01   -5.554E-01   -5.848E-01   -6.139E-01   -6.427E-01   -6.713E-01
    -6.995E-01   -7.274E-01   -7.550E-01   -7.824E-01   -8.095E-01   -8.363E-01   -8.628E-01   -8.891E-01   -9.152E-01   -9.409E-01
    -9.665E-01   -9.918E-01   -1.017E+00   -1.042E+00   -1.066E+00   -1.091E+00   -1.115E+00   -1.139E+00   -1.163E+00   -1.187E+00
    -1.210E+00   -1.233E+00   -1.256E+00   -1.279E+00   -1.302E+00   -1.325E+00   -1.347E+00   -1.370E+00   -1.392E+00   -1.414E+00
    -1.436E+00   -1.457E+00   -1.479E+00   -1.501E+00   -1.522E+00   -1.544E+00   -1.565E+00   -1.586E+00   -1.607E+00   -1.628E+00
    -1.649E+00   -1.670E+00   -1.691E+00   -1.711E+00   -1.732E+00   -1.753E+00   -1.773E+00   -1.794E+00   -1.814E+00   -1.835E+00
    -1.855E+00   -1.875E+00   -1.896E+00   -1.916E+00   -1.936E+00   -1.956E+00   -1.976E+00   -1.996E+00   -2.017E+00   -2.037E+00
    -2.057E+00   -2.077E+00   -2.097E+00   -2.117E+00   -2.137E+00   -2.157E+00   -2.177E+00   -2.196E+00   -2.216E+00   -2.236E+00
    -2.256E+00   -2.276E+00   -2.296E+00   -2.316E+00   -2.336E+00   -2.356E+00   -2.376E+00   -2.396E+00   -2.416E+00   -2.436E+00
    -2.456E+00   -2.476E+00   -2.496E+00   -2.516E+00   -2.537E+00   -2.557E+00   -2.577E+00   -2.597E+00   -2.618E+00   -2.638E+00
    -2.658E+00   -2.679E+00   -2.699E+00   -2.719E+00   -2.740E+00   -2.760E+00   -2.781E+00   -2.801E+00   -2.821E+00   -2.842E+00
    -2.862E+00   -2.883E+00   -2.903E+00   -2.923E+00   -2.943E+00   -2.964E+00   -2.984E+00   -3.004E+00   -3.024E+00   -3.044E+00
    -3.064E+00   -3.084E+00   -3.104E+00   -3.123E+00   -3.143E+00   -3.163E+00   -3.182E+00   -3.201E+00   -3.221E+00   -3.240E+00
    -3.259E+00   -3.278E+00   -3.297E+00   -3.316E+00   -3.334E+00   -3.353E+00   -3.371E+00   -3.389E+00   -3.407E+00   -3.425E+00
    -3.443E+00   -3.461E+00   -3.478E+00   -3.495E+00   -3.512E+00   -3.529E+00   -3.546E+00   -3.563E+00   -3.579E+00   -3.595E+00
    -3.612E+00   -3.627E+00   -3.643E+00   -3.659E+00   -3.674E+00   -3.689E+00   -3.704E+00   -3.718E+00   -3.733E+00   -3.747E+00
    -3.761E+00   -3.775E+00   -3.788E+00   -3.801E+00   -3.814E+00   -3.827E+00   -3.840E+00   -3.852E+00   -3.864E+00   -3.876E+00
    -3.887E+00   -3.899E+00   -3.910E+00   -3.920E+00   -3.931E+00   -3.941E+00   -3.951E+00   -3.960E+00   -3.970E+00   -3.979E+00
    -3.987E+00   -3.996E+00   -4.004E+00   -4.012E+00   -4.019E+00   -4.026E+00   -4.033E+00   -4.040E+00   -4.046E+00   -4.052E+00
    -4.057E+00   -4.063E+00   -4.068E+00   -4.072E+00   -4.077E+00   -4.081E+00   -4.084E+00   -4.088E+00   -4.091E+00   -4.094E+00
    -4.097E+00   -4.099E+00   -4.101E+00   -4.103E+00   -4.105E+00   -4.106E+00   -4.107E+00   -4.108E+00   -4.109E+00   -4.109E+00
    -4.110E+00   -4.110E+00   -4.109E+00   -4.109E+00   -4.108E+00   -4.107E+00   -4.106E+00   -4.105E+00   -4.104E+00   -4.102E+00
    -4.100E+00   -4.099E+00   -4.096E+00   -4.094E+00   -4.092E+00   -4.089E+00   -4.086E+00   -4.084E+00   -4.081E+00   -4.077E+00
    -4.074E+00   -4.071E+00   -4.067E+00   -4.063E+00   -4.060E+00   -4.056E+00   -4.052E+00   -4.048E+00   -4.044E+00   -4.039E+00
    -4.035E+00   -4.030E+00   -4.026E+00   -4.021E+00   -4.016E+00   -4.012E+00   -4.007E+00   -4.002E+00   -3.997E+00   -3.991E+00
    -3.986E+00   -3.981E+00   -3.976E+00   -3.970E+00   -3.965E+00   -3.960E+00   -3.954E+00   -3.949E+00   -3.943E+00   -3.937E+00
    -3.932E+00   -3.926E+00   -3.921E+00   -3.915E+00   -3.909E+00   -3.903E+00   -3.898E+00   -3.892E+00   -3.886E+00   -3.881E+00
    -3.875E+00   -3.869E+00   -3.863E+00   -3.858E+00   -3.852E+00   -3.846E+00   -3.841E+00   -3.835E+00
 Asp      Conc. = 5.47E+01
