 LCModel (Version 6.3-1L) Copyright: S.W. Provencher.          Ref.: Magn. Reson. Med. 30:672-679 (1993).                
 Slice#1 Row#11 Col#6  PD_24_press_2_raw_act
 36 lines in following concentration table = NCONC+1
    Conc.  %SD /Cr+PCr  Metabolite                                         
   53.200 191%   0.109 Ala                                                 
   30.865 257% 6.3E-02 Asp                                                 
    0.000 999%   0.000 Cr                                                  
  488.490  10%   1.000 PCr                                                 
   42.854 113% 8.8E-02 GABA                                                
   44.911 107% 9.2E-02 Glc                                                 
  287.461  75%   0.588 Gln                                                 
  535.603  46%   1.096 Glu                                                 
    0.000 999%   0.000 GPC                                                 
  105.372  17%   0.216 PCh                                                 
   39.328 168% 8.1E-02 GSH                                                 
  449.345  50%   0.920 Ins                                                 
    0.000 999%   0.000 Lac                                                 
  633.872   8%   1.298 NAA                                                 
    0.000 999%   0.000 NAAG                                                
   27.012  52% 5.5E-02 Scyllo                                              
  111.221  70%   0.228 Tau                                                 
  314.768  27%   0.644 -CrCH2                                              
  105.372  17%   0.216 GPC+PCh                                             
  633.872   8%   1.298 NAA+NAAG                                            
  488.490  10%   1.000 Cr+PCr                                              
  823.064  44%   1.685 Glu+Gln                                             
    0.000 999%   0.000 Lip13a                                              
 5.51E-02 999% 1.1E-04 Lip13b                                              
    0.000 999%   0.000 Lip09                                               
  526.268  23%   1.077 MM09                                                
 3.74E-02 999% 7.7E-05 Lip20                                               
  791.221  23%   1.620 MM20                                                
  157.704  23%   0.323 MM12                                                
  412.196  22%   0.844 MM14                                                
  202.830  24%   0.415 MM17                                                
 5.51E-02 999% 1.1E-04 Lip13a+Lip13b                                       
  569.955  22%   1.167 MM14+Lip13a+Lip13b+MM12                             
  526.268  23%   1.077 MM09+Lip09                                          
  791.259  23%   1.620 MM20+Lip20                                          
   6 lines in following misc. output table
  FWHM = 0.061 ppm    S/N =   3                                            
  Data shift = 0.023 ppm                                                   
  Ph: -33 deg     -13.9 deg/ppm                                            
  alphaB,S = 7.5E-01,   5.3E+01                                            
   14 spline knots.   Ns = 7(1)                                            
  ( 7) 2 infls.   ( 1) 1 extrs.                                            
  498 points on ppm-axis = NY
      4.000000     3.992357     3.984714     3.977070     3.969427     3.961784     3.954141     3.946497     3.938854     3.931211
      3.923568     3.915925     3.908281     3.900638     3.892995     3.885352     3.877708     3.870065     3.862422     3.854779
      3.847136     3.839492     3.831849     3.824206     3.816563     3.808919     3.801276     3.793633     3.785990     3.778347
      3.770703     3.763060     3.755417     3.747774     3.740130     3.732487     3.724844     3.717201     3.709558     3.701914
      3.694271     3.686628     3.678985     3.671341     3.663698     3.656055     3.648412     3.640769     3.633125     3.625482
      3.617839     3.610196     3.602552     3.594909     3.587266     3.579623     3.571980     3.564336     3.556693     3.549050
      3.541407     3.533763     3.526120     3.518477     3.510834     3.503191     3.495547     3.487904     3.480261     3.472618
      3.464974     3.457331     3.449688     3.442045     3.434402     3.426758     3.419115     3.411472     3.403829     3.396185
      3.388542     3.380899     3.373256     3.365613     3.357969     3.350326     3.342683     3.335040     3.327396     3.319753
      3.312110     3.304467     3.296824     3.289180     3.281537     3.273894     3.266251     3.258607     3.250964     3.243321
      3.235678     3.228034     3.220391     3.212748     3.205105     3.197462     3.189818     3.182175     3.174532     3.166889
      3.159245     3.151602     3.143959     3.136316     3.128673     3.121029     3.113386     3.105743     3.098100     3.090456
      3.082813     3.075170     3.067527     3.059884     3.052240     3.044597     3.036954     3.029311     3.021667     3.014024
      3.006381     2.998738     2.991095     2.983451     2.975808     2.968165     2.960522     2.952878     2.945235     2.937592
      2.929949     2.922306     2.914662     2.907019     2.899376     2.891733     2.884089     2.876446     2.868803     2.861160
      2.853517     2.845873     2.838230     2.830587     2.822944     2.815300     2.807657     2.800014     2.792371     2.784728
      2.777084     2.769441     2.761798     2.754155     2.746511     2.738868     2.731225     2.723582     2.715939     2.708295
      2.700652     2.693009     2.685366     2.677722     2.670079     2.662436     2.654793     2.647150     2.639506     2.631863
      2.624220     2.616577     2.608933     2.601290     2.593647     2.586004     2.578361     2.570717     2.563074     2.555431
      2.547788     2.540144     2.532501     2.524858     2.517215     2.509572     2.501928     2.494285     2.486642     2.478999
      2.471355     2.463712     2.456069     2.448426     2.440783     2.433139     2.425496     2.417853     2.410210     2.402566
      2.394923     2.387280     2.379637     2.371994     2.364350     2.356707     2.349064     2.341421     2.333777     2.326134
      2.318491     2.310848     2.303205     2.295561     2.287918     2.280275     2.272632     2.264988     2.257345     2.249702
      2.242059     2.234416     2.226772     2.219129     2.211486     2.203843     2.196199     2.188556     2.180913     2.173270
      2.165627     2.157983     2.150340     2.142697     2.135054     2.127410     2.119767     2.112124     2.104481     2.096838
      2.089194     2.081551     2.073908     2.066265     2.058621     2.050978     2.043335     2.035692     2.028049     2.020405
      2.012762     2.005119     1.997476     1.989833     1.982190     1.974546     1.966903     1.959260     1.951617     1.943974
      1.936331     1.928688     1.921045     1.913402     1.905759     1.898115     1.890472     1.882829     1.875186     1.867543
      1.859900     1.852257     1.844614     1.836971     1.829327     1.821684     1.814041     1.806398     1.798755     1.791112
      1.783469     1.775826     1.768183     1.760540     1.752896     1.745253     1.737610     1.729967     1.722324     1.714681
      1.707038     1.699395     1.691752     1.684108     1.676465     1.668822     1.661179     1.653536     1.645893     1.638250
      1.630607     1.622964     1.615321     1.607677     1.600034     1.592391     1.584748     1.577105     1.569462     1.561819
      1.554176     1.546533     1.538890     1.531246     1.523603     1.515960     1.508317     1.500674     1.493031     1.485388
      1.477745     1.470102     1.462458     1.454815     1.447172     1.439529     1.431886     1.424243     1.416600     1.408957
      1.401314     1.393671     1.386027     1.378384     1.370741     1.363098     1.355455     1.347812     1.340169     1.332526
      1.324883     1.317240     1.309596     1.301953     1.294310     1.286667     1.279024     1.271381     1.263738     1.256095
      1.248452     1.240808     1.233165     1.225522     1.217879     1.210236     1.202593     1.194950     1.187307     1.179664
      1.172021     1.164377     1.156734     1.149091     1.141448     1.133805     1.126162     1.118519     1.110876     1.103233
      1.095590     1.087946     1.080303     1.072660     1.065017     1.057374     1.049731     1.042088     1.034445     1.026802
      1.019158     1.011515     1.003872     0.996229     0.988586     0.980943     0.973300     0.965657     0.958014     0.950371
      0.942727     0.935084     0.927441     0.919798     0.912155     0.904512     0.896869     0.889226     0.881583     0.873940
      0.866296     0.858653     0.851010     0.843367     0.835724     0.828081     0.820438     0.812795     0.805152     0.797508
      0.789865     0.782222     0.774579     0.766936     0.759293     0.751650     0.744007     0.736364     0.728721     0.721077
      0.713434     0.705791     0.698148     0.690505     0.682862     0.675219     0.667576     0.659933     0.652290     0.644646
      0.637003     0.629360     0.621717     0.614074     0.606431     0.598788     0.591145     0.583502     0.575858     0.568215
      0.560572     0.552929     0.545286     0.537643     0.530000     0.522357     0.514714     0.507071     0.499427     0.491784
      0.484141     0.476498     0.468855     0.461212     0.453569     0.445925     0.438282     0.430639     0.422996     0.415353
      0.407710     0.400067     0.392424     0.384780     0.377137     0.369494     0.361851     0.354208     0.346565     0.338922
      0.331278     0.323635     0.315992     0.308349     0.300706     0.293063     0.285420     0.277777     0.270133     0.262490
      0.254847     0.247204     0.239561     0.231918     0.224275     0.216631     0.208988     0.201345
 NY phased data points follow
  -2.70812E+01 -1.55401E+01 -2.06566E+01 -1.23447E+01 -1.68815E+01 -1.39168E+01 -1.90568E+01 -9.98794E+00 -1.62536E+01 -7.37149E+00
  -1.65807E+01 -1.02905E+01 -1.45227E+01 -7.26503E+00 -1.54738E+01 -1.07124E+01 -2.11232E+01 -1.26934E+01 -2.14878E+01 -1.09038E+01
  -1.89075E+01 -1.32353E+01 -1.63201E+01 -1.09207E+01 -1.56344E+01 -8.34270E+00 -1.97502E+01 -9.99444E+00 -1.81624E+01 -1.43503E+01
  -1.62884E+01 -5.84414E+00 -1.10970E+01 -6.79876E+00 -1.25351E+01 -7.88544E+00 -1.43811E+01 -6.75345E+00 -1.25587E+01 -7.55998E+00
  -1.68910E+01 -7.98200E+00 -1.31923E+01 -6.11373E+00 -1.05107E+01 -2.65465E+00 -1.35104E+01 -5.31863E+00 -1.01883E+01 -4.89713E+00
  -1.02194E+01 -3.76748E+00 -1.34431E+01 -4.24804E+00 -1.41319E+01 -7.39295E+00 -9.26676E+00 -5.60293E+00 -1.04855E+01 -5.36503E+00
  -1.31531E+01 -2.84044E+00 -1.19901E+01 -7.10746E+00 -1.18125E+01 -6.65221E+00 -1.25818E+01 -7.36740E+00 -9.67159E+00 -3.80641E+00
  -1.16527E+01 -1.58624E+00 -1.14527E+01 -6.35462E+00 -1.08821E+01 -3.02168E+00 -9.18684E+00 -4.19977E+00 -7.42626E+00 -2.36647E+00
  -5.69002E+00 -7.01585E+00 -6.08443E+00 -3.85355E+00 -8.22381E+00 -3.70410E+00 -9.84645E+00 -4.37123E+00 -6.92268E+00 -6.30132E-01
  -8.15653E+00 -3.85689E+00 -6.66965E+00 -1.20582E+00 -3.33422E+00 -1.22091E+00 -5.77582E+00  2.42365E+00 -6.79803E+00  2.40001E+00
  -3.87723E-01  2.54752E+00  2.89972E+00  4.47727E+00 -4.13479E-02  4.88198E+00 -7.52344E-01 -2.98101E+00 -4.83338E+00 -4.84366E+00
  -5.85445E+00 -2.23897E+00 -4.62109E+00 -6.95895E-01 -5.82369E+00 -5.34220E+00 -7.57162E+00  5.35275E-01 -5.53987E+00 -6.17568E-01
  -5.16607E+00  1.03627E+00 -3.40407E+00  2.60568E+00  1.66323E+00  1.13484E+01  1.02748E+01  1.23646E+01  8.94622E+00  1.34466E+01
   6.47493E+00  5.79771E+00  2.49490E+00  3.26738E+00 -3.04345E+00 -1.17014E+00 -3.30374E+00 -7.30296E-01 -1.23194E+00  4.76342E+00
  -1.75028E+00  2.50691E+00 -1.56698E+00 -1.97864E+00 -2.60134E-02 -1.69437E+00 -3.77571E+00 -5.63067E-01 -5.56451E+00  5.16548E-01
  -2.98365E+00  2.16533E+00 -6.31664E+00  3.18154E+00 -2.93231E+00 -2.58213E-01 -2.63130E+00 -3.54023E+00 -2.88696E+00  1.38832E+00
   1.21103E+00  2.67622E-01 -6.85868E+00 -1.67668E+00 -4.13164E+00  1.09961E+00 -5.17238E+00  1.87501E-01 -2.78852E+00 -1.17241E+00
  -5.35236E+00 -2.41319E+00 -4.42823E+00 -7.86692E+00 -1.14515E+01 -1.90488E+00 -9.52355E+00 -3.04192E+00 -4.84321E+00 -4.13681E+00
  -5.27131E+00 -4.61110E+00 -6.43324E+00 -3.09512E+00 -7.71809E+00 -1.03766E+00 -4.98218E+00 -1.14931E-01 -3.48789E+00 -2.31278E+00
  -3.24818E+00 -4.67199E+00 -3.26742E+00 -2.92052E-01 -4.04883E+00 -2.67007E+00 -6.99147E+00 -2.91655E+00 -2.91910E+00 -3.42328E+00
  -1.58456E+00 -3.36564E+00 -1.22431E+00 -1.20502E+00 -7.39747E-01  1.29108E+00 -4.22454E+00 -4.47842E+00 -5.93796E-01  1.48851E+00
  -2.74292E+00 -1.35468E+00  3.69947E-02  5.20192E-01  3.54670E+00  5.16613E+00  2.63925E+00  1.66679E+00  2.60164E+00 -6.77267E-01
  -6.64757E-01  5.10539E-01 -2.82891E+00  2.54394E-01 -2.46486E+00  2.63078E+00  1.37415E+00  3.24170E+00  1.00702E+00 -1.37128E-02
   1.64379E-01  2.10809E+00 -1.41261E-01  7.83873E+00 -8.26670E-01  4.38618E+00  2.01626E+00  6.23452E-01  2.13906E+00  3.68651E+00
   2.23333E+00  1.89645E+00 -3.48953E-01  3.22977E+00  1.62837E+00  2.71903E+00 -1.43643E+00  5.65306E+00  2.39211E+00  1.65024E+00
   3.98046E+00  2.79093E+00 -1.72684E+00  2.03689E+00  4.98154E+00  7.48935E+00  7.72946E+00  1.20781E+01  1.54181E+01  2.11125E+01
   2.27991E+01  1.94906E+01  2.31498E+01  1.69523E+01  1.48230E+01  1.37107E+01  8.67365E+00  1.13013E+01  5.19987E+00  6.81046E+00
   3.73736E+00  3.04989E+00  5.25497E-01  3.57459E+00  1.65436E-01  3.69936E+00 -5.48495E-01  2.84114E+00  5.42953E-01  6.18881E+00
  -4.35890E+00  2.45032E+00  6.04768E-01  2.70541E+00  1.68458E+00 -8.54608E-01 -3.56944E-01  2.19397E+00  5.56815E-01  2.27370E+00
  -1.78130E+00  4.00854E+00  1.06635E-01  1.18892E+00 -1.64355E+00  1.14167E+00 -1.59200E+00  5.67810E+00 -3.55820E+00 -1.54140E+00
   1.54581E+00 -2.31098E-01 -4.43178E+00  1.48219E+00 -3.13513E+00 -4.59665E+00  7.53522E-01  4.69530E+00 -8.85040E-01  1.33007E+00
  -2.65100E+00  1.14823E+00  3.15608E+00  6.03040E-01  4.47595E+00  8.05316E+00  3.45497E+00  3.50457E+00  6.63187E+00  9.95873E+00
   8.00459E+00  1.08117E+01  9.73777E+00  6.26674E+00  5.60968E+00  7.54632E+00  4.15282E+00  8.38672E+00  4.30094E+00  9.27130E+00
   6.69650E+00  5.66142E+00  5.81076E+00  7.85006E+00  3.66364E+00  7.41207E+00  3.63746E+00  4.84806E+00  3.67257E+00  4.88349E+00
   1.42315E-01  2.07676E+00 -1.01680E-01 -6.74331E-01  3.13041E+00  3.71083E+00  1.23357E+00  4.32804E+00  6.44888E+00  2.90206E+00
  -2.18048E+00  3.35762E+00  2.69436E+00 -8.92046E-01  3.96209E+00  3.52812E+00  1.62636E+00  3.83999E+00  3.68900E+00  2.53715E-01
   6.17642E-01 -9.18961E-01  2.95047E+00 -6.71822E-01  6.24612E-01  2.58607E+00 -1.79522E+00  3.44708E+00 -9.75046E-02  2.95616E+00
  -2.33007E-01  6.29172E-01  1.11256E+00  1.44881E+00  1.49444E+00  7.06988E-01  3.40309E+00  9.82982E-01 -2.33307E+00  2.64781E+00
   2.14815E+00  6.31159E+00 -7.16505E-01  4.20667E+00  1.27100E+00  2.59240E+00  4.96222E+00  1.81009E+00  1.80811E+00  4.25591E+00
  -6.63521E-01  1.34314E+00  4.85410E+00  2.26747E+00 -1.14343E+00 -2.64991E+00 -3.12357E-02  2.64423E+00  3.10362E+00  1.69999E+00
  -1.53286E+00  8.63014E-01  3.98256E+00  3.19832E+00  2.77741E+00  4.21948E+00  2.68017E+00  3.05864E+00  4.14441E+00  6.40966E+00
   4.32215E+00 -3.07304E+00  3.62521E+00  2.22367E-01  1.06593E+00  2.70150E+00 -1.17358E+00  6.11145E+00  2.65506E+00  3.14872E+00
   3.63136E+00  4.19180E+00  2.06437E+00  3.17892E+00  2.71449E+00  1.94711E+00 -6.09778E-01  4.26023E+00 -1.37530E+00  1.98436E+00
   1.14992E+00  5.34307E+00  2.77032E+00  4.48783E+00 -9.84966E-01  1.30754E+00  1.18732E+00 -3.81246E-01  1.48492E+00  6.00027E+00
   7.55276E-01  2.11596E+00 -1.44415E+00  5.72225E+00  1.19871E+00  8.72688E+00  4.17623E+00  2.64403E+00 -9.05236E-01  2.02356E+00
   1.81739E+00  3.04846E-01  3.49490E+00  3.57945E+00  4.57001E+00  3.03056E+00  2.54802E+00  3.41599E+00  5.23654E+00  3.31385E+00
   3.91911E+00  1.56336E+00  1.45542E+00  2.55236E+00  3.91249E+00  6.56642E+00  3.04165E+00  2.97126E+00  4.94922E+00  2.95447E+00
   1.97358E+00  3.68371E+00  3.26643E+00 -1.56780E-02  5.13507E+00  5.16468E+00  3.20719E+00  5.86784E+00  3.74401E+00  4.77552E+00
   3.42146E+00  5.82248E-01  1.76380E+00  2.40557E+00  3.24354E-01  5.28201E+00  2.97694E+00  7.29384E+00  3.78776E+00  5.14547E+00
   1.12458E+00  8.43982E+00  4.97142E+00  3.28305E+00  1.95631E+00  6.46764E+00  1.86647E+00  6.95205E+00
 NY points of the fit to the data follow
  -1.55377E+01 -1.56994E+01 -1.57239E+01 -1.55014E+01 -1.51628E+01 -1.47006E+01 -1.40140E+01 -1.31545E+01 -1.23373E+01 -1.17885E+01
  -1.15642E+01 -1.16080E+01 -1.19006E+01 -1.23737E+01 -1.28607E+01 -1.32428E+01 -1.35195E+01 -1.37343E+01 -1.37956E+01 -1.36366E+01
  -1.34105E+01 -1.32004E+01 -1.30353E+01 -1.29240E+01 -1.29028E+01 -1.29340E+01 -1.29104E+01 -1.27440E+01 -1.23883E+01 -1.18608E+01
  -1.12261E+01 -1.06154E+01 -1.02020E+01 -1.00633E+01 -1.01783E+01 -1.04899E+01 -1.08985E+01 -1.12970E+01 -1.15898E+01 -1.17177E+01
  -1.16461E+01 -1.13486E+01 -1.08660E+01 -1.02559E+01 -9.54443E+00 -8.81640E+00 -8.24118E+00 -7.97198E+00 -8.02969E+00 -8.31899E+00
  -8.75027E+00 -9.23453E+00 -9.63423E+00 -9.85947E+00 -9.92418E+00 -9.85083E+00 -9.62701E+00 -9.26885E+00 -8.87425E+00 -8.55605E+00
  -8.35741E+00 -8.27909E+00 -8.29262E+00 -8.35756E+00 -8.42160E+00 -8.42145E+00 -8.35234E+00 -8.23882E+00 -8.06510E+00 -7.82486E+00
  -7.55929E+00 -7.30506E+00 -7.08068E+00 -6.89900E+00 -6.78761E+00 -6.76107E+00 -6.80208E+00 -6.88080E+00 -6.95494E+00 -6.96867E+00
  -6.90093E+00 -6.77433E+00 -6.60265E+00 -6.40304E+00 -6.22907E+00 -6.14818E+00 -6.19234E+00 -6.31846E+00 -6.47133E+00 -6.61733E+00
  -6.72846E+00 -6.77595E+00 -6.75428E+00 -6.70167E+00 -6.61545E+00 -6.32218E+00 -5.58497E+00 -4.57747E+00 -3.34737E+00 -1.73086E+00
   1.59074E-01  1.87861E+00  2.95866E+00  3.24759E+00  2.86158E+00  1.91193E+00  5.74832E-01 -8.17129E-01 -2.01035E+00 -2.99472E+00
  -3.83265E+00 -4.43003E+00 -4.66233E+00 -4.73025E+00 -4.75424E+00 -4.75830E+00 -4.75583E+00 -4.74086E+00 -4.69268E+00 -4.48499E+00
  -3.67851E+00 -2.26167E+00 -4.43980E-01  1.98088E+00  5.02439E+00  8.08442E+00  1.03256E+01  1.12830E+01  1.10243E+01  9.74408E+00
   7.66762E+00  5.26947E+00  3.05208E+00  1.18469E+00 -4.19778E-01 -1.70917E+00 -2.39948E+00 -2.63452E+00 -2.71428E+00 -2.72217E+00
  -2.69469E+00 -2.65696E+00 -2.62086E+00 -2.59306E+00 -2.58145E+00 -2.58488E+00 -2.59992E+00 -2.62340E+00 -2.64904E+00 -2.67096E+00
  -2.68509E+00 -2.68869E+00 -2.68382E+00 -2.67359E+00 -2.67391E+00 -2.69216E+00 -2.72223E+00 -2.76974E+00 -2.82890E+00 -2.88778E+00
  -2.92722E+00 -2.91519E+00 -2.85036E+00 -2.76447E+00 -2.69189E+00 -2.65487E+00 -2.65940E+00 -2.70153E+00 -2.77039E+00 -2.85731E+00
  -2.96441E+00 -3.06868E+00 -3.16393E+00 -3.25427E+00 -3.32011E+00 -3.34100E+00 -3.30586E+00 -3.23815E+00 -3.17311E+00 -3.11653E+00
  -3.06817E+00 -3.02415E+00 -2.96839E+00 -2.90019E+00 -2.81153E+00 -2.68813E+00 -2.51825E+00 -2.29141E+00 -2.02670E+00 -1.76378E+00
  -1.54335E+00 -1.40227E+00 -1.34711E+00 -1.35024E+00 -1.37054E+00 -1.38118E+00 -1.36728E+00 -1.28284E+00 -1.07550E+00 -7.50881E-01
  -3.59215E-01  4.29575E-02  3.77194E-01  4.95061E-01  3.46905E-01 -3.71711E-02 -6.45265E-01 -1.38679E+00 -2.05780E+00 -2.41559E+00
  -2.38362E+00 -2.00351E+00 -1.29517E+00 -3.60066E-01  5.32639E-01  1.07569E+00  1.14446E+00  8.25910E-01  1.98999E-01 -6.89004E-01
  -1.56563E+00 -2.11957E+00 -2.24811E+00 -2.00611E+00 -1.49299E+00 -7.87195E-01 -4.82114E-02  5.46807E-01  9.24812E-01  1.10527E+00
   1.16675E+00  1.14831E+00  1.06912E+00  1.00379E+00  1.03820E+00  1.18650E+00  1.37972E+00  1.58260E+00  1.77732E+00  1.90744E+00
   1.91589E+00  1.82924E+00  1.72801E+00  1.65733E+00  1.61965E+00  1.61670E+00  1.67699E+00  1.78800E+00  1.91867E+00  2.07475E+00
   2.28063E+00  2.51361E+00  2.76785E+00  3.41471E+00  4.89635E+00  6.87498E+00  9.37143E+00  1.27300E+01  1.65985E+01  1.99523E+01
   2.18744E+01  2.21416E+01  2.09883E+01  1.86227E+01  1.54798E+01  1.22809E+01  9.49818E+00  7.12646E+00  5.07907E+00  3.62749E+00
   2.97028E+00  2.66298E+00  2.48998E+00  2.39581E+00  2.33609E+00  2.27802E+00  2.20932E+00  2.11880E+00  2.00656E+00  1.88175E+00
   1.75476E+00  1.63200E+00  1.52335E+00  1.43761E+00  1.37376E+00  1.32645E+00  1.29160E+00  1.26485E+00  1.24277E+00  1.22254E+00
   1.20249E+00  1.18436E+00  1.16938E+00  1.15812E+00  1.15258E+00  1.15486E+00  1.16585E+00  1.18563E+00  1.21471E+00  1.25373E+00
   1.30274E+00  1.36170E+00  1.43080E+00  1.50951E+00  1.59748E+00  1.69419E+00  1.79902E+00  1.91112E+00  2.02959E+00  2.15327E+00
   2.28093E+00  2.41128E+00  2.54329E+00  2.67594E+00  2.80843E+00  2.94025E+00  3.07140E+00  3.20257E+00  3.33596E+00  3.47771E+00
   3.63901E+00  3.80441E+00  3.95456E+00  4.09148E+00  4.19874E+00  4.23698E+00  4.17766E+00  4.02551E+00  3.82942E+00  3.63648E+00
   3.46146E+00  3.33843E+00  3.30648E+00  3.36211E+00  3.46257E+00  3.56398E+00  3.64476E+00  3.67577E+00  3.63141E+00  3.51770E+00
   3.36056E+00  3.18464E+00  2.99833E+00  2.80365E+00  2.62037E+00  2.46501E+00  2.33104E+00  2.21421E+00  2.11296E+00  2.02636E+00
   1.95369E+00  1.89413E+00  1.84677E+00  1.81054E+00  1.78427E+00  1.76667E+00  1.75648E+00  1.75232E+00  1.75295E+00  1.75707E+00
   1.76355E+00  1.77126E+00  1.77933E+00  1.78692E+00  1.79343E+00  1.79836E+00  1.80144E+00  1.80251E+00  1.80164E+00  1.79902E+00
   1.79502E+00  1.79008E+00  1.78482E+00  1.77989E+00  1.77611E+00  1.77425E+00  1.77521E+00  1.77984E+00  1.78908E+00  1.80380E+00
   1.82496E+00  1.85341E+00  1.89004E+00  1.93565E+00  1.99105E+00  2.05692E+00  2.13391E+00  2.22246E+00  2.32288E+00  2.43524E+00
   2.55941E+00  2.69486E+00  2.84081E+00  2.99601E+00  3.15887E+00  3.32734E+00  3.49904E+00  3.67117E+00  3.84069E+00  4.00431E+00
   4.15868E+00  4.30045E+00  4.42648E+00  4.53386E+00  4.62017E+00  4.68346E+00  4.72249E+00  4.73663E+00  4.72602E+00  4.69145E+00
   4.63438E+00  4.55682E+00  4.46131E+00  4.35065E+00  4.22795E+00  4.09631E+00  3.95890E+00  3.81861E+00  3.67822E+00  3.54009E+00
   3.40631E+00  3.27851E+00  3.15802E+00  3.04572E+00  2.94226E+00  2.84788E+00  2.76267E+00  2.68643E+00  2.61888E+00  2.55954E+00
   2.50796E+00  2.46353E+00  2.42572E+00  2.39392E+00  2.36761E+00  2.34623E+00  2.32935E+00  2.31646E+00  2.30721E+00  2.30117E+00
   2.29807E+00  2.29756E+00  2.29945E+00  2.30345E+00  2.30939E+00  2.31705E+00  2.32631E+00  2.33700E+00  2.34903E+00  2.36224E+00
   2.37657E+00  2.39189E+00  2.40817E+00  2.42529E+00  2.44323E+00  2.46189E+00  2.48126E+00  2.50125E+00  2.52187E+00  2.54302E+00
   2.56473E+00  2.58691E+00  2.60956E+00  2.63263E+00  2.65614E+00  2.68002E+00  2.70428E+00  2.72885E+00  2.75377E+00  2.77897E+00
   2.80449E+00  2.83026E+00  2.85630E+00  2.88256E+00  2.90907E+00  2.93578E+00  2.96271E+00  2.98981E+00  3.01711E+00  3.04456E+00
   3.07218E+00  3.09993E+00  3.12784E+00  3.15586E+00  3.18401E+00  3.21225E+00  3.24061E+00  3.26905E+00  3.29759E+00  3.32618E+00
   3.35485E+00  3.38356E+00  3.41235E+00  3.44116E+00  3.47003E+00  3.49889E+00  3.52780E+00  3.55669E+00
 NY background values follow
    -1.649E+01   -1.638E+01   -1.627E+01   -1.616E+01   -1.605E+01   -1.593E+01   -1.582E+01   -1.571E+01   -1.560E+01   -1.549E+01
    -1.538E+01   -1.527E+01   -1.515E+01   -1.504E+01   -1.493E+01   -1.482E+01   -1.471E+01   -1.460E+01   -1.449E+01   -1.438E+01
    -1.426E+01   -1.415E+01   -1.404E+01   -1.393E+01   -1.382E+01   -1.371E+01   -1.360E+01   -1.349E+01   -1.338E+01   -1.327E+01
    -1.316E+01   -1.305E+01   -1.294E+01   -1.284E+01   -1.273E+01   -1.262E+01   -1.251E+01   -1.240E+01   -1.229E+01   -1.219E+01
    -1.208E+01   -1.197E+01   -1.187E+01   -1.176E+01   -1.165E+01   -1.155E+01   -1.144E+01   -1.134E+01   -1.123E+01   -1.113E+01
    -1.102E+01   -1.092E+01   -1.082E+01   -1.071E+01   -1.061E+01   -1.051E+01   -1.040E+01   -1.030E+01   -1.020E+01   -1.010E+01
    -9.999E+00   -9.899E+00   -9.799E+00   -9.700E+00   -9.601E+00   -9.502E+00   -9.404E+00   -9.307E+00   -9.209E+00   -9.113E+00
    -9.017E+00   -8.921E+00   -8.825E+00   -8.731E+00   -8.636E+00   -8.543E+00   -8.449E+00   -8.357E+00   -8.264E+00   -8.173E+00
    -8.082E+00   -7.991E+00   -7.901E+00   -7.811E+00   -7.722E+00   -7.634E+00   -7.546E+00   -7.459E+00   -7.373E+00   -7.287E+00
    -7.201E+00   -7.117E+00   -7.032E+00   -6.949E+00   -6.866E+00   -6.784E+00   -6.702E+00   -6.621E+00   -6.541E+00   -6.461E+00
    -6.382E+00   -6.303E+00   -6.226E+00   -6.148E+00   -6.072E+00   -5.996E+00   -5.920E+00   -5.846E+00   -5.772E+00   -5.698E+00
    -5.625E+00   -5.553E+00   -5.481E+00   -5.410E+00   -5.340E+00   -5.270E+00   -5.201E+00   -5.133E+00   -5.065E+00   -4.998E+00
    -4.932E+00   -4.866E+00   -4.800E+00   -4.736E+00   -4.672E+00   -4.608E+00   -4.546E+00   -4.484E+00   -4.422E+00   -4.361E+00
    -4.301E+00   -4.242E+00   -4.183E+00   -4.125E+00   -4.067E+00   -4.010E+00   -3.954E+00   -3.898E+00   -3.843E+00   -3.789E+00
    -3.735E+00   -3.682E+00   -3.629E+00   -3.577E+00   -3.526E+00   -3.475E+00   -3.425E+00   -3.375E+00   -3.326E+00   -3.277E+00
    -3.229E+00   -3.181E+00   -3.134E+00   -3.088E+00   -3.042E+00   -2.996E+00   -2.951E+00   -2.906E+00   -2.862E+00   -2.819E+00
    -2.775E+00   -2.733E+00   -2.690E+00   -2.648E+00   -2.607E+00   -2.566E+00   -2.525E+00   -2.485E+00   -2.445E+00   -2.405E+00
    -2.366E+00   -2.327E+00   -2.289E+00   -2.251E+00   -2.213E+00   -2.176E+00   -2.138E+00   -2.102E+00   -2.065E+00   -2.029E+00
    -1.993E+00   -1.957E+00   -1.922E+00   -1.887E+00   -1.852E+00   -1.818E+00   -1.783E+00   -1.749E+00   -1.716E+00   -1.682E+00
    -1.649E+00   -1.616E+00   -1.584E+00   -1.552E+00   -1.520E+00   -1.488E+00   -1.457E+00   -1.425E+00   -1.395E+00   -1.364E+00
    -1.334E+00   -1.304E+00   -1.274E+00   -1.245E+00   -1.216E+00   -1.187E+00   -1.159E+00   -1.131E+00   -1.103E+00   -1.075E+00
    -1.048E+00   -1.021E+00   -9.945E-01   -9.681E-01   -9.421E-01   -9.164E-01   -8.910E-01   -8.659E-01   -8.412E-01   -8.167E-01
    -7.926E-01   -7.687E-01   -7.452E-01   -7.220E-01   -6.992E-01   -6.766E-01   -6.544E-01   -6.324E-01   -6.108E-01   -5.896E-01
    -5.686E-01   -5.479E-01   -5.275E-01   -5.075E-01   -4.877E-01   -4.682E-01   -4.490E-01   -4.301E-01   -4.115E-01   -3.931E-01
    -3.750E-01   -3.572E-01   -3.396E-01   -3.224E-01   -3.053E-01   -2.885E-01   -2.720E-01   -2.557E-01   -2.397E-01   -2.239E-01
    -2.083E-01   -1.930E-01   -1.779E-01   -1.630E-01   -1.484E-01   -1.340E-01   -1.197E-01   -1.057E-01   -9.192E-02   -7.831E-02
    -6.491E-02   -5.170E-02   -3.868E-02   -2.585E-02   -1.321E-02   -7.446E-04    1.154E-02    2.366E-02    3.560E-02    4.738E-02
     5.900E-02    7.046E-02    8.176E-02    9.291E-02    1.039E-01    1.147E-01    1.254E-01    1.360E-01    1.463E-01    1.565E-01
     1.666E-01    1.765E-01    1.863E-01    1.958E-01    2.053E-01    2.145E-01    2.237E-01    2.326E-01    2.414E-01    2.501E-01
     2.586E-01    2.669E-01    2.750E-01    2.831E-01    2.909E-01    2.986E-01    3.061E-01    3.135E-01    3.207E-01    3.277E-01
     3.346E-01    3.414E-01    3.479E-01    3.543E-01    3.606E-01    3.666E-01    3.726E-01    3.783E-01    3.839E-01    3.893E-01
     3.946E-01    3.997E-01    4.046E-01    4.094E-01    4.140E-01    4.185E-01    4.227E-01    4.268E-01    4.308E-01    4.346E-01
     4.383E-01    4.418E-01    4.451E-01    4.484E-01    4.515E-01    4.545E-01    4.574E-01    4.602E-01    4.629E-01    4.655E-01
     4.680E-01    4.704E-01    4.727E-01    4.750E-01    4.772E-01    4.794E-01    4.815E-01    4.836E-01    4.856E-01    4.876E-01
     4.895E-01    4.915E-01    4.934E-01    4.953E-01    4.973E-01    4.992E-01    5.011E-01    5.031E-01    5.050E-01    5.070E-01
     5.091E-01    5.111E-01    5.133E-01    5.154E-01    5.177E-01    5.200E-01    5.223E-01    5.248E-01    5.273E-01    5.299E-01
     5.326E-01    5.355E-01    5.384E-01    5.414E-01    5.446E-01    5.479E-01    5.513E-01    5.548E-01    5.586E-01    5.624E-01
     5.665E-01    5.707E-01    5.751E-01    5.797E-01    5.845E-01    5.895E-01    5.947E-01    6.001E-01    6.057E-01    6.116E-01
     6.178E-01    6.241E-01    6.308E-01    6.376E-01    6.448E-01    6.522E-01    6.600E-01    6.680E-01    6.763E-01    6.849E-01
     6.939E-01    7.032E-01    7.128E-01    7.227E-01    7.330E-01    7.436E-01    7.546E-01    7.660E-01    7.777E-01    7.899E-01
     8.024E-01    8.153E-01    8.286E-01    8.424E-01    8.565E-01    8.711E-01    8.861E-01    9.016E-01    9.175E-01    9.338E-01
     9.506E-01    9.678E-01    9.854E-01    1.003E+00    1.022E+00    1.041E+00    1.060E+00    1.080E+00    1.100E+00    1.120E+00
     1.141E+00    1.162E+00    1.183E+00    1.205E+00    1.227E+00    1.250E+00    1.272E+00    1.296E+00    1.319E+00    1.343E+00
     1.367E+00    1.391E+00    1.416E+00    1.441E+00    1.466E+00    1.491E+00    1.517E+00    1.543E+00    1.569E+00    1.596E+00
     1.622E+00    1.649E+00    1.676E+00    1.704E+00    1.731E+00    1.759E+00    1.787E+00    1.815E+00    1.843E+00    1.872E+00
     1.901E+00    1.929E+00    1.958E+00    1.987E+00    2.017E+00    2.046E+00    2.076E+00    2.105E+00    2.135E+00    2.165E+00
     2.195E+00    2.225E+00    2.256E+00    2.286E+00    2.317E+00    2.347E+00    2.378E+00    2.409E+00    2.440E+00    2.471E+00
     2.502E+00    2.533E+00    2.564E+00    2.595E+00    2.627E+00    2.658E+00    2.689E+00    2.721E+00    2.753E+00    2.784E+00
     2.816E+00    2.848E+00    2.879E+00    2.911E+00    2.943E+00    2.975E+00    3.007E+00    3.038E+00    3.070E+00    3.102E+00
     3.134E+00    3.166E+00    3.198E+00    3.230E+00    3.261E+00    3.293E+00    3.325E+00    3.357E+00
 Ala      Conc. = 5.32E+01
