 LCModel (Version 6.3-1L) Copyright: S.W. Provencher.          Ref.: Magn. Reson. Med. 30:672-679 (1993).                
 Slice#1 Row#1 Col#8  PD_24_press_2_raw_act
 36 lines in following concentration table = NCONC+1
    Conc.  %SD /Cr+PCr  Metabolite                                         
    0.000 999%   0.000 Ala                                                 
   45.624  67%   0.300 Asp                                                 
    0.000 999%   0.000 Cr                                                  
  152.179  54%   1.000 PCr                                                 
   28.878  63%   0.190 GABA                                                
   27.997  65%   0.184 Glc                                                 
  170.147 193%   1.118 Gln                                                 
  118.329 300%   0.778 Glu                                                 
   99.759  33%   0.656 GPC                                                 
    0.000 999%   0.000 PCh                                                 
  318.089  38%   2.090 GSH                                                 
  767.320  47%   5.042 Ins                                                 
    0.000 999%   0.000 Lac                                                 
   82.838 145%   0.544 NAA                                                 
  414.359  27%   2.723 NAAG                                                
    9.736  63% 6.4E-02 Scyllo                                              
   46.006  66%   0.302 Tau                                                 
    8.218 418% 5.4E-02 -CrCH2                                              
   99.759  33%   0.656 GPC+PCh                                             
  497.197  24%   3.267 NAA+NAAG                                            
  152.179  54%   1.000 Cr+PCr                                              
  288.476 160%   1.896 Glu+Gln                                             
    0.000 999%   0.000 Lip13a                                              
 1.49E+03  28%   9.800 Lip13b                                              
    0.000 999%   0.000 Lip09                                               
  520.777  46%   3.422 MM09                                                
  311.643  63%   2.048 Lip20                                               
  791.119  45%   5.199 MM20                                                
  156.847  47%   1.031 MM12                                                
  401.193  47%   2.636 MM14                                                
  213.309  47%   1.402 MM17                                                
 1.49E+03  28%   9.800 Lip13a+Lip13b                                       
 2.05E+03  22%  13.467 MM14+Lip13a+Lip13b+MM12                             
  520.777  46%   3.422 MM09+Lip09                                          
 1.10E+03  35%   7.246 MM20+Lip20                                          
   6 lines in following misc. output table
  FWHM = 0.046 ppm    S/N =   1                                            
  Data shift = 0.008 ppm                                                   
  Ph: 100 deg      13.6 deg/ppm                                            
  alphaB,S = 8.5E+01,   2.5E+01                                            
   14 spline knots.   Ns = 5(1)                                            
   2 inflections.     1 extrema                                            
  498 points on ppm-axis = NY
      4.000000     3.992357     3.984714     3.977070     3.969427     3.961784     3.954141     3.946497     3.938854     3.931211
      3.923568     3.915925     3.908281     3.900638     3.892995     3.885352     3.877708     3.870065     3.862422     3.854779
      3.847136     3.839492     3.831849     3.824206     3.816563     3.808919     3.801276     3.793633     3.785990     3.778347
      3.770703     3.763060     3.755417     3.747774     3.740130     3.732487     3.724844     3.717201     3.709558     3.701914
      3.694271     3.686628     3.678985     3.671341     3.663698     3.656055     3.648412     3.640769     3.633125     3.625482
      3.617839     3.610196     3.602552     3.594909     3.587266     3.579623     3.571980     3.564336     3.556693     3.549050
      3.541407     3.533763     3.526120     3.518477     3.510834     3.503191     3.495547     3.487904     3.480261     3.472618
      3.464974     3.457331     3.449688     3.442045     3.434402     3.426758     3.419115     3.411472     3.403829     3.396185
      3.388542     3.380899     3.373256     3.365613     3.357969     3.350326     3.342683     3.335040     3.327396     3.319753
      3.312110     3.304467     3.296824     3.289180     3.281537     3.273894     3.266251     3.258607     3.250964     3.243321
      3.235678     3.228034     3.220391     3.212748     3.205105     3.197462     3.189818     3.182175     3.174532     3.166889
      3.159245     3.151602     3.143959     3.136316     3.128673     3.121029     3.113386     3.105743     3.098100     3.090456
      3.082813     3.075170     3.067527     3.059884     3.052240     3.044597     3.036954     3.029311     3.021667     3.014024
      3.006381     2.998738     2.991095     2.983451     2.975808     2.968165     2.960522     2.952878     2.945235     2.937592
      2.929949     2.922306     2.914662     2.907019     2.899376     2.891733     2.884089     2.876446     2.868803     2.861160
      2.853517     2.845873     2.838230     2.830587     2.822944     2.815300     2.807657     2.800014     2.792371     2.784728
      2.777084     2.769441     2.761798     2.754155     2.746511     2.738868     2.731225     2.723582     2.715939     2.708295
      2.700652     2.693009     2.685366     2.677722     2.670079     2.662436     2.654793     2.647150     2.639506     2.631863
      2.624220     2.616577     2.608933     2.601290     2.593647     2.586004     2.578361     2.570717     2.563074     2.555431
      2.547788     2.540144     2.532501     2.524858     2.517215     2.509572     2.501928     2.494285     2.486642     2.478999
      2.471355     2.463712     2.456069     2.448426     2.440783     2.433139     2.425496     2.417853     2.410210     2.402566
      2.394923     2.387280     2.379637     2.371994     2.364350     2.356707     2.349064     2.341421     2.333777     2.326134
      2.318491     2.310848     2.303205     2.295561     2.287918     2.280275     2.272632     2.264988     2.257345     2.249702
      2.242059     2.234416     2.226772     2.219129     2.211486     2.203843     2.196199     2.188556     2.180913     2.173270
      2.165627     2.157983     2.150340     2.142697     2.135054     2.127410     2.119767     2.112124     2.104481     2.096838
      2.089194     2.081551     2.073908     2.066265     2.058621     2.050978     2.043335     2.035692     2.028049     2.020405
      2.012762     2.005119     1.997476     1.989833     1.982190     1.974546     1.966903     1.959260     1.951617     1.943974
      1.936331     1.928688     1.921045     1.913402     1.905759     1.898115     1.890472     1.882829     1.875186     1.867543
      1.859900     1.852257     1.844614     1.836971     1.829327     1.821684     1.814041     1.806398     1.798755     1.791112
      1.783469     1.775826     1.768183     1.760540     1.752896     1.745253     1.737610     1.729967     1.722324     1.714681
      1.707038     1.699395     1.691752     1.684108     1.676465     1.668822     1.661179     1.653536     1.645893     1.638250
      1.630607     1.622964     1.615321     1.607677     1.600034     1.592391     1.584748     1.577105     1.569462     1.561819
      1.554176     1.546533     1.538890     1.531246     1.523603     1.515960     1.508317     1.500674     1.493031     1.485388
      1.477745     1.470102     1.462458     1.454815     1.447172     1.439529     1.431886     1.424243     1.416600     1.408957
      1.401314     1.393671     1.386027     1.378384     1.370741     1.363098     1.355455     1.347812     1.340169     1.332526
      1.324883     1.317240     1.309596     1.301953     1.294310     1.286667     1.279024     1.271381     1.263738     1.256095
      1.248452     1.240808     1.233165     1.225522     1.217879     1.210236     1.202593     1.194950     1.187307     1.179664
      1.172021     1.164377     1.156734     1.149091     1.141448     1.133805     1.126162     1.118519     1.110876     1.103233
      1.095590     1.087946     1.080303     1.072660     1.065017     1.057374     1.049731     1.042088     1.034445     1.026802
      1.019158     1.011515     1.003872     0.996229     0.988586     0.980943     0.973300     0.965657     0.958014     0.950371
      0.942727     0.935084     0.927441     0.919798     0.912155     0.904512     0.896869     0.889226     0.881583     0.873940
      0.866296     0.858653     0.851010     0.843367     0.835724     0.828081     0.820438     0.812795     0.805152     0.797508
      0.789865     0.782222     0.774579     0.766936     0.759293     0.751650     0.744007     0.736364     0.728721     0.721077
      0.713434     0.705791     0.698148     0.690505     0.682862     0.675219     0.667576     0.659933     0.652290     0.644646
      0.637003     0.629360     0.621717     0.614074     0.606431     0.598788     0.591145     0.583502     0.575858     0.568215
      0.560572     0.552929     0.545286     0.537643     0.530000     0.522357     0.514714     0.507071     0.499427     0.491784
      0.484141     0.476498     0.468855     0.461212     0.453569     0.445925     0.438282     0.430639     0.422996     0.415353
      0.407710     0.400067     0.392424     0.384780     0.377137     0.369494     0.361851     0.354208     0.346565     0.338922
      0.331278     0.323635     0.315992     0.308349     0.300706     0.293063     0.285420     0.277777     0.270133     0.262490
      0.254847     0.247204     0.239561     0.231918     0.224275     0.216631     0.208988     0.201345
 NY phased data points follow
   7.12343E+00  1.66830E+01  2.87529E+01  1.70360E+01 -3.05916E+00 -1.07108E+01  4.74232E+00  1.40098E+01  6.82548E+00  8.15280E+00
   1.91802E+01  1.04577E+01  1.38520E+01  6.42723E+00  9.15436E+00 -4.63422E+00  1.36113E+00  1.02748E+00 -1.89572E+00  1.32361E+01
   1.78898E+01  9.08447E+00  1.59738E+01  1.27134E+01  1.18363E+01 -5.93679E+00 -1.72774E+00 -9.84622E+00  3.56282E+00  4.93924E+00
   1.84092E+01  2.13670E+01  1.45729E+01  1.21888E+01  4.33904E+00  2.86827E+00  1.29544E+01 -8.98791E-01  1.24281E+01  2.14569E+01
   1.73889E+01  2.02117E+01  7.31844E+00  2.74033E+00  3.07484E+00  1.33246E+01  6.34053E-01  6.55896E+00  4.67250E-01  1.58179E+01
   1.00809E+01  8.47830E+00  1.91275E+01  4.36266E+00  1.49553E+01  7.86290E+00  1.05453E+01  9.07406E+00  1.62499E+01  1.57953E+01
   2.55972E+00  6.47193E+00  6.66545E+00  7.88864E+00  3.03816E+00  6.12908E-01  5.25281E+00  8.05322E+00 -3.38400E+00  1.98867E+00
   1.73326E+01  9.82353E+00  4.35531E+00  6.34865E+00  1.94268E+00  4.07811E+00  8.12240E-01 -3.99304E+00 -3.27619E-01  7.10769E+00
   3.78208E+00  6.13408E-01  3.87862E+00  6.17100E+00  1.17089E+01  1.19977E+01  6.73050E+00 -5.91989E+00  2.69339E+00  3.16826E+00
   4.84219E-01  9.58994E+00  1.38954E+00 -1.81185E+00 -2.93364E+00  2.21224E-01  7.80424E+00  2.49348E+00  8.45015E+00  8.25660E+00
   5.12287E+00  1.96759E+01  1.13049E+01  1.48394E+01  1.01929E+01  1.05528E+01  5.67712E+00  6.34237E+00  3.92915E+00  2.06043E+00
   4.05219E+00 -5.60262E+00  1.26342E+00  3.71592E+00  2.42583E+00 -9.46820E-01  2.38088E+00 -1.16067E+01  1.65801E+00 -4.42147E+00
  -2.99081E-02  2.70204E+00  2.96431E-01 -6.41823E+00  3.45363E+00 -6.74603E-01  9.63382E+00  1.08524E+01  2.03951E+01  1.17243E+00
  -1.43710E-01  6.19966E+00  1.29097E+01 -3.96456E+00  6.80686E-01 -6.51981E+00  5.73383E+00 -3.89412E+00 -1.13564E+01  3.95156E+00
  -1.34675E+00  2.28929E+00  3.02666E+00 -1.94645E+00 -6.00049E+00  8.62298E+00  1.67159E+01 -9.71965E+00 -6.31152E+00 -8.59239E+00
  -1.60968E+00 -3.62072E+00 -5.27594E+00  1.04767E+01  3.83345E+00  2.54951E+00  3.39001E+00  4.21507E+00  2.65088E+00  9.42096E+00
  -1.06491E+01  1.63111E+01  2.72914E+00 -1.46548E+01  4.02202E+00  1.49426E+00 -4.56301E-01 -2.08086E+00  6.19598E+00  4.56524E+00
   6.17633E+00  1.85291E+00  2.56351E+00 -1.25780E+00 -1.05984E+01  4.92890E+00 -2.76688E+00 -2.30180E+00 -7.78281E+00 -1.99338E+00
   7.45169E-01 -4.06155E+00  4.10387E+00 -3.41902E+00  4.95012E+00 -2.35565E+01  2.27870E+00 -1.03525E+01 -1.82597E+00 -3.35660E+00
   3.41505E+00  1.06801E+01  3.23208E+00  5.42808E+00  1.43192E+01 -4.10177E+00 -2.08001E-01 -6.36957E+00 -3.70263E+00  8.33995E+00
  -8.29743E+00 -2.97151E+00  2.53175E+00  1.45128E+00 -7.91062E-01  1.14127E+01  5.83430E+00  1.24420E+01  1.48115E+00  4.76399E+00
   1.48064E+00  3.58822E+00  1.02295E+01  8.94893E+00  6.42073E+00  9.12869E+00  9.20362E+00  2.33630E+00  1.92690E+01  4.17992E+00
   4.66052E+00  1.00696E+01  5.83119E+00  1.36735E+01  7.45140E+00 -2.53965E+00  4.99844E+00  1.17269E+01  2.80377E+00  9.73087E+00
   5.93975E+00 -5.26171E+00 -3.91842E+00  1.10219E+01  1.49134E+00  5.05729E+00  5.97352E-01  8.78337E+00 -2.86200E+00  1.34491E+01
   3.52022E+00 -6.80489E+00  5.40851E+00  1.50458E+00  1.30430E+01  5.74142E+00  9.97366E+00  1.04960E+01 -6.49326E-01  7.09454E+00
   9.57843E+00  1.10844E+01  3.93879E+00  8.36949E+00  1.93028E+01  1.11146E+01  2.69078E+01  1.92904E+01  1.89031E+01  1.58034E+01
   1.62997E+01  2.62491E+01  7.04484E+00  6.50467E+00 -3.71693E+00  2.08795E-01  5.19238E+00  1.62096E+01  2.64711E+00  1.00206E+01
   1.54838E+01  4.02865E+00  5.40183E+00  1.08857E+00  8.04263E+00  2.06844E+01  1.01258E+01  2.04375E+01  1.70216E+01  1.06971E+01
   9.98959E+00  7.54327E+00  1.75479E+01  1.19548E+01  8.92049E+00  2.16605E+00  7.00467E+00 -9.83763E+00  1.16975E+01  8.09928E+00
   6.63330E+00 -5.74744E+00 -1.11483E+00  5.06218E+00 -1.53059E+00 -1.98577E+00 -4.14512E+00  3.63884E+00  7.19162E+00 -3.47322E+00
   1.10294E+01  1.01640E+01  6.25493E+00  2.71447E+00  8.88686E+00  1.29445E+01 -5.17371E+00  1.59220E+01  6.99623E+00  3.63479E-01
   1.21359E+01 -3.13112E+00  1.20450E+01 -1.68137E+00  2.08818E+01  8.78278E+00  1.28057E+01  4.99957E+00  8.13762E+00  3.25846E+00
   5.70138E+00  6.05993E+00  7.57275E+00  8.47455E+00  3.81755E+00  6.07555E-01 -3.18872E+00  2.05772E+00 -3.36416E+00  1.08293E+01
   3.67971E+00 -1.22438E-01  9.99181E+00  5.72772E+00  7.89853E+00  1.22039E+01  8.00403E+00  6.07211E+00  1.14964E+01  5.43158E+00
  -6.86340E+00 -3.16965E+00  8.67433E-01  4.94060E+00  4.26282E+00 -2.90010E+00 -6.62654E+00  1.73351E+00 -3.93466E+00  7.94454E+00
  -2.28753E+00  1.18132E+01  1.19336E+01  2.33678E+01 -2.36876E-02  5.41675E+00  1.40166E+01  9.11810E+00  1.08697E-01  2.38143E+01
   1.73013E+01  6.72449E+00  2.63448E+01  9.80491E+00  4.28358E+00  1.07746E+01  1.92814E+01  1.42539E+01  1.35000E+01  1.97104E+01
   1.11625E+01  2.51278E+00 -2.07671E+00  7.44954E+00  1.17384E+01  9.69224E+00  2.07496E+01  4.42146E+00  5.17912E+00  8.01854E+00
   9.47596E+00  4.25325E+00 -8.84107E-01 -2.39972E+00  7.38621E+00 -8.35182E+00 -1.32027E-01 -8.98294E+00 -7.12585E+00 -1.86506E+00
  -4.65790E-01 -7.48924E+00  8.62020E+00 -2.17413E+01 -2.48825E+01 -4.08751E+00  1.08286E+00 -9.32537E-01  1.70255E+01  5.86906E-01
   1.42016E+00  2.20214E-01  6.50674E+00  3.78233E-01 -1.00551E+01 -5.48927E+00  4.44082E+00  8.55425E+00  8.37030E+00  1.12023E+01
  -8.42848E-01 -1.16466E+00  1.99966E+00  4.85457E-01 -1.68685E-01  2.62738E+00  3.38012E+00 -4.42357E+00  2.21571E+00  1.57538E-01
   1.02452E-02 -6.65879E+00 -1.47147E+01  2.21919E+00 -1.05929E+01 -7.34230E+00  2.80488E+00 -4.06189E+00  4.08015E+00  2.10216E+00
   2.77346E+00 -4.12257E+00 -3.47784E+00 -2.13686E+00 -1.26083E+01 -5.34636E+00 -4.97636E+00  2.14273E+00 -2.28435E+00  4.32617E+00
  -1.06556E+00  1.62504E+00  3.18745E+00 -5.71165E+00  9.02053E+00  4.71324E+00  3.13974E+00  4.71253E+00 -5.51614E+00 -1.71014E+00
  -8.87683E+00  1.19445E+00 -1.86452E+00 -3.40376E+00 -9.06307E+00 -1.01383E+01  1.05167E+01 -8.40990E-01 -6.01798E+00 -5.88895E+00
   7.11738E+00  1.32363E+00 -1.47523E+00 -1.38645E+01  1.09061E+01 -1.08742E+01  4.09807E-01 -8.35042E+00 -1.13144E+01 -3.25724E+00
  -8.27210E+00  2.76732E+00  4.42140E+00 -2.29954E+00  4.36501E+00 -2.18780E+00 -2.30847E+00 -8.21192E+00 -2.68406E+00 -7.69146E+00
   6.60768E+00 -1.17771E+01 -6.52060E-01 -5.87472E+00  3.64258E+00  1.17357E+01 -3.22518E-01  6.85003E+00  1.02740E+01  6.77286E-02
   8.43046E+00  6.54071E+00  4.28662E+00 -2.71756E+00  1.68072E+00  4.61883E+00 -5.68367E+00 -5.59997E+00
 NY points of the fit to the data follow
   6.49368E+00  5.98110E+00  5.58690E+00  5.40225E+00  5.41811E+00  5.72575E+00  6.45741E+00  7.47899E+00  8.46352E+00  9.08966E+00
   9.16358E+00  8.71805E+00  7.97701E+00  7.17508E+00  6.42354E+00  5.81704E+00  5.52547E+00  5.41477E+00  5.33709E+00  5.32820E+00
   5.36567E+00  5.37145E+00  5.28765E+00  5.09995E+00  4.81409E+00  4.48458E+00  4.64888E+00  6.02044E+00  8.60369E+00  1.16558E+01
   1.41670E+01  1.52843E+01  1.47690E+01  1.30338E+01  1.07549E+01  8.48130E+00  6.61860E+00  5.67342E+00  5.41643E+00  5.26078E+00
   5.08279E+00  4.88920E+00  4.72507E+00  4.69299E+00  5.16917E+00  6.51178E+00  8.51427E+00  1.04066E+01  1.14509E+01  1.13154E+01
   1.01377E+01  8.34667E+00  6.44147E+00  4.80163E+00  3.69537E+00  3.31262E+00  3.56441E+00  4.19567E+00  5.02670E+00  5.92431E+00
   6.66084E+00  7.00449E+00  6.85555E+00  6.30304E+00  5.56366E+00  4.83472E+00  4.32689E+00  4.16018E+00  4.29597E+00  4.68800E+00
   5.19753E+00  5.67479E+00  6.02879E+00  6.19890E+00  6.17777E+00  6.01154E+00  5.75395E+00  5.44020E+00  5.09624E+00  4.83365E+00
   4.67768E+00  4.58002E+00  4.56726E+00  4.62762E+00  4.62477E+00  4.39079E+00  3.86322E+00  3.13193E+00  2.41140E+00  1.92463E+00
   1.78081E+00  1.95711E+00  2.37346E+00  2.97533E+00  3.59046E+00  4.03652E+00  4.21328E+00  4.11177E+00  4.03839E+00  4.90158E+00
   7.10901E+00  1.00690E+01  1.27056E+01  1.40966E+01  1.38715E+01  1.23306E+01  1.01388E+01  7.77927E+00  5.53321E+00  3.95984E+00
   3.46809E+00  3.36911E+00  3.34138E+00  3.34654E+00  3.36329E+00  3.38959E+00  3.40387E+00  3.38376E+00  3.32747E+00  3.25120E+00
   3.17962E+00  3.14508E+00  3.22367E+00  3.78291E+00  5.09236E+00  6.91711E+00  8.68086E+00  9.82099E+00  1.00491E+01  9.51058E+00
   8.67201E+00  7.86920E+00  7.06361E+00  6.18769E+00  5.37020E+00  4.37641E+00  3.25194E+00  2.34274E+00  1.94501E+00  2.13747E+00
   2.82332E+00  3.77285E+00  4.59954E+00  5.05687E+00  5.13833E+00  4.92022E+00  4.54929E+00  4.18168E+00  3.85919E+00  3.65229E+00
   3.48207E+00  3.26403E+00  2.98303E+00  2.69658E+00  2.48218E+00  2.41586E+00  2.51270E+00  2.67992E+00  2.79978E+00  2.81733E+00
   2.73579E+00  2.57671E+00  2.37555E+00  2.19115E+00  2.05038E+00  1.95655E+00  1.88138E+00  1.76522E+00  1.63750E+00  1.57840E+00
   1.63989E+00  1.79712E+00  1.94034E+00  1.96343E+00  1.86076E+00  1.69889E+00  1.53955E+00  1.39707E+00  1.27929E+00  1.15635E+00
   1.03342E+00  9.73219E-01  9.73391E-01  1.00052E+00  1.06237E+00  1.15012E+00  1.28995E+00  1.57435E+00  2.09718E+00  2.83566E+00
   3.59703E+00  4.17651E+00  4.34829E+00  3.99105E+00  3.10604E+00  1.86027E+00  6.35577E-01 -1.46605E-01 -2.29299E-01  3.92701E-01
   1.42755E+00  2.48639E+00  3.36173E+00  3.95097E+00  4.16513E+00  3.92208E+00  3.31020E+00  2.49037E+00  1.64614E+00  1.00968E+00
   7.33797E-01  8.43238E-01  1.29674E+00  1.96444E+00  2.67131E+00  3.27478E+00  3.64476E+00  3.70115E+00  3.51987E+00  3.21333E+00
   2.86138E+00  2.58099E+00  2.48062E+00  2.63593E+00  2.97464E+00  3.37534E+00  3.75643E+00  4.02587E+00  4.03614E+00  3.70823E+00
   3.17026E+00  2.70520E+00  2.53656E+00  2.75645E+00  3.39025E+00  4.30354E+00  5.22534E+00  5.88142E+00  6.01970E+00  5.51807E+00
   4.55724E+00  3.47352E+00  2.61322E+00  2.20107E+00  2.37240E+00  3.06766E+00  3.95295E+00  4.72976E+00  5.30468E+00  5.64631E+00
   5.73521E+00  5.73241E+00  6.64346E+00  9.44744E+00  1.37679E+01  1.81748E+01  2.12502E+01  2.22921E+01  2.14550E+01  1.94006E+01
   1.67057E+01  1.35770E+01  1.05021E+01  8.52039E+00  7.30638E+00  6.25039E+00  5.26971E+00  4.52407E+00  4.08356E+00  3.78340E+00
   3.57650E+00  3.45883E+00  3.40595E+00  3.37227E+00  3.30532E+00  3.16789E+00  2.96168E+00  2.71213E+00  2.46240E+00  2.25398E+00
   2.10970E+00  2.03537E+00  2.02565E+00  2.05342E+00  2.07388E+00  2.06854E+00  2.03847E+00  1.98236E+00  1.90774E+00  1.84090E+00
   1.81468E+00  1.84111E+00  1.90348E+00  1.98605E+00  2.06921E+00  2.13450E+00  2.17179E+00  2.17783E+00  2.16067E+00  2.14809E+00
   2.15487E+00  2.18058E+00  2.21865E+00  2.26109E+00  2.30226E+00  2.33572E+00  2.35200E+00  2.35325E+00  2.34450E+00  2.32785E+00
   2.30577E+00  2.27987E+00  2.25148E+00  2.22205E+00  2.19313E+00  2.16652E+00  2.14408E+00  2.12740E+00  2.11766E+00  2.11584E+00
   2.12252E+00  2.13769E+00  2.16118E+00  2.19253E+00  2.23105E+00  2.27576E+00  2.32555E+00  2.37919E+00  2.43544E+00  2.49304E+00
   2.55084E+00  2.60788E+00  2.66348E+00  2.71739E+00  2.76980E+00  2.82144E+00  2.87378E+00  2.92915E+00  2.99094E+00  3.06380E+00
   3.15381E+00  3.26868E+00  3.41789E+00  3.61280E+00  3.86635E+00  4.19250E+00  4.60517E+00  5.11667E+00  5.73554E+00  6.46409E+00
   7.29575E+00  8.21291E+00  9.18569E+00  1.01723E+01  1.11212E+01  1.19755E+01  1.26785E+01  1.31801E+01  1.34434E+01  1.34490E+01
   1.31977E+01  1.27103E+01  1.20239E+01  1.11874E+01  1.02548E+01  9.27941E+00  8.30864E+00  7.38047E+00  6.52192E+00  5.74915E+00
   5.06879E+00  4.48014E+00  3.97743E+00  3.55200E+00  3.19401E+00  2.89376E+00  2.64242E+00  2.43251E+00  2.25793E+00  2.11393E+00
   1.99691E+00  1.90430E+00  1.83433E+00  1.78586E+00  1.75823E+00  1.75108E+00  1.76424E+00  1.79764E+00  1.85117E+00  1.92459E+00
   2.01741E+00  2.12873E+00  2.25722E+00  2.40103E+00  2.55773E+00  2.72429E+00  2.89709E+00  3.07193E+00  3.24421E+00  3.40906E+00
   3.56149E+00  3.69660E+00  3.80977E+00  3.89694E+00  3.95476E+00  3.98080E+00  3.97363E+00  3.93290E+00  3.85935E+00  3.75473E+00
   3.62174E+00  3.46385E+00  3.28508E+00  3.08983E+00  2.88260E+00  2.66788E+00  2.44991E+00  2.23255E+00  2.01918E+00  1.81258E+00
   1.61495E+00  1.42793E+00  1.25260E+00  1.08954E+00  9.38917E-01  8.00520E-01  6.73886E-01  5.58365E-01  4.53184E-01  3.57486E-01
   2.70380E-01  1.90984E-01  1.18468E-01  5.20590E-02 -8.94863E-03 -6.52059E-02 -1.17297E-01 -1.65735E-01 -2.10956E-01 -2.53339E-01
  -2.93216E-01 -3.30888E-01 -3.66614E-01 -4.00614E-01 -4.33064E-01 -4.64120E-01 -4.93923E-01 -5.22606E-01 -5.50281E-01 -5.77041E-01
  -6.02958E-01 -6.28104E-01 -6.52549E-01 -6.76360E-01 -6.99587E-01 -7.22269E-01 -7.44435E-01 -7.66127E-01 -7.87384E-01 -8.08246E-01
  -8.28739E-01 -8.48880E-01 -8.68685E-01 -8.88182E-01 -9.07395E-01 -9.26347E-01 -9.45045E-01 -9.63501E-01 -9.81724E-01 -9.99738E-01
  -1.01756E+00 -1.03520E+00 -1.05266E+00 -1.06995E+00 -1.08707E+00 -1.10405E+00 -1.12089E+00 -1.13760E+00 -1.15417E+00 -1.17062E+00
  -1.18695E+00 -1.20318E+00 -1.21931E+00 -1.23535E+00 -1.25129E+00 -1.26714E+00 -1.28290E+00 -1.29860E+00 -1.31423E+00 -1.32979E+00
  -1.34528E+00 -1.36071E+00 -1.37609E+00 -1.39143E+00 -1.40673E+00 -1.42199E+00 -1.43721E+00 -1.45240E+00
 NY background values follow
     4.032E+00    4.021E+00    4.009E+00    3.997E+00    3.985E+00    3.974E+00    3.962E+00    3.950E+00    3.938E+00    3.927E+00
     3.915E+00    3.903E+00    3.891E+00    3.880E+00    3.868E+00    3.856E+00    3.844E+00    3.833E+00    3.821E+00    3.809E+00
     3.797E+00    3.786E+00    3.774E+00    3.762E+00    3.750E+00    3.739E+00    3.727E+00    3.715E+00    3.703E+00    3.692E+00
     3.680E+00    3.668E+00    3.656E+00    3.645E+00    3.633E+00    3.621E+00    3.609E+00    3.597E+00    3.586E+00    3.574E+00
     3.562E+00    3.550E+00    3.539E+00    3.527E+00    3.515E+00    3.503E+00    3.491E+00    3.480E+00    3.468E+00    3.456E+00
     3.444E+00    3.433E+00    3.421E+00    3.409E+00    3.397E+00    3.385E+00    3.374E+00    3.362E+00    3.350E+00    3.338E+00
     3.326E+00    3.315E+00    3.303E+00    3.291E+00    3.279E+00    3.268E+00    3.256E+00    3.244E+00    3.232E+00    3.220E+00
     3.209E+00    3.197E+00    3.185E+00    3.173E+00    3.161E+00    3.150E+00    3.138E+00    3.126E+00    3.114E+00    3.102E+00
     3.091E+00    3.079E+00    3.067E+00    3.055E+00    3.043E+00    3.032E+00    3.020E+00    3.008E+00    2.996E+00    2.984E+00
     2.972E+00    2.961E+00    2.949E+00    2.937E+00    2.925E+00    2.913E+00    2.902E+00    2.890E+00    2.878E+00    2.866E+00
     2.854E+00    2.843E+00    2.831E+00    2.819E+00    2.807E+00    2.795E+00    2.783E+00    2.772E+00    2.760E+00    2.748E+00
     2.736E+00    2.724E+00    2.713E+00    2.701E+00    2.689E+00    2.677E+00    2.665E+00    2.653E+00    2.642E+00    2.630E+00
     2.618E+00    2.606E+00    2.594E+00    2.583E+00    2.571E+00    2.559E+00    2.547E+00    2.535E+00    2.523E+00    2.512E+00
     2.500E+00    2.488E+00    2.476E+00    2.464E+00    2.452E+00    2.441E+00    2.429E+00    2.417E+00    2.405E+00    2.393E+00
     2.381E+00    2.370E+00    2.358E+00    2.346E+00    2.334E+00    2.322E+00    2.310E+00    2.299E+00    2.287E+00    2.275E+00
     2.263E+00    2.251E+00    2.239E+00    2.228E+00    2.216E+00    2.204E+00    2.192E+00    2.180E+00    2.168E+00    2.157E+00
     2.145E+00    2.133E+00    2.121E+00    2.109E+00    2.097E+00    2.086E+00    2.074E+00    2.062E+00    2.050E+00    2.038E+00
     2.026E+00    2.015E+00    2.003E+00    1.991E+00    1.979E+00    1.967E+00    1.955E+00    1.944E+00    1.932E+00    1.920E+00
     1.908E+00    1.896E+00    1.884E+00    1.873E+00    1.861E+00    1.849E+00    1.837E+00    1.825E+00    1.813E+00    1.802E+00
     1.790E+00    1.778E+00    1.766E+00    1.754E+00    1.742E+00    1.731E+00    1.719E+00    1.707E+00    1.695E+00    1.683E+00
     1.671E+00    1.660E+00    1.648E+00    1.636E+00    1.624E+00    1.612E+00    1.600E+00    1.589E+00    1.577E+00    1.565E+00
     1.553E+00    1.541E+00    1.529E+00    1.518E+00    1.506E+00    1.494E+00    1.482E+00    1.470E+00    1.458E+00    1.447E+00
     1.435E+00    1.423E+00    1.411E+00    1.399E+00    1.387E+00    1.376E+00    1.364E+00    1.352E+00    1.340E+00    1.328E+00
     1.316E+00    1.305E+00    1.293E+00    1.281E+00    1.269E+00    1.257E+00    1.245E+00    1.234E+00    1.222E+00    1.210E+00
     1.198E+00    1.186E+00    1.174E+00    1.163E+00    1.151E+00    1.139E+00    1.127E+00    1.115E+00    1.103E+00    1.092E+00
     1.080E+00    1.068E+00    1.056E+00    1.044E+00    1.033E+00    1.021E+00    1.009E+00    9.971E-01    9.852E-01    9.734E-01
     9.616E-01    9.498E-01    9.380E-01    9.261E-01    9.143E-01    9.025E-01    8.907E-01    8.789E-01    8.670E-01    8.552E-01
     8.434E-01    8.316E-01    8.198E-01    8.080E-01    7.961E-01    7.843E-01    7.725E-01    7.607E-01    7.489E-01    7.371E-01
     7.253E-01    7.135E-01    7.016E-01    6.898E-01    6.780E-01    6.662E-01    6.544E-01    6.426E-01    6.308E-01    6.190E-01
     6.072E-01    5.954E-01    5.836E-01    5.718E-01    5.599E-01    5.481E-01    5.363E-01    5.245E-01    5.127E-01    5.009E-01
     4.891E-01    4.773E-01    4.655E-01    4.537E-01    4.419E-01    4.301E-01    4.183E-01    4.065E-01    3.947E-01    3.830E-01
     3.712E-01    3.594E-01    3.476E-01    3.358E-01    3.240E-01    3.122E-01    3.004E-01    2.886E-01    2.768E-01    2.650E-01
     2.533E-01    2.415E-01    2.297E-01    2.179E-01    2.061E-01    1.943E-01    1.825E-01    1.708E-01    1.590E-01    1.472E-01
     1.354E-01    1.236E-01    1.119E-01    1.001E-01    8.832E-02    7.654E-02    6.477E-02    5.299E-02    4.122E-02    2.945E-02
     1.768E-02    5.905E-03   -5.864E-03   -1.763E-02   -2.940E-02   -4.117E-02   -5.293E-02   -6.470E-02   -7.646E-02   -8.823E-02
    -9.999E-02   -1.117E-01   -1.235E-01   -1.353E-01   -1.470E-01   -1.588E-01   -1.705E-01   -1.823E-01   -1.941E-01   -2.058E-01
    -2.176E-01   -2.293E-01   -2.411E-01   -2.528E-01   -2.646E-01   -2.763E-01   -2.881E-01   -2.998E-01   -3.115E-01   -3.233E-01
    -3.350E-01   -3.468E-01   -3.585E-01   -3.703E-01   -3.820E-01   -3.937E-01   -4.055E-01   -4.172E-01   -4.289E-01   -4.407E-01
    -4.524E-01   -4.641E-01   -4.759E-01   -4.876E-01   -4.993E-01   -5.110E-01   -5.228E-01   -5.345E-01   -5.462E-01   -5.579E-01
    -5.697E-01   -5.814E-01   -5.931E-01   -6.048E-01   -6.165E-01   -6.282E-01   -6.400E-01   -6.517E-01   -6.634E-01   -6.751E-01
    -6.868E-01   -6.985E-01   -7.102E-01   -7.219E-01   -7.336E-01   -7.453E-01   -7.570E-01   -7.687E-01   -7.804E-01   -7.921E-01
    -8.038E-01   -8.155E-01   -8.272E-01   -8.389E-01   -8.506E-01   -8.623E-01   -8.740E-01   -8.857E-01   -8.974E-01   -9.090E-01
    -9.207E-01   -9.324E-01   -9.441E-01   -9.558E-01   -9.674E-01   -9.791E-01   -9.908E-01   -1.002E+00   -1.014E+00   -1.026E+00
    -1.037E+00   -1.049E+00   -1.061E+00   -1.072E+00   -1.084E+00   -1.096E+00   -1.107E+00   -1.119E+00   -1.131E+00   -1.142E+00
    -1.154E+00   -1.166E+00   -1.177E+00   -1.189E+00   -1.201E+00   -1.212E+00   -1.224E+00   -1.236E+00   -1.247E+00   -1.259E+00
    -1.271E+00   -1.282E+00   -1.294E+00   -1.306E+00   -1.317E+00   -1.329E+00   -1.340E+00   -1.352E+00   -1.364E+00   -1.375E+00
    -1.387E+00   -1.399E+00   -1.410E+00   -1.422E+00   -1.433E+00   -1.445E+00   -1.457E+00   -1.468E+00   -1.480E+00   -1.491E+00
    -1.503E+00   -1.515E+00   -1.526E+00   -1.538E+00   -1.550E+00   -1.561E+00   -1.573E+00   -1.584E+00   -1.596E+00   -1.608E+00
    -1.619E+00   -1.631E+00   -1.642E+00   -1.654E+00   -1.665E+00   -1.677E+00   -1.689E+00   -1.700E+00   -1.712E+00   -1.723E+00
    -1.735E+00   -1.747E+00   -1.758E+00   -1.770E+00   -1.781E+00   -1.793E+00   -1.804E+00   -1.816E+00
 Asp      Conc. = 4.56E+01
