 LCModel (Version 6.3-1L) Copyright: S.W. Provencher.          Ref.: Magn. Reson. Med. 30:672-679 (1993).                
 Slice#1 Row#1 Col#4  PD_24_press_2_raw_act
 36 lines in following concentration table = NCONC+1
    Conc.  %SD /Cr+PCr  Metabolite                                         
    7.123 437%   0.153 Ala                                                 
    0.000 999%   0.000 Asp                                                 
    0.000 999%   0.000 Cr                                                  
   46.589  83%   1.000 PCr                                                 
    0.000 999%   0.000 GABA                                                
    4.268 554% 9.2E-02 Glc                                                 
   32.462 212%   0.697 Gln                                                 
   64.355 130%   1.381 Glu                                                 
   12.359 382%   0.265 GPC                                                 
    7.172 650%   0.154 PCh                                                 
    0.000 999%   0.000 GSH                                                 
  155.011  86%   3.327 Ins                                                 
    2.790 999% 6.0E-02 Lac                                                 
   37.819  98%   0.812 NAA                                                 
   44.016  83%   0.945 NAAG                                                
    6.538 108%   0.140 Scyllo                                              
   11.923 328%   0.256 Tau                                                 
    9.105 378%   0.195 -CrCH2                                              
   19.531  79%   0.419 GPC+PCh                                             
   81.835  77%   1.757 NAA+NAAG                                            
   46.589  83%   1.000 Cr+PCr                                              
   96.818 118%   2.078 Glu+Gln                                             
 3.98E+03  21%  85.514 Lip13a                                              
  115.675 320%   2.483 Lip13b                                              
 1.13E+03  18%  24.353 Lip09                                               
  215.928  56%   4.635 MM09                                                
  526.348  26%  11.298 Lip20                                               
    0.000 999%   0.000 MM20                                                
   66.975  97%   1.438 MM12                                                
 1.06E+03  20%  22.701+MM14                                                
    0.000 999%   0.000 MM17                                                
 4.10E+03  17%  87.997 Lip13a+Lip13b                                       
 5.22E+03  12% 112.135 MM14+Lip13a+Lip13b+MM12                             
 1.35E+03  15%  28.988 MM09+Lip09                                          
  526.348  26%  11.298 MM20+Lip20                                          
   6 lines in following misc. output table
  FWHM = 0.038 ppm    S/N =   1                                            
  Data shift = 0.038 ppm                                                   
  Ph: 105 deg      31.7 deg/ppm                                            
  alphaB,S = 8.5E+01,   5.1E+00                                            
   14 spline knots.   Ns = 8(1)                                            
   2 inflections.     2 extrema                                            
  498 points on ppm-axis = NY
      4.000000     3.992357     3.984714     3.977070     3.969427     3.961784     3.954141     3.946497     3.938854     3.931211
      3.923568     3.915925     3.908281     3.900638     3.892995     3.885352     3.877708     3.870065     3.862422     3.854779
      3.847136     3.839492     3.831849     3.824206     3.816563     3.808919     3.801276     3.793633     3.785990     3.778347
      3.770703     3.763060     3.755417     3.747774     3.740130     3.732487     3.724844     3.717201     3.709558     3.701914
      3.694271     3.686628     3.678985     3.671341     3.663698     3.656055     3.648412     3.640769     3.633125     3.625482
      3.617839     3.610196     3.602552     3.594909     3.587266     3.579623     3.571980     3.564336     3.556693     3.549050
      3.541407     3.533763     3.526120     3.518477     3.510834     3.503191     3.495547     3.487904     3.480261     3.472618
      3.464974     3.457331     3.449688     3.442045     3.434402     3.426758     3.419115     3.411472     3.403829     3.396185
      3.388542     3.380899     3.373256     3.365613     3.357969     3.350326     3.342683     3.335040     3.327396     3.319753
      3.312110     3.304467     3.296824     3.289180     3.281537     3.273894     3.266251     3.258607     3.250964     3.243321
      3.235678     3.228034     3.220391     3.212748     3.205105     3.197462     3.189818     3.182175     3.174532     3.166889
      3.159245     3.151602     3.143959     3.136316     3.128673     3.121029     3.113386     3.105743     3.098100     3.090456
      3.082813     3.075170     3.067527     3.059884     3.052240     3.044597     3.036954     3.029311     3.021667     3.014024
      3.006381     2.998738     2.991095     2.983451     2.975808     2.968165     2.960522     2.952878     2.945235     2.937592
      2.929949     2.922306     2.914662     2.907019     2.899376     2.891733     2.884089     2.876446     2.868803     2.861160
      2.853517     2.845873     2.838230     2.830587     2.822944     2.815300     2.807657     2.800014     2.792371     2.784728
      2.777084     2.769441     2.761798     2.754155     2.746511     2.738868     2.731225     2.723582     2.715939     2.708295
      2.700652     2.693009     2.685366     2.677722     2.670079     2.662436     2.654793     2.647150     2.639506     2.631863
      2.624220     2.616577     2.608933     2.601290     2.593647     2.586004     2.578361     2.570717     2.563074     2.555431
      2.547788     2.540144     2.532501     2.524858     2.517215     2.509572     2.501928     2.494285     2.486642     2.478999
      2.471355     2.463712     2.456069     2.448426     2.440783     2.433139     2.425496     2.417853     2.410210     2.402566
      2.394923     2.387280     2.379637     2.371994     2.364350     2.356707     2.349064     2.341421     2.333777     2.326134
      2.318491     2.310848     2.303205     2.295561     2.287918     2.280275     2.272632     2.264988     2.257345     2.249702
      2.242059     2.234416     2.226772     2.219129     2.211486     2.203843     2.196199     2.188556     2.180913     2.173270
      2.165627     2.157983     2.150340     2.142697     2.135054     2.127410     2.119767     2.112124     2.104481     2.096838
      2.089194     2.081551     2.073908     2.066265     2.058621     2.050978     2.043335     2.035692     2.028049     2.020405
      2.012762     2.005119     1.997476     1.989833     1.982190     1.974546     1.966903     1.959260     1.951617     1.943974
      1.936331     1.928688     1.921045     1.913402     1.905759     1.898115     1.890472     1.882829     1.875186     1.867543
      1.859900     1.852257     1.844614     1.836971     1.829327     1.821684     1.814041     1.806398     1.798755     1.791112
      1.783469     1.775826     1.768183     1.760540     1.752896     1.745253     1.737610     1.729967     1.722324     1.714681
      1.707038     1.699395     1.691752     1.684108     1.676465     1.668822     1.661179     1.653536     1.645893     1.638250
      1.630607     1.622964     1.615321     1.607677     1.600034     1.592391     1.584748     1.577105     1.569462     1.561819
      1.554176     1.546533     1.538890     1.531246     1.523603     1.515960     1.508317     1.500674     1.493031     1.485388
      1.477745     1.470102     1.462458     1.454815     1.447172     1.439529     1.431886     1.424243     1.416600     1.408957
      1.401314     1.393671     1.386027     1.378384     1.370741     1.363098     1.355455     1.347812     1.340169     1.332526
      1.324883     1.317240     1.309596     1.301953     1.294310     1.286667     1.279024     1.271381     1.263738     1.256095
      1.248452     1.240808     1.233165     1.225522     1.217879     1.210236     1.202593     1.194950     1.187307     1.179664
      1.172021     1.164377     1.156734     1.149091     1.141448     1.133805     1.126162     1.118519     1.110876     1.103233
      1.095590     1.087946     1.080303     1.072660     1.065017     1.057374     1.049731     1.042088     1.034445     1.026802
      1.019158     1.011515     1.003872     0.996229     0.988586     0.980943     0.973300     0.965657     0.958014     0.950371
      0.942727     0.935084     0.927441     0.919798     0.912155     0.904512     0.896869     0.889226     0.881583     0.873940
      0.866296     0.858653     0.851010     0.843367     0.835724     0.828081     0.820438     0.812795     0.805152     0.797508
      0.789865     0.782222     0.774579     0.766936     0.759293     0.751650     0.744007     0.736364     0.728721     0.721077
      0.713434     0.705791     0.698148     0.690505     0.682862     0.675219     0.667576     0.659933     0.652290     0.644646
      0.637003     0.629360     0.621717     0.614074     0.606431     0.598788     0.591145     0.583502     0.575858     0.568215
      0.560572     0.552929     0.545286     0.537643     0.530000     0.522357     0.514714     0.507071     0.499427     0.491784
      0.484141     0.476498     0.468855     0.461212     0.453569     0.445925     0.438282     0.430639     0.422996     0.415353
      0.407710     0.400067     0.392424     0.384780     0.377137     0.369494     0.361851     0.354208     0.346565     0.338922
      0.331278     0.323635     0.315992     0.308349     0.300706     0.293063     0.285420     0.277777     0.270133     0.262490
      0.254847     0.247204     0.239561     0.231918     0.224275     0.216631     0.208988     0.201345
 NY phased data points follow
  -1.47622E+00  2.61698E+00 -1.76035E+01  1.34134E+00  1.01772E+01  1.52372E+01  2.65882E+00 -1.47297E+01 -7.75229E+00  1.11888E+01
   4.77667E-01  1.26963E+01  6.19152E+00  6.53651E+00  3.76134E+00 -8.17474E+00  7.05882E-01  6.69922E+00 -1.50659E+00  6.99128E+00
   5.19471E+00 -3.87354E+00  1.30780E+00  7.80431E+00  5.30576E+00  7.09572E+00 -4.76708E+00 -1.91302E+00 -5.14841E+00  4.29288E+00
  -9.83545E+00  4.27496E+00  2.40061E-01 -1.10411E+01  1.11924E+01 -9.91551E+00  8.19297E+00 -4.18636E-01 -2.60250E+00  6.67187E+00
   1.31098E+01  1.78045E+01 -7.88808E-01 -1.29873E+00  2.26611E+00 -8.96723E+00 -2.94852E+00  9.90439E+00 -2.76712E+00  8.30482E+00
   1.73846E+01  1.38163E+01  1.15116E+00  4.44402E-01 -5.37106E+00  5.31756E+00  3.60990E-01 -7.18155E+00 -3.77076E+00  7.80992E+00
   6.24168E-01  4.40320E+00 -5.16079E+00 -3.09777E+00 -1.93180E+00  9.07644E+00 -3.92800E+00  4.74297E-01  1.22040E+01 -5.46324E-01
  -2.47709E+00  1.46532E+00  1.18432E+00  1.73098E+00 -4.49067E+00  4.34349E+00  7.98583E+00 -6.97200E+00 -1.40480E+00  6.06543E+00
   1.39678E+00 -6.26537E+00 -6.54035E+00  9.88810E+00  2.89248E+00 -5.57866E+00  7.64425E+00  4.55257E+00  5.69181E-01  8.68214E+00
  -6.66557E+00  1.08778E+01  4.93723E+00  9.23971E-01 -5.31279E+00  3.50287E+00 -5.47079E-01 -1.65267E+00 -6.81328E+00 -3.57880E+00
  -5.38331E+00  3.32387E+00 -8.03919E+00 -6.79829E+00  8.74024E+00 -7.43897E-01  7.50247E+00  3.46099E+00  7.51509E+00  1.02339E+01
   7.04949E+00 -2.84777E+00  4.37525E+00 -6.58819E+00  5.11717E+00  5.48313E+00 -7.31650E+00  5.08011E+00 -3.29727E+00 -9.93371E+00
   6.15315E+00  4.38425E-01 -6.04400E+00  4.19480E+00 -2.68757E+00  2.90103E+00 -2.39165E+00 -5.94841E+00  6.89151E+00 -2.86288E-01
   6.63730E+00  9.96655E+00  1.62816E+01  3.30813E+00  5.44368E+00  1.61280E+00  4.72233E+00 -1.98621E-01 -5.09762E-01 -1.31539E+01
  -7.50407E+00  1.11787E+01 -9.56959E+00 -1.48997E+00 -9.77176E-01  8.32126E+00  6.01294E-01  9.02958E+00  4.39017E+00  2.15919E+00
  -5.00290E+00 -8.85503E+00  1.06404E+01  8.43345E+00 -1.69131E+00  8.59372E+00  2.02788E+00  2.96156E+00  1.22372E+01 -3.35728E+00
   5.07158E+00 -8.78978E-01  9.94322E+00  4.60086E+00  3.62431E+00  2.01479E+00  8.22188E+00  7.16060E+00 -3.52530E+00  5.71817E+00
   4.41413E+00  8.12271E+00  8.08910E-01 -6.39523E-01  1.57676E+00  1.65399E-01 -5.75039E+00  1.48369E+00  2.39908E+00 -3.66424E+00
  -5.00258E+00 -6.68410E+00  2.79256E+00  7.33302E+00 -4.97807E+00 -4.16823E+00  7.90628E+00  1.16755E+01  1.04104E+00  5.93190E+00
   2.63081E+00 -9.24297E+00 -4.38698E+00  6.83190E+00 -6.72541E+00 -8.70933E+00 -8.15385E+00 -6.72558E-01 -2.90317E+00  2.36095E+00
   2.71170E+00 -4.59538E+00 -5.28820E+00 -9.54512E-01 -1.82835E+00 -2.28743E+00  1.05901E+01 -7.93478E+00 -9.02788E-01  5.58517E-01
  -1.09121E+00  2.26998E-01 -5.83471E+00  1.39093E+00 -2.88200E+00  3.02201E-01 -9.57097E+00  5.97813E+00 -6.98662E+00  7.20494E+00
   1.33431E+01 -1.12672E+01 -1.21417E+00 -5.65154E+00 -4.53709E+00 -8.16025E+00  2.96917E+00 -3.40097E+00 -8.96382E+00  3.84815E+00
  -7.28194E+00 -3.97128E-01 -1.16059E+01  8.98982E+00  3.94709E+00  1.26692E+01 -4.77532E+00 -2.22003E+00 -1.05583E+01 -1.93548E+00
  -8.82675E+00  1.04094E+00 -6.34042E+00 -1.21217E+00 -7.78468E+00 -9.07255E+00  3.93339E-02 -5.12299E+00 -1.02318E+01 -1.48238E+01
  -1.06985E+01 -1.07043E+01 -1.12313E+01 -1.15621E+01 -1.59692E+01 -1.55850E+01 -1.60546E+00 -6.55505E+00  7.65220E-01 -9.09198E+00
   2.78636E+00 -1.21244E+00  6.33659E+00  4.26543E+00  5.48170E+00  4.88576E+00 -3.61348E+00  3.93684E+00 -4.15078E+00 -3.59174E+00
  -5.40081E+00 -8.00359E+00 -3.28185E-01 -3.71735E+00 -5.63305E+00  1.05611E+01 -6.52746E+00 -4.36549E+00 -1.04728E+01 -3.56216E+00
  -2.77856E+00 -1.16314E+01 -1.91364E+01 -8.84000E+00 -3.63081E+00 -2.81561E+00 -1.11522E+01 -1.69927E+00 -7.25683E+00 -1.26304E+01
  -6.92662E+00 -9.48817E+00 -1.12985E+01 -1.60536E+01 -1.08495E+01 -9.41263E+00 -1.11315E+01 -1.03429E+00 -7.91088E+00 -4.25113E+00
  -1.02080E+01  6.74273E-01 -9.22976E+00  4.20793E-01 -8.96882E+00  1.68835E+00 -3.36514E+00 -3.13557E+00 -1.12096E+01  3.06339E+00
   5.04074E+00 -2.12329E+00  1.07384E+01  2.60816E+00  6.34309E+00  1.49743E+01  7.25804E+00  7.24712E+00  7.78052E+00  6.63977E+00
   1.59024E+01  1.52647E+01  1.89029E+01  2.22284E+01  1.83379E+01  1.71022E+01  2.22722E+01  1.58937E+01  1.54151E+01  2.51913E+01
   2.23125E+01  1.91688E+01  1.39915E+01  2.98342E+01  1.45405E+01  1.04524E+01  1.70291E+01  1.68800E+01  1.35862E+01  1.04821E+01
   3.71619E+00  3.33497E+00  1.76540E+00  1.30720E+01  4.99729E+00  1.13204E+01  1.26120E+01  1.58578E+01  1.43542E+01  2.03533E+01
   1.33387E+01  1.18392E+01  1.74043E+01  2.61302E+01  2.05268E+01  1.45622E+01  1.87441E+01  5.89371E+00  1.31418E+01  1.47786E+01
   1.50880E+01  1.53467E+01  6.29882E+00  1.28083E+01  6.04220E+00  1.03727E+01  5.83030E+00  1.17184E+01  1.71725E+01  4.50918E+00
   5.26574E+00  4.06590E+00  7.73690E+00  7.52336E+00  1.02809E+01  1.46049E+00  3.17596E+00  6.79613E+00  8.81757E+00  2.38545E+01
   2.93471E+00  1.33058E+01  4.87765E+00  1.29925E+01  2.18999E+01  1.27119E+01 -6.56709E-01  7.44264E+00  9.99044E+00  7.67209E+00
   1.09470E+01  5.66047E+00  1.86695E+00  4.58815E+00  3.26778E+00  3.34601E+00  3.15094E+00 -4.18486E+00  9.05535E+00  9.71323E+00
   1.27864E+01  2.94398E+00  2.10902E+00  7.86280E+00  1.31481E+01  7.43363E+00  1.33149E+00  9.76043E+00  5.38981E+00  1.40245E+01
   8.91948E+00  7.04603E+00  1.00704E+01  1.05604E+01  1.38345E+01  7.56882E+00  3.42293E+00  1.31852E+01  2.01223E+01  1.39681E+01
  -3.59882E+00  3.91326E+00  9.33035E+00  8.22599E+00  1.11134E+01  7.40260E+00  6.79381E+00 -1.08497E-01  3.81379E-01 -6.35529E+00
  -4.74291E+00  2.82933E+00 -2.36335E+00  6.51704E+00 -4.76268E+00 -6.44504E+00  3.39215E+00 -9.52027E-01 -4.69855E+00  3.19753E+00
   7.33248E+00 -4.42504E+00  8.10489E+00  1.78929E+00 -2.17156E+00  1.26888E+01  1.63694E+00 -8.32472E+00  2.75301E-01 -2.31210E+00
  -2.18092E+00 -7.52735E+00 -1.37435E+00  9.95235E+00  9.36196E+00  3.97935E+00  6.33367E+00  3.47680E+00 -2.36059E-01  1.09409E+01
   4.72289E+00  1.35061E+01 -6.77877E+00 -7.98560E+00 -4.98995E+00  1.24362E+00  1.42595E-01 -4.04093E+00 -2.00399E+00 -3.93578E+00
   5.52431E+00  8.42392E+00  1.81862E+00  1.19709E+01 -5.79318E+00 -4.18759E+00 -2.26600E+00  1.15762E+01 -1.06820E+00  8.68638E+00
   3.13322E+00 -5.84183E-01 -2.59971E+00  2.26404E+00  2.34091E+00 -9.38117E+00  3.08168E+00 -3.72914E+00  2.39382E+00  5.43573E+00
   1.96316E+00 -1.11906E+00 -4.98049E+00  9.63710E+00  4.53075E+00 -3.00867E-01 -7.11937E-01  6.45224E+00
 NY points of the fit to the data follow
   2.62403E+00  1.61298E+00  4.40084E-01 -5.36057E-01 -1.29760E+00 -1.82441E+00 -2.02852E+00 -1.83509E+00 -1.13199E+00  3.63749E-02
   1.39079E+00  2.57947E+00  3.35630E+00  3.62789E+00  3.41740E+00  2.83389E+00  2.02521E+00  1.14901E+00  4.38732E-01  1.29337E-01
   1.02690E-01  1.81423E-01  3.11482E-01  4.60104E-01  5.63041E-01  5.74497E-01  4.64692E-01  2.15453E-01 -1.63460E-01 -6.25429E-01
  -1.06274E+00 -1.29478E+00 -1.19185E+00 -7.42857E-01 -6.35017E-02  6.72325E-01  1.30198E+00  1.69537E+00  1.71137E+00  1.19167E+00
   1.29638E-01 -1.14327E+00 -2.20045E+00 -2.85795E+00 -3.12974E+00 -2.98182E+00 -2.23305E+00 -7.49705E-01  1.24712E+00  3.21346E+00
   4.63614E+00  5.17425E+00  4.76118E+00  3.58870E+00  1.96216E+00  2.66044E-01 -1.11385E+00 -1.82715E+00 -1.77942E+00 -1.21178E+00
  -3.93977E-01  4.70817E-01  1.21502E+00  1.67548E+00  1.71238E+00  1.36085E+00  7.77180E-01  1.14126E-01 -4.92734E-01 -8.72042E-01
  -9.30479E-01 -6.89110E-01 -2.30496E-01  2.81149E-01  7.19506E-01  1.02296E+00  1.17531E+00  1.16993E+00  9.49806E-01  6.17025E-01
   3.24869E-01  1.63509E-01  1.60064E-01  2.52922E-01  4.38826E-01  7.70994E-01  1.19085E+00  1.50266E+00  1.51611E+00  1.20353E+00
   6.88411E-01  1.23769E-01 -3.47126E-01 -6.60995E-01 -9.06761E-01 -1.42603E+00 -2.15321E+00 -2.83931E+00 -3.45371E+00 -3.99596E+00
  -4.39954E+00 -4.33636E+00 -3.32299E+00 -1.21349E+00  1.54194E+00  4.19238E+00  6.14667E+00  7.10081E+00  7.00237E+00  6.02258E+00
   4.45023E+00  2.64960E+00  1.10474E+00  3.18868E-01  1.08720E-01  3.75074E-02 -1.32601E-02 -1.03986E-01 -4.01826E-01 -1.21117E+00
  -2.25168E+00 -3.16682E+00 -3.81809E+00 -4.20362E+00 -4.26962E+00 -3.73379E+00 -2.29323E+00 -4.21608E-02  2.47025E+00  4.60751E+00
   5.95841E+00  6.38760E+00  5.95764E+00  4.87499E+00  3.41761E+00  1.90800E+00  7.81245E-01  3.55255E-01  2.62251E-01  2.39811E-01
   2.40097E-01  2.51077E-01  2.67880E-01  2.88005E-01  3.10076E-01  3.34704E-01  3.70121E-01  4.18713E-01  4.68435E-01  5.10093E-01
   5.36967E-01  5.45223E-01  5.46697E-01  5.49554E-01  5.45169E-01  5.27820E-01  5.07395E-01  4.99968E-01  5.25581E-01  5.80117E-01
   6.32118E-01  6.57235E-01  6.59274E-01  6.41118E-01  5.98784E-01  5.43392E-01  4.89379E-01  4.45415E-01  4.14876E-01  3.76231E-01
   2.98955E-01  1.96328E-01  1.11311E-01  7.25658E-02  6.85601E-02  6.55140E-02  1.98755E-02 -6.22905E-02 -1.45187E-01 -2.12164E-01
  -2.85046E-01 -3.76165E-01 -4.73475E-01 -5.59056E-01 -6.20739E-01 -6.60040E-01 -6.71485E-01 -6.38742E-01 -5.43945E-01 -3.97105E-01
  -2.15788E-01 -3.02042E-02  1.17629E-01  1.94269E-01  1.83946E-01  7.81614E-02 -1.16090E-01 -3.78373E-01 -6.48534E-01 -8.34610E-01
  -8.70332E-01 -7.00584E-01 -2.82362E-01  2.89769E-01  8.67609E-01  1.36586E+00  1.68614E+00  1.71987E+00  1.33843E+00  5.88241E-01
  -3.47905E-01 -1.24943E+00 -1.90791E+00 -2.15981E+00 -1.85853E+00 -9.85327E-01  2.32451E-01  1.44253E+00  2.37556E+00  2.83180E+00
   2.69974E+00  2.03375E+00  9.99315E-01 -1.45033E-01 -1.08614E+00 -1.58883E+00 -1.56303E+00 -1.15041E+00 -5.02023E-01  2.32515E-01
   8.87727E-01  1.31407E+00  1.43637E+00  1.32254E+00  1.14146E+00  1.01691E+00  9.25147E-01  8.69733E-01  8.78271E-01  9.74048E-01
   1.12687E+00  1.26153E+00  1.32428E+00  1.30645E+00  1.22950E+00  1.10537E+00  9.16957E-01  5.76350E-01 -1.84162E-01 -1.16861E+00
  -2.04177E+00 -2.70399E+00 -3.39965E+00 -4.20913E+00 -4.51071E+00 -3.79214E+00 -2.08445E+00  9.74598E-02  2.25985E+00  4.25801E+00
   6.11153E+00  7.65800E+00  8.60257E+00  8.75475E+00  8.14442E+00  7.08819E+00  6.00360E+00  4.78182E+00  3.36655E+00  2.02251E+00
   1.15022E+00  7.98163E-01  6.27990E-01  5.44807E-01  5.32456E-01  5.52656E-01  5.69823E-01  5.71729E-01  5.44272E-01  4.87101E-01
   4.08240E-01  3.23091E-01  2.53014E-01  2.17066E-01  2.17913E-01  2.45058E-01  2.79296E-01  3.02781E-01  3.10932E-01  3.03204E-01
   2.81516E-01  2.56981E-01  2.43815E-01  2.51807E-01  2.81088E-01  3.23476E-01  3.73628E-01  4.23969E-01  4.67208E-01  5.00573E-01
   5.26273E-01  5.52630E-01  5.93148E-01  6.54545E-01  7.39526E-01  8.49803E-01  9.86706E-01  1.15131E+00  1.34373E+00  1.56403E+00
   1.81719E+00  2.10827E+00  2.44057E+00  2.81660E+00  3.23721E+00  3.70152E+00  4.20677E+00  4.74738E+00  5.31249E+00  5.88595E+00
   6.48332E+00  7.12586E+00  7.80344E+00  8.49611E+00  9.18935E+00  9.88219E+00  1.05697E+01  1.11935E+01  1.16701E+01  1.19687E+01
   1.20991E+01  1.20905E+01  1.19744E+01  1.17932E+01  1.16127E+01  1.15049E+01  1.15144E+01  1.16364E+01  1.18052E+01  1.19609E+01
   1.20964E+01  1.22203E+01  1.23366E+01  1.24503E+01  1.25781E+01  1.27688E+01  1.30538E+01  1.33969E+01  1.37576E+01  1.41111E+01
   1.44416E+01  1.47359E+01  1.49792E+01  1.51606E+01  1.52793E+01  1.53372E+01  1.53299E+01  1.52456E+01  1.50616E+01  1.47644E+01
   1.43648E+01  1.38813E+01  1.33350E+01  1.27467E+01  1.21388E+01  1.15392E+01  1.09597E+01  1.03985E+01  9.85494E+00  9.32944E+00
   8.82287E+00  8.33657E+00  7.87228E+00  7.43202E+00  7.01786E+00  6.63181E+00  6.27567E+00  5.95099E+00  5.65900E+00  5.40072E+00
   5.17694E+00  4.98835E+00  4.83547E+00  4.71881E+00  4.63876E+00  4.59573E+00  4.59002E+00  4.62185E+00  4.69126E+00  4.79800E+00
   4.94143E+00  5.12049E+00  5.33346E+00  5.57794E+00  5.85069E+00  6.14756E+00  6.46351E+00  6.79256E+00  7.12790E+00  7.46198E+00
   7.78669E+00  8.09361E+00  8.37428E+00  8.62050E+00  8.82469E+00  8.98014E+00  9.08134E+00  9.12418E+00  9.10620E+00  9.02665E+00
   8.88651E+00  8.68838E+00  8.43644E+00  8.13612E+00  7.79397E+00  7.41722E+00  7.01357E+00  6.59080E+00  6.15652E+00  5.71792E+00
   5.28158E+00  4.85325E+00  4.43781E+00  4.03919E+00  3.66039E+00  3.30354E+00  2.96993E+00  2.66015E+00  2.37416E+00  2.11144E+00
   1.87106E+00  1.65186E+00  1.45245E+00  1.27136E+00  1.10705E+00  9.58018E-01  8.22801E-01  7.00024E-01  5.88405E-01  4.86757E-01
   3.94001E-01  3.09170E-01  2.31407E-01  1.59952E-01  9.41263E-02  3.33258E-02 -2.29841E-02 -7.52651E-02 -1.23921E-01 -1.69308E-01
  -2.11745E-01 -2.51520E-01 -2.88881E-01 -3.24045E-01 -3.57198E-01 -3.88512E-01 -4.18144E-01 -4.46239E-01 -4.72920E-01 -4.98292E-01
  -5.22453E-01 -5.45491E-01 -5.67496E-01 -5.88545E-01 -6.08704E-01 -6.28027E-01 -6.46565E-01 -6.64373E-01 -6.81505E-01 -6.98004E-01
  -7.13909E-01 -7.29247E-01 -7.44054E-01 -7.58364E-01 -7.72210E-01 -7.85619E-01 -7.98609E-01 -8.11197E-01 -8.23406E-01 -8.35263E-01
  -8.46790E-01 -8.58002E-01 -8.68909E-01 -8.79523E-01 -8.89861E-01 -8.99944E-01 -9.09785E-01 -9.19391E-01 -9.28768E-01 -9.37924E-01
  -9.46876E-01 -9.55637E-01 -9.64219E-01 -9.72623E-01 -9.80853E-01 -9.88916E-01 -9.96828E-01 -1.00460E+00
 NY background values follow
    -1.741E-02   -1.998E-02   -2.255E-02   -2.512E-02   -2.769E-02   -3.026E-02   -3.283E-02   -3.540E-02   -3.797E-02   -4.053E-02
    -4.310E-02   -4.567E-02   -4.824E-02   -5.081E-02   -5.338E-02   -5.595E-02   -5.852E-02   -6.109E-02   -6.366E-02   -6.623E-02
    -6.880E-02   -7.136E-02   -7.393E-02   -7.650E-02   -7.907E-02   -8.164E-02   -8.421E-02   -8.678E-02   -8.935E-02   -9.192E-02
    -9.449E-02   -9.706E-02   -9.963E-02   -1.022E-01   -1.048E-01   -1.073E-01   -1.099E-01   -1.125E-01   -1.150E-01   -1.176E-01
    -1.202E-01   -1.227E-01   -1.253E-01   -1.279E-01   -1.305E-01   -1.330E-01   -1.356E-01   -1.382E-01   -1.407E-01   -1.433E-01
    -1.459E-01   -1.484E-01   -1.510E-01   -1.536E-01   -1.561E-01   -1.587E-01   -1.613E-01   -1.639E-01   -1.664E-01   -1.690E-01
    -1.716E-01   -1.741E-01   -1.767E-01   -1.793E-01   -1.818E-01   -1.844E-01   -1.870E-01   -1.895E-01   -1.921E-01   -1.947E-01
    -1.973E-01   -1.998E-01   -2.024E-01   -2.050E-01   -2.075E-01   -2.101E-01   -2.127E-01   -2.152E-01   -2.178E-01   -2.204E-01
    -2.229E-01   -2.255E-01   -2.281E-01   -2.306E-01   -2.332E-01   -2.358E-01   -2.384E-01   -2.409E-01   -2.435E-01   -2.461E-01
    -2.486E-01   -2.512E-01   -2.538E-01   -2.563E-01   -2.589E-01   -2.615E-01   -2.640E-01   -2.666E-01   -2.692E-01   -2.718E-01
    -2.743E-01   -2.769E-01   -2.795E-01   -2.820E-01   -2.846E-01   -2.872E-01   -2.897E-01   -2.923E-01   -2.949E-01   -2.974E-01
    -3.000E-01   -3.026E-01   -3.051E-01   -3.077E-01   -3.103E-01   -3.129E-01   -3.154E-01   -3.180E-01   -3.206E-01   -3.231E-01
    -3.257E-01   -3.283E-01   -3.308E-01   -3.334E-01   -3.360E-01   -3.385E-01   -3.411E-01   -3.437E-01   -3.462E-01   -3.488E-01
    -3.514E-01   -3.539E-01   -3.565E-01   -3.591E-01   -3.617E-01   -3.642E-01   -3.668E-01   -3.694E-01   -3.719E-01   -3.745E-01
    -3.771E-01   -3.796E-01   -3.822E-01   -3.848E-01   -3.873E-01   -3.899E-01   -3.925E-01   -3.950E-01   -3.976E-01   -4.002E-01
    -4.027E-01   -4.053E-01   -4.079E-01   -4.105E-01   -4.130E-01   -4.156E-01   -4.182E-01   -4.207E-01   -4.233E-01   -4.259E-01
    -4.284E-01   -4.310E-01   -4.336E-01   -4.361E-01   -4.387E-01   -4.413E-01   -4.438E-01   -4.464E-01   -4.490E-01   -4.515E-01
    -4.541E-01   -4.567E-01   -4.592E-01   -4.618E-01   -4.644E-01   -4.669E-01   -4.695E-01   -4.721E-01   -4.746E-01   -4.772E-01
    -4.798E-01   -4.823E-01   -4.849E-01   -4.875E-01   -4.901E-01   -4.926E-01   -4.952E-01   -4.978E-01   -5.003E-01   -5.029E-01
    -5.055E-01   -5.080E-01   -5.106E-01   -5.132E-01   -5.157E-01   -5.183E-01   -5.209E-01   -5.234E-01   -5.260E-01   -5.286E-01
    -5.311E-01   -5.337E-01   -5.363E-01   -5.388E-01   -5.414E-01   -5.440E-01   -5.465E-01   -5.491E-01   -5.517E-01   -5.542E-01
    -5.568E-01   -5.594E-01   -5.619E-01   -5.645E-01   -5.671E-01   -5.696E-01   -5.722E-01   -5.748E-01   -5.773E-01   -5.799E-01
    -5.825E-01   -5.850E-01   -5.876E-01   -5.902E-01   -5.927E-01   -5.953E-01   -5.979E-01   -6.004E-01   -6.030E-01   -6.055E-01
    -6.081E-01   -6.107E-01   -6.132E-01   -6.158E-01   -6.184E-01   -6.209E-01   -6.235E-01   -6.261E-01   -6.286E-01   -6.312E-01
    -6.338E-01   -6.363E-01   -6.389E-01   -6.415E-01   -6.440E-01   -6.466E-01   -6.492E-01   -6.517E-01   -6.543E-01   -6.569E-01
    -6.594E-01   -6.620E-01   -6.645E-01   -6.671E-01   -6.697E-01   -6.722E-01   -6.748E-01   -6.774E-01   -6.799E-01   -6.825E-01
    -6.851E-01   -6.876E-01   -6.902E-01   -6.928E-01   -6.953E-01   -6.979E-01   -7.004E-01   -7.030E-01   -7.056E-01   -7.081E-01
    -7.107E-01   -7.133E-01   -7.158E-01   -7.184E-01   -7.210E-01   -7.235E-01   -7.261E-01   -7.286E-01   -7.312E-01   -7.338E-01
    -7.363E-01   -7.389E-01   -7.415E-01   -7.440E-01   -7.466E-01   -7.492E-01   -7.517E-01   -7.543E-01   -7.568E-01   -7.594E-01
    -7.620E-01   -7.645E-01   -7.671E-01   -7.697E-01   -7.722E-01   -7.748E-01   -7.773E-01   -7.799E-01   -7.825E-01   -7.850E-01
    -7.876E-01   -7.902E-01   -7.927E-01   -7.953E-01   -7.978E-01   -8.004E-01   -8.030E-01   -8.055E-01   -8.081E-01   -8.107E-01
    -8.132E-01   -8.158E-01   -8.183E-01   -8.209E-01   -8.235E-01   -8.260E-01   -8.286E-01   -8.311E-01   -8.337E-01   -8.363E-01
    -8.388E-01   -8.414E-01   -8.440E-01   -8.465E-01   -8.491E-01   -8.516E-01   -8.542E-01   -8.568E-01   -8.593E-01   -8.619E-01
    -8.644E-01   -8.670E-01   -8.696E-01   -8.721E-01   -8.747E-01   -8.773E-01   -8.798E-01   -8.824E-01   -8.849E-01   -8.875E-01
    -8.901E-01   -8.926E-01   -8.952E-01   -8.977E-01   -9.003E-01   -9.029E-01   -9.054E-01   -9.080E-01   -9.105E-01   -9.131E-01
    -9.157E-01   -9.182E-01   -9.208E-01   -9.234E-01   -9.259E-01   -9.285E-01   -9.310E-01   -9.336E-01   -9.362E-01   -9.387E-01
    -9.413E-01   -9.438E-01   -9.464E-01   -9.490E-01   -9.515E-01   -9.541E-01   -9.566E-01   -9.592E-01   -9.618E-01   -9.643E-01
    -9.669E-01   -9.694E-01   -9.720E-01   -9.746E-01   -9.771E-01   -9.797E-01   -9.822E-01   -9.848E-01   -9.874E-01   -9.899E-01
    -9.925E-01   -9.950E-01   -9.976E-01   -1.000E+00   -1.003E+00   -1.005E+00   -1.008E+00   -1.010E+00   -1.013E+00   -1.016E+00
    -1.018E+00   -1.021E+00   -1.023E+00   -1.026E+00   -1.028E+00   -1.031E+00   -1.033E+00   -1.036E+00   -1.039E+00   -1.041E+00
    -1.044E+00   -1.046E+00   -1.049E+00   -1.051E+00   -1.054E+00   -1.056E+00   -1.059E+00   -1.062E+00   -1.064E+00   -1.067E+00
    -1.069E+00   -1.072E+00   -1.074E+00   -1.077E+00   -1.080E+00   -1.082E+00   -1.085E+00   -1.087E+00   -1.090E+00   -1.092E+00
    -1.095E+00   -1.097E+00   -1.100E+00   -1.103E+00   -1.105E+00   -1.108E+00   -1.110E+00   -1.113E+00   -1.115E+00   -1.118E+00
    -1.120E+00   -1.123E+00   -1.126E+00   -1.128E+00   -1.131E+00   -1.133E+00   -1.136E+00   -1.138E+00   -1.141E+00   -1.144E+00
    -1.146E+00   -1.149E+00   -1.151E+00   -1.154E+00   -1.156E+00   -1.159E+00   -1.161E+00   -1.164E+00   -1.167E+00   -1.169E+00
    -1.172E+00   -1.174E+00   -1.177E+00   -1.179E+00   -1.182E+00   -1.184E+00   -1.187E+00   -1.190E+00   -1.192E+00   -1.195E+00
    -1.197E+00   -1.200E+00   -1.202E+00   -1.205E+00   -1.207E+00   -1.210E+00   -1.213E+00   -1.215E+00   -1.218E+00   -1.220E+00
    -1.223E+00   -1.225E+00   -1.228E+00   -1.231E+00   -1.233E+00   -1.236E+00   -1.238E+00   -1.241E+00   -1.243E+00   -1.246E+00
    -1.248E+00   -1.251E+00   -1.254E+00   -1.256E+00   -1.259E+00   -1.261E+00   -1.264E+00   -1.266E+00   -1.269E+00   -1.271E+00
    -1.274E+00   -1.277E+00   -1.279E+00   -1.282E+00   -1.284E+00   -1.287E+00   -1.289E+00   -1.292E+00
 Ala      Conc. = 7.12E+00
