 LCModel (Version 6.3-1L) Copyright: S.W. Provencher.          Ref.: Magn. Reson. Med. 30:672-679 (1993).                
 Slice#2 Row#12 Col#4  PD_24_press_2_raw_act
 36 lines in following concentration table = NCONC+1
    Conc.  %SD /Cr+PCr  Metabolite                                         
  158.537  39%   1.643 Ala                                                 
   13.504  79%   0.140 Asp                                                 
   96.475  26%   1.000 Cr                                                  
    0.000 999%   0.000 PCr                                                 
    7.136  90% 7.4E-02 GABA                                                
    7.296  88% 7.6E-02 Glc                                                 
   68.232 175%   0.707 Gln                                                 
  154.165  85%   1.598 Glu                                                 
   24.495  41%   0.254 GPC                                                 
    0.000 999%   0.000 PCh                                                 
   37.931 102%   0.393 GSH                                                 
  460.040  27%   4.768 Ins                                                 
    0.000 999%   0.000 Lac                                                 
    0.000 999%   0.000 NAA                                                 
   71.929  42%   0.746 NAAG                                                
    2.471  86% 2.6E-02 Scyllo                                              
   10.747  99%   0.111 Tau                                                 
    0.000 999%   0.000 -CrCH2                                              
   24.495  41%   0.254 GPC+PCh                                             
   71.929  42%   0.746 NAA+NAAG                                            
   96.475  26%   1.000 Cr+PCr                                              
  222.396  83%   2.305 Glu+Gln                                             
  924.164  18%   9.579 Lip13a                                              
    0.000 999%   0.000 Lip13b                                              
    0.000 999%   0.000 Lip09                                               
  177.578  43%   1.841 MM09                                                
    0.000 999%   0.000 Lip20                                               
  168.511  77%   1.747 MM20                                                
   56.562  61%   0.586 MM12                                                
  160.923  66%   1.668 MM14                                                
  519.765  11%   5.388+MM17                                                
  924.164  18%   9.579 Lip13a+Lip13b                                       
 1.14E+03  15%  11.834 MM14+Lip13a+Lip13b+MM12                             
  177.578  43%   1.841 MM09+Lip09                                          
  168.511  77%   1.747 MM20+Lip20                                          
   6 lines in following misc. output table
  FWHM = 0.061 ppm    S/N =   1                                            
  Data shift =-0.015 ppm                                                   
  Ph:  61 deg      64.2 deg/ppm                                            
  alphaB,S = 7.7E-01,   4.9E+01                                            
   14 spline knots.   Ns = 5(1)                                            
  ( 8) 2 infls.   ( 9) 1 extrs.                                            
  498 points on ppm-axis = NY
      4.000000     3.992357     3.984714     3.977070     3.969427     3.961784     3.954141     3.946497     3.938854     3.931211
      3.923568     3.915925     3.908281     3.900638     3.892995     3.885352     3.877708     3.870065     3.862422     3.854779
      3.847136     3.839492     3.831849     3.824206     3.816563     3.808919     3.801276     3.793633     3.785990     3.778347
      3.770703     3.763060     3.755417     3.747774     3.740130     3.732487     3.724844     3.717201     3.709558     3.701914
      3.694271     3.686628     3.678985     3.671341     3.663698     3.656055     3.648412     3.640769     3.633125     3.625482
      3.617839     3.610196     3.602552     3.594909     3.587266     3.579623     3.571980     3.564336     3.556693     3.549050
      3.541407     3.533763     3.526120     3.518477     3.510834     3.503191     3.495547     3.487904     3.480261     3.472618
      3.464974     3.457331     3.449688     3.442045     3.434402     3.426758     3.419115     3.411472     3.403829     3.396185
      3.388542     3.380899     3.373256     3.365613     3.357969     3.350326     3.342683     3.335040     3.327396     3.319753
      3.312110     3.304467     3.296824     3.289180     3.281537     3.273894     3.266251     3.258607     3.250964     3.243321
      3.235678     3.228034     3.220391     3.212748     3.205105     3.197462     3.189818     3.182175     3.174532     3.166889
      3.159245     3.151602     3.143959     3.136316     3.128673     3.121029     3.113386     3.105743     3.098100     3.090456
      3.082813     3.075170     3.067527     3.059884     3.052240     3.044597     3.036954     3.029311     3.021667     3.014024
      3.006381     2.998738     2.991095     2.983451     2.975808     2.968165     2.960522     2.952878     2.945235     2.937592
      2.929949     2.922306     2.914662     2.907019     2.899376     2.891733     2.884089     2.876446     2.868803     2.861160
      2.853517     2.845873     2.838230     2.830587     2.822944     2.815300     2.807657     2.800014     2.792371     2.784728
      2.777084     2.769441     2.761798     2.754155     2.746511     2.738868     2.731225     2.723582     2.715939     2.708295
      2.700652     2.693009     2.685366     2.677722     2.670079     2.662436     2.654793     2.647150     2.639506     2.631863
      2.624220     2.616577     2.608933     2.601290     2.593647     2.586004     2.578361     2.570717     2.563074     2.555431
      2.547788     2.540144     2.532501     2.524858     2.517215     2.509572     2.501928     2.494285     2.486642     2.478999
      2.471355     2.463712     2.456069     2.448426     2.440783     2.433139     2.425496     2.417853     2.410210     2.402566
      2.394923     2.387280     2.379637     2.371994     2.364350     2.356707     2.349064     2.341421     2.333777     2.326134
      2.318491     2.310848     2.303205     2.295561     2.287918     2.280275     2.272632     2.264988     2.257345     2.249702
      2.242059     2.234416     2.226772     2.219129     2.211486     2.203843     2.196199     2.188556     2.180913     2.173270
      2.165627     2.157983     2.150340     2.142697     2.135054     2.127410     2.119767     2.112124     2.104481     2.096838
      2.089194     2.081551     2.073908     2.066265     2.058621     2.050978     2.043335     2.035692     2.028049     2.020405
      2.012762     2.005119     1.997476     1.989833     1.982190     1.974546     1.966903     1.959260     1.951617     1.943974
      1.936331     1.928688     1.921045     1.913402     1.905759     1.898115     1.890472     1.882829     1.875186     1.867543
      1.859900     1.852257     1.844614     1.836971     1.829327     1.821684     1.814041     1.806398     1.798755     1.791112
      1.783469     1.775826     1.768183     1.760540     1.752896     1.745253     1.737610     1.729967     1.722324     1.714681
      1.707038     1.699395     1.691752     1.684108     1.676465     1.668822     1.661179     1.653536     1.645893     1.638250
      1.630607     1.622964     1.615321     1.607677     1.600034     1.592391     1.584748     1.577105     1.569462     1.561819
      1.554176     1.546533     1.538890     1.531246     1.523603     1.515960     1.508317     1.500674     1.493031     1.485388
      1.477745     1.470102     1.462458     1.454815     1.447172     1.439529     1.431886     1.424243     1.416600     1.408957
      1.401314     1.393671     1.386027     1.378384     1.370741     1.363098     1.355455     1.347812     1.340169     1.332526
      1.324883     1.317240     1.309596     1.301953     1.294310     1.286667     1.279024     1.271381     1.263738     1.256095
      1.248452     1.240808     1.233165     1.225522     1.217879     1.210236     1.202593     1.194950     1.187307     1.179664
      1.172021     1.164377     1.156734     1.149091     1.141448     1.133805     1.126162     1.118519     1.110876     1.103233
      1.095590     1.087946     1.080303     1.072660     1.065017     1.057374     1.049731     1.042088     1.034445     1.026802
      1.019158     1.011515     1.003872     0.996229     0.988586     0.980943     0.973300     0.965657     0.958014     0.950371
      0.942727     0.935084     0.927441     0.919798     0.912155     0.904512     0.896869     0.889226     0.881583     0.873940
      0.866296     0.858653     0.851010     0.843367     0.835724     0.828081     0.820438     0.812795     0.805152     0.797508
      0.789865     0.782222     0.774579     0.766936     0.759293     0.751650     0.744007     0.736364     0.728721     0.721077
      0.713434     0.705791     0.698148     0.690505     0.682862     0.675219     0.667576     0.659933     0.652290     0.644646
      0.637003     0.629360     0.621717     0.614074     0.606431     0.598788     0.591145     0.583502     0.575858     0.568215
      0.560572     0.552929     0.545286     0.537643     0.530000     0.522357     0.514714     0.507071     0.499427     0.491784
      0.484141     0.476498     0.468855     0.461212     0.453569     0.445925     0.438282     0.430639     0.422996     0.415353
      0.407710     0.400067     0.392424     0.384780     0.377137     0.369494     0.361851     0.354208     0.346565     0.338922
      0.331278     0.323635     0.315992     0.308349     0.300706     0.293063     0.285420     0.277777     0.270133     0.262490
      0.254847     0.247204     0.239561     0.231918     0.224275     0.216631     0.208988     0.201345
 NY phased data points follow
   7.64340E+00  9.25806E+00  4.66605E+00  6.78002E+00  4.44059E+00  6.70965E+00  3.22891E+00  7.79920E+00  5.32455E+00  7.09830E+00
   6.28264E+00  8.69755E+00  5.69317E+00  8.18612E+00  3.95412E+00  8.36552E+00  2.95279E+00  8.57076E+00  4.54305E+00  6.18423E+00
   2.27287E+00  5.15254E+00  1.55747E+00  6.28503E+00  2.12523E+00  3.35291E+00  6.48446E-01  5.62101E+00 -1.74384E-01  2.79567E+00
   1.21497E+00  6.27639E+00  3.10724E+00  4.10794E+00  1.94671E+00  2.81178E+00  2.28029E+00  3.94615E+00  6.79999E-01  2.97187E+00
   2.02558E+00  2.94188E+00  1.85519E+00  2.03749E+00  7.17369E-02  3.93257E+00 -3.26106E-01  3.85628E+00  3.15884E+00  4.71617E+00
   1.27719E+00  4.36463E+00  1.63314E+00  1.90664E-01  6.68274E-01  1.86769E+00  2.24476E-01  1.63407E+00 -4.06660E-01 -7.42080E-01
   8.71595E-02  5.99331E-02 -1.76873E-02  3.62811E-01  5.04897E-01  5.02724E-01 -1.90035E-01  1.25545E+00 -2.87464E+00 -1.60731E+00
  -2.59263E+00  4.61933E-01  2.86875E-01  2.37233E+00 -5.22599E-01  1.39424E+00 -1.24055E+00  2.49873E+00 -1.71257E+00 -1.24624E+00
  -1.93754E+00 -4.36008E-01 -8.90428E-01 -1.66749E+00 -1.72154E+00 -5.92428E-01  1.98673E-01 -1.05320E+00 -2.52919E+00 -9.37186E-01
  -3.84918E+00 -8.77881E-01 -4.27040E+00 -3.63380E+00 -1.68573E+00  5.63490E-01 -3.13730E+00 -2.93221E+00 -1.78351E+00  2.84425E-01
  -5.27149E+00  1.08323E+00 -1.42821E+00  1.83008E+00 -1.84375E+00 -1.18623E+00 -2.21927E+00  7.17378E-01 -2.75385E+00 -2.62501E+00
  -1.25341E+00  1.17010E+00 -2.74239E+00 -1.16136E+00 -4.20142E+00 -8.18792E-01 -4.74542E+00 -1.48098E+00 -4.75537E+00 -2.23241E+00
  -2.98727E+00 -4.83155E+00 -5.53494E+00 -3.31249E+00 -4.35598E+00 -1.35726E+00 -1.28549E+00  2.45459E-01  8.95178E-02 -6.19997E-01
  -3.22006E+00 -2.48845E+00 -3.67220E+00 -3.24524E+00 -4.36073E+00 -4.07417E+00 -5.02620E+00 -2.64874E+00 -3.35043E+00 -1.74820E+00
  -5.35288E+00 -3.76423E+00 -5.08319E+00 -4.72791E+00 -6.40605E+00 -5.04048E+00 -5.73762E+00 -4.11456E+00 -6.28927E+00 -4.73386E+00
  -3.90121E+00 -3.33731E+00 -5.55529E+00 -2.84482E+00 -5.29441E+00 -3.25873E+00 -6.43654E+00 -4.09958E+00 -5.59165E+00 -3.59482E+00
  -5.86496E+00 -5.42885E+00 -5.72560E+00 -3.90532E+00 -6.03658E+00 -2.81208E+00 -5.04172E+00 -7.11848E+00 -4.28621E+00 -3.88911E+00
  -5.13653E+00 -2.26304E+00 -4.05436E+00 -2.24678E+00 -7.55416E+00 -3.66604E+00 -5.91464E+00 -4.81557E+00 -2.11306E+00 -4.17507E+00
  -4.03903E+00 -2.40753E+00 -7.10638E-01 -3.83892E+00 -4.25322E+00 -4.11698E+00 -4.27655E+00 -4.82109E-01 -3.04915E+00 -2.62285E+00
  -5.18424E+00 -4.77975E+00 -5.10323E+00 -5.71133E+00 -3.93059E+00 -3.78125E+00 -9.45260E-01 -4.33516E+00 -5.34936E+00 -2.83758E+00
  -7.22146E+00 -6.07518E+00 -4.98209E+00 -4.57236E+00 -3.15440E+00 -4.26847E+00 -3.67554E+00 -6.27027E+00 -5.11965E+00 -3.01495E+00
  -4.32067E+00 -3.78026E+00 -4.02525E+00 -2.17303E+00 -1.09505E+00 -1.03622E+00 -4.81918E+00 -2.10593E+00 -3.57345E+00 -2.41033E+00
  -3.23248E+00 -2.45139E+00 -4.79816E+00 -3.18590E+00 -3.50082E+00 -1.87260E+00 -3.83545E+00 -1.15843E+00 -5.97941E+00 -2.81517E+00
  -3.96586E+00 -1.22352E+00 -2.73055E+00 -3.72984E+00 -3.27669E+00 -2.80786E+00 -3.03455E+00 -4.83660E+00 -2.57275E+00 -5.51120E+00
  -4.23018E+00 -2.39319E+00 -3.32273E+00 -5.03361E+00 -4.30827E+00 -8.83440E-02 -3.34500E+00 -1.29836E+00 -3.42691E+00 -4.51834E+00
  -4.77997E+00 -1.53407E+00 -4.00776E+00 -2.89252E+00 -2.37759E+00 -3.13818E+00 -3.20304E+00 -2.30815E+00  2.53433E-01  6.04010E-01
  -1.32688E-01  1.53219E-01 -2.20412E+00 -4.46021E+00 -8.46946E+00 -5.01456E+00 -6.11852E+00 -3.63030E+00 -5.02734E+00 -5.83020E+00
  -4.68912E+00 -6.34459E+00 -2.96247E+00 -4.74541E+00 -1.98119E+00 -4.82966E+00 -2.25966E+00 -3.26930E+00 -3.90195E+00 -1.88905E+00
  -2.30511E+00 -3.63442E+00 -4.91525E+00 -4.06002E+00 -4.52584E+00 -4.00760E+00 -7.18963E+00 -4.48452E+00 -5.01998E+00 -3.27012E+00
  -3.98238E+00 -2.94398E+00 -6.80642E+00 -5.00560E+00 -5.14906E+00 -5.16707E+00 -7.56268E+00 -3.70881E+00 -6.18488E+00 -5.30462E+00
  -4.63680E+00 -3.30323E+00 -1.87503E+00 -5.39643E-01 -1.41590E+00  3.10437E+00 -3.97777E-01  5.37305E+00  3.37639E+00  4.84803E+00
   5.36313E+00  4.27733E+00  7.29219E+00  4.57340E+00  6.61549E+00  3.93434E+00  2.11634E+00  5.14869E+00  4.84169E+00  4.06609E+00
   1.17354E+00  1.62378E-01  2.46466E+00  7.32790E-01 -1.11898E+00 -2.26100E+00 -1.92575E+00 -3.50496E+00 -2.15533E+00 -5.09044E+00
  -4.23067E+00 -2.48911E+00 -2.82618E+00 -3.48786E+00 -4.54988E+00 -1.08638E+00 -2.31143E+00  4.93228E-01 -1.51793E+00 -7.61591E-01
  -5.14604E-01 -3.99801E-01  5.00939E-01  1.64098E+00  1.62808E+00  1.46353E+00  1.61061E+00  2.85085E+00  5.25218E-01  3.72605E+00
   6.83559E-01  4.92579E+00  2.22276E+00  1.17407E+00  1.76393E+00 -1.79209E+00  9.52951E-02 -1.58539E+00 -3.33208E-01  1.27356E+00
   7.77553E-02  2.85865E+00  2.66358E+00 -2.91941E-01  1.95940E+00  3.47749E+00  3.96150E+00  2.35485E+00 -2.52032E-01 -2.12890E+00
  -3.29998E-01  7.12629E-01 -1.47075E-01 -1.13399E+00  6.64027E-01 -1.29656E+00 -2.25805E+00  1.44375E+00  4.32948E-01 -2.83972E-01
  -5.43775E-01 -1.02284E+00 -7.91209E-01  8.06686E-01  6.38031E-01 -7.31316E-01 -7.77767E-01  1.70939E+00 -1.02350E+00 -6.42666E-01
  -1.75108E+00 -3.82271E-01 -1.02550E+00  2.16059E-01  6.53254E-01  7.22882E-01  4.31436E-01 -7.02492E-01 -1.51141E+00 -2.97886E+00
  -5.31332E+00 -1.09012E+00 -2.24873E+00  8.17068E-01 -2.85911E+00 -3.68954E-01 -5.82027E-01  7.78434E-02 -5.30623E-01 -2.29355E+00
  -1.47569E+00 -2.92353E+00 -5.94795E-01 -1.39065E+00  5.45441E-01 -4.84788E-01 -1.33805E+00 -2.04307E+00 -1.30632E+00 -1.36546E+00
  -3.04905E-01  3.38448E-01  5.97810E-02 -8.36294E-01 -1.80652E-01  2.49736E-02 -1.36802E+00 -1.71334E+00  2.43385E-01 -3.09014E+00
  -2.32907E+00 -1.42796E+00 -2.65300E+00 -4.49117E-01  1.94200E+00 -1.01912E+00 -1.64683E+00 -6.66443E-01  4.71356E-01  4.26668E-01
  -3.66611E-01 -2.50510E+00 -1.81548E+00 -1.77488E+00  1.39013E-01 -1.88157E-01  2.30265E+00 -2.65289E+00 -3.04696E+00 -7.08209E-01
  -1.72527E+00 -1.36283E+00 -2.17109E+00 -2.50773E+00 -1.70926E+00 -7.94876E-01 -1.84574E+00 -2.08412E-01 -1.12201E+00 -4.20182E-01
   4.79845E-01 -5.14741E-01 -1.44453E+00  2.05072E+00 -8.72494E-01  7.37675E-01 -5.28249E-01 -2.92889E+00  1.81590E+00  1.34847E-01
   1.97709E+00 -2.01332E+00  2.55728E+00 -8.22573E-01  3.03837E+00 -1.04958E+00  8.69447E-01 -2.69952E+00  2.10967E+00 -9.34296E-01
   3.92223E-01  1.14247E+00  5.02741E-02 -8.14819E-01  1.45837E-01  5.08913E-01  4.10180E-01 -8.33485E-01  2.49606E-02 -9.84246E-01
   1.35972E-01  1.82306E+00 -1.02321E-01  9.01401E-01 -9.24679E-01 -2.68107E-01 -4.35099E-01 -2.88927E+00
 NY points of the fit to the data follow
   3.90932E+00  3.59982E+00  3.32322E+00  3.14853E+00  3.08125E+00  3.08553E+00  3.24144E+00  3.58972E+00  3.97098E+00  4.27878E+00
   4.48596E+00  4.58758E+00  4.56726E+00  4.40812E+00  4.11638E+00  3.69599E+00  3.17293E+00  2.65612E+00  2.35839E+00  2.33978E+00
   2.41786E+00  2.47679E+00  2.47547E+00  2.39695E+00  2.26653E+00  2.15803E+00  2.07612E+00  2.01975E+00  2.04740E+00  2.16781E+00
   2.35032E+00  2.57087E+00  2.80450E+00  2.97204E+00  3.00849E+00  2.84408E+00  2.53330E+00  2.18964E+00  1.81655E+00  1.46290E+00
   1.22112E+00  1.11120E+00  1.18730E+00  1.55772E+00  2.18544E+00  2.87220E+00  3.42300E+00  3.72506E+00  3.76993E+00  3.58267E+00
   3.17548E+00  2.55202E+00  1.74345E+00  8.56100E-01  1.66946E-01 -2.30872E-02  2.19292E-01  6.26909E-01  1.00104E+00  1.26667E+00
   1.39873E+00  1.39207E+00  1.26795E+00  1.06836E+00  8.15759E-01  5.18590E-01  2.36406E-01  9.88439E-02  1.34100E-01  2.92974E-01
   4.87486E-01  6.45416E-01  7.29453E-01  7.22497E-01  6.38644E-01  5.08413E-01  3.45207E-01  1.61475E-01 -3.54651E-02 -1.91110E-01
  -2.93497E-01 -3.71294E-01 -4.73222E-01 -6.46090E-01 -9.00121E-01 -1.20039E+00 -1.50017E+00 -1.76632E+00 -1.97634E+00 -2.10559E+00
  -2.13824E+00 -2.06697E+00 -1.87555E+00 -1.60623E+00 -1.36599E+00 -1.23752E+00 -1.22651E+00 -1.23934E+00 -1.09748E+00 -8.51670E-01
  -6.35012E-01 -4.71365E-01 -3.49697E-01 -2.66806E-01 -2.33905E-01 -3.14853E-01 -5.51498E-01 -9.58480E-01 -1.47929E+00 -1.93683E+00
  -2.12579E+00 -2.16663E+00 -2.19191E+00 -2.21044E+00 -2.22903E+00 -2.25311E+00 -2.28373E+00 -2.31746E+00 -2.35030E+00 -2.37474E+00
  -2.37675E+00 -2.31427E+00 -2.01877E+00 -1.44290E+00 -8.14339E-01 -2.75324E-01  1.31572E-01  3.91185E-01  4.90171E-01  4.04946E-01
   9.53138E-02 -4.63128E-01 -1.23815E+00 -2.06056E+00 -2.60194E+00 -2.80405E+00 -2.90740E+00 -2.97599E+00 -3.02375E+00 -3.04773E+00
  -3.03520E+00 -2.99157E+00 -2.95119E+00 -2.93490E+00 -2.94941E+00 -2.99649E+00 -3.06235E+00 -3.13122E+00 -3.19382E+00 -3.24874E+00
  -3.30718E+00 -3.36447E+00 -3.41426E+00 -3.45269E+00 -3.48001E+00 -3.50379E+00 -3.52586E+00 -3.54607E+00 -3.56406E+00 -3.58074E+00
  -3.60031E+00 -3.63063E+00 -3.67145E+00 -3.71302E+00 -3.75099E+00 -3.78411E+00 -3.80675E+00 -3.81944E+00 -3.82379E+00 -3.82187E+00
  -3.82103E+00 -3.82841E+00 -3.84100E+00 -3.85471E+00 -3.86664E+00 -3.87993E+00 -3.90230E+00 -3.94042E+00 -3.98625E+00 -4.01664E+00
  -4.02719E+00 -4.02485E+00 -4.01971E+00 -4.01605E+00 -4.00503E+00 -3.97826E+00 -3.93128E+00 -3.86633E+00 -3.80251E+00 -3.76722E+00
  -3.76707E+00 -3.79346E+00 -3.85509E+00 -3.95402E+00 -4.06455E+00 -4.16150E+00 -4.22745E+00 -4.24190E+00 -4.19329E+00 -4.08736E+00
  -3.94145E+00 -3.78307E+00 -3.64627E+00 -3.57009E+00 -3.59447E+00 -3.75047E+00 -3.98143E+00 -4.20987E+00 -4.39507E+00 -4.50656E+00
  -4.52176E+00 -4.39847E+00 -4.15981E+00 -3.87125E+00 -3.59025E+00 -3.36057E+00 -3.25476E+00 -3.36384E+00 -3.65078E+00 -4.00212E+00
  -4.33978E+00 -4.61773E+00 -4.77164E+00 -4.73893E+00 -4.57302E+00 -4.33522E+00 -4.07013E+00 -3.82059E+00 -3.63232E+00 -3.56106E+00
  -3.59592E+00 -3.66888E+00 -3.71980E+00 -3.73440E+00 -3.71183E+00 -3.66582E+00 -3.60208E+00 -3.54359E+00 -3.55195E+00 -3.61816E+00
  -3.69306E+00 -3.75249E+00 -3.79898E+00 -3.83378E+00 -3.83478E+00 -3.79865E+00 -3.74276E+00 -3.67262E+00 -3.57963E+00 -3.48188E+00
  -3.36937E+00 -3.06889E+00 -2.60111E+00 -2.13229E+00 -1.74576E+00 -1.44580E+00 -1.24593E+00 -1.18189E+00 -1.27738E+00 -1.53459E+00
  -1.95317E+00 -2.49819E+00 -3.00434E+00 -3.24633E+00 -3.30952E+00 -3.36002E+00 -3.42867E+00 -3.50316E+00 -3.56908E+00 -3.61836E+00
  -3.64564E+00 -3.64960E+00 -3.64619E+00 -3.64409E+00 -3.63754E+00 -3.63170E+00 -3.63352E+00 -3.64618E+00 -3.66814E+00 -3.69570E+00
  -3.72254E+00 -3.73951E+00 -3.74358E+00 -3.73844E+00 -3.73032E+00 -3.72067E+00 -3.70914E+00 -3.69443E+00 -3.67581E+00 -3.65018E+00
  -3.61283E+00 -3.55999E+00 -3.49036E+00 -3.40080E+00 -3.29045E+00 -3.15786E+00 -3.00067E+00 -2.81775E+00 -2.60780E+00 -2.36688E+00
  -2.09428E+00 -1.79268E+00 -1.46626E+00 -1.12072E+00 -7.63618E-01 -4.04895E-01 -5.63937E-02  2.71710E-01  5.70030E-01  8.29258E-01
   1.04160E+00  1.20101E+00  1.30367E+00  1.34855E+00  1.33753E+00  1.27555E+00  1.17058E+00  1.03360E+00  8.79121E-01  7.26959E-01
   6.09297E-01  5.94388E-01  7.14702E-01  7.59878E-01  6.11566E-01  2.87743E-01 -1.75974E-01 -7.68295E-01 -1.49931E+00 -2.33293E+00
  -3.02146E+00 -3.41732E+00 -3.47989E+00 -3.12420E+00 -2.38490E+00 -1.57744E+00 -8.29109E-01 -1.64909E-01  3.67579E-01  6.82409E-01
   6.93595E-01  4.68323E-01  3.13191E-01  2.99670E-01  3.55135E-01  4.46608E-01  5.58792E-01  6.82600E-01  8.11647E-01  9.40905E-01
   1.06610E+00  1.18346E+00  1.28958E+00  1.38145E+00  1.45645E+00  1.51250E+00  1.54798E+00  1.56187E+00  1.55368E+00  1.52352E+00
   1.47208E+00  1.40054E+00  1.31059E+00  1.20428E+00  1.08395E+00  9.52148E-01  8.11535E-01  6.64795E-01  5.14545E-01  3.63259E-01
   2.13213E-01  6.64501E-02 -7.52436E-02 -2.10350E-01 -3.37628E-01 -4.56094E-01 -5.65004E-01 -6.63821E-01 -7.52180E-01 -8.29861E-01
  -8.96768E-01 -9.52898E-01 -9.98314E-01 -1.03313E+00 -1.05751E+00 -1.07166E+00 -1.07583E+00 -1.07033E+00 -1.05558E+00 -1.03205E+00
  -1.00035E+00 -9.61231E-01 -9.15585E-01 -8.64474E-01 -8.09114E-01 -7.50870E-01 -6.91228E-01 -6.31773E-01 -5.74132E-01 -5.19924E-01
  -4.70690E-01 -4.27840E-01 -3.92589E-01 -3.65913E-01 -3.48495E-01 -3.40701E-01 -3.42565E-01 -3.53800E-01 -3.73825E-01 -4.01797E-01
  -4.36664E-01 -4.77217E-01 -5.22153E-01 -5.70145E-01 -6.19895E-01 -6.70183E-01 -7.19905E-01 -7.68100E-01 -8.13973E-01 -8.56900E-01
  -8.96427E-01 -9.32256E-01 -9.64227E-01 -9.92299E-01 -1.01653E+00 -1.03706E+00 -1.05408E+00 -1.06782E+00 -1.07854E+00 -1.08648E+00
  -1.09191E+00 -1.09508E+00 -1.09621E+00 -1.09554E+00 -1.09324E+00 -1.08951E+00 -1.08448E+00 -1.07832E+00 -1.07114E+00 -1.06305E+00
  -1.05413E+00 -1.04448E+00 -1.03417E+00 -1.02327E+00 -1.01182E+00 -9.99881E-01 -9.87489E-01 -9.74685E-01 -9.61506E-01 -9.47983E-01
  -9.34143E-01 -9.20006E-01 -9.05595E-01 -8.90931E-01 -8.76034E-01 -8.60920E-01 -8.45600E-01 -8.30088E-01 -8.14395E-01 -7.98536E-01
  -7.82522E-01 -7.66362E-01 -7.50062E-01 -7.33629E-01 -7.17074E-01 -7.00404E-01 -6.83627E-01 -6.66747E-01 -6.49769E-01 -6.32698E-01
  -6.15541E-01 -5.98306E-01 -5.80994E-01 -5.63609E-01 -5.46154E-01 -5.28633E-01 -5.11054E-01 -4.93420E-01 -4.75732E-01 -4.57993E-01
  -4.40206E-01 -4.22377E-01 -4.04510E-01 -3.86606E-01 -3.68668E-01 -3.50697E-01 -3.32696E-01 -3.14673E-01 -2.96629E-01 -2.78566E-01
  -2.60485E-01 -2.42389E-01 -2.24284E-01 -2.06174E-01 -1.88063E-01 -1.69950E-01 -1.51840E-01 -1.33737E-01
 NY background values follow
     2.572E+00    2.524E+00    2.476E+00    2.428E+00    2.380E+00    2.332E+00    2.284E+00    2.236E+00    2.188E+00    2.140E+00
     2.092E+00    2.044E+00    1.996E+00    1.948E+00    1.901E+00    1.853E+00    1.805E+00    1.757E+00    1.709E+00    1.661E+00
     1.613E+00    1.565E+00    1.517E+00    1.470E+00    1.422E+00    1.374E+00    1.326E+00    1.279E+00    1.231E+00    1.184E+00
     1.136E+00    1.089E+00    1.041E+00    9.940E-01    9.468E-01    8.996E-01    8.525E-01    8.054E-01    7.585E-01    7.116E-01
     6.648E-01    6.180E-01    5.714E-01    5.248E-01    4.783E-01    4.320E-01    3.857E-01    3.395E-01    2.934E-01    2.474E-01
     2.016E-01    1.558E-01    1.102E-01    6.464E-02    1.923E-02   -2.605E-02   -7.121E-02   -1.162E-01   -1.611E-01   -2.059E-01
    -2.505E-01   -2.950E-01   -3.393E-01   -3.835E-01   -4.276E-01   -4.714E-01   -5.152E-01   -5.587E-01   -6.021E-01   -6.454E-01
    -6.885E-01   -7.314E-01   -7.741E-01   -8.166E-01   -8.590E-01   -9.012E-01   -9.432E-01   -9.850E-01   -1.027E+00   -1.068E+00
    -1.109E+00   -1.150E+00   -1.191E+00   -1.232E+00   -1.272E+00   -1.312E+00   -1.352E+00   -1.392E+00   -1.431E+00   -1.471E+00
    -1.510E+00   -1.549E+00   -1.587E+00   -1.625E+00   -1.664E+00   -1.701E+00   -1.739E+00   -1.776E+00   -1.814E+00   -1.850E+00
    -1.887E+00   -1.923E+00   -1.960E+00   -1.995E+00   -2.031E+00   -2.066E+00   -2.101E+00   -2.136E+00   -2.171E+00   -2.205E+00
    -2.239E+00   -2.273E+00   -2.306E+00   -2.340E+00   -2.372E+00   -2.405E+00   -2.437E+00   -2.470E+00   -2.501E+00   -2.533E+00
    -2.564E+00   -2.595E+00   -2.626E+00   -2.656E+00   -2.686E+00   -2.716E+00   -2.745E+00   -2.774E+00   -2.803E+00   -2.832E+00
    -2.860E+00   -2.888E+00   -2.915E+00   -2.943E+00   -2.970E+00   -2.996E+00   -3.023E+00   -3.049E+00   -3.074E+00   -3.100E+00
    -3.125E+00   -3.149E+00   -3.174E+00   -3.198E+00   -3.222E+00   -3.245E+00   -3.268E+00   -3.291E+00   -3.314E+00   -3.336E+00
    -3.358E+00   -3.379E+00   -3.401E+00   -3.422E+00   -3.442E+00   -3.463E+00   -3.483E+00   -3.503E+00   -3.522E+00   -3.541E+00
    -3.560E+00   -3.579E+00   -3.597E+00   -3.615E+00   -3.633E+00   -3.650E+00   -3.667E+00   -3.684E+00   -3.701E+00   -3.717E+00
    -3.733E+00   -3.748E+00   -3.764E+00   -3.779E+00   -3.794E+00   -3.808E+00   -3.822E+00   -3.836E+00   -3.850E+00   -3.863E+00
    -3.876E+00   -3.889E+00   -3.902E+00   -3.914E+00   -3.926E+00   -3.938E+00   -3.949E+00   -3.960E+00   -3.971E+00   -3.982E+00
    -3.992E+00   -4.002E+00   -4.012E+00   -4.022E+00   -4.031E+00   -4.040E+00   -4.049E+00   -4.057E+00   -4.066E+00   -4.074E+00
    -4.082E+00   -4.089E+00   -4.096E+00   -4.104E+00   -4.110E+00   -4.117E+00   -4.123E+00   -4.129E+00   -4.135E+00   -4.141E+00
    -4.146E+00   -4.151E+00   -4.156E+00   -4.161E+00   -4.166E+00   -4.170E+00   -4.174E+00   -4.178E+00   -4.181E+00   -4.185E+00
    -4.188E+00   -4.191E+00   -4.194E+00   -4.196E+00   -4.199E+00   -4.201E+00   -4.203E+00   -4.204E+00   -4.206E+00   -4.207E+00
    -4.208E+00   -4.209E+00   -4.210E+00   -4.210E+00   -4.211E+00   -4.211E+00   -4.211E+00   -4.210E+00   -4.210E+00   -4.209E+00
    -4.208E+00   -4.207E+00   -4.206E+00   -4.205E+00   -4.203E+00   -4.201E+00   -4.199E+00   -4.197E+00   -4.194E+00   -4.192E+00
    -4.189E+00   -4.186E+00   -4.183E+00   -4.180E+00   -4.176E+00   -4.172E+00   -4.168E+00   -4.164E+00   -4.160E+00   -4.156E+00
    -4.151E+00   -4.146E+00   -4.141E+00   -4.136E+00   -4.131E+00   -4.125E+00   -4.119E+00   -4.113E+00   -4.107E+00   -4.101E+00
    -4.095E+00   -4.088E+00   -4.081E+00   -4.074E+00   -4.067E+00   -4.060E+00   -4.052E+00   -4.045E+00   -4.037E+00   -4.029E+00
    -4.021E+00   -4.012E+00   -4.004E+00   -3.995E+00   -3.986E+00   -3.978E+00   -3.968E+00   -3.959E+00   -3.950E+00   -3.940E+00
    -3.931E+00   -3.921E+00   -3.911E+00   -3.901E+00   -3.891E+00   -3.880E+00   -3.870E+00   -3.859E+00   -3.848E+00   -3.837E+00
    -3.826E+00   -3.815E+00   -3.804E+00   -3.793E+00   -3.781E+00   -3.769E+00   -3.758E+00   -3.746E+00   -3.734E+00   -3.722E+00
    -3.710E+00   -3.697E+00   -3.685E+00   -3.672E+00   -3.660E+00   -3.647E+00   -3.634E+00   -3.621E+00   -3.608E+00   -3.595E+00
    -3.582E+00   -3.569E+00   -3.555E+00   -3.542E+00   -3.528E+00   -3.514E+00   -3.501E+00   -3.487E+00   -3.473E+00   -3.459E+00
    -3.445E+00   -3.430E+00   -3.416E+00   -3.402E+00   -3.387E+00   -3.373E+00   -3.358E+00   -3.343E+00   -3.328E+00   -3.314E+00
    -3.299E+00   -3.284E+00   -3.268E+00   -3.253E+00   -3.238E+00   -3.223E+00   -3.207E+00   -3.192E+00   -3.176E+00   -3.160E+00
    -3.145E+00   -3.129E+00   -3.113E+00   -3.097E+00   -3.081E+00   -3.065E+00   -3.049E+00   -3.032E+00   -3.016E+00   -3.000E+00
    -2.983E+00   -2.967E+00   -2.950E+00   -2.933E+00   -2.917E+00   -2.900E+00   -2.883E+00   -2.866E+00   -2.849E+00   -2.832E+00
    -2.815E+00   -2.798E+00   -2.781E+00   -2.764E+00   -2.746E+00   -2.729E+00   -2.712E+00   -2.694E+00   -2.676E+00   -2.659E+00
    -2.641E+00   -2.624E+00   -2.606E+00   -2.588E+00   -2.570E+00   -2.552E+00   -2.534E+00   -2.516E+00   -2.498E+00   -2.480E+00
    -2.462E+00   -2.443E+00   -2.425E+00   -2.407E+00   -2.388E+00   -2.370E+00   -2.351E+00   -2.333E+00   -2.314E+00   -2.296E+00
    -2.277E+00   -2.258E+00   -2.239E+00   -2.221E+00   -2.202E+00   -2.183E+00   -2.164E+00   -2.145E+00   -2.126E+00   -2.107E+00
    -2.088E+00   -2.068E+00   -2.049E+00   -2.030E+00   -2.011E+00   -1.991E+00   -1.972E+00   -1.953E+00   -1.933E+00   -1.914E+00
    -1.894E+00   -1.875E+00   -1.855E+00   -1.836E+00   -1.816E+00   -1.796E+00   -1.777E+00   -1.757E+00   -1.737E+00   -1.717E+00
    -1.697E+00   -1.678E+00   -1.658E+00   -1.638E+00   -1.618E+00   -1.598E+00   -1.578E+00   -1.558E+00   -1.538E+00   -1.518E+00
    -1.498E+00   -1.478E+00   -1.458E+00   -1.438E+00   -1.418E+00   -1.398E+00   -1.378E+00   -1.358E+00   -1.337E+00   -1.317E+00
    -1.297E+00   -1.277E+00   -1.257E+00   -1.236E+00   -1.216E+00   -1.196E+00   -1.176E+00   -1.156E+00   -1.135E+00   -1.115E+00
    -1.095E+00   -1.075E+00   -1.054E+00   -1.034E+00   -1.014E+00   -9.936E-01   -9.733E-01   -9.530E-01   -9.328E-01   -9.125E-01
    -8.922E-01   -8.719E-01   -8.517E-01   -8.314E-01   -8.111E-01   -7.908E-01   -7.705E-01   -7.503E-01   -7.300E-01   -7.097E-01
    -6.895E-01   -6.692E-01   -6.489E-01   -6.287E-01   -6.084E-01   -5.882E-01   -5.680E-01   -5.477E-01   -5.275E-01   -5.073E-01
    -4.871E-01   -4.669E-01   -4.467E-01   -4.265E-01   -4.063E-01   -3.862E-01   -3.660E-01   -3.459E-01
 Ala      Conc. = 1.59E+02
