 LCModel (Version 6.3-1L) Copyright: S.W. Provencher.          Ref.: Magn. Reson. Med. 30:672-679 (1993).                
 Slice#1 Row#2 Col#5  PD_24_press_2_raw_act
 36 lines in following concentration table = NCONC+1
    Conc.  %SD /Cr+PCr  Metabolite                                         
  127.879 105%   0.785 Ala                                                 
   84.934  98%   0.521 Asp                                                 
  162.868  48%   1.000 Cr                                                  
    0.000 999%   0.000 PCr                                                 
   50.004  99%   0.307 GABA                                                
   45.061 112%   0.277 Glc                                                 
    0.000 999%   0.000 Gln                                                 
  380.988  76%   2.339 Glu                                                 
    0.000 999%   0.000 GPC                                                 
  119.881  26%   0.736 PCh                                                 
   90.398 112%   0.555 GSH                                                 
  748.856  44%   4.598 Ins                                                 
    0.000 999%   0.000 Lac                                                 
   83.553 134%   0.513 NAA                                                 
 1.03E+03  14%   6.313 NAAG                                                
    6.793 233% 4.2E-02 Scyllo                                              
   30.976 265%   0.190 Tau                                                 
   72.647  93%   0.446 -CrCH2                                              
  119.881  26%   0.736 GPC+PCh                                             
 1.11E+03  16%   6.826 NAA+NAAG                                            
  162.868  48%   1.000 Cr+PCr                                              
  380.988  76%   2.339 Glu+Gln                                             
 5.38E+03  25%  33.052 Lip13a                                              
    0.000 999%   0.000 Lip13b                                              
  351.316 170%   2.157 Lip09                                               
 2.61E+03  23%  16.033 MM09                                                
  894.623  56%   5.493 Lip20                                               
 3.77E+03  21%  23.120 MM20                                                
 1.20E+03  36%   7.361 MM12                                                
 4.44E+03   9%  27.238 MM14                                                
    0.000 999%   0.000 MM17                                                
 5.38E+03  25%  33.052 Lip13a+Lip13b                                       
 1.10E+04  10%  67.650 MM14+Lip13a+Lip13b+MM12                             
 2.96E+03  17%  18.190 MM09+Lip09                                          
 4.66E+03  16%  28.613 MM20+Lip20                                          
   6 lines in following misc. output table
  FWHM = 0.038 ppm    S/N =   4                                            
  Data shift = 0.000 ppm                                                   
  Ph: 171 deg      96.8 deg/ppm                                            
  alphaB,S = 8.5E+01,   2.6E+01                                            
   14 spline knots.   Ns = 6(1)                                            
  ( 7) 4 infls.   ( 6) 2 extrs.                                            
  498 points on ppm-axis = NY
      4.000000     3.992357     3.984714     3.977070     3.969427     3.961784     3.954141     3.946497     3.938854     3.931211
      3.923568     3.915925     3.908281     3.900638     3.892995     3.885352     3.877708     3.870065     3.862422     3.854779
      3.847136     3.839492     3.831849     3.824206     3.816563     3.808919     3.801276     3.793633     3.785990     3.778347
      3.770703     3.763060     3.755417     3.747774     3.740130     3.732487     3.724844     3.717201     3.709558     3.701914
      3.694271     3.686628     3.678985     3.671341     3.663698     3.656055     3.648412     3.640769     3.633125     3.625482
      3.617839     3.610196     3.602552     3.594909     3.587266     3.579623     3.571980     3.564336     3.556693     3.549050
      3.541407     3.533763     3.526120     3.518477     3.510834     3.503191     3.495547     3.487904     3.480261     3.472618
      3.464974     3.457331     3.449688     3.442045     3.434402     3.426758     3.419115     3.411472     3.403829     3.396185
      3.388542     3.380899     3.373256     3.365613     3.357969     3.350326     3.342683     3.335040     3.327396     3.319753
      3.312110     3.304467     3.296824     3.289180     3.281537     3.273894     3.266251     3.258607     3.250964     3.243321
      3.235678     3.228034     3.220391     3.212748     3.205105     3.197462     3.189818     3.182175     3.174532     3.166889
      3.159245     3.151602     3.143959     3.136316     3.128673     3.121029     3.113386     3.105743     3.098100     3.090456
      3.082813     3.075170     3.067527     3.059884     3.052240     3.044597     3.036954     3.029311     3.021667     3.014024
      3.006381     2.998738     2.991095     2.983451     2.975808     2.968165     2.960522     2.952878     2.945235     2.937592
      2.929949     2.922306     2.914662     2.907019     2.899376     2.891733     2.884089     2.876446     2.868803     2.861160
      2.853517     2.845873     2.838230     2.830587     2.822944     2.815300     2.807657     2.800014     2.792371     2.784728
      2.777084     2.769441     2.761798     2.754155     2.746511     2.738868     2.731225     2.723582     2.715939     2.708295
      2.700652     2.693009     2.685366     2.677722     2.670079     2.662436     2.654793     2.647150     2.639506     2.631863
      2.624220     2.616577     2.608933     2.601290     2.593647     2.586004     2.578361     2.570717     2.563074     2.555431
      2.547788     2.540144     2.532501     2.524858     2.517215     2.509572     2.501928     2.494285     2.486642     2.478999
      2.471355     2.463712     2.456069     2.448426     2.440783     2.433139     2.425496     2.417853     2.410210     2.402566
      2.394923     2.387280     2.379637     2.371994     2.364350     2.356707     2.349064     2.341421     2.333777     2.326134
      2.318491     2.310848     2.303205     2.295561     2.287918     2.280275     2.272632     2.264988     2.257345     2.249702
      2.242059     2.234416     2.226772     2.219129     2.211486     2.203843     2.196199     2.188556     2.180913     2.173270
      2.165627     2.157983     2.150340     2.142697     2.135054     2.127410     2.119767     2.112124     2.104481     2.096838
      2.089194     2.081551     2.073908     2.066265     2.058621     2.050978     2.043335     2.035692     2.028049     2.020405
      2.012762     2.005119     1.997476     1.989833     1.982190     1.974546     1.966903     1.959260     1.951617     1.943974
      1.936331     1.928688     1.921045     1.913402     1.905759     1.898115     1.890472     1.882829     1.875186     1.867543
      1.859900     1.852257     1.844614     1.836971     1.829327     1.821684     1.814041     1.806398     1.798755     1.791112
      1.783469     1.775826     1.768183     1.760540     1.752896     1.745253     1.737610     1.729967     1.722324     1.714681
      1.707038     1.699395     1.691752     1.684108     1.676465     1.668822     1.661179     1.653536     1.645893     1.638250
      1.630607     1.622964     1.615321     1.607677     1.600034     1.592391     1.584748     1.577105     1.569462     1.561819
      1.554176     1.546533     1.538890     1.531246     1.523603     1.515960     1.508317     1.500674     1.493031     1.485388
      1.477745     1.470102     1.462458     1.454815     1.447172     1.439529     1.431886     1.424243     1.416600     1.408957
      1.401314     1.393671     1.386027     1.378384     1.370741     1.363098     1.355455     1.347812     1.340169     1.332526
      1.324883     1.317240     1.309596     1.301953     1.294310     1.286667     1.279024     1.271381     1.263738     1.256095
      1.248452     1.240808     1.233165     1.225522     1.217879     1.210236     1.202593     1.194950     1.187307     1.179664
      1.172021     1.164377     1.156734     1.149091     1.141448     1.133805     1.126162     1.118519     1.110876     1.103233
      1.095590     1.087946     1.080303     1.072660     1.065017     1.057374     1.049731     1.042088     1.034445     1.026802
      1.019158     1.011515     1.003872     0.996229     0.988586     0.980943     0.973300     0.965657     0.958014     0.950371
      0.942727     0.935084     0.927441     0.919798     0.912155     0.904512     0.896869     0.889226     0.881583     0.873940
      0.866296     0.858653     0.851010     0.843367     0.835724     0.828081     0.820438     0.812795     0.805152     0.797508
      0.789865     0.782222     0.774579     0.766936     0.759293     0.751650     0.744007     0.736364     0.728721     0.721077
      0.713434     0.705791     0.698148     0.690505     0.682862     0.675219     0.667576     0.659933     0.652290     0.644646
      0.637003     0.629360     0.621717     0.614074     0.606431     0.598788     0.591145     0.583502     0.575858     0.568215
      0.560572     0.552929     0.545286     0.537643     0.530000     0.522357     0.514714     0.507071     0.499427     0.491784
      0.484141     0.476498     0.468855     0.461212     0.453569     0.445925     0.438282     0.430639     0.422996     0.415353
      0.407710     0.400067     0.392424     0.384780     0.377137     0.369494     0.361851     0.354208     0.346565     0.338922
      0.331278     0.323635     0.315992     0.308349     0.300706     0.293063     0.285420     0.277777     0.270133     0.262490
      0.254847     0.247204     0.239561     0.231918     0.224275     0.216631     0.208988     0.201345
 NY phased data points follow
   1.11915E+01  9.09174E+00  9.22068E-01  9.21939E+00  1.99054E+01  1.19130E+01  9.42834E+00  1.94197E+01 -3.34734E-01 -1.57017E+01
   1.53552E+01  3.08519E+01  2.07921E+01  7.55883E+00 -6.93822E-02  2.18001E+01  2.08174E+01  2.39290E+01  2.88923E+01  2.19974E+01
   1.81343E+01  2.16078E+01  1.29710E+01  1.27502E+01  6.23812E+00  1.55516E+01  2.39137E+01  2.37395E+01  1.69527E+00  2.20622E+01
   1.52811E+01  1.04279E+00  1.53648E+01  1.32850E+01  1.80213E+01  2.88977E+01  6.20237E+00  2.27832E+01  8.31392E+00  1.41308E+01
   1.95360E+01  1.11562E+01  1.82420E+01  8.81823E+00  9.39056E+00  3.75025E+00  2.00569E+01  7.12221E+00  1.78430E+01  2.03171E+01
   9.81195E+00  1.40524E+01  1.15612E+01  8.36599E+00  5.94849E+00  1.06322E+01  9.84474E+00  1.52044E+01  7.77281E+00  1.06925E+01
   1.67426E+01  1.70835E+01  1.64847E+01  2.26980E+01  2.25613E+01  3.08398E+01  1.14226E+01  1.99230E+01  1.17914E+01  7.26937E+00
   6.95756E+00 -2.48152E+00  2.40271E+00  9.49069E+00  5.52650E+00  3.14952E+00  1.32103E+01  1.62370E+01  2.71387E+00  1.12226E+01
   8.57053E+00  1.46829E+01  2.62251E+01  7.13149E+00  7.29193E+00  1.70233E+01  1.39492E+01 -9.27994E+00  8.79316E+00  9.00209E+00
   8.68341E+00 -3.07541E+00  9.89916E+00  7.06595E+00  1.23924E+01  1.33455E+01  1.33964E+01  1.35409E+01 -1.64764E+00 -3.59973E-01
   1.39738E+01 -3.17975E+00  4.30425E+00  1.43556E+01  2.93696E+01  2.44496E+01  3.04579E+01  4.20645E+01  2.89172E+01  2.60434E+01
   1.91457E+01  1.92557E+01  1.70337E+01  9.67009E+00  2.76187E+00  1.53872E+01  1.01294E+01  1.78048E+01  3.65580E+00  1.90023E+01
  -1.49076E-01  9.87278E+00 -2.18331E+00 -4.03893E+00  1.02807E+01  7.72750E+00  8.19916E+00  1.35770E+01  2.39961E+01  3.38113E+01
   1.63938E+01  2.68304E+01  2.53491E+01  2.52581E+01  1.32609E+01  2.76826E+01  1.60407E+01  1.33631E+01  5.99314E+00  4.64006E+00
   6.98149E+00 -1.67504E+00  1.14341E+01 -5.68825E+00 -1.04625E+00  3.15788E+00  1.51022E+01  6.90273E+00  3.95797E-01  2.26252E+00
   5.45259E+00  1.08221E+01  9.71015E+00  1.23701E+01  1.44598E+01  5.76367E+00  9.67174E+00  1.44088E+01 -6.64748E+00 -8.01349E-01
   1.38512E+01  8.72826E+00 -9.83228E+00  2.37998E+01  8.12553E-01  1.11283E+01 -2.53694E+00  5.01997E-01  2.19533E+01  6.20759E+00
  -8.02927E+00  1.12079E+00  1.27647E+01  6.51614E+00  1.26975E+01  1.32017E+01  1.23849E+01 -3.52650E+00 -3.01614E+00 -2.45332E+00
  -1.05704E+00  7.46424E+00 -1.20441E+01 -9.40508E-01 -9.58140E+00  6.53417E+00  1.00628E+01  6.91848E+00  3.05871E+00  6.47016E-01
   4.76942E+00  1.07383E+01  1.59625E+01  3.67917E-01 -4.79228E+00  7.54724E+00  1.09078E+01  8.49863E+00  1.10946E+01  1.18649E+00
   8.27704E+00 -3.55406E+00  1.19790E+01  7.77729E+00  3.33001E+00  1.09035E+01  3.90087E+00  1.50013E+01 -5.13768E+00 -6.29098E+00
   1.20911E+00  1.46663E+01  3.42157E+00  8.61172E+00  8.67805E+00  4.40322E+00 -1.45871E+00  3.39645E+00  1.88827E+01  5.73895E+00
   1.28276E+01  2.72628E+00 -7.82674E+00 -2.48233E-01 -4.19813E+00  9.65661E+00 -3.34553E+00  1.13598E+01  2.02569E+00  5.51357E+00
   1.09403E+01  8.80443E+00  1.55344E+01  3.86519E+00  7.35743E+00  3.53998E+00  4.87862E+00  4.52336E+00  1.07207E+01  5.02441E+00
   4.96228E+00  1.82424E+01  9.00892E+00 -1.10042E-01  9.51437E+00  1.22917E+01  4.05250E+00  9.54085E+00  2.01212E+01 -2.54751E+00
  -7.64103E+00  1.44217E+01 -4.06393E-01  2.29886E+00  7.92209E+00  1.81380E+01  2.00389E+01  2.96514E+01  4.09678E+01  5.67488E+01
   5.22627E+01  6.64609E+01  4.19954E+01  2.72562E+01  1.70117E+01  6.64334E+00  2.91795E+00 -1.17376E+00 -4.51390E+00 -5.13736E+00
  -1.40918E+01 -1.86581E+01 -7.11875E+00 -5.92826E+00 -1.24049E+01 -4.91756E-01 -1.13552E+01 -6.90665E+00 -2.84506E-02 -7.12630E+00
  -1.49419E+00 -1.97550E+01 -1.69650E+01 -1.72703E+01 -5.73327E-01  3.35884E-01 -1.70557E+00 -1.11467E+01 -6.05126E+00 -1.02449E+01
  -1.23482E+01 -9.97180E+00 -1.42437E+01 -2.39229E+01 -2.32049E+01 -2.12299E+01 -1.52832E+01 -1.32691E+01 -2.70920E+01 -1.93262E+01
  -2.24478E+01 -1.99146E+01 -2.80293E+01 -2.77688E+01 -2.75863E+01 -2.28184E+01 -3.74246E+01 -2.37931E+01 -2.04263E+01 -3.10246E+01
  -2.77569E+01 -1.47383E+01 -2.81438E+01 -2.51627E+01 -2.89808E+01 -2.33495E+01 -1.24135E+01 -1.29941E+01 -1.09189E+01 -1.89429E+01
  -7.61045E+00 -5.32917E-01 -2.50627E+00  8.68201E-01  5.97606E+00  6.54838E+00 -9.25514E+00  1.05689E+01  4.93279E+00  7.97112E+00
   1.23218E+01  3.24510E+01  6.74795E+00  1.57688E+01  1.23916E+01  1.06568E+01  1.40717E+01  1.00738E+01  1.46927E+01  1.07517E+01
   7.64508E+00  2.25157E+01  1.72874E+00  1.47384E+01  7.49038E+00  7.76586E-01  6.28086E+00  1.48090E+01  2.81754E+00  7.39141E+00
   2.92298E+00 -2.86631E+00  4.63282E-01  9.24180E+00  4.94186E+00  1.02007E+01  1.23278E+01  7.15635E+00 -6.50437E+00  4.64597E+00
   3.42200E+00  1.46281E+00 -6.64718E+00  9.51913E+00  1.96772E+00  7.71417E+00  5.59718E-01  3.54063E+00  7.02547E+00  1.59140E+01
  -8.86418E+00  1.74419E+01  2.51247E+00  1.12336E+00  5.64680E+00  3.74910E+00  3.60873E+00  4.58862E+00  5.31134E+00  1.89719E+01
   5.92253E+00  6.26101E+00  9.31159E+00  1.64188E+01  9.51874E+00  8.76219E+00  1.07671E+01  1.46325E+00  3.20128E+00  1.41986E+01
   8.43618E+00  2.64841E+00  1.81421E+00  6.87727E+00  7.97526E-01  9.67285E+00 -1.09241E+01  1.05013E+00 -4.83059E-01  4.83089E+00
   1.28400E+01  5.49028E+00  7.97864E+00 -2.95892E+00  1.32716E+01  4.13907E+00  1.57248E+00 -1.55541E+00  1.40066E+01 -4.58048E-01
   5.67738E-01  2.19255E+00 -9.13745E+00  5.98460E+00  7.03889E+00  9.11267E+00  2.13956E+00 -9.51024E-01 -1.39007E-01  7.30791E-01
  -1.39299E+01 -1.00408E+01 -4.30350E+00 -5.93875E+00 -7.61203E+00 -1.33308E+01  2.99119E+00 -1.08379E+01 -7.35555E+00 -6.13289E+00
   1.22155E+00 -4.70274E+00 -1.43786E+00 -2.14776E+00  7.14491E+00  3.91045E+00  1.60509E-01 -4.09333E-01  9.57014E-01 -4.78839E+00
  -1.78902E+00 -6.07684E+00 -5.63666E+00 -5.01271E+00  9.19687E+00 -4.47477E+00 -6.13108E+00 -2.02323E+00 -3.84947E+00 -1.69770E+01
   3.19136E+00 -3.26171E+00 -1.18820E+01  1.68216E+00  4.66054E+00 -1.38475E+01 -1.08295E+01 -6.68037E+00 -5.67786E+00  3.97065E+00
  -1.25605E+01 -9.99095E+00 -1.00739E+01 -9.33315E+00 -1.82634E+01 -1.54979E+01 -3.17798E+00 -1.15325E+01 -1.84141E+01 -3.19388E+00
  -9.52463E-01  5.43935E+00 -1.20950E+00 -1.12332E+00 -9.72800E+00 -2.30465E+00 -5.72635E+00 -6.36114E+00 -7.92935E+00 -6.49568E+00
  -8.38722E+00 -6.98976E+00 -1.32922E+01 -1.33079E+01 -3.42538E+00 -1.48187E+01 -1.25380E+01 -2.96970E+00 -9.34723E-01 -1.63677E+00
  -9.99579E+00 -5.89804E+00 -3.50229E+00  5.23661E+00 -8.03159E+00 -8.05894E+00 -1.20330E+01 -6.10144E+00
 NY points of the fit to the data follow
   9.60139E+00  9.38373E+00  9.20111E+00  9.37792E+00  9.77114E+00  9.97380E+00  1.00200E+01  1.01295E+01  1.04176E+01  1.10645E+01
   1.20768E+01  1.32985E+01  1.45376E+01  1.56581E+01  1.63536E+01  1.61152E+01  1.45773E+01  1.23068E+01  1.06717E+01  1.05249E+01
   1.13528E+01  1.21229E+01  1.27873E+01  1.33596E+01  1.37898E+01  1.40296E+01  1.40411E+01  1.39714E+01  1.40429E+01  1.43872E+01
   1.49226E+01  1.55795E+01  1.63408E+01  1.70194E+01  1.71252E+01  1.63830E+01  1.51422E+01  1.40950E+01  1.34732E+01  1.28210E+01
   1.22553E+01  1.19873E+01  1.20557E+01  1.24633E+01  1.34320E+01  1.50950E+01  1.71172E+01  1.88863E+01  2.00469E+01  2.03662E+01
   1.96627E+01  1.77460E+01  1.47197E+01  1.13009E+01  8.91895E+00  8.78265E+00  1.03818E+01  1.22973E+01  1.38516E+01  1.50503E+01
   1.58958E+01  1.63701E+01  1.64233E+01  1.60225E+01  1.52033E+01  1.39994E+01  1.27986E+01  1.22207E+01  1.23836E+01  1.31038E+01
   1.40737E+01  1.49244E+01  1.54803E+01  1.56868E+01  1.56310E+01  1.54346E+01  1.50980E+01  1.46535E+01  1.41248E+01  1.37393E+01
   1.36165E+01  1.35907E+01  1.35984E+01  1.36418E+01  1.36484E+01  1.35004E+01  1.31414E+01  1.26096E+01  1.20013E+01  1.14650E+01
   1.11370E+01  1.11835E+01  1.17463E+01  1.28233E+01  1.41027E+01  1.50391E+01  1.54077E+01  1.51747E+01  1.43510E+01  1.36125E+01
   1.34662E+01  1.42155E+01  1.62673E+01  1.95279E+01  2.33220E+01  2.66552E+01  2.87596E+01  2.89764E+01  2.66050E+01  2.14588E+01
   1.47399E+01  9.43230E+00  8.26929E+00  9.25822E+00  1.01301E+01  1.07548E+01  1.12132E+01  1.15335E+01  1.17410E+01  1.18577E+01
   1.18832E+01  1.17410E+01  1.15376E+01  1.15841E+01  1.19853E+01  1.29107E+01  1.43977E+01  1.61759E+01  1.78528E+01  1.91564E+01
   1.97773E+01  1.93234E+01  1.75150E+01  1.45134E+01  1.13145E+01  9.45062E+00  9.05666E+00  8.80548E+00  8.48227E+00  8.19887E+00
   8.08345E+00  8.25209E+00  8.63068E+00  8.98329E+00  9.19220E+00  9.17965E+00  8.95155E+00  8.64566E+00  8.38997E+00  8.19070E+00
   7.97996E+00  7.68300E+00  7.27729E+00  6.78628E+00  6.32829E+00  5.93043E+00  5.63568E+00  5.51269E+00  5.57714E+00  5.81835E+00
   6.17705E+00  6.42841E+00  6.22221E+00  5.53473E+00  4.71061E+00  3.96519E+00  3.52144E+00  3.40009E+00  3.21185E+00  2.93747E+00
   2.74431E+00  2.66965E+00  2.71573E+00  2.86248E+00  3.09283E+00  3.40690E+00  3.64704E+00  3.50200E+00  2.76411E+00  1.94016E+00
   1.49913E+00  1.42427E+00  1.56343E+00  1.60886E+00  1.47883E+00  1.50427E+00  1.83457E+00  2.52447E+00  3.46983E+00  4.33454E+00
   4.77845E+00  4.80186E+00  4.87970E+00  4.94201E+00  4.72952E+00  4.16498E+00  3.23781E+00  2.08193E+00  1.02596E+00  4.74732E-01
   6.54160E-01  1.31265E+00  2.09811E+00  2.94491E+00  3.61428E+00  3.78018E+00  3.32479E+00  2.57916E+00  1.86246E+00  1.05135E+00
   1.02855E-01 -7.40985E-01 -1.23123E+00 -1.11242E+00 -2.21016E-01  1.29723E+00  3.05430E+00  4.41146E+00  5.10488E+00  5.06286E+00
   4.13381E+00  2.37771E+00  3.41416E-01 -1.20582E+00 -1.68740E+00 -1.33394E+00 -2.95043E-01  1.35477E+00  3.29006E+00  4.79366E+00
   5.23724E+00  4.79519E+00  4.14308E+00  3.67406E+00  3.56543E+00  3.98931E+00  4.92743E+00  6.29519E+00  7.72912E+00  8.56779E+00
   8.52865E+00  7.67429E+00  6.33675E+00  5.24476E+00  4.82657E+00  5.08343E+00  5.87781E+00  7.14771E+00  8.57861E+00  9.33895E+00
   7.75612E+00  4.64423E+00  1.91215E+00  8.21569E-01  3.08515E+00  9.77068E+00  2.02252E+01  3.24958E+01  4.46938E+01  5.46350E+01
   5.90944E+01  5.46186E+01  4.05400E+01  2.30195E+01  1.28120E+01  9.35319E+00  6.69617E+00  3.81160E+00  1.37092E+00 -2.96336E-01
  -1.64238E+00 -2.73692E+00 -3.56772E+00 -4.21254E+00 -4.63921E+00 -4.85190E+00 -5.04157E+00 -5.39723E+00 -6.04318E+00 -6.96421E+00
  -8.04833E+00 -9.14874E+00 -1.00552E+01 -1.05942E+01 -1.07963E+01 -1.09056E+01 -1.10403E+01 -1.12078E+01 -1.14576E+01 -1.18743E+01
  -1.24502E+01 -1.30540E+01 -1.35527E+01 -1.39651E+01 -1.42529E+01 -1.44155E+01 -1.44886E+01 -1.45529E+01 -1.47338E+01 -1.51147E+01
  -1.55829E+01 -1.60496E+01 -1.64995E+01 -1.69061E+01 -1.72276E+01 -1.74305E+01 -1.75310E+01 -1.76077E+01 -1.76782E+01 -1.77021E+01
  -1.76596E+01 -1.75257E+01 -1.72788E+01 -1.69005E+01 -1.63736E+01 -1.56822E+01 -1.48133E+01 -1.37576E+01 -1.25118E+01 -1.10793E+01
  -9.47746E+00 -7.75142E+00 -5.87186E+00 -3.76061E+00 -1.42692E+00  1.14016E+00  3.89569E+00  6.68819E+00  9.32945E+00  1.16032E+01
   1.32509E+01  1.41194E+01  1.40968E+01  1.33332E+01  1.24007E+01  1.20183E+01  1.22114E+01  1.25014E+01  1.28671E+01  1.33236E+01
   1.37022E+01  1.36195E+01  1.27161E+01  1.12380E+01  9.88675E+00  8.74717E+00  7.77418E+00  6.95893E+00  6.30231E+00  5.80491E+00
   5.46309E+00  5.26845E+00  5.20767E+00  5.26374E+00  5.41643E+00  5.64360E+00  5.92162E+00  6.22684E+00  6.53617E+00  6.82843E+00
   7.08449E+00  7.28809E+00  7.42561E+00  7.48691E+00  7.46508E+00  7.35686E+00  7.16211E+00  6.88377E+00  6.52727E+00  6.10071E+00
   5.61414E+00  5.07968E+00  4.51047E+00  3.92073E+00  3.32498E+00  2.73816E+00  2.17500E+00  1.64993E+00  1.17628E+00  7.66386E-01
   4.30879E-01  1.78975E-01  1.77533E-02 -4.77939E-02 -1.54307E-02  1.14567E-01  3.39041E-01  6.52357E-01  1.04602E+00  1.50916E+00
   2.02841E+00  2.58872E+00  3.17355E+00  3.76586E+00  4.34823E+00  4.90378E+00  5.41648E+00  5.87214E+00  6.25858E+00  6.56636E+00
   6.78850E+00  6.92099E+00  6.96238E+00  6.91410E+00  6.77980E+00  6.56534E+00  6.27786E+00  5.92585E+00  5.51829E+00  5.06477E+00
   4.57471E+00  4.05731E+00  3.52099E+00  2.97356E+00  2.42185E+00  1.87204E+00  1.32925E+00  7.97829E-01  2.81063E-01 -2.18317E-01
  -6.98381E-01 -1.15755E+00 -1.59496E+00 -2.01008E+00 -2.40291E+00 -2.77355E+00 -3.12242E+00 -3.44994E+00 -3.75689E+00 -4.04401E+00
  -4.31230E+00 -4.56254E+00 -4.79568E+00 -5.01248E+00 -5.21393E+00 -5.40086E+00 -5.57420E+00 -5.73461E+00 -5.88285E+00 -6.01952E+00
  -6.14539E+00 -6.26102E+00 -6.36706E+00 -6.46388E+00 -6.55201E+00 -6.63182E+00 -6.70385E+00 -6.76842E+00 -6.82593E+00 -6.87659E+00
  -6.92074E+00 -6.95862E+00 -6.99060E+00 -7.01684E+00 -7.03760E+00 -7.05298E+00 -7.06323E+00 -7.06851E+00 -7.06908E+00 -7.06500E+00
  -7.05644E+00 -7.04346E+00 -7.02625E+00 -7.00493E+00 -6.97968E+00 -6.95051E+00 -6.91753E+00 -6.88079E+00 -6.84046E+00 -6.79660E+00
  -6.74935E+00 -6.69866E+00 -6.64467E+00 -6.58738E+00 -6.52697E+00 -6.46345E+00 -6.39691E+00 -6.32731E+00 -6.25477E+00 -6.17929E+00
  -6.10104E+00 -6.01998E+00 -5.93620E+00 -5.84964E+00 -5.76045E+00 -5.66862E+00 -5.57428E+00 -5.47739E+00 -5.37802E+00 -5.27614E+00
  -5.17188E+00 -5.06523E+00 -4.95632E+00 -4.84508E+00 -4.73160E+00 -4.61587E+00 -4.49801E+00 -4.37802E+00
 NY background values follow
     5.075E+00    5.161E+00    5.246E+00    5.329E+00    5.411E+00    5.491E+00    5.569E+00    5.647E+00    5.722E+00    5.797E+00
     5.869E+00    5.941E+00    6.010E+00    6.079E+00    6.145E+00    6.211E+00    6.275E+00    6.337E+00    6.398E+00    6.457E+00
     6.515E+00    6.571E+00    6.626E+00    6.679E+00    6.731E+00    6.782E+00    6.831E+00    6.878E+00    6.924E+00    6.968E+00
     7.011E+00    7.053E+00    7.093E+00    7.131E+00    7.169E+00    7.204E+00    7.238E+00    7.271E+00    7.302E+00    7.332E+00
     7.360E+00    7.387E+00    7.413E+00    7.437E+00    7.459E+00    7.480E+00    7.500E+00    7.518E+00    7.535E+00    7.550E+00
     7.564E+00    7.576E+00    7.587E+00    7.597E+00    7.605E+00    7.612E+00    7.617E+00    7.621E+00    7.623E+00    7.624E+00
     7.624E+00    7.623E+00    7.619E+00    7.615E+00    7.609E+00    7.602E+00    7.593E+00    7.583E+00    7.572E+00    7.559E+00
     7.545E+00    7.530E+00    7.513E+00    7.495E+00    7.476E+00    7.455E+00    7.433E+00    7.409E+00    7.384E+00    7.358E+00
     7.331E+00    7.302E+00    7.272E+00    7.241E+00    7.209E+00    7.175E+00    7.140E+00    7.103E+00    7.066E+00    7.027E+00
     6.987E+00    6.945E+00    6.902E+00    6.859E+00    6.813E+00    6.767E+00    6.720E+00    6.671E+00    6.621E+00    6.570E+00
     6.517E+00    6.464E+00    6.409E+00    6.353E+00    6.296E+00    6.238E+00    6.178E+00    6.118E+00    6.056E+00    5.993E+00
     5.930E+00    5.865E+00    5.798E+00    5.731E+00    5.663E+00    5.593E+00    5.523E+00    5.451E+00    5.379E+00    5.305E+00
     5.230E+00    5.154E+00    5.078E+00    5.000E+00    4.921E+00    4.841E+00    4.760E+00    4.678E+00    4.595E+00    4.511E+00
     4.427E+00    4.341E+00    4.254E+00    4.166E+00    4.078E+00    3.988E+00    3.898E+00    3.806E+00    3.714E+00    3.621E+00
     3.527E+00    3.432E+00    3.336E+00    3.239E+00    3.142E+00    3.043E+00    2.944E+00    2.844E+00    2.743E+00    2.642E+00
     2.539E+00    2.436E+00    2.332E+00    2.227E+00    2.122E+00    2.015E+00    1.908E+00    1.801E+00    1.692E+00    1.583E+00
     1.473E+00    1.362E+00    1.251E+00    1.139E+00    1.026E+00    9.131E-01    7.992E-01    6.846E-01    5.694E-01    4.536E-01
     3.372E-01    2.202E-01    1.026E-01   -1.562E-02   -1.344E-01   -2.537E-01   -3.735E-01   -4.939E-01   -6.148E-01   -7.362E-01
    -8.582E-01   -9.806E-01   -1.104E+00   -1.227E+00   -1.351E+00   -1.475E+00   -1.600E+00   -1.725E+00   -1.851E+00   -1.977E+00
    -2.103E+00   -2.230E+00   -2.357E+00   -2.485E+00   -2.613E+00   -2.741E+00   -2.869E+00   -2.998E+00   -3.128E+00   -3.257E+00
    -3.387E+00   -3.517E+00   -3.648E+00   -3.778E+00   -3.909E+00   -4.041E+00   -4.172E+00   -4.304E+00   -4.435E+00   -4.567E+00
    -4.700E+00   -4.832E+00   -4.965E+00   -5.097E+00   -5.230E+00   -5.363E+00   -5.496E+00   -5.630E+00   -5.763E+00   -5.896E+00
    -6.030E+00   -6.164E+00   -6.297E+00   -6.431E+00   -6.565E+00   -6.698E+00   -6.832E+00   -6.966E+00   -7.100E+00   -7.233E+00
    -7.367E+00   -7.501E+00   -7.634E+00   -7.768E+00   -7.901E+00   -8.035E+00   -8.168E+00   -8.301E+00   -8.434E+00   -8.567E+00
    -8.700E+00   -8.832E+00   -8.965E+00   -9.097E+00   -9.229E+00   -9.361E+00   -9.493E+00   -9.624E+00   -9.756E+00   -9.887E+00
    -1.002E+01   -1.015E+01   -1.028E+01   -1.041E+01   -1.054E+01   -1.067E+01   -1.080E+01   -1.092E+01   -1.105E+01   -1.118E+01
    -1.131E+01   -1.144E+01   -1.156E+01   -1.169E+01   -1.181E+01   -1.194E+01   -1.207E+01   -1.219E+01   -1.231E+01   -1.244E+01
    -1.256E+01   -1.268E+01   -1.281E+01   -1.293E+01   -1.305E+01   -1.317E+01   -1.329E+01   -1.341E+01   -1.353E+01   -1.365E+01
    -1.377E+01   -1.388E+01   -1.400E+01   -1.412E+01   -1.423E+01   -1.435E+01   -1.446E+01   -1.458E+01   -1.469E+01   -1.480E+01
    -1.491E+01   -1.502E+01   -1.514E+01   -1.524E+01   -1.535E+01   -1.546E+01   -1.557E+01   -1.568E+01   -1.578E+01   -1.589E+01
    -1.599E+01   -1.609E+01   -1.620E+01   -1.630E+01   -1.640E+01   -1.650E+01   -1.660E+01   -1.670E+01   -1.680E+01   -1.689E+01
    -1.699E+01   -1.708E+01   -1.718E+01   -1.727E+01   -1.736E+01   -1.745E+01   -1.754E+01   -1.763E+01   -1.772E+01   -1.781E+01
    -1.790E+01   -1.798E+01   -1.807E+01   -1.815E+01   -1.823E+01   -1.831E+01   -1.839E+01   -1.847E+01   -1.855E+01   -1.863E+01
    -1.871E+01   -1.878E+01   -1.885E+01   -1.893E+01   -1.900E+01   -1.907E+01   -1.914E+01   -1.921E+01   -1.928E+01   -1.934E+01
    -1.941E+01   -1.947E+01   -1.953E+01   -1.959E+01   -1.966E+01   -1.971E+01   -1.977E+01   -1.983E+01   -1.988E+01   -1.994E+01
    -1.999E+01   -2.004E+01   -2.009E+01   -2.014E+01   -2.019E+01   -2.024E+01   -2.028E+01   -2.033E+01   -2.037E+01   -2.041E+01
    -2.045E+01   -2.049E+01   -2.053E+01   -2.056E+01   -2.060E+01   -2.063E+01   -2.066E+01   -2.069E+01   -2.072E+01   -2.075E+01
    -2.078E+01   -2.080E+01   -2.083E+01   -2.085E+01   -2.087E+01   -2.089E+01   -2.091E+01   -2.092E+01   -2.094E+01   -2.095E+01
    -2.097E+01   -2.098E+01   -2.099E+01   -2.099E+01   -2.100E+01   -2.101E+01   -2.101E+01   -2.101E+01   -2.101E+01   -2.101E+01
    -2.101E+01   -2.100E+01   -2.100E+01   -2.099E+01   -2.098E+01   -2.097E+01   -2.096E+01   -2.095E+01   -2.093E+01   -2.092E+01
    -2.090E+01   -2.088E+01   -2.086E+01   -2.084E+01   -2.081E+01   -2.079E+01   -2.076E+01   -2.073E+01   -2.070E+01   -2.067E+01
    -2.063E+01   -2.060E+01   -2.056E+01   -2.052E+01   -2.048E+01   -2.044E+01   -2.040E+01   -2.035E+01   -2.030E+01   -2.026E+01
    -2.021E+01   -2.015E+01   -2.010E+01   -2.005E+01   -1.999E+01   -1.993E+01   -1.987E+01   -1.981E+01   -1.975E+01   -1.968E+01
    -1.962E+01   -1.955E+01   -1.948E+01   -1.941E+01   -1.933E+01   -1.926E+01   -1.918E+01   -1.910E+01   -1.902E+01   -1.894E+01
    -1.886E+01   -1.877E+01   -1.869E+01   -1.860E+01   -1.851E+01   -1.842E+01   -1.832E+01   -1.823E+01   -1.813E+01   -1.803E+01
    -1.793E+01   -1.783E+01   -1.772E+01   -1.762E+01   -1.751E+01   -1.740E+01   -1.729E+01   -1.718E+01   -1.707E+01   -1.695E+01
    -1.683E+01   -1.671E+01   -1.659E+01   -1.647E+01   -1.635E+01   -1.622E+01   -1.609E+01   -1.596E+01   -1.583E+01   -1.570E+01
    -1.556E+01   -1.543E+01   -1.529E+01   -1.515E+01   -1.501E+01   -1.487E+01   -1.472E+01   -1.458E+01   -1.443E+01   -1.428E+01
    -1.413E+01   -1.397E+01   -1.382E+01   -1.366E+01   -1.350E+01   -1.334E+01   -1.318E+01   -1.302E+01   -1.285E+01   -1.269E+01
    -1.252E+01   -1.235E+01   -1.218E+01   -1.200E+01   -1.183E+01   -1.165E+01   -1.147E+01   -1.129E+01
 Ala      Conc. = 1.28E+02
