 LCModel (Version 6.3-1L) Copyright: S.W. Provencher.          Ref.: Magn. Reson. Med. 30:672-679 (1993).                
 Slice#3 Row#8 Col#9  PD_24_press_2_raw_act
 36 lines in following concentration table = NCONC+1
    Conc.  %SD /Cr+PCr  Metabolite                                         
    0.000 999%   0.000 Ala                                                 
    0.000 999%   0.000 Asp                                                 
  737.361  35%   0.288 Cr                                                  
 1.82E+03  15%   0.712 PCr                                                 
    0.000 999%   0.000 GABA                                                
    0.000 999%   0.000 Glc                                                 
  945.223  27%   0.369 Gln                                                 
 2.09E+03  14%   0.816 Glu                                                 
 1.09E+03   3%   0.426 GPC                                                 
    0.000 999%   0.000 PCh                                                 
  582.847  15%   0.228 GSH                                                 
 1.69E+03  19%   0.660 Ins                                                 
  321.455  42%   0.125 Lac                                                 
 3.37E+03   4%   1.316 NAA                                                 
  298.937  47%   0.117 NAAG                                                
  198.418  19% 7.7E-02 Scyllo                                              
    0.000 999%   0.000 Tau                                                 
   58.893 245% 2.3E-02 -CrCH2                                              
 1.09E+03   3%   0.426 GPC+PCh                                             
 3.67E+03   3%   1.432 NAA+NAAG                                            
 2.56E+03   3%   1.000 Cr+PCr                                              
 3.04E+03  13%   1.185 Glu+Gln                                             
 2.69E+03  25%   1.052 Lip13a                                              
    0.000 999%   0.000 Lip13b                                              
  552.667  62%   0.216 Lip09                                               
 1.19E+03  27%   0.464 MM09                                                
  468.513  51%   0.183 Lip20                                               
 3.24E+03  15%   1.266 MM20                                                
  340.234  65%   0.133 MM12                                                
    0.000 999%   0.000 MM14                                                
    0.000 999%   0.000 MM17                                                
 2.69E+03  25%   1.052 Lip13a+Lip13b                                       
 3.03E+03  21%   1.184 MM14+Lip13a+Lip13b+MM12                             
 1.74E+03  17%   0.680 MM09+Lip09                                          
 3.71E+03  13%   1.449 MM20+Lip20                                          
   6 lines in following misc. output table
  FWHM = 0.038 ppm    S/N =  15                                            
  Data shift = 0.015 ppm                                                   
  Ph: -24 deg     -11.0 deg/ppm                                            
  alphaB,S = 5.3E-01,   8.8E+01                                            
   14 spline knots.   Ns = 6(1)                                            
  ( 9) 3 infls.   ( 3) 1 extrs.                                            
  498 points on ppm-axis = NY
      4.000000     3.992357     3.984714     3.977070     3.969427     3.961784     3.954141     3.946497     3.938854     3.931211
      3.923568     3.915925     3.908281     3.900638     3.892995     3.885352     3.877708     3.870065     3.862422     3.854779
      3.847136     3.839492     3.831849     3.824206     3.816563     3.808919     3.801276     3.793633     3.785990     3.778347
      3.770703     3.763060     3.755417     3.747774     3.740130     3.732487     3.724844     3.717201     3.709558     3.701914
      3.694271     3.686628     3.678985     3.671341     3.663698     3.656055     3.648412     3.640769     3.633125     3.625482
      3.617839     3.610196     3.602552     3.594909     3.587266     3.579623     3.571980     3.564336     3.556693     3.549050
      3.541407     3.533763     3.526120     3.518477     3.510834     3.503191     3.495547     3.487904     3.480261     3.472618
      3.464974     3.457331     3.449688     3.442045     3.434402     3.426758     3.419115     3.411472     3.403829     3.396185
      3.388542     3.380899     3.373256     3.365613     3.357969     3.350326     3.342683     3.335040     3.327396     3.319753
      3.312110     3.304467     3.296824     3.289180     3.281537     3.273894     3.266251     3.258607     3.250964     3.243321
      3.235678     3.228034     3.220391     3.212748     3.205105     3.197462     3.189818     3.182175     3.174532     3.166889
      3.159245     3.151602     3.143959     3.136316     3.128673     3.121029     3.113386     3.105743     3.098100     3.090456
      3.082813     3.075170     3.067527     3.059884     3.052240     3.044597     3.036954     3.029311     3.021667     3.014024
      3.006381     2.998738     2.991095     2.983451     2.975808     2.968165     2.960522     2.952878     2.945235     2.937592
      2.929949     2.922306     2.914662     2.907019     2.899376     2.891733     2.884089     2.876446     2.868803     2.861160
      2.853517     2.845873     2.838230     2.830587     2.822944     2.815300     2.807657     2.800014     2.792371     2.784728
      2.777084     2.769441     2.761798     2.754155     2.746511     2.738868     2.731225     2.723582     2.715939     2.708295
      2.700652     2.693009     2.685366     2.677722     2.670079     2.662436     2.654793     2.647150     2.639506     2.631863
      2.624220     2.616577     2.608933     2.601290     2.593647     2.586004     2.578361     2.570717     2.563074     2.555431
      2.547788     2.540144     2.532501     2.524858     2.517215     2.509572     2.501928     2.494285     2.486642     2.478999
      2.471355     2.463712     2.456069     2.448426     2.440783     2.433139     2.425496     2.417853     2.410210     2.402566
      2.394923     2.387280     2.379637     2.371994     2.364350     2.356707     2.349064     2.341421     2.333777     2.326134
      2.318491     2.310848     2.303205     2.295561     2.287918     2.280275     2.272632     2.264988     2.257345     2.249702
      2.242059     2.234416     2.226772     2.219129     2.211486     2.203843     2.196199     2.188556     2.180913     2.173270
      2.165627     2.157983     2.150340     2.142697     2.135054     2.127410     2.119767     2.112124     2.104481     2.096838
      2.089194     2.081551     2.073908     2.066265     2.058621     2.050978     2.043335     2.035692     2.028049     2.020405
      2.012762     2.005119     1.997476     1.989833     1.982190     1.974546     1.966903     1.959260     1.951617     1.943974
      1.936331     1.928688     1.921045     1.913402     1.905759     1.898115     1.890472     1.882829     1.875186     1.867543
      1.859900     1.852257     1.844614     1.836971     1.829327     1.821684     1.814041     1.806398     1.798755     1.791112
      1.783469     1.775826     1.768183     1.760540     1.752896     1.745253     1.737610     1.729967     1.722324     1.714681
      1.707038     1.699395     1.691752     1.684108     1.676465     1.668822     1.661179     1.653536     1.645893     1.638250
      1.630607     1.622964     1.615321     1.607677     1.600034     1.592391     1.584748     1.577105     1.569462     1.561819
      1.554176     1.546533     1.538890     1.531246     1.523603     1.515960     1.508317     1.500674     1.493031     1.485388
      1.477745     1.470102     1.462458     1.454815     1.447172     1.439529     1.431886     1.424243     1.416600     1.408957
      1.401314     1.393671     1.386027     1.378384     1.370741     1.363098     1.355455     1.347812     1.340169     1.332526
      1.324883     1.317240     1.309596     1.301953     1.294310     1.286667     1.279024     1.271381     1.263738     1.256095
      1.248452     1.240808     1.233165     1.225522     1.217879     1.210236     1.202593     1.194950     1.187307     1.179664
      1.172021     1.164377     1.156734     1.149091     1.141448     1.133805     1.126162     1.118519     1.110876     1.103233
      1.095590     1.087946     1.080303     1.072660     1.065017     1.057374     1.049731     1.042088     1.034445     1.026802
      1.019158     1.011515     1.003872     0.996229     0.988586     0.980943     0.973300     0.965657     0.958014     0.950371
      0.942727     0.935084     0.927441     0.919798     0.912155     0.904512     0.896869     0.889226     0.881583     0.873940
      0.866296     0.858653     0.851010     0.843367     0.835724     0.828081     0.820438     0.812795     0.805152     0.797508
      0.789865     0.782222     0.774579     0.766936     0.759293     0.751650     0.744007     0.736364     0.728721     0.721077
      0.713434     0.705791     0.698148     0.690505     0.682862     0.675219     0.667576     0.659933     0.652290     0.644646
      0.637003     0.629360     0.621717     0.614074     0.606431     0.598788     0.591145     0.583502     0.575858     0.568215
      0.560572     0.552929     0.545286     0.537643     0.530000     0.522357     0.514714     0.507071     0.499427     0.491784
      0.484141     0.476498     0.468855     0.461212     0.453569     0.445925     0.438282     0.430639     0.422996     0.415353
      0.407710     0.400067     0.392424     0.384780     0.377137     0.369494     0.361851     0.354208     0.346565     0.338922
      0.331278     0.323635     0.315992     0.308349     0.300706     0.293063     0.285420     0.277777     0.270133     0.262490
      0.254847     0.247204     0.239561     0.231918     0.224275     0.216631     0.208988     0.201345
 NY phased data points follow
  -2.67746E+01 -2.65705E+01 -2.01614E+01 -1.96949E+01 -9.15218E+00 -4.46507E+00  1.31580E+00  1.59259E+01  2.73686E+01  3.13514E+01
   4.21045E+01  3.75050E+01  3.07108E+01  1.46205E+01  6.05108E+00 -7.28389E+00 -7.28360E+00 -1.72216E+01 -1.72113E+01 -1.74958E+01
  -1.83875E+01 -2.02845E+01 -2.19834E+01 -1.71035E+01 -1.60908E+01 -1.74154E+01 -1.61179E+01 -1.18836E+01 -1.08075E+01 -1.00450E+01
  -1.06330E+01 -4.17531E+00 -2.10000E+00 -4.84713E+00 -6.42587E+00 -1.24476E+01 -1.04636E+01 -1.14443E+01 -1.74472E+01 -1.38526E+01
  -8.06847E+00 -1.15737E+01 -1.17536E+01 -1.24220E+01 -6.96405E+00  2.81674E+00  3.84149E+00  4.79856E+00  1.73989E+00 -2.78964E+00
  -4.18745E+00 -9.64978E+00 -9.13221E+00 -1.15389E+01 -8.56776E+00 -6.04457E+00 -1.01556E+01 -8.76881E+00 -1.44754E+01 -1.24624E+01
  -1.75076E+01 -2.44886E+01 -1.77739E+01 -2.64726E+01 -2.62689E+01 -2.35549E+01 -2.51730E+01 -2.29502E+01 -2.64365E+01 -2.26758E+01
  -2.03110E+01 -2.38567E+01 -1.74522E+01 -1.80072E+01 -1.57623E+01 -1.68185E+01 -1.47939E+01 -1.87730E+01 -1.35387E+01 -1.61630E+01
  -1.60044E+01 -1.34095E+01 -1.04558E+01 -1.46282E+01 -7.57080E+00 -4.20845E+00 -9.27383E+00 -1.28104E+01 -7.14164E+00 -1.25620E+01
  -8.01695E+00 -5.90038E+00 -2.05467E+00 -5.93018E+00 -2.79938E+00 -4.87716E+00  4.55268E-01  4.94684E+00  1.31936E+01  2.92893E+01
   4.53696E+01  6.60158E+01  8.58188E+01  9.07790E+01  8.53761E+01  6.19017E+01  3.81806E+01  2.70861E+01  1.97467E+01  7.91685E-01
  -1.13324E+00 -7.11655E+00 -6.36741E+00 -1.38290E+01 -1.44904E+01 -9.40982E+00 -8.06998E+00 -1.47787E+01 -1.37770E+01 -1.42390E+01
  -3.81077E+00 -1.34989E+00  2.71579E+00  1.19831E+01  2.71591E+01  5.03447E+01  6.95381E+01  8.26660E+01  7.62062E+01  6.32552E+01
   3.96214E+01  2.59927E+01  1.57041E+01  4.16172E+00  2.36831E-01 -3.24415E+00 -1.12941E+01 -1.51573E+01 -9.69039E+00 -1.65132E+01
  -5.09936E+00 -1.04522E+01 -1.20869E+01 -2.05984E+01 -1.57521E+01 -9.83026E+00 -1.30473E+01 -8.70303E+00 -8.53808E+00 -1.37454E+01
  -1.08860E+01 -1.91280E+01 -1.28539E+01 -1.08592E+01 -9.41957E+00 -1.51683E+01 -1.24365E+01 -1.18875E+01 -1.36235E+01 -1.40808E+01
  -1.52783E+01 -1.94764E+01 -1.92654E+01 -1.78736E+01 -1.35301E+01 -1.68368E+01 -1.54793E+01 -1.96531E+01 -2.00616E+01 -2.01104E+01
  -1.90279E+01 -3.19144E+01 -2.64421E+01 -2.68843E+01 -3.01765E+01 -2.80266E+01 -3.26051E+01 -2.53612E+01 -2.56911E+01 -2.24349E+01
  -1.98745E+01 -2.63439E+01 -2.86086E+01 -3.05980E+01 -2.86303E+01 -2.51231E+01 -2.40082E+01 -2.80251E+01 -1.71325E+01 -1.51427E+01
  -5.78602E+00 -1.83757E+00 -4.49665E+00 -3.00538E+00 -1.37396E+00 -5.57975E+00 -8.38503E+00 -9.94344E+00 -3.97371E+00 -1.53227E+01
  -1.08880E+01 -1.35654E+01 -2.42373E+00 -3.93846E+00 -1.97852E+00 -2.34827E+00 -7.32699E+00 -1.50646E+01 -1.55495E+01 -7.59105E+00
  -1.38578E+01 -1.28809E+01 -8.16195E+00 -1.07791E+00  2.71479E+00  5.83324E+00  7.37150E+00  1.55761E+01  7.80302E+00  1.18981E+00
  -5.61606E-01 -9.80165E+00 -1.29270E+01 -9.59490E+00 -1.29101E+01 -1.51258E+00  4.54084E+00  4.29115E+00  6.20251E+00  5.45023E+00
   5.67457E+00 -8.88861E-01  5.53029E+00  5.19568E+00  2.99493E+00  3.79770E+00  6.92778E+00  3.03292E+00  3.56020E+00  4.35426E-02
   5.89646E+00 -4.45706E+00  2.07599E+00 -3.35132E+00  2.94137E+00  1.87762E+00  5.16104E+00  3.76595E+00  4.06936E+00  5.64036E+00
   1.14296E+01  8.82706E+00  1.02915E+01  1.26841E+01  3.46014E+01  4.41863E+01  4.94684E+01  6.42280E+01  7.44294E+01  1.08480E+02
   1.29886E+02  1.36594E+02  1.17906E+02  9.24242E+01  6.41310E+01  4.44440E+01  2.57025E+01  1.75697E+01  1.19497E+01  8.42260E+00
   2.95892E+00  5.41876E+00  6.68398E+00  1.56715E+00  1.66224E-01  7.36143E-01  4.99909E+00  4.64948E-02  3.30241E+00 -1.73043E+00
   9.21310E-01  3.00097E+00 -8.27807E-02 -2.58535E+00  2.11791E+00  2.91638E+00 -3.34983E+00 -2.51183E+00 -2.96049E-01  1.36256E+00
   3.79047E-01 -5.98686E+00  5.13725E+00 -3.57275E+00 -1.71298E+00 -4.25624E+00 -3.66439E+00 -6.34606E+00 -2.56413E+00 -3.68647E+00
   9.48989E-01 -5.73720E+00 -1.98291E+00 -2.27459E+00 -2.71082E+00 -2.56869E+00 -2.29216E+00 -2.43248E+00 -5.49179E+00 -6.15605E+00
  -5.92472E-01 -4.60062E+00 -8.23442E+00 -7.23045E+00 -1.84789E+00 -4.57403E+00 -6.01875E+00 -9.18854E+00 -9.03674E+00 -4.44961E+00
  -5.37512E+00 -9.13249E+00 -8.42918E+00 -1.37188E+01 -9.25164E+00 -5.81087E+00 -6.01257E+00 -9.74904E+00 -4.85592E+00 -3.58804E+00
  -3.52437E+00  1.13945E+00 -5.85376E-01  4.78968E+00  3.19362E+00  8.30945E-01  4.86036E+00  7.15142E+00  5.25332E+00  3.59271E+00
   1.14026E+01  7.55505E+00  8.33400E+00  9.82993E+00  8.61701E+00  1.32978E+01  1.48621E+01  1.03587E+01  9.13010E+00  1.53717E+00
   5.72685E+00  8.60083E+00  6.61952E+00  9.19941E+00  1.38079E+01  1.31206E+01  1.89668E+01  8.59827E+00  1.15518E+01  3.85166E+00
   1.06363E+01  5.28462E+00  8.81382E+00  8.54265E+00  6.73089E+00  1.33666E+01  2.01488E+00  5.45289E+00  8.19715E+00  7.24306E+00
   8.34130E+00  4.99927E+00  1.22227E+01  5.31504E+00  6.14243E+00  3.86715E+00  1.06372E+01  4.59500E+00  3.04511E+00  9.29387E+00
   4.11217E+00  6.45412E+00  9.71001E+00  7.06563E+00  3.82447E+00  5.64026E+00  7.22487E+00  1.65112E+00  7.69572E+00  4.06273E+00
   6.20075E+00  4.09234E+00  5.45204E+00  1.03632E+01  6.26531E+00  8.79078E+00  1.07456E+01  1.20003E+01  1.35341E+01  1.15090E+01
   9.59197E+00  9.10762E+00  1.12887E+01  7.42772E+00  1.52387E+01  9.29562E+00  1.35787E+01  1.20417E+01  1.06635E+01  1.13461E+01
   1.53632E+01  1.93510E+01  1.38498E+01  1.48006E+01  9.56413E+00  9.61254E+00  7.61009E+00  1.11782E+01  9.46921E+00  2.92822E+00
   1.27832E+01  4.69059E+00  3.13275E+00  3.59431E+00  9.28306E+00  8.64384E+00  5.89445E+00  3.37562E+00  6.88077E+00 -3.59332E-01
   9.48709E+00  4.88188E+00  5.79299E+00  9.22727E+00  6.91478E+00  8.69560E+00  7.98905E+00  7.36839E+00  6.67387E+00  3.05130E+00
   4.06135E+00 -3.27746E-02  7.25240E+00  6.42771E+00  6.35718E+00  5.26756E+00  2.05636E+00  8.04519E+00  3.65418E+00  5.05948E+00
   2.58307E-02  7.88968E-01  5.25077E+00  4.11645E+00  7.24228E+00  5.67435E-01  7.03863E+00  4.42892E+00  9.56460E+00  6.28060E+00
   9.63849E+00  5.14555E+00  4.47983E+00  1.22445E-01  7.82872E+00  6.60085E-01  2.66708E+00  4.93355E+00  2.73707E+00  3.62964E+00
   6.86264E+00  4.61117E+00  4.32029E+00  3.48660E+00  4.98977E+00  2.54353E+00  5.82187E+00  3.72976E+00  5.14229E+00  6.36637E+00
   6.89350E+00  2.21735E+00  9.96275E+00  3.80562E+00  1.13720E+01  8.26106E+00  6.27660E+00  3.37230E+00  4.81478E+00  7.92432E+00
   1.11233E+01  3.56789E+00  3.71476E+00  3.05181E+00  2.20977E+00  1.59952E+00  5.47350E+00  9.14767E+00
 NY points of the fit to the data follow
  -2.29585E+01 -2.24214E+01 -2.10075E+01 -1.71396E+01 -1.13992E+01 -4.79516E+00  3.44550E+00  1.41400E+01  2.62557E+01  3.62210E+01
   4.00541E+01  3.61516E+01  2.65740E+01  1.55201E+01  6.05380E+00 -1.42364E+00 -7.71804E+00 -1.22495E+01 -1.50097E+01 -1.65233E+01
  -1.72707E+01 -1.77627E+01 -1.84091E+01 -1.89858E+01 -1.87130E+01 -1.81732E+01 -1.75577E+01 -1.60538E+01 -1.30508E+01 -8.80846E+00
  -4.66795E+00 -1.88579E+00 -1.36106E+00 -2.90872E+00 -5.59646E+00 -8.70639E+00 -1.20460E+01 -1.51257E+01 -1.70339E+01 -1.75534E+01
  -1.65700E+01 -1.43974E+01 -1.20267E+01 -9.78131E+00 -7.33794E+00 -4.51904E+00 -2.05787E+00 -1.18163E+00 -2.50525E+00 -5.55285E+00
  -9.02260E+00 -1.18625E+01 -1.39450E+01 -1.54033E+01 -1.62011E+01 -1.61669E+01 -1.55882E+01 -1.47730E+01 -1.38474E+01 -1.31241E+01
  -1.29890E+01 -1.36487E+01 -1.49289E+01 -1.62909E+01 -1.72984E+01 -1.76938E+01 -1.75433E+01 -1.70158E+01 -1.63056E+01 -1.54898E+01
  -1.47105E+01 -1.41590E+01 -1.39691E+01 -1.41685E+01 -1.46041E+01 -1.50220E+01 -1.53000E+01 -1.54429E+01 -1.55424E+01 -1.54997E+01
  -1.50765E+01 -1.40453E+01 -1.31522E+01 -1.22013E+01 -1.06449E+01 -8.60245E+00 -6.94961E+00 -6.57502E+00 -7.70492E+00 -9.68549E+00
  -1.13938E+01 -1.22763E+01 -1.25121E+01 -1.25220E+01 -1.21966E+01 -1.05253E+01 -5.37750E+00  4.18187E+00  1.40906E+01  2.63871E+01
   4.48651E+01  6.78086E+01  8.70188E+01  9.36258E+01  8.45325E+01  6.44973E+01  4.26238E+01  2.51273E+01  1.18812E+01  3.11658E-01
  -8.55126E+00 -1.21670E+01 -1.32803E+01 -1.36893E+01 -1.38432E+01 -1.38526E+01 -1.37480E+01 -1.35324E+01 -1.31486E+01 -1.23358E+01
  -9.71142E+00 -2.06868E+00  6.97796E+00  1.61299E+01  2.95977E+01  4.87448E+01  6.83035E+01  7.96877E+01  7.73395E+01  6.26352E+01
   4.32454E+01  2.68529E+01  1.51137E+01  5.06466E+00 -4.66529E+00 -1.05553E+01 -1.30490E+01 -1.42755E+01 -1.44507E+01 -1.37992E+01
  -1.27770E+01 -1.17887E+01 -1.10838E+01 -1.08657E+01 -1.10928E+01 -1.15282E+01 -1.20114E+01 -1.24661E+01 -1.28792E+01 -1.32765E+01
  -1.35635E+01 -1.37986E+01 -1.40128E+01 -1.41720E+01 -1.42784E+01 -1.44660E+01 -1.46072E+01 -1.46427E+01 -1.48191E+01 -1.52485E+01
  -1.59879E+01 -1.66558E+01 -1.66759E+01 -1.60128E+01 -1.52350E+01 -1.50111E+01 -1.55569E+01 -1.65217E+01 -1.74037E+01 -1.81090E+01
  -1.87616E+01 -1.93807E+01 -1.97980E+01 -2.01606E+01 -2.07128E+01 -2.14043E+01 -2.16298E+01 -2.10559E+01 -2.01238E+01 -1.95543E+01
  -1.96260E+01 -2.00277E+01 -2.00067E+01 -1.93235E+01 -1.86152E+01 -1.82051E+01 -1.75363E+01 -1.60727E+01 -1.37286E+01 -1.10119E+01
  -8.73146E+00 -7.38332E+00 -7.25375E+00 -7.89747E+00 -8.81510E+00 -9.85100E+00 -1.07701E+01 -1.11784E+01 -1.07343E+01 -9.40781E+00
  -7.35735E+00 -5.00524E+00 -2.94510E+00 -1.56122E+00 -1.49143E+00 -2.55371E+00 -4.84820E+00 -8.39057E+00 -1.21811E+01 -1.49376E+01
  -1.57196E+01 -1.45646E+01 -1.20236E+01 -8.16145E+00 -3.39429E+00  1.14709E+00  3.73644E+00  3.27902E+00  3.12915E-02 -4.45104E+00
  -9.06900E+00 -1.31617E+01 -1.57183E+01 -1.57656E+01 -1.29082E+01 -8.22591E+00 -3.74719E+00 -4.06610E-01  1.69647E+00  2.72155E+00
   2.67665E+00  2.00319E+00  1.44234E+00  1.42917E+00  1.93370E+00  2.86226E+00  3.99754E+00  4.86380E+00  5.36439E+00  5.21527E+00
   4.18482E+00  2.59547E+00  1.28781E+00  8.58199E-01  1.36824E+00  2.73954E+00  4.51416E+00  6.08962E+00  7.21997E+00  8.23073E+00
   9.68013E+00  1.11209E+01  1.29013E+01  1.63963E+01  2.57563E+01  4.00752E+01  5.17641E+01  6.46551E+01  8.44375E+01  1.09301E+02
   1.29042E+02  1.33157E+02  1.18521E+02  9.22380E+01  6.63533E+01  4.71584E+01  3.25212E+01  1.86773E+01  8.43764E+00  4.89266E+00
   3.40839E+00  2.44116E+00  1.87140E+00  1.63707E+00  1.48838E+00  1.29707E+00  9.98144E-01  6.00641E-01  1.61335E-01 -2.71114E-01
  -6.93291E-01 -1.08815E+00 -1.40479E+00 -1.63074E+00 -1.81281E+00 -1.99899E+00 -2.19133E+00 -2.37563E+00 -2.54558E+00 -2.70822E+00
  -2.84826E+00 -2.94902E+00 -3.01714E+00 -3.07592E+00 -3.13491E+00 -3.19771E+00 -3.26446E+00 -3.33277E+00 -3.39819E+00 -3.45496E+00
  -3.49277E+00 -3.51001E+00 -3.51190E+00 -3.50533E+00 -3.49448E+00 -3.48037E+00 -3.46423E+00 -3.44863E+00 -3.43041E+00 -3.40707E+00
  -3.37873E+00 -3.34522E+00 -3.30599E+00 -3.26072E+00 -3.20867E+00 -3.14923E+00 -3.08214E+00 -3.00713E+00 -2.92368E+00 -2.83071E+00
  -2.72706E+00 -2.61177E+00 -2.48429E+00 -2.34362E+00 -2.18819E+00 -2.01596E+00 -1.82500E+00 -1.61345E+00 -1.37943E+00 -1.12050E+00
  -8.33757E-01 -5.15992E-01 -1.64124E-01  2.25021E-01  6.54977E-01  1.13024E+00  1.65652E+00  2.24187E+00  2.89957E+00  3.65884E+00
   4.59872E+00  5.72841E+00  6.69920E+00  7.62501E+00  8.66031E+00  9.55410E+00  9.80765E+00  9.12026E+00  7.80912E+00  6.66920E+00
   5.99909E+00  5.93871E+00  6.55154E+00  7.83375E+00  9.66984E+00  1.16871E+01  1.30870E+01  1.35510E+01  1.33441E+01  1.28869E+01
   1.23636E+01  1.16815E+01  1.08460E+01  1.01371E+01  9.53382E+00  8.97389E+00  8.43851E+00  7.92336E+00  7.42943E+00  6.95999E+00
   6.51876E+00  6.10912E+00  5.73380E+00  5.39531E+00  5.09591E+00  4.83766E+00  4.62197E+00  4.44969E+00  4.32130E+00  4.23748E+00
   4.19908E+00  4.20702E+00  4.26191E+00  4.36419E+00  4.51424E+00  4.71270E+00  4.96010E+00  5.25661E+00  5.60149E+00  5.99326E+00
   6.42965E+00  6.90765E+00  7.42300E+00  7.96998E+00  8.54114E+00  9.12769E+00  9.71972E+00  1.03064E+01  1.08762E+01  1.14165E+01
   1.19150E+01  1.23596E+01  1.27396E+01  1.30458E+01  1.32708E+01  1.34092E+01  1.34581E+01  1.34174E+01  1.32898E+01  1.30804E+01
   1.27963E+01  1.24464E+01  1.20407E+01  1.15907E+01  1.11079E+01  1.06040E+01  1.00898E+01  9.57501E+00  9.06854E+00  8.57808E+00
   8.10987E+00  7.66864E+00  7.25750E+00  6.87842E+00  6.53235E+00  6.21951E+00  5.93923E+00  5.69011E+00  5.47020E+00  5.27744E+00
   5.10973E+00  4.96504E+00  4.84117E+00  4.73590E+00  4.64705E+00  4.57282E+00  4.51165E+00  4.46217E+00  4.42294E+00  4.39261E+00
   4.37001E+00  4.35430E+00  4.34479E+00  4.34084E+00  4.34166E+00  4.34658E+00  4.35506E+00  4.36684E+00  4.38162E+00  4.39908E+00
   4.41875E+00  4.44030E+00  4.46352E+00  4.48840E+00  4.51480E+00  4.54254E+00  4.57129E+00  4.60095E+00  4.63149E+00  4.66298E+00
   4.69529E+00  4.72827E+00  4.76171E+00  4.79564E+00  4.83009E+00  4.86514E+00  4.90065E+00  4.93648E+00  4.97251E+00  5.00884E+00
   5.04554E+00  5.08264E+00  5.11998E+00  5.15746E+00  5.19506E+00  5.23293E+00  5.27110E+00  5.30956E+00  5.34812E+00  5.38677E+00
   5.42552E+00  5.46454E+00  5.50383E+00  5.54333E+00  5.58289E+00  5.62254E+00  5.66235E+00  5.70248E+00  5.74286E+00  5.78341E+00
   5.82401E+00  5.86477E+00  5.90579E+00  5.94717E+00  5.98879E+00  6.03059E+00  6.07251E+00  6.11471E+00
 NY background values follow
    -2.922E+01   -2.908E+01   -2.895E+01   -2.881E+01   -2.867E+01   -2.854E+01   -2.840E+01   -2.826E+01   -2.813E+01   -2.799E+01
    -2.785E+01   -2.772E+01   -2.758E+01   -2.745E+01   -2.731E+01   -2.718E+01   -2.704E+01   -2.691E+01   -2.677E+01   -2.664E+01
    -2.651E+01   -2.637E+01   -2.624E+01   -2.611E+01   -2.598E+01   -2.585E+01   -2.572E+01   -2.559E+01   -2.546E+01   -2.533E+01
    -2.520E+01   -2.507E+01   -2.494E+01   -2.481E+01   -2.469E+01   -2.456E+01   -2.443E+01   -2.431E+01   -2.419E+01   -2.406E+01
    -2.394E+01   -2.382E+01   -2.369E+01   -2.357E+01   -2.345E+01   -2.333E+01   -2.321E+01   -2.309E+01   -2.298E+01   -2.286E+01
    -2.274E+01   -2.263E+01   -2.251E+01   -2.240E+01   -2.229E+01   -2.217E+01   -2.206E+01   -2.195E+01   -2.184E+01   -2.173E+01
    -2.163E+01   -2.152E+01   -2.141E+01   -2.131E+01   -2.120E+01   -2.110E+01   -2.100E+01   -2.090E+01   -2.080E+01   -2.070E+01
    -2.060E+01   -2.050E+01   -2.041E+01   -2.031E+01   -2.022E+01   -2.012E+01   -2.003E+01   -1.994E+01   -1.985E+01   -1.976E+01
    -1.968E+01   -1.959E+01   -1.950E+01   -1.942E+01   -1.934E+01   -1.926E+01   -1.918E+01   -1.910E+01   -1.902E+01   -1.894E+01
    -1.887E+01   -1.879E+01   -1.872E+01   -1.865E+01   -1.858E+01   -1.851E+01   -1.845E+01   -1.838E+01   -1.831E+01   -1.825E+01
    -1.819E+01   -1.813E+01   -1.806E+01   -1.801E+01   -1.795E+01   -1.789E+01   -1.783E+01   -1.778E+01   -1.772E+01   -1.767E+01
    -1.762E+01   -1.757E+01   -1.752E+01   -1.747E+01   -1.742E+01   -1.737E+01   -1.732E+01   -1.728E+01   -1.723E+01   -1.719E+01
    -1.714E+01   -1.710E+01   -1.706E+01   -1.701E+01   -1.697E+01   -1.693E+01   -1.689E+01   -1.685E+01   -1.682E+01   -1.678E+01
    -1.674E+01   -1.670E+01   -1.667E+01   -1.663E+01   -1.660E+01   -1.656E+01   -1.653E+01   -1.649E+01   -1.646E+01   -1.643E+01
    -1.640E+01   -1.636E+01   -1.633E+01   -1.630E+01   -1.626E+01   -1.623E+01   -1.620E+01   -1.616E+01   -1.613E+01   -1.610E+01
    -1.606E+01   -1.602E+01   -1.599E+01   -1.595E+01   -1.591E+01   -1.587E+01   -1.583E+01   -1.579E+01   -1.575E+01   -1.570E+01
    -1.566E+01   -1.561E+01   -1.556E+01   -1.551E+01   -1.546E+01   -1.541E+01   -1.535E+01   -1.529E+01   -1.524E+01   -1.517E+01
    -1.511E+01   -1.504E+01   -1.498E+01   -1.491E+01   -1.483E+01   -1.476E+01   -1.468E+01   -1.460E+01   -1.452E+01   -1.443E+01
    -1.434E+01   -1.425E+01   -1.415E+01   -1.406E+01   -1.395E+01   -1.385E+01   -1.375E+01   -1.364E+01   -1.353E+01   -1.341E+01
    -1.330E+01   -1.318E+01   -1.306E+01   -1.294E+01   -1.282E+01   -1.270E+01   -1.257E+01   -1.245E+01   -1.232E+01   -1.219E+01
    -1.206E+01   -1.194E+01   -1.181E+01   -1.168E+01   -1.155E+01   -1.141E+01   -1.128E+01   -1.115E+01   -1.102E+01   -1.089E+01
    -1.076E+01   -1.064E+01   -1.051E+01   -1.038E+01   -1.025E+01   -1.013E+01   -1.000E+01   -9.882E+00   -9.761E+00   -9.642E+00
    -9.524E+00   -9.408E+00   -9.293E+00   -9.181E+00   -9.072E+00   -8.964E+00   -8.859E+00   -8.757E+00   -8.657E+00   -8.559E+00
    -8.464E+00   -8.372E+00   -8.282E+00   -8.194E+00   -8.108E+00   -8.025E+00   -7.944E+00   -7.866E+00   -7.789E+00   -7.715E+00
    -7.643E+00   -7.573E+00   -7.505E+00   -7.439E+00   -7.375E+00   -7.313E+00   -7.252E+00   -7.194E+00   -7.138E+00   -7.083E+00
    -7.030E+00   -6.979E+00   -6.930E+00   -6.882E+00   -6.836E+00   -6.792E+00   -6.749E+00   -6.708E+00   -6.668E+00   -6.629E+00
    -6.593E+00   -6.557E+00   -6.523E+00   -6.490E+00   -6.459E+00   -6.429E+00   -6.400E+00   -6.372E+00   -6.345E+00   -6.320E+00
    -6.296E+00   -6.272E+00   -6.250E+00   -6.229E+00   -6.208E+00   -6.189E+00   -6.170E+00   -6.152E+00   -6.135E+00   -6.119E+00
    -6.103E+00   -6.088E+00   -6.073E+00   -6.058E+00   -6.044E+00   -6.031E+00   -6.017E+00   -6.004E+00   -5.991E+00   -5.979E+00
    -5.966E+00   -5.953E+00   -5.941E+00   -5.928E+00   -5.915E+00   -5.902E+00   -5.889E+00   -5.875E+00   -5.861E+00   -5.847E+00
    -5.832E+00   -5.817E+00   -5.801E+00   -5.785E+00   -5.768E+00   -5.750E+00   -5.732E+00   -5.713E+00   -5.692E+00   -5.671E+00
    -5.649E+00   -5.626E+00   -5.602E+00   -5.577E+00   -5.550E+00   -5.523E+00   -5.494E+00   -5.464E+00   -5.432E+00   -5.399E+00
    -5.365E+00   -5.329E+00   -5.292E+00   -5.255E+00   -5.215E+00   -5.175E+00   -5.133E+00   -5.091E+00   -5.047E+00   -5.002E+00
    -4.956E+00   -4.909E+00   -4.861E+00   -4.812E+00   -4.762E+00   -4.711E+00   -4.659E+00   -4.606E+00   -4.552E+00   -4.497E+00
    -4.442E+00   -4.385E+00   -4.328E+00   -4.270E+00   -4.211E+00   -4.151E+00   -4.091E+00   -4.030E+00   -3.968E+00   -3.906E+00
    -3.843E+00   -3.779E+00   -3.714E+00   -3.650E+00   -3.584E+00   -3.518E+00   -3.451E+00   -3.384E+00   -3.317E+00   -3.249E+00
    -3.180E+00   -3.111E+00   -3.042E+00   -2.972E+00   -2.902E+00   -2.832E+00   -2.761E+00   -2.690E+00   -2.619E+00   -2.547E+00
    -2.475E+00   -2.403E+00   -2.331E+00   -2.258E+00   -2.185E+00   -2.111E+00   -2.038E+00   -1.964E+00   -1.890E+00   -1.816E+00
    -1.742E+00   -1.668E+00   -1.593E+00   -1.519E+00   -1.444E+00   -1.369E+00   -1.294E+00   -1.219E+00   -1.144E+00   -1.069E+00
    -9.934E-01   -9.181E-01   -8.428E-01   -7.675E-01   -6.922E-01   -6.169E-01   -5.417E-01   -4.665E-01   -3.913E-01   -3.162E-01
    -2.412E-01   -1.663E-01   -9.149E-02   -1.679E-02    5.778E-02    1.322E-01    2.065E-01    2.806E-01    3.545E-01    4.283E-01
     5.018E-01    5.752E-01    6.484E-01    7.213E-01    7.940E-01    8.665E-01    9.387E-01    1.011E+00    1.082E+00    1.154E+00
     1.225E+00    1.296E+00    1.367E+00    1.437E+00    1.507E+00    1.577E+00    1.646E+00    1.715E+00    1.784E+00    1.853E+00
     1.921E+00    1.988E+00    2.056E+00    2.123E+00    2.189E+00    2.256E+00    2.321E+00    2.387E+00    2.452E+00    2.516E+00
     2.581E+00    2.644E+00    2.708E+00    2.770E+00    2.833E+00    2.895E+00    2.956E+00    3.017E+00    3.078E+00    3.137E+00
     3.197E+00    3.256E+00    3.314E+00    3.372E+00    3.430E+00    3.487E+00    3.543E+00    3.599E+00    3.654E+00    3.709E+00
     3.764E+00    3.818E+00    3.872E+00    3.925E+00    3.978E+00    4.031E+00    4.083E+00    4.135E+00    4.187E+00    4.238E+00
     4.289E+00    4.340E+00    4.391E+00    4.441E+00    4.491E+00    4.541E+00    4.590E+00    4.640E+00    4.689E+00    4.738E+00
     4.787E+00    4.836E+00    4.884E+00    4.933E+00    4.981E+00    5.029E+00    5.078E+00    5.126E+00    5.174E+00    5.222E+00
     5.270E+00    5.318E+00    5.366E+00    5.414E+00    5.462E+00    5.510E+00    5.558E+00    5.607E+00
 Cr       Conc. = 7.37E+02
