 LCModel (Version 6.3-1L) Copyright: S.W. Provencher.          Ref.: Magn. Reson. Med. 30:672-679 (1993).                
 Slice#3 Row#10 Col#8  PD_24_press_2_raw_act
 36 lines in following concentration table = NCONC+1
    Conc.  %SD /Cr+PCr  Metabolite                                         
    0.000 999%   0.000 Ala                                                 
    6.701 999% 4.8E-03 Asp                                                 
  274.519  62%   0.199 Cr                                                  
 1.11E+03  16%   0.801 PCr                                                 
    0.000 999%   0.000 GABA                                                
   83.998 138% 6.1E-02 Glc                                                 
  208.333  72%   0.151 Gln                                                 
 1.13E+03  15%   0.817 Glu                                                 
  393.261   4%   0.284 GPC                                                 
    0.000 999%   0.000 PCh                                                 
  236.327  22%   0.171 GSH                                                 
 1.18E+03  16%   0.853 Ins                                                 
  178.022  49%   0.129 Lac                                                 
 1.83E+03   4%   1.325 NAA                                                 
   63.042 127% 4.6E-02 NAAG                                                
   96.229  21% 7.0E-02 Scyllo                                              
   68.242 234% 4.9E-02 Tau                                                 
  260.410  33%   0.188 -CrCH2                                              
  393.261   4%   0.284 GPC+PCh                                             
 1.89E+03   3%   1.371 NAA+NAAG                                            
 1.38E+03   3%   1.000 Cr+PCr                                              
 1.34E+03  17%   0.968 Glu+Gln                                             
  317.906 297%   0.230 Lip13a                                              
  606.319 130%   0.439 Lip13b                                              
    0.000 999%   0.000 Lip09                                               
  918.994  15%   0.665 MM09                                                
  194.690  59%   0.141 Lip20                                               
 2.06E+03  12%   1.492 MM20                                                
  285.334  28%   0.206 MM12                                                
  560.650  39%   0.406 MM14                                                
    0.000 999%   0.000 MM17                                                
  924.225  31%   0.669 Lip13a+Lip13b                                       
 1.77E+03  16%   1.280 MM14+Lip13a+Lip13b+MM12                             
  918.994  15%   0.665 MM09+Lip09                                          
 2.26E+03  11%   1.633 MM20+Lip20                                          
   6 lines in following misc. output table
  FWHM = 0.046 ppm    S/N =  13                                            
  Data shift = 0.031 ppm                                                   
  Ph: -35 deg      -6.3 deg/ppm                                            
  alphaB,S = 9.2E-01,   1.0E+02                                            
   14 spline knots.   Ns = 6(1)                                            
  (13) 4 infls.   ( 7) 1 extrs.                                            
  498 points on ppm-axis = NY
      4.000000     3.992357     3.984714     3.977070     3.969427     3.961784     3.954141     3.946497     3.938854     3.931211
      3.923568     3.915925     3.908281     3.900638     3.892995     3.885352     3.877708     3.870065     3.862422     3.854779
      3.847136     3.839492     3.831849     3.824206     3.816563     3.808919     3.801276     3.793633     3.785990     3.778347
      3.770703     3.763060     3.755417     3.747774     3.740130     3.732487     3.724844     3.717201     3.709558     3.701914
      3.694271     3.686628     3.678985     3.671341     3.663698     3.656055     3.648412     3.640769     3.633125     3.625482
      3.617839     3.610196     3.602552     3.594909     3.587266     3.579623     3.571980     3.564336     3.556693     3.549050
      3.541407     3.533763     3.526120     3.518477     3.510834     3.503191     3.495547     3.487904     3.480261     3.472618
      3.464974     3.457331     3.449688     3.442045     3.434402     3.426758     3.419115     3.411472     3.403829     3.396185
      3.388542     3.380899     3.373256     3.365613     3.357969     3.350326     3.342683     3.335040     3.327396     3.319753
      3.312110     3.304467     3.296824     3.289180     3.281537     3.273894     3.266251     3.258607     3.250964     3.243321
      3.235678     3.228034     3.220391     3.212748     3.205105     3.197462     3.189818     3.182175     3.174532     3.166889
      3.159245     3.151602     3.143959     3.136316     3.128673     3.121029     3.113386     3.105743     3.098100     3.090456
      3.082813     3.075170     3.067527     3.059884     3.052240     3.044597     3.036954     3.029311     3.021667     3.014024
      3.006381     2.998738     2.991095     2.983451     2.975808     2.968165     2.960522     2.952878     2.945235     2.937592
      2.929949     2.922306     2.914662     2.907019     2.899376     2.891733     2.884089     2.876446     2.868803     2.861160
      2.853517     2.845873     2.838230     2.830587     2.822944     2.815300     2.807657     2.800014     2.792371     2.784728
      2.777084     2.769441     2.761798     2.754155     2.746511     2.738868     2.731225     2.723582     2.715939     2.708295
      2.700652     2.693009     2.685366     2.677722     2.670079     2.662436     2.654793     2.647150     2.639506     2.631863
      2.624220     2.616577     2.608933     2.601290     2.593647     2.586004     2.578361     2.570717     2.563074     2.555431
      2.547788     2.540144     2.532501     2.524858     2.517215     2.509572     2.501928     2.494285     2.486642     2.478999
      2.471355     2.463712     2.456069     2.448426     2.440783     2.433139     2.425496     2.417853     2.410210     2.402566
      2.394923     2.387280     2.379637     2.371994     2.364350     2.356707     2.349064     2.341421     2.333777     2.326134
      2.318491     2.310848     2.303205     2.295561     2.287918     2.280275     2.272632     2.264988     2.257345     2.249702
      2.242059     2.234416     2.226772     2.219129     2.211486     2.203843     2.196199     2.188556     2.180913     2.173270
      2.165627     2.157983     2.150340     2.142697     2.135054     2.127410     2.119767     2.112124     2.104481     2.096838
      2.089194     2.081551     2.073908     2.066265     2.058621     2.050978     2.043335     2.035692     2.028049     2.020405
      2.012762     2.005119     1.997476     1.989833     1.982190     1.974546     1.966903     1.959260     1.951617     1.943974
      1.936331     1.928688     1.921045     1.913402     1.905759     1.898115     1.890472     1.882829     1.875186     1.867543
      1.859900     1.852257     1.844614     1.836971     1.829327     1.821684     1.814041     1.806398     1.798755     1.791112
      1.783469     1.775826     1.768183     1.760540     1.752896     1.745253     1.737610     1.729967     1.722324     1.714681
      1.707038     1.699395     1.691752     1.684108     1.676465     1.668822     1.661179     1.653536     1.645893     1.638250
      1.630607     1.622964     1.615321     1.607677     1.600034     1.592391     1.584748     1.577105     1.569462     1.561819
      1.554176     1.546533     1.538890     1.531246     1.523603     1.515960     1.508317     1.500674     1.493031     1.485388
      1.477745     1.470102     1.462458     1.454815     1.447172     1.439529     1.431886     1.424243     1.416600     1.408957
      1.401314     1.393671     1.386027     1.378384     1.370741     1.363098     1.355455     1.347812     1.340169     1.332526
      1.324883     1.317240     1.309596     1.301953     1.294310     1.286667     1.279024     1.271381     1.263738     1.256095
      1.248452     1.240808     1.233165     1.225522     1.217879     1.210236     1.202593     1.194950     1.187307     1.179664
      1.172021     1.164377     1.156734     1.149091     1.141448     1.133805     1.126162     1.118519     1.110876     1.103233
      1.095590     1.087946     1.080303     1.072660     1.065017     1.057374     1.049731     1.042088     1.034445     1.026802
      1.019158     1.011515     1.003872     0.996229     0.988586     0.980943     0.973300     0.965657     0.958014     0.950371
      0.942727     0.935084     0.927441     0.919798     0.912155     0.904512     0.896869     0.889226     0.881583     0.873940
      0.866296     0.858653     0.851010     0.843367     0.835724     0.828081     0.820438     0.812795     0.805152     0.797508
      0.789865     0.782222     0.774579     0.766936     0.759293     0.751650     0.744007     0.736364     0.728721     0.721077
      0.713434     0.705791     0.698148     0.690505     0.682862     0.675219     0.667576     0.659933     0.652290     0.644646
      0.637003     0.629360     0.621717     0.614074     0.606431     0.598788     0.591145     0.583502     0.575858     0.568215
      0.560572     0.552929     0.545286     0.537643     0.530000     0.522357     0.514714     0.507071     0.499427     0.491784
      0.484141     0.476498     0.468855     0.461212     0.453569     0.445925     0.438282     0.430639     0.422996     0.415353
      0.407710     0.400067     0.392424     0.384780     0.377137     0.369494     0.361851     0.354208     0.346565     0.338922
      0.331278     0.323635     0.315992     0.308349     0.300706     0.293063     0.285420     0.277777     0.270133     0.262490
      0.254847     0.247204     0.239561     0.231918     0.224275     0.216631     0.208988     0.201345
 NY phased data points follow
  -4.84594E+01 -4.51455E+01 -4.27495E+01 -3.90477E+01 -3.55944E+01 -3.27132E+01 -3.05115E+01 -2.31561E+01 -1.79626E+01 -1.27008E+01
  -1.17715E+01 -1.31158E+01 -1.15438E+01 -2.31893E+01 -2.56189E+01 -2.86362E+01 -3.12566E+01 -3.73748E+01 -3.81553E+01 -4.21280E+01
  -3.68494E+01 -3.86912E+01 -3.64496E+01 -3.43814E+01 -3.19799E+01 -3.52818E+01 -2.91537E+01 -3.37170E+01 -2.96699E+01 -2.94568E+01
  -2.96385E+01 -2.73778E+01 -2.71973E+01 -2.69435E+01 -2.35148E+01 -3.26867E+01 -3.44035E+01 -3.08270E+01 -3.02283E+01 -3.09039E+01
  -2.74378E+01 -2.99189E+01 -2.53939E+01 -2.80843E+01 -2.61874E+01 -2.33768E+01 -1.89693E+01 -1.75255E+01 -1.95346E+01 -2.26184E+01
  -2.63088E+01 -2.46843E+01 -2.89985E+01 -2.30317E+01 -2.53949E+01 -2.26342E+01 -2.27698E+01 -1.94295E+01 -2.21132E+01 -2.32542E+01
  -2.61894E+01 -2.70803E+01 -2.75567E+01 -3.15481E+01 -2.82080E+01 -2.97808E+01 -2.69008E+01 -2.72717E+01 -2.48666E+01 -3.32609E+01
  -2.55754E+01 -2.78207E+01 -2.06067E+01 -2.55418E+01 -2.69462E+01 -2.56785E+01 -2.41077E+01 -2.67555E+01 -2.61881E+01 -2.92662E+01
  -2.25275E+01 -2.56253E+01 -2.13188E+01 -2.15039E+01 -1.98766E+01 -2.05184E+01 -2.27974E+01 -2.07105E+01 -2.01638E+01 -2.13239E+01
  -2.33296E+01 -2.19456E+01 -2.34475E+01 -1.93623E+01 -1.66598E+01 -2.02964E+01 -1.97161E+01 -2.01372E+01 -1.63309E+01 -9.24582E+00
  -4.52482E+00  9.06447E+00  1.32808E+01  1.92753E+01  1.50101E+01  8.09030E+00 -3.75415E-01 -7.79498E+00 -9.44490E+00 -1.17073E+01
  -1.48392E+01 -2.03090E+01 -1.58936E+01 -1.37514E+01 -1.81898E+01 -1.93975E+01 -1.50260E+01 -1.70883E+01 -1.76056E+01 -1.82776E+01
  -1.44516E+01 -1.51766E+01 -9.30629E+00 -2.39740E+00  6.27347E+00  1.57431E+01  2.44933E+01  3.13214E+01  2.80019E+01  2.24672E+01
   1.64454E+01 -7.78096E-01 -1.91253E-01 -4.54356E+00 -8.26807E+00 -1.18261E+01 -1.70047E+01 -1.39437E+01 -1.67904E+01 -1.70212E+01
  -1.59172E+01 -1.67851E+01 -2.14153E+01 -1.61053E+01 -1.59959E+01 -1.80213E+01 -1.73480E+01 -1.89630E+01 -1.55587E+01 -1.55146E+01
  -1.83347E+01 -1.99687E+01 -1.48210E+01 -1.88877E+01 -1.44098E+01 -1.93538E+01 -1.95576E+01 -1.71109E+01 -1.51441E+01 -1.71459E+01
  -1.55154E+01 -1.90101E+01 -2.13566E+01 -1.84046E+01 -1.82180E+01 -1.29636E+01 -1.10139E+01 -1.78999E+01 -1.74853E+01 -1.79332E+01
  -1.99506E+01 -1.97612E+01 -1.81569E+01 -1.70661E+01 -2.29165E+01 -2.40423E+01 -2.19270E+01 -2.24979E+01 -2.42116E+01 -1.89393E+01
  -2.33172E+01 -2.37369E+01 -2.17890E+01 -2.15660E+01 -1.89943E+01 -2.10056E+01 -2.14298E+01 -1.95527E+01 -1.68998E+01 -1.46811E+01
  -1.32417E+01 -7.32506E+00 -7.84231E+00 -8.85503E+00 -5.31312E+00 -1.03155E+01 -8.65165E+00 -1.27308E+01 -9.61285E+00 -1.44464E+01
  -9.66951E+00 -1.09303E+01 -1.20958E+01 -1.26138E+01 -1.04995E+01 -9.40479E+00 -1.18262E+01 -1.02516E+01 -2.08235E+01 -1.30693E+01
  -1.72978E+01 -1.57723E+01 -1.24265E+01 -8.44062E+00 -6.37969E+00 -6.67002E+00 -5.28739E+00 -1.36516E+00 -5.30865E+00 -9.35573E+00
  -1.16954E+01 -1.30204E+01 -1.39156E+01 -1.42567E+01 -1.20502E+01 -1.26683E+01 -6.76864E+00 -4.42587E+00 -3.27642E+00 -3.54365E+00
  -4.93827E+00 -4.57670E+00 -3.89283E+00 -3.89840E+00 -8.72636E-01 -2.85989E+00 -2.70613E+00 -6.11875E+00 -3.22081E+00 -4.48406E+00
  -6.78796E+00 -7.90516E+00 -6.32309E+00 -7.66502E+00 -3.09081E+00 -3.05845E+00 -3.86114E+00  2.04805E+00  4.11903E+00  1.25112E+00
   1.70198E+00  1.73930E-01  1.72875E+00  4.19447E+00  6.92750E+00  7.91670E+00  1.77301E+01  2.47378E+01  4.16658E+01  5.56973E+01
   6.30596E+01  6.60984E+01  5.10947E+01  4.37124E+01  2.87540E+01  1.92296E+01  1.15297E+01  6.74255E+00  1.42257E+00 -1.33976E+00
  -6.80359E-01 -2.43489E+00 -3.56101E+00 -3.96806E+00 -4.21113E+00 -4.58715E+00 -8.14048E+00 -3.81641E+00 -4.90727E+00 -5.97786E+00
  -5.19654E+00 -7.20140E+00 -4.88479E+00 -8.38892E+00 -9.38659E+00 -9.14092E+00 -4.79583E+00 -9.19727E+00 -5.90149E+00 -2.39198E+00
  -5.42490E+00 -5.72431E+00 -7.08989E+00 -5.51632E+00 -8.11344E+00 -4.92821E+00 -5.50938E+00 -8.64970E+00 -1.00213E+01 -8.10750E+00
  -6.61275E+00 -8.60624E+00 -9.07749E+00 -6.45057E+00 -1.21491E+01 -9.59485E+00 -7.13665E+00 -7.80650E+00 -9.54608E+00 -9.55902E+00
  -3.12956E+00 -7.59568E+00 -8.24051E+00 -8.91132E+00 -1.02109E+01 -8.12073E+00 -1.16154E+01 -5.11414E+00 -6.65804E+00 -7.25238E+00
  -6.56806E+00 -5.98948E+00 -1.22326E+01 -5.62732E+00 -7.82498E+00 -7.13426E+00 -4.98082E+00 -6.52290E+00 -7.27043E+00 -7.15775E+00
  -5.59035E+00 -2.54846E+00 -6.38877E+00 -3.83050E+00 -1.48545E+00 -2.30974E+00  2.54604E-01 -5.21460E-01 -3.73076E+00 -2.39456E+00
  -3.92645E+00 -3.21893E+00 -2.11896E+00  2.80343E-01  2.72143E+00 -3.15574E+00  8.65485E-01 -5.17315E-01 -1.27812E+00  3.32537E+00
  -2.89252E-01 -1.42835E+00  1.26345E+00 -2.20122E+00  4.63829E-01  1.75028E+00  8.03209E-01  2.98104E+00  5.60233E+00  3.80265E+00
   2.12918E+00  4.15794E+00  4.66164E+00 -1.32700E-01 -2.13345E+00 -7.44621E-01  2.24627E+00  2.80583E-02 -2.69890E+00 -1.06953E+00
  -5.39863E+00 -2.52017E+00 -3.90718E+00 -1.60018E+00 -2.40331E+00 -3.87906E+00 -4.08871E+00 -6.90990E-01 -4.05901E+00 -7.85227E-01
  -2.35475E+00 -5.37724E+00 -4.24366E+00 -1.46065E+00 -4.93774E+00 -7.44340E+00 -2.29603E+00 -2.72530E+00 -3.16432E+00 -4.82615E+00
  -2.18563E+00 -5.05868E+00 -6.20471E-01 -2.02638E+00 -2.30700E+00 -1.93163E+00 -3.60511E-01 -2.72275E+00 -2.88156E+00  2.13845E+00
  -1.14706E+00  2.50980E+00  1.58960E+00  2.78295E+00  6.08698E-01  3.55669E+00  2.11929E+00  4.43708E+00 -1.94251E+00  2.43120E+00
  -9.70467E-01 -2.16733E+00  9.66593E-01 -3.96826E-02  1.96405E+00  2.39314E+00 -1.72822E+00 -9.96347E-01 -3.44568E-02 -4.20597E+00
  -5.31206E-01 -3.85564E+00 -1.49277E+00 -2.86393E+00 -6.55484E+00 -1.53812E+00  5.38500E-01  3.22669E-01 -2.87770E+00 -2.95132E+00
  -2.52734E+00 -4.87007E+00 -4.09553E+00 -2.43663E+00 -2.34581E+00 -3.10105E+00 -1.14024E+00  1.20616E+00 -8.71846E-01 -2.38749E+00
  -3.18046E+00 -5.28910E+00 -1.87505E+00 -2.09406E+00 -3.90375E-01 -1.96742E+00  8.51692E-01 -2.73247E-01  5.35028E-01 -2.93536E+00
   3.16182E-01  4.98460E-01 -3.26434E+00  1.10549E+00 -3.03965E+00 -3.55009E+00 -2.06514E+00 -9.04423E-01 -5.66732E-01 -6.36179E+00
  -3.50612E+00 -2.94606E+00 -3.26891E+00 -3.28951E+00 -1.35620E-01 -1.52217E+00 -5.66213E+00 -1.62469E+00  1.84346E+00 -1.44753E+00
  -2.57733E+00 -2.47397E+00 -1.72908E-01 -1.84950E+00 -1.40526E+00 -3.59035E+00 -2.48286E+00 -1.25377E+00 -4.14375E+00  1.49461E+00
  -5.13841E+00 -1.91267E+00  9.33082E-01 -2.68620E+00 -6.74343E-01 -1.11525E+00  2.77961E+00 -2.46701E+00 -3.19947E+00  1.61373E-01
  -1.61943E+00 -3.73071E+00 -8.32528E-01 -4.04868E+00 -2.92014E-01 -1.06835E+00 -4.20208E-01 -4.77365E+00
 NY points of the fit to the data follow
  -4.04541E+01 -4.03101E+01 -3.99590E+01 -3.90383E+01 -3.69077E+01 -3.35846E+01 -2.90537E+01 -2.34015E+01 -1.74738E+01 -1.28566E+01
  -1.10607E+01 -1.25654E+01 -1.65255E+01 -2.13613E+01 -2.54935E+01 -2.84678E+01 -3.10285E+01 -3.33281E+01 -3.45087E+01 -3.49458E+01
  -3.50248E+01 -3.49596E+01 -3.48911E+01 -3.48500E+01 -3.46450E+01 -3.42111E+01 -3.35436E+01 -3.25024E+01 -3.10441E+01 -2.93496E+01
  -2.77866E+01 -2.66653E+01 -2.62072E+01 -2.64961E+01 -2.72956E+01 -2.83361E+01 -2.96632E+01 -3.10841E+01 -3.19875E+01 -3.22179E+01
  -3.17867E+01 -3.06270E+01 -2.88927E+01 -2.67797E+01 -2.44983E+01 -2.23341E+01 -2.09265E+01 -2.08695E+01 -2.20964E+01 -2.40964E+01
  -2.61533E+01 -2.76410E+01 -2.84825E+01 -2.89877E+01 -2.91382E+01 -2.86555E+01 -2.77097E+01 -2.66962E+01 -2.58451E+01 -2.53464E+01
  -2.53336E+01 -2.57856E+01 -2.65122E+01 -2.71559E+01 -2.74740E+01 -2.74375E+01 -2.71056E+01 -2.65577E+01 -2.59199E+01 -2.52462E+01
  -2.46428E+01 -2.41974E+01 -2.39455E+01 -2.38726E+01 -2.39131E+01 -2.39877E+01 -2.40662E+01 -2.41492E+01 -2.42633E+01 -2.42879E+01
  -2.40711E+01 -2.35743E+01 -2.29293E+01 -2.21530E+01 -2.13238E+01 -2.07241E+01 -2.06184E+01 -2.10486E+01 -2.17951E+01 -2.24934E+01
  -2.28487E+01 -2.28248E+01 -2.26728E+01 -2.26379E+01 -2.26038E+01 -2.23724E+01 -2.17875E+01 -1.97289E+01 -1.57061E+01 -9.73278E+00
  -1.74526E+00  7.14108E+00  1.43702E+01  1.73898E+01  1.52195E+01  9.02409E+00  1.29437E+00 -5.45138E+00 -1.02473E+01 -1.41208E+01
  -1.77929E+01 -1.98155E+01 -2.02465E+01 -2.02635E+01 -2.01739E+01 -2.00392E+01 -1.98634E+01 -1.96429E+01 -1.93505E+01 -1.89026E+01
  -1.79891E+01 -1.55142E+01 -1.06690E+01 -3.62001E+00  5.69971E+00  1.63730E+01  2.57164E+01  3.05655E+01  2.92360E+01  2.26115E+01
   1.34814E+01  4.89608E+00 -1.53277E+00 -6.68801E+00 -1.18170E+01 -1.55974E+01 -1.70382E+01 -1.74921E+01 -1.74472E+01 -1.71043E+01
  -1.66876E+01 -1.63365E+01 -1.60935E+01 -1.60118E+01 -1.60652E+01 -1.61779E+01 -1.63083E+01 -1.64340E+01 -1.65460E+01 -1.66564E+01
  -1.67282E+01 -1.67747E+01 -1.67971E+01 -1.67806E+01 -1.67213E+01 -1.66733E+01 -1.66898E+01 -1.67884E+01 -1.69981E+01 -1.72710E+01
  -1.74933E+01 -1.75394E+01 -1.73215E+01 -1.69242E+01 -1.65697E+01 -1.64762E+01 -1.67089E+01 -1.71079E+01 -1.74579E+01 -1.77234E+01
  -1.79739E+01 -1.82814E+01 -1.86361E+01 -1.89377E+01 -1.91412E+01 -1.92385E+01 -1.91423E+01 -1.88355E+01 -1.84620E+01 -1.82044E+01
  -1.81172E+01 -1.81406E+01 -1.81175E+01 -1.79299E+01 -1.76767E+01 -1.74224E+01 -1.69374E+01 -1.60439E+01 -1.47753E+01 -1.34339E+01
  -1.23727E+01 -1.17224E+01 -1.15072E+01 -1.15835E+01 -1.17683E+01 -1.20343E+01 -1.23412E+01 -1.25164E+01 -1.24470E+01 -1.20801E+01
  -1.14253E+01 -1.05635E+01 -9.70307E+00 -9.05779E+00 -8.85695E+00 -9.17237E+00 -1.00212E+01 -1.12862E+01 -1.26297E+01 -1.36585E+01
  -1.40875E+01 -1.37224E+01 -1.25372E+01 -1.06327E+01 -8.37546E+00 -6.43337E+00 -5.54752E+00 -6.11226E+00 -8.06003E+00 -1.06967E+01
  -1.32516E+01 -1.51687E+01 -1.60369E+01 -1.56419E+01 -1.39984E+01 -1.15193E+01 -9.13747E+00 -7.38302E+00 -6.33875E+00 -5.78380E+00
  -5.55996E+00 -5.62312E+00 -5.71041E+00 -5.51545E+00 -5.04450E+00 -4.46460E+00 -3.95390E+00 -3.70769E+00 -3.77883E+00 -4.12242E+00
  -4.62637E+00 -5.02701E+00 -5.02897E+00 -4.52870E+00 -3.66162E+00 -2.62792E+00 -1.65553E+00 -9.63853E-01 -6.13487E-01 -4.80296E-01
  -2.82016E-01  1.01162E-01  7.66965E-01  1.95660E+00  4.65960E+00  1.01874E+01  1.81888E+01  2.88891E+01  4.20180E+01  5.48221E+01
   6.29370E+01  6.31637E+01  5.54634E+01  4.30059E+01  3.01268E+01  2.00690E+01  1.26200E+01  5.60491E+00 -3.18365E-01 -2.81219E+00
  -3.79299E+00 -4.38106E+00 -4.73384E+00 -4.90055E+00 -5.01731E+00 -5.14636E+00 -5.31545E+00 -5.53461E+00 -5.78191E+00 -6.02494E+00
  -6.25795E+00 -6.47896E+00 -6.66559E+00 -6.80697E+00 -6.91783E+00 -7.01734E+00 -7.11273E+00 -7.19934E+00 -7.27261E+00 -7.33858E+00
  -7.39572E+00 -7.43934E+00 -7.47061E+00 -7.49477E+00 -7.51478E+00 -7.53127E+00 -7.54403E+00 -7.55357E+00 -7.55903E+00 -7.55941E+00
  -7.55332E+00 -7.54060E+00 -7.52198E+00 -7.49909E+00 -7.47341E+00 -7.44527E+00 -7.41444E+00 -7.38091E+00 -7.34351E+00 -7.30141E+00
  -7.25461E+00 -7.20273E+00 -7.14471E+00 -7.07987E+00 -7.00772E+00 -6.92790E+00 -6.83999E+00 -6.74339E+00 -6.63746E+00 -6.52167E+00
  -6.39578E+00 -6.25977E+00 -6.11374E+00 -5.95774E+00 -5.79199E+00 -5.61698E+00 -5.43362E+00 -5.24302E+00 -5.04633E+00 -4.84459E+00
  -4.63898E+00 -4.43072E+00 -4.22104E+00 -4.01077E+00 -3.80007E+00 -3.58826E+00 -3.37362E+00 -3.15295E+00 -2.92052E+00 -2.66588E+00
  -2.36835E+00 -1.98195E+00 -1.47980E+00 -9.33629E-01 -3.85354E-01  8.31114E-02  3.12984E-01  1.79415E-01 -2.96041E-01 -8.84379E-01
  -1.25647E+00 -1.22943E+00 -7.30717E-01  1.56595E-01  1.24186E+00  2.36872E+00  3.33618E+00  3.82223E+00  3.78995E+00  3.39092E+00
   2.83214E+00  2.20610E+00  1.46597E+00  6.70243E-01 -1.88768E-02 -6.14106E-01 -1.13526E+00 -1.58814E+00 -1.97711E+00 -2.30751E+00
  -2.58576E+00 -2.81857E+00 -3.01230E+00 -3.17236E+00 -3.30305E+00 -3.40755E+00 -3.48818E+00 -3.54644E+00 -3.58317E+00 -3.59856E+00
  -3.59246E+00 -3.56443E+00 -3.51399E+00 -3.44050E+00 -3.34328E+00 -3.22157E+00 -3.07477E+00 -2.90250E+00 -2.70477E+00 -2.48195E+00
  -2.23483E+00 -1.96478E+00 -1.67392E+00 -1.36521E+00 -1.04248E+00 -7.10280E-01 -3.73941E-01 -3.94140E-02  2.86691E-01  5.97436E-01
   8.85758E-01  1.14492E+00  1.36866E+00  1.55150E+00  1.68892E+00  1.77766E+00  1.81591E+00  1.80348E+00  1.74167E+00  1.63321E+00
   1.48202E+00  1.29320E+00  1.07265E+00  8.26940E-01  5.62798E-01  2.86896E-01  5.50981E-03 -2.75492E-01 -5.50924E-01 -8.16315E-01
  -1.06816E+00 -1.30380E+00 -1.52147E+00 -1.72001E+00 -1.89896E+00 -2.05835E+00 -2.19879E+00 -2.32121E+00 -2.42679E+00 -2.51672E+00
  -2.59234E+00 -2.65495E+00 -2.70595E+00 -2.74663E+00 -2.77820E+00 -2.80164E+00 -2.81793E+00 -2.82790E+00 -2.83242E+00 -2.83218E+00
  -2.82776E+00 -2.81960E+00 -2.80816E+00 -2.79384E+00 -2.77708E+00 -2.75815E+00 -2.73729E+00 -2.71467E+00 -2.69052E+00 -2.66503E+00
  -2.63845E+00 -2.61084E+00 -2.58233E+00 -2.55295E+00 -2.52285E+00 -2.49212E+00 -2.46089E+00 -2.42912E+00 -2.39686E+00 -2.36413E+00
  -2.33105E+00 -2.29765E+00 -2.26400E+00 -2.23002E+00 -2.19577E+00 -2.16124E+00 -2.12655E+00 -2.09169E+00 -2.05669E+00 -2.02147E+00
  -1.98608E+00 -1.95054E+00 -1.91493E+00 -1.87921E+00 -1.84338E+00 -1.80738E+00 -1.77128E+00 -1.73508E+00 -1.69886E+00 -1.66255E+00
  -1.62615E+00 -1.58960E+00 -1.55298E+00 -1.51631E+00 -1.47961E+00 -1.44281E+00 -1.40591E+00 -1.36887E+00 -1.33179E+00 -1.29465E+00
  -1.25747E+00 -1.22015E+00 -1.18272E+00 -1.14515E+00 -1.10754E+00 -1.06984E+00 -1.03205E+00 -9.94070E-01
 NY background values follow
    -4.349E+01   -4.326E+01   -4.304E+01   -4.282E+01   -4.260E+01   -4.238E+01   -4.216E+01   -4.193E+01   -4.171E+01   -4.149E+01
    -4.127E+01   -4.105E+01   -4.083E+01   -4.060E+01   -4.038E+01   -4.016E+01   -3.994E+01   -3.972E+01   -3.950E+01   -3.928E+01
    -3.906E+01   -3.884E+01   -3.862E+01   -3.840E+01   -3.819E+01   -3.797E+01   -3.775E+01   -3.753E+01   -3.732E+01   -3.710E+01
    -3.688E+01   -3.667E+01   -3.645E+01   -3.624E+01   -3.603E+01   -3.581E+01   -3.560E+01   -3.539E+01   -3.518E+01   -3.497E+01
    -3.476E+01   -3.455E+01   -3.434E+01   -3.414E+01   -3.393E+01   -3.372E+01   -3.352E+01   -3.332E+01   -3.311E+01   -3.291E+01
    -3.271E+01   -3.251E+01   -3.231E+01   -3.211E+01   -3.191E+01   -3.172E+01   -3.152E+01   -3.133E+01   -3.113E+01   -3.094E+01
    -3.075E+01   -3.056E+01   -3.037E+01   -3.018E+01   -2.999E+01   -2.980E+01   -2.961E+01   -2.943E+01   -2.925E+01   -2.906E+01
    -2.888E+01   -2.870E+01   -2.852E+01   -2.834E+01   -2.816E+01   -2.799E+01   -2.781E+01   -2.764E+01   -2.747E+01   -2.729E+01
    -2.712E+01   -2.695E+01   -2.679E+01   -2.662E+01   -2.645E+01   -2.629E+01   -2.612E+01   -2.596E+01   -2.580E+01   -2.564E+01
    -2.548E+01   -2.533E+01   -2.517E+01   -2.502E+01   -2.486E+01   -2.471E+01   -2.456E+01   -2.441E+01   -2.426E+01   -2.411E+01
    -2.397E+01   -2.382E+01   -2.368E+01   -2.354E+01   -2.339E+01   -2.325E+01   -2.312E+01   -2.298E+01   -2.284E+01   -2.271E+01
    -2.257E+01   -2.244E+01   -2.231E+01   -2.217E+01   -2.204E+01   -2.192E+01   -2.179E+01   -2.166E+01   -2.154E+01   -2.141E+01
    -2.129E+01   -2.117E+01   -2.105E+01   -2.093E+01   -2.081E+01   -2.069E+01   -2.057E+01   -2.046E+01   -2.034E+01   -2.023E+01
    -2.011E+01   -2.000E+01   -1.989E+01   -1.978E+01   -1.967E+01   -1.956E+01   -1.946E+01   -1.935E+01   -1.925E+01   -1.914E+01
    -1.904E+01   -1.894E+01   -1.884E+01   -1.874E+01   -1.864E+01   -1.854E+01   -1.844E+01   -1.834E+01   -1.824E+01   -1.815E+01
    -1.805E+01   -1.796E+01   -1.786E+01   -1.777E+01   -1.768E+01   -1.759E+01   -1.749E+01   -1.740E+01   -1.731E+01   -1.722E+01
    -1.713E+01   -1.704E+01   -1.695E+01   -1.686E+01   -1.678E+01   -1.669E+01   -1.660E+01   -1.651E+01   -1.643E+01   -1.634E+01
    -1.625E+01   -1.617E+01   -1.608E+01   -1.600E+01   -1.591E+01   -1.583E+01   -1.574E+01   -1.566E+01   -1.557E+01   -1.549E+01
    -1.540E+01   -1.532E+01   -1.523E+01   -1.515E+01   -1.506E+01   -1.498E+01   -1.489E+01   -1.481E+01   -1.472E+01   -1.464E+01
    -1.455E+01   -1.447E+01   -1.439E+01   -1.430E+01   -1.422E+01   -1.413E+01   -1.405E+01   -1.397E+01   -1.389E+01   -1.380E+01
    -1.372E+01   -1.364E+01   -1.356E+01   -1.348E+01   -1.340E+01   -1.332E+01   -1.324E+01   -1.316E+01   -1.308E+01   -1.300E+01
    -1.293E+01   -1.285E+01   -1.277E+01   -1.270E+01   -1.262E+01   -1.255E+01   -1.248E+01   -1.240E+01   -1.233E+01   -1.226E+01
    -1.219E+01   -1.212E+01   -1.205E+01   -1.198E+01   -1.191E+01   -1.184E+01   -1.178E+01   -1.171E+01   -1.165E+01   -1.158E+01
    -1.152E+01   -1.146E+01   -1.140E+01   -1.133E+01   -1.128E+01   -1.122E+01   -1.116E+01   -1.110E+01   -1.104E+01   -1.099E+01
    -1.093E+01   -1.088E+01   -1.082E+01   -1.077E+01   -1.072E+01   -1.067E+01   -1.062E+01   -1.057E+01   -1.052E+01   -1.047E+01
    -1.042E+01   -1.037E+01   -1.033E+01   -1.028E+01   -1.024E+01   -1.019E+01   -1.015E+01   -1.011E+01   -1.006E+01   -1.002E+01
    -9.980E+00   -9.939E+00   -9.899E+00   -9.860E+00   -9.821E+00   -9.783E+00   -9.746E+00   -9.709E+00   -9.672E+00   -9.637E+00
    -9.601E+00   -9.567E+00   -9.533E+00   -9.499E+00   -9.466E+00   -9.434E+00   -9.402E+00   -9.371E+00   -9.340E+00   -9.309E+00
    -9.279E+00   -9.249E+00   -9.220E+00   -9.191E+00   -9.163E+00   -9.134E+00   -9.107E+00   -9.079E+00   -9.052E+00   -9.025E+00
    -8.998E+00   -8.972E+00   -8.945E+00   -8.919E+00   -8.894E+00   -8.868E+00   -8.843E+00   -8.817E+00   -8.792E+00   -8.767E+00
    -8.742E+00   -8.717E+00   -8.692E+00   -8.667E+00   -8.643E+00   -8.618E+00   -8.593E+00   -8.568E+00   -8.544E+00   -8.519E+00
    -8.494E+00   -8.469E+00   -8.444E+00   -8.418E+00   -8.393E+00   -8.368E+00   -8.342E+00   -8.316E+00   -8.290E+00   -8.263E+00
    -8.237E+00   -8.210E+00   -8.183E+00   -8.156E+00   -8.129E+00   -8.102E+00   -8.074E+00   -8.046E+00   -8.018E+00   -7.990E+00
    -7.962E+00   -7.933E+00   -7.904E+00   -7.875E+00   -7.846E+00   -7.817E+00   -7.788E+00   -7.758E+00   -7.728E+00   -7.698E+00
    -7.668E+00   -7.637E+00   -7.607E+00   -7.576E+00   -7.545E+00   -7.514E+00   -7.483E+00   -7.451E+00   -7.419E+00   -7.388E+00
    -7.356E+00   -7.323E+00   -7.291E+00   -7.258E+00   -7.226E+00   -7.193E+00   -7.160E+00   -7.126E+00   -7.093E+00   -7.059E+00
    -7.026E+00   -6.992E+00   -6.958E+00   -6.923E+00   -6.889E+00   -6.854E+00   -6.819E+00   -6.784E+00   -6.749E+00   -6.714E+00
    -6.678E+00   -6.643E+00   -6.607E+00   -6.570E+00   -6.534E+00   -6.498E+00   -6.461E+00   -6.424E+00   -6.387E+00   -6.349E+00
    -6.312E+00   -6.274E+00   -6.236E+00   -6.198E+00   -6.159E+00   -6.120E+00   -6.082E+00   -6.042E+00   -6.003E+00   -5.963E+00
    -5.924E+00   -5.884E+00   -5.843E+00   -5.803E+00   -5.762E+00   -5.721E+00   -5.679E+00   -5.638E+00   -5.596E+00   -5.554E+00
    -5.512E+00   -5.469E+00   -5.426E+00   -5.383E+00   -5.340E+00   -5.296E+00   -5.252E+00   -5.208E+00   -5.163E+00   -5.119E+00
    -5.074E+00   -5.028E+00   -4.983E+00   -4.937E+00   -4.891E+00   -4.845E+00   -4.799E+00   -4.752E+00   -4.706E+00   -4.659E+00
    -4.612E+00   -4.565E+00   -4.518E+00   -4.471E+00   -4.423E+00   -4.376E+00   -4.328E+00   -4.281E+00   -4.233E+00   -4.186E+00
    -4.138E+00   -4.090E+00   -4.043E+00   -3.995E+00   -3.947E+00   -3.900E+00   -3.852E+00   -3.805E+00   -3.757E+00   -3.710E+00
    -3.662E+00   -3.615E+00   -3.568E+00   -3.521E+00   -3.474E+00   -3.427E+00   -3.381E+00   -3.335E+00   -3.288E+00   -3.242E+00
    -3.196E+00   -3.151E+00   -3.105E+00   -3.060E+00   -3.015E+00   -2.971E+00   -2.926E+00   -2.882E+00   -2.838E+00   -2.794E+00
    -2.750E+00   -2.707E+00   -2.663E+00   -2.620E+00   -2.577E+00   -2.534E+00   -2.492E+00   -2.449E+00   -2.407E+00   -2.364E+00
    -2.322E+00   -2.280E+00   -2.238E+00   -2.197E+00   -2.155E+00   -2.113E+00   -2.072E+00   -2.031E+00   -1.989E+00   -1.948E+00
    -1.907E+00   -1.866E+00   -1.825E+00   -1.784E+00   -1.743E+00   -1.703E+00   -1.662E+00   -1.621E+00   -1.581E+00   -1.540E+00
    -1.499E+00   -1.459E+00   -1.418E+00   -1.378E+00   -1.337E+00   -1.296E+00   -1.256E+00   -1.215E+00
 Asp      Conc. = 6.70E+00
