 LCModel (Version 6.3-1L) Copyright: S.W. Provencher.          Ref.: Magn. Reson. Med. 30:672-679 (1993).                
 Slice#2 Row#10 Col#10  PD_24_press_2_raw_act
 36 lines in following concentration table = NCONC+1
    Conc.  %SD /Cr+PCr  Metabolite                                         
  500.989  25%   1.448 Ala                                                 
    0.000 999%   0.000 Asp                                                 
  346.078  13%   1.000 Cr                                                  
    0.000 999%   0.000 PCr                                                 
   17.605 297% 5.1E-02 GABA                                                
    0.000 999%   0.000 Glc                                                 
  523.436  43%   1.512 Gln                                                 
    0.000 999%   0.000 Glu                                                 
   85.724  15%   0.248 GPC                                                 
    0.000 999%   0.000 PCh                                                 
   78.901  57%   0.228 GSH                                                 
  217.226  62%   0.628 Ins                                                 
    0.000 999%   0.000 Lac                                                 
  238.480  31%   0.689 NAA                                                 
  303.086  23%   0.876 NAAG                                                
    0.000 999%   0.000 Scyllo                                              
    0.000 999%   0.000 Tau                                                 
  367.995  16%   1.063 -CrCH2                                              
   85.724  15%   0.248 GPC+PCh                                             
  541.567  11%   1.565 NAA+NAAG                                            
  346.078  13%   1.000 Cr+PCr                                              
  523.436  43%   1.512 Glu+Gln                                             
 2.16E+03  15%   6.252 Lip13a                                              
   86.766 120%   0.251 Lip13b                                              
    0.000 999%   0.000 Lip09                                               
 1.75E+03   7%   5.052 MM09                                                
  813.358  23%   2.350 Lip20                                               
 3.57E+03   7%  10.321 MM20                                                
  614.271  22%   1.775 MM12                                                
 2.40E+03   4%   6.924 MM14                                                
    0.000 999%   0.000 MM17                                                
 2.25E+03  12%   6.503 Lip13a+Lip13b                                       
 5.26E+03   4%  15.201 MM14+Lip13a+Lip13b+MM12                             
 1.75E+03   7%   5.052 MM09+Lip09                                          
 4.39E+03   5%  12.671 MM20+Lip20                                          
   6 lines in following misc. output table
  FWHM = 0.107 ppm    S/N =   6                                            
  Data shift =-0.008 ppm                                                   
  Ph:  82 deg      38.3 deg/ppm                                            
  alphaB,S = 8.5E+01,   5.1E+01                                            
   14 spline knots.   Ns = 8(2)                                            
   2 inflections.     2 extrema                                            
  498 points on ppm-axis = NY
      4.000000     3.992357     3.984714     3.977070     3.969427     3.961784     3.954141     3.946497     3.938854     3.931211
      3.923568     3.915925     3.908281     3.900638     3.892995     3.885352     3.877708     3.870065     3.862422     3.854779
      3.847136     3.839492     3.831849     3.824206     3.816563     3.808919     3.801276     3.793633     3.785990     3.778347
      3.770703     3.763060     3.755417     3.747774     3.740130     3.732487     3.724844     3.717201     3.709558     3.701914
      3.694271     3.686628     3.678985     3.671341     3.663698     3.656055     3.648412     3.640769     3.633125     3.625482
      3.617839     3.610196     3.602552     3.594909     3.587266     3.579623     3.571980     3.564336     3.556693     3.549050
      3.541407     3.533763     3.526120     3.518477     3.510834     3.503191     3.495547     3.487904     3.480261     3.472618
      3.464974     3.457331     3.449688     3.442045     3.434402     3.426758     3.419115     3.411472     3.403829     3.396185
      3.388542     3.380899     3.373256     3.365613     3.357969     3.350326     3.342683     3.335040     3.327396     3.319753
      3.312110     3.304467     3.296824     3.289180     3.281537     3.273894     3.266251     3.258607     3.250964     3.243321
      3.235678     3.228034     3.220391     3.212748     3.205105     3.197462     3.189818     3.182175     3.174532     3.166889
      3.159245     3.151602     3.143959     3.136316     3.128673     3.121029     3.113386     3.105743     3.098100     3.090456
      3.082813     3.075170     3.067527     3.059884     3.052240     3.044597     3.036954     3.029311     3.021667     3.014024
      3.006381     2.998738     2.991095     2.983451     2.975808     2.968165     2.960522     2.952878     2.945235     2.937592
      2.929949     2.922306     2.914662     2.907019     2.899376     2.891733     2.884089     2.876446     2.868803     2.861160
      2.853517     2.845873     2.838230     2.830587     2.822944     2.815300     2.807657     2.800014     2.792371     2.784728
      2.777084     2.769441     2.761798     2.754155     2.746511     2.738868     2.731225     2.723582     2.715939     2.708295
      2.700652     2.693009     2.685366     2.677722     2.670079     2.662436     2.654793     2.647150     2.639506     2.631863
      2.624220     2.616577     2.608933     2.601290     2.593647     2.586004     2.578361     2.570717     2.563074     2.555431
      2.547788     2.540144     2.532501     2.524858     2.517215     2.509572     2.501928     2.494285     2.486642     2.478999
      2.471355     2.463712     2.456069     2.448426     2.440783     2.433139     2.425496     2.417853     2.410210     2.402566
      2.394923     2.387280     2.379637     2.371994     2.364350     2.356707     2.349064     2.341421     2.333777     2.326134
      2.318491     2.310848     2.303205     2.295561     2.287918     2.280275     2.272632     2.264988     2.257345     2.249702
      2.242059     2.234416     2.226772     2.219129     2.211486     2.203843     2.196199     2.188556     2.180913     2.173270
      2.165627     2.157983     2.150340     2.142697     2.135054     2.127410     2.119767     2.112124     2.104481     2.096838
      2.089194     2.081551     2.073908     2.066265     2.058621     2.050978     2.043335     2.035692     2.028049     2.020405
      2.012762     2.005119     1.997476     1.989833     1.982190     1.974546     1.966903     1.959260     1.951617     1.943974
      1.936331     1.928688     1.921045     1.913402     1.905759     1.898115     1.890472     1.882829     1.875186     1.867543
      1.859900     1.852257     1.844614     1.836971     1.829327     1.821684     1.814041     1.806398     1.798755     1.791112
      1.783469     1.775826     1.768183     1.760540     1.752896     1.745253     1.737610     1.729967     1.722324     1.714681
      1.707038     1.699395     1.691752     1.684108     1.676465     1.668822     1.661179     1.653536     1.645893     1.638250
      1.630607     1.622964     1.615321     1.607677     1.600034     1.592391     1.584748     1.577105     1.569462     1.561819
      1.554176     1.546533     1.538890     1.531246     1.523603     1.515960     1.508317     1.500674     1.493031     1.485388
      1.477745     1.470102     1.462458     1.454815     1.447172     1.439529     1.431886     1.424243     1.416600     1.408957
      1.401314     1.393671     1.386027     1.378384     1.370741     1.363098     1.355455     1.347812     1.340169     1.332526
      1.324883     1.317240     1.309596     1.301953     1.294310     1.286667     1.279024     1.271381     1.263738     1.256095
      1.248452     1.240808     1.233165     1.225522     1.217879     1.210236     1.202593     1.194950     1.187307     1.179664
      1.172021     1.164377     1.156734     1.149091     1.141448     1.133805     1.126162     1.118519     1.110876     1.103233
      1.095590     1.087946     1.080303     1.072660     1.065017     1.057374     1.049731     1.042088     1.034445     1.026802
      1.019158     1.011515     1.003872     0.996229     0.988586     0.980943     0.973300     0.965657     0.958014     0.950371
      0.942727     0.935084     0.927441     0.919798     0.912155     0.904512     0.896869     0.889226     0.881583     0.873940
      0.866296     0.858653     0.851010     0.843367     0.835724     0.828081     0.820438     0.812795     0.805152     0.797508
      0.789865     0.782222     0.774579     0.766936     0.759293     0.751650     0.744007     0.736364     0.728721     0.721077
      0.713434     0.705791     0.698148     0.690505     0.682862     0.675219     0.667576     0.659933     0.652290     0.644646
      0.637003     0.629360     0.621717     0.614074     0.606431     0.598788     0.591145     0.583502     0.575858     0.568215
      0.560572     0.552929     0.545286     0.537643     0.530000     0.522357     0.514714     0.507071     0.499427     0.491784
      0.484141     0.476498     0.468855     0.461212     0.453569     0.445925     0.438282     0.430639     0.422996     0.415353
      0.407710     0.400067     0.392424     0.384780     0.377137     0.369494     0.361851     0.354208     0.346565     0.338922
      0.331278     0.323635     0.315992     0.308349     0.300706     0.293063     0.285420     0.277777     0.270133     0.262490
      0.254847     0.247204     0.239561     0.231918     0.224275     0.216631     0.208988     0.201345
 NY phased data points follow
  -5.91542E+00 -3.45745E+00 -4.34578E+00 -4.46181E+00 -1.67195E+00 -3.42206E+00 -4.97382E+00 -3.43097E+00 -1.88656E+00 -7.35588E-01
  -1.59294E+00  1.40782E+00 -9.72405E-02 -3.31868E-03 -1.34526E+00  2.59088E+00  7.73919E-01  3.27753E+00  1.92714E+00 -4.06302E-01
   1.15880E+00  1.54647E+00  3.42447E-01  1.58670E+00  4.12974E+00  2.53526E+00 -6.76374E-01  7.78405E-01  2.20678E+00  4.14276E-02
   3.47857E-01  2.63509E-01  7.02825E-01  2.85374E+00  9.00673E-01 -9.88794E-01  9.59160E-01 -1.11311E+00  1.96368E+00  1.90130E-01
   5.81339E-02  3.05082E+00  1.78511E+00  1.92930E+00  2.74275E+00  1.46205E+00  3.54086E+00  2.89997E+00  2.04315E+00  2.39753E+00
   1.82848E+00  2.86460E+00  9.25605E-01  3.71286E+00  1.93140E+00  3.32901E+00  2.34674E+00  3.52291E+00  4.80914E+00  2.53170E+00
   2.49974E+00  2.80443E+00  2.16986E+00  3.42443E+00  2.60420E+00  2.75297E+00  2.36863E+00  3.49122E+00  1.93737E+00  1.69311E+00
   5.44061E-01  2.25690E+00 -2.66353E+00 -7.27558E-01  5.16565E-01 -2.35432E+00 -2.20832E+00  1.89367E+00 -2.70436E+00 -7.91673E-01
  -4.74206E-01 -1.27859E+00 -1.38834E+00 -2.39162E+00 -1.13614E+00 -3.30632E+00 -1.90588E+00 -1.93893E+00 -1.83999E+00 -3.78011E+00
  -2.89522E+00 -6.98587E-01 -2.48403E+00 -2.52145E+00 -3.02360E+00 -8.72942E-01 -1.83275E-01  1.34422E-01 -7.55263E-01  2.94034E+00
   1.65479E+00  4.80256E+00  3.43603E+00  4.34918E+00  5.39350E+00  3.63587E+00  4.78879E+00  4.22227E+00  8.88133E+00  5.60200E+00
   4.39348E+00  5.69162E+00  2.30854E+00  1.99668E+00  2.21416E+00  2.19900E+00  1.45606E+00  3.53474E+00 -2.31085E+00  5.30745E-01
   2.22961E+00  4.96482E-01  3.08791E+00  3.06967E+00  5.76600E+00  6.13138E+00  6.81468E+00  8.98881E+00  9.44478E+00  1.06777E+01
   1.10559E+01  1.08605E+01  9.84356E+00  1.02508E+01  1.11831E+01  6.19341E+00  8.75075E+00  7.76981E+00  6.96955E+00  5.05060E+00
   3.57749E+00  4.93253E+00  6.10288E+00  2.83590E+00  5.03463E+00  2.50221E+00  2.44571E+00  3.46036E+00  2.64444E+00  1.08364E+00
   2.23967E+00  1.50408E+00  9.37991E-01  2.90749E-01  1.08380E+00  2.52638E+00  5.24203E-01  2.22409E+00  2.47415E+00  1.45078E+00
   2.40241E-02 -1.60504E+00  1.49987E+00  1.92785E+00 -4.61866E-01  2.09744E+00  1.92064E-01 -1.15751E+00 -1.54943E+00 -1.26575E+00
   5.93999E-01 -1.35982E+00 -3.66504E+00 -5.30158E+00 -3.68777E+00 -2.65863E+00 -1.14755E+00 -1.30320E+00 -3.82465E+00 -5.22655E+00
  -2.76897E+00 -2.34975E+00 -3.17270E+00 -5.44398E+00 -5.05285E+00 -4.01234E+00 -2.12711E+00 -3.81066E+00 -4.32466E+00 -4.35605E+00
  -5.39010E+00  1.21165E+00  2.28064E-01 -3.32227E+00 -1.97018E+00 -3.50022E-01 -2.39504E+00 -1.76585E+00 -2.54241E+00  9.39129E-02
   1.69651E+00  4.41858E-01 -1.16043E+00 -8.71419E-01  1.83695E+00  1.03169E-01 -2.74761E-01  3.04141E+00 -5.36811E-01  1.67960E+00
   3.76831E+00  1.32654E+00  1.76974E-01 -1.31943E+00  9.38823E-01  1.20536E+00 -5.66907E-01  3.48341E+00  4.99728E+00  3.53428E+00
   4.75848E+00  5.85506E+00  5.09658E+00  7.95724E+00  5.80838E+00  3.13260E+00  5.56302E+00  7.72188E+00  5.55013E+00  7.97292E+00
   6.92395E+00  8.62713E+00  5.74285E+00  1.00366E+01  9.34155E+00  7.47383E+00  1.22378E+01  8.65131E+00  7.10343E+00  7.75216E+00
   8.22445E+00  4.78023E+00  1.04212E+01  8.41550E+00  6.93296E+00  7.93133E+00  1.03512E+01  1.16345E+01  1.21644E+01  8.96616E+00
   9.45610E+00  1.05703E+01  1.35750E+01  1.61368E+01  1.39432E+01  1.65447E+01  1.89332E+01  1.98141E+01  2.26766E+01  2.20696E+01
   2.41779E+01  2.30261E+01  2.16391E+01  2.15229E+01  2.20287E+01  2.46928E+01  2.11397E+01  1.51298E+01  1.31332E+01  1.15336E+01
   8.81511E+00  4.89862E+00  8.76394E+00  5.14645E+00  7.33791E+00  3.90859E+00  2.05773E+00  5.82089E+00 -1.06027E+00  1.05581E+00
   5.14013E+00  3.83264E-01  3.23383E+00  3.35781E+00  1.33939E+00 -1.48215E+00 -1.92691E-02  2.69073E+00  4.05344E+00  2.11953E+00
  -1.44224E+00  8.81395E-03 -2.29881E+00 -1.68435E+00 -8.19684E-01  3.00868E-01 -3.42605E+00 -2.25063E+00  2.12212E+00 -1.55214E+00
   5.17076E-01 -2.67217E+00 -2.89882E+00 -1.21646E+00  8.93008E-01 -2.93791E+00 -4.32360E+00 -3.36483E+00 -4.07436E+00 -3.40800E+00
  -5.49086E+00 -4.27161E+00 -1.15443E+00 -2.48754E+00 -6.33014E-01 -3.94256E-01 -1.43332E+00  2.21057E+00  4.15910E+00  5.21546E+00
   6.34586E+00  9.17961E+00  1.06654E+01  1.16843E+01  1.43646E+01  1.71320E+01  1.46463E+01  2.00160E+01  1.64928E+01  1.78997E+01
   1.71064E+01  1.68136E+01  1.94950E+01  1.57169E+01  1.59754E+01  1.86944E+01  1.71940E+01  1.34711E+01  1.35230E+01  1.40138E+01
   1.12200E+01  1.29007E+01  1.34084E+01  1.51487E+01  1.17027E+01  1.14093E+01  1.33086E+01  1.39336E+01  1.17265E+01  1.45070E+01
   1.37767E+01  1.24655E+01  1.35504E+01  1.13568E+01  1.29035E+01  1.16944E+01  1.36674E+01  1.09407E+01  1.38400E+01  9.77622E+00
   1.20352E+01  9.91871E+00  1.07582E+01  9.99069E+00  1.11707E+01  1.18379E+01  1.22164E+01  9.45264E+00  7.56549E+00  7.61242E+00
   9.58871E+00  6.88035E+00  8.04180E+00  7.47243E+00  1.08458E+01  8.99931E+00  6.31613E+00  1.03870E+01  9.50348E+00  8.59221E+00
   9.62067E+00  7.47278E+00  9.58533E+00  5.79849E+00  6.55712E+00  6.75463E+00  6.72099E+00  4.69040E+00  7.90988E+00  7.90041E+00
   9.08160E+00  1.07515E+01  8.35651E+00  7.96809E+00  1.20144E+01  3.52660E+00  8.26787E+00  7.93530E+00  8.19058E+00  8.69516E+00
   6.29518E+00  7.17897E+00  6.48163E+00  4.63112E+00  6.77388E+00  5.10845E+00  7.29656E+00  2.77310E+00  5.63326E+00  3.79867E+00
   5.81620E+00  2.28574E+00  4.74850E+00  2.15409E+00  2.53463E+00  3.60545E+00  1.60493E+00  7.72114E-01  3.95750E-01 -1.86727E+00
  -3.32360E-01  1.61463E+00  4.03267E-02 -1.62691E+00 -2.58206E+00 -3.67210E-02  3.74451E-01 -5.93888E-01 -2.55692E+00  6.09837E-01
  -2.85961E+00 -1.10239E-01 -2.08521E+00 -1.23960E+00  3.09948E-01 -2.76089E-01 -1.98443E+00 -6.69591E-01  4.60309E-01 -9.53881E-01
  -1.03333E+00 -2.84135E+00 -1.04969E+00 -2.58830E+00 -2.19374E+00  4.56055E-01  5.53698E-02 -2.51458E-01 -1.77828E+00 -2.31858E+00
  -3.05523E+00 -4.79955E+00 -1.40745E+00 -2.82346E+00 -3.09281E+00 -1.96361E+00 -2.92541E+00 -2.32188E+00 -8.10766E-01 -1.02825E+00
  -3.36767E-01 -4.38582E+00 -4.10566E+00 -2.69048E-01 -2.82795E+00 -4.80929E+00 -2.43416E+00 -2.71822E+00 -3.20804E+00 -5.39937E+00
  -2.77542E+00 -3.81617E+00 -2.53428E+00 -3.96392E+00 -3.26403E+00 -4.32555E+00 -2.39343E+00 -5.36522E+00 -2.39188E+00 -2.91692E+00
  -5.95407E+00 -2.25213E+00 -5.69155E+00 -4.43884E+00 -3.47585E+00 -3.35144E+00 -2.88879E+00 -3.20965E+00 -3.60952E+00 -7.01222E+00
  -5.15719E+00 -5.00970E+00 -1.34266E+00 -4.52136E+00 -2.25019E+00 -1.89601E+00 -4.19060E+00 -5.43779E-01
 NY points of the fit to the data follow
   2.14870E-01 -1.25837E-01 -8.16606E-01 -8.25949E-01 -1.69594E+00 -1.44847E+00 -2.39492E+00 -1.68902E+00 -2.45060E+00 -1.51297E+00
  -1.82884E+00 -7.76221E-01 -8.17640E-01  1.86872E-01  3.88270E-01  1.33987E+00  1.71992E+00  2.18565E+00  2.51747E+00  2.49748E+00
   2.70580E+00  2.44280E+00  2.53590E+00  2.16384E+00  2.24915E+00  1.91661E+00  2.00985E+00  1.56928E+00  1.55353E+00  1.27048E+00
   1.30401E+00  1.15528E+00  1.34614E+00  1.12432E+00  1.41601E+00  1.17053E+00  1.51098E+00  1.28543E+00  1.56473E+00  1.35336E+00
   1.53142E+00  1.32418E+00  1.45243E+00  1.29520E+00  1.41647E+00  1.31207E+00  1.36093E+00  1.23682E+00  1.26792E+00  1.17271E+00
   1.23847E+00  1.16742E+00  1.22757E+00  1.15868E+00  1.15372E+00  1.02680E+00  9.46453E-01  8.10235E-01  7.02587E-01  6.16108E-01
   5.01307E-01  4.26363E-01  3.28638E-01  2.92802E-01  2.18806E-01  2.02632E-01  1.61735E-01  1.88440E-01  1.62702E-01  1.77810E-01
   1.69508E-01  2.00848E-01  2.14000E-01  2.47607E-01  2.60798E-01  2.80043E-01  2.83304E-01  2.61454E-01  2.36564E-01  1.82720E-01
   1.27643E-01  6.03960E-02 -1.39586E-02 -9.98252E-02 -2.00481E-01 -3.24478E-01 -5.50991E-01 -1.14504E+00 -1.44372E+00 -1.86834E+00
  -2.07022E+00 -2.28682E+00 -2.32052E+00 -2.18131E+00 -1.97673E+00 -1.40028E+00 -9.90582E-01 -2.43590E-01  3.27109E-01  1.32647E+00
   2.02257E+00  3.03781E+00  3.73222E+00  4.51368E+00  5.11252E+00  5.55402E+00  6.01240E+00  6.13558E+00  6.38843E+00  5.98711E+00
   5.85733E+00  4.45494E+00  3.84704E+00  2.55219E+00  1.89059E+00  9.98880E-01  4.60228E-01  2.05856E-01 -1.65064E-02  4.79135E-01
   6.90454E-01  1.54902E+00  2.19608E+00  3.60979E+00  4.69132E+00  5.95997E+00  7.22583E+00  7.98275E+00  9.24813E+00  9.38158E+00
   1.05356E+01  1.01171E+01  1.10608E+01  9.90622E+00  1.04687E+01  8.75678E+00  8.93315E+00  7.05083E+00  6.98483E+00  5.31580E+00
   5.12661E+00  3.77589E+00  3.53108E+00  2.51526E+00  2.30026E+00  1.66400E+00  1.54176E+00  1.40336E+00  1.42119E+00  1.29788E+00
   1.30619E+00  1.18755E+00  1.17589E+00  1.06881E+00  1.06622E+00  9.39897E-01  8.95299E-01  7.52126E-01  6.69347E-01  5.43442E-01
   4.68775E-01  3.39684E-01  2.39901E-01  1.15090E-01 -7.18810E-03 -1.28263E-01 -2.82830E-01 -3.97965E-01 -6.02268E-01 -6.86294E-01
  -8.98486E-01 -9.67385E-01 -1.21656E+00 -1.29971E+00 -1.56335E+00 -1.66063E+00 -1.88346E+00 -1.96459E+00 -2.06352E+00 -2.12898E+00
  -2.08710E+00 -2.09991E+00 -1.91158E+00 -1.92799E+00 -1.67487E+00 -1.75267E+00 -1.55902E+00 -1.69743E+00 -1.52287E+00 -1.71212E+00
  -1.57378E+00 -1.67801E+00 -1.49132E+00 -1.39839E+00 -1.02498E+00 -8.62968E-01 -6.14474E-01 -3.77718E-01 -2.11616E-01  1.53299E-02
   3.30222E-02  2.09093E-01  9.14408E-02  2.46789E-01  1.32884E-01  2.10643E-01  2.88962E-02  2.59575E-02 -1.50075E-01 -1.92685E-01
  -2.72497E-01 -3.24749E-01 -2.48198E-01 -2.74191E-01 -4.22762E-02  8.42368E-02  5.70898E-01  8.31198E-01  1.48672E+00  1.87566E+00
   2.69928E+00  3.09978E+00  3.84195E+00  4.18862E+00  4.76346E+00  5.00589E+00  5.44499E+00  5.73332E+00  5.97791E+00  6.28286E+00
   6.40233E+00  6.81455E+00  6.93499E+00  7.45375E+00  7.58313E+00  8.07065E+00  8.25270E+00  8.72934E+00  8.95556E+00  9.13512E+00
   8.82955E+00  8.99021E+00  8.79117E+00  8.94648E+00  8.46091E+00  8.68588E+00  8.64827E+00  9.06793E+00  9.66965E+00  1.01822E+01
   1.13526E+01  1.20004E+01  1.39994E+01  1.46240E+01  1.70091E+01  1.73548E+01  1.98649E+01  1.98085E+01  2.21103E+01  2.15729E+01
   2.33822E+01  2.22914E+01  2.31918E+01  2.15657E+01  2.15577E+01  1.96373E+01  1.87078E+01  1.67197E+01  1.51982E+01  1.33243E+01
   1.15480E+01  9.94708E+00  8.24769E+00  6.97908E+00  5.52054E+00  4.64749E+00  3.69369E+00  3.02806E+00  2.30372E+00  1.81045E+00
   1.46319E+00  1.09838E+00  8.27997E-01  5.18555E-01  3.09686E-01  4.76982E-02 -1.08215E-01 -3.28247E-01 -4.40198E-01 -6.28975E-01
  -7.07228E-01 -8.69189E-01 -9.20397E-01 -1.05784E+00 -1.09272E+00 -1.20878E+00 -1.23253E+00 -1.33435E+00 -1.35110E+00 -1.43375E+00
  -1.44324E+00 -1.50403E+00 -1.50324E+00 -1.53542E+00 -1.51289E+00 -1.51017E+00 -1.45625E+00 -1.41178E+00 -1.32674E+00 -1.26080E+00
  -1.23032E+00 -1.31765E+00 -8.76879E-01 -4.83196E-01  3.38003E-01  1.17766E+00  2.41621E+00  3.82818E+00  5.47278E+00  6.97677E+00
   8.23759E+00  9.77209E+00  1.08277E+01  1.24224E+01  1.30787E+01  1.45068E+01  1.47538E+01  1.59083E+01  1.59675E+01  1.66450E+01
   1.64925E+01  1.67876E+01  1.65882E+01  1.63642E+01  1.63029E+01  1.56178E+01  1.57794E+01  1.48214E+01  1.52264E+01  1.42721E+01
   1.49334E+01  1.39419E+01  1.46361E+01  1.36070E+01  1.41691E+01  1.32253E+01  1.36415E+01  1.30194E+01  1.32206E+01  1.27224E+01
   1.28264E+01  1.25017E+01  1.25297E+01  1.23209E+01  1.22365E+01  1.22167E+01  1.22172E+01  1.21735E+01  1.20988E+01  1.19581E+01
   1.17829E+01  1.15498E+01  1.12965E+01  1.10012E+01  1.07000E+01  1.03689E+01  1.00415E+01  9.69188E+00  9.35347E+00  9.00103E+00
   8.66905E+00  8.33377E+00  8.03075E+00  7.73680E+00  7.48738E+00  7.25856E+00  7.08438E+00  6.93913E+00  6.85460E+00  6.80262E+00
   6.81232E+00  6.85280E+00  6.95040E+00  7.07156E+00  7.24001E+00  7.41988E+00  7.63280E+00  7.84121E+00  8.06545E+00  8.26728E+00
   8.46680E+00  8.62623E+00  8.76668E+00  8.85199E+00  8.90537E+00  8.89333E+00  8.84197E+00  8.72098E+00  8.55967E+00  8.33094E+00
   8.06704E+00  7.74354E+00  7.39489E+00  6.99841E+00  6.58968E+00  6.14670E+00  5.70513E+00  5.24263E+00  4.79404E+00  4.33592E+00
   3.90173E+00  3.46659E+00  3.06232E+00  2.66255E+00  2.29756E+00  1.93965E+00  1.61787E+00  1.30349E+00  1.02470E+00  7.52128E-01
   5.13402E-01  2.78818E-01  7.57410E-02 -1.25615E-01 -2.97954E-01 -4.70999E-01 -6.17411E-01 -7.66766E-01 -8.91608E-01 -1.02132E+00
  -1.12833E+00 -1.24184E+00 -1.33416E+00 -1.43431E+00 -1.51449E+00 -1.60357E+00 -1.67369E+00 -1.75358E+00 -1.81531E+00 -1.88751E+00
  -1.94221E+00 -2.00792E+00 -2.05667E+00 -2.11688E+00 -2.16058E+00 -2.21611E+00 -2.25548E+00 -2.30697E+00 -2.34261E+00 -2.39062E+00
  -2.42303E+00 -2.46801E+00 -2.49760E+00 -2.53992E+00 -2.56705E+00 -2.60705E+00 -2.63201E+00 -2.66995E+00 -2.69298E+00 -2.72909E+00
  -2.75043E+00 -2.78492E+00 -2.80473E+00 -2.83776E+00 -2.85621E+00 -2.88793E+00 -2.90516E+00 -2.93571E+00 -2.95183E+00 -2.98131E+00
  -2.99644E+00 -3.02495E+00 -3.03918E+00 -3.06682E+00 -3.08023E+00 -3.10706E+00 -3.11972E+00 -3.14582E+00 -3.15781E+00 -3.18325E+00
  -3.19461E+00 -3.21943E+00 -3.23022E+00 -3.25448E+00 -3.26475E+00 -3.28849E+00 -3.29827E+00 -3.32152E+00 -3.33086E+00 -3.35367E+00
  -3.36260E+00 -3.38499E+00 -3.39353E+00 -3.41552E+00 -3.42371E+00 -3.44534E+00 -3.45318E+00 -3.47445E+00
 NY background values follow
    -9.044E-01   -9.117E-01   -9.190E-01   -9.262E-01   -9.335E-01   -9.408E-01   -9.480E-01   -9.553E-01   -9.626E-01   -9.699E-01
    -9.771E-01   -9.844E-01   -9.917E-01   -9.990E-01   -1.006E+00   -1.014E+00   -1.021E+00   -1.028E+00   -1.035E+00   -1.043E+00
    -1.050E+00   -1.057E+00   -1.065E+00   -1.072E+00   -1.079E+00   -1.087E+00   -1.094E+00   -1.101E+00   -1.108E+00   -1.116E+00
    -1.123E+00   -1.130E+00   -1.138E+00   -1.145E+00   -1.152E+00   -1.160E+00   -1.167E+00   -1.174E+00   -1.182E+00   -1.189E+00
    -1.196E+00   -1.204E+00   -1.211E+00   -1.218E+00   -1.225E+00   -1.233E+00   -1.240E+00   -1.247E+00   -1.255E+00   -1.262E+00
    -1.269E+00   -1.277E+00   -1.284E+00   -1.291E+00   -1.299E+00   -1.306E+00   -1.313E+00   -1.321E+00   -1.328E+00   -1.335E+00
    -1.343E+00   -1.350E+00   -1.358E+00   -1.365E+00   -1.372E+00   -1.380E+00   -1.387E+00   -1.394E+00   -1.402E+00   -1.409E+00
    -1.416E+00   -1.424E+00   -1.431E+00   -1.438E+00   -1.446E+00   -1.453E+00   -1.460E+00   -1.468E+00   -1.475E+00   -1.483E+00
    -1.490E+00   -1.497E+00   -1.505E+00   -1.512E+00   -1.519E+00   -1.527E+00   -1.534E+00   -1.541E+00   -1.549E+00   -1.556E+00
    -1.564E+00   -1.571E+00   -1.578E+00   -1.586E+00   -1.593E+00   -1.600E+00   -1.608E+00   -1.615E+00   -1.622E+00   -1.630E+00
    -1.637E+00   -1.645E+00   -1.652E+00   -1.659E+00   -1.667E+00   -1.674E+00   -1.681E+00   -1.689E+00   -1.696E+00   -1.704E+00
    -1.711E+00   -1.718E+00   -1.726E+00   -1.733E+00   -1.740E+00   -1.748E+00   -1.755E+00   -1.763E+00   -1.770E+00   -1.777E+00
    -1.785E+00   -1.792E+00   -1.800E+00   -1.807E+00   -1.814E+00   -1.822E+00   -1.829E+00   -1.836E+00   -1.844E+00   -1.851E+00
    -1.859E+00   -1.866E+00   -1.873E+00   -1.881E+00   -1.888E+00   -1.895E+00   -1.903E+00   -1.910E+00   -1.918E+00   -1.925E+00
    -1.932E+00   -1.940E+00   -1.947E+00   -1.955E+00   -1.962E+00   -1.969E+00   -1.977E+00   -1.984E+00   -1.991E+00   -1.999E+00
    -2.006E+00   -2.014E+00   -2.021E+00   -2.028E+00   -2.036E+00   -2.043E+00   -2.050E+00   -2.058E+00   -2.065E+00   -2.073E+00
    -2.080E+00   -2.087E+00   -2.095E+00   -2.102E+00   -2.110E+00   -2.117E+00   -2.124E+00   -2.132E+00   -2.139E+00   -2.146E+00
    -2.154E+00   -2.161E+00   -2.169E+00   -2.176E+00   -2.183E+00   -2.191E+00   -2.198E+00   -2.205E+00   -2.213E+00   -2.220E+00
    -2.228E+00   -2.235E+00   -2.242E+00   -2.250E+00   -2.257E+00   -2.264E+00   -2.272E+00   -2.279E+00   -2.286E+00   -2.294E+00
    -2.301E+00   -2.309E+00   -2.316E+00   -2.323E+00   -2.331E+00   -2.338E+00   -2.345E+00   -2.353E+00   -2.360E+00   -2.367E+00
    -2.375E+00   -2.382E+00   -2.389E+00   -2.397E+00   -2.404E+00   -2.412E+00   -2.419E+00   -2.426E+00   -2.434E+00   -2.441E+00
    -2.448E+00   -2.456E+00   -2.463E+00   -2.470E+00   -2.478E+00   -2.485E+00   -2.492E+00   -2.500E+00   -2.507E+00   -2.514E+00
    -2.522E+00   -2.529E+00   -2.536E+00   -2.544E+00   -2.551E+00   -2.558E+00   -2.566E+00   -2.573E+00   -2.580E+00   -2.588E+00
    -2.595E+00   -2.602E+00   -2.610E+00   -2.617E+00   -2.624E+00   -2.632E+00   -2.639E+00   -2.646E+00   -2.654E+00   -2.661E+00
    -2.668E+00   -2.676E+00   -2.683E+00   -2.690E+00   -2.698E+00   -2.705E+00   -2.712E+00   -2.719E+00   -2.727E+00   -2.734E+00
    -2.741E+00   -2.749E+00   -2.756E+00   -2.763E+00   -2.771E+00   -2.778E+00   -2.785E+00   -2.792E+00   -2.800E+00   -2.807E+00
    -2.814E+00   -2.822E+00   -2.829E+00   -2.836E+00   -2.843E+00   -2.851E+00   -2.858E+00   -2.865E+00   -2.873E+00   -2.880E+00
    -2.887E+00   -2.894E+00   -2.902E+00   -2.909E+00   -2.916E+00   -2.923E+00   -2.931E+00   -2.938E+00   -2.945E+00   -2.952E+00
    -2.960E+00   -2.967E+00   -2.974E+00   -2.981E+00   -2.989E+00   -2.996E+00   -3.003E+00   -3.010E+00   -3.018E+00   -3.025E+00
    -3.032E+00   -3.039E+00   -3.047E+00   -3.054E+00   -3.061E+00   -3.068E+00   -3.076E+00   -3.083E+00   -3.090E+00   -3.097E+00
    -3.104E+00   -3.112E+00   -3.119E+00   -3.126E+00   -3.133E+00   -3.140E+00   -3.148E+00   -3.155E+00   -3.162E+00   -3.169E+00
    -3.176E+00   -3.184E+00   -3.191E+00   -3.198E+00   -3.205E+00   -3.212E+00   -3.220E+00   -3.227E+00   -3.234E+00   -3.241E+00
    -3.248E+00   -3.255E+00   -3.263E+00   -3.270E+00   -3.277E+00   -3.284E+00   -3.291E+00   -3.298E+00   -3.306E+00   -3.313E+00
    -3.320E+00   -3.327E+00   -3.334E+00   -3.341E+00   -3.348E+00   -3.356E+00   -3.363E+00   -3.370E+00   -3.377E+00   -3.384E+00
    -3.391E+00   -3.398E+00   -3.405E+00   -3.413E+00   -3.420E+00   -3.427E+00   -3.434E+00   -3.441E+00   -3.448E+00   -3.455E+00
    -3.462E+00   -3.469E+00   -3.476E+00   -3.484E+00   -3.491E+00   -3.498E+00   -3.505E+00   -3.512E+00   -3.519E+00   -3.526E+00
    -3.533E+00   -3.540E+00   -3.547E+00   -3.554E+00   -3.561E+00   -3.568E+00   -3.575E+00   -3.582E+00   -3.589E+00   -3.597E+00
    -3.604E+00   -3.611E+00   -3.618E+00   -3.625E+00   -3.632E+00   -3.639E+00   -3.646E+00   -3.653E+00   -3.660E+00   -3.667E+00
    -3.674E+00   -3.681E+00   -3.688E+00   -3.695E+00   -3.702E+00   -3.709E+00   -3.716E+00   -3.723E+00   -3.730E+00   -3.737E+00
    -3.744E+00   -3.751E+00   -3.758E+00   -3.765E+00   -3.772E+00   -3.779E+00   -3.786E+00   -3.792E+00   -3.799E+00   -3.806E+00
    -3.813E+00   -3.820E+00   -3.827E+00   -3.834E+00   -3.841E+00   -3.848E+00   -3.855E+00   -3.862E+00   -3.869E+00   -3.876E+00
    -3.883E+00   -3.890E+00   -3.896E+00   -3.903E+00   -3.910E+00   -3.917E+00   -3.924E+00   -3.931E+00   -3.938E+00   -3.945E+00
    -3.952E+00   -3.958E+00   -3.965E+00   -3.972E+00   -3.979E+00   -3.986E+00   -3.993E+00   -4.000E+00   -4.006E+00   -4.013E+00
    -4.020E+00   -4.027E+00   -4.034E+00   -4.041E+00   -4.047E+00   -4.054E+00   -4.061E+00   -4.068E+00   -4.075E+00   -4.081E+00
    -4.088E+00   -4.095E+00   -4.102E+00   -4.109E+00   -4.115E+00   -4.122E+00   -4.129E+00   -4.136E+00   -4.143E+00   -4.149E+00
    -4.156E+00   -4.163E+00   -4.170E+00   -4.176E+00   -4.183E+00   -4.190E+00   -4.197E+00   -4.203E+00   -4.210E+00   -4.217E+00
    -4.224E+00   -4.230E+00   -4.237E+00   -4.244E+00   -4.250E+00   -4.257E+00   -4.264E+00   -4.270E+00   -4.277E+00   -4.284E+00
    -4.291E+00   -4.297E+00   -4.304E+00   -4.311E+00   -4.317E+00   -4.324E+00   -4.331E+00   -4.337E+00   -4.344E+00   -4.350E+00
    -4.357E+00   -4.364E+00   -4.370E+00   -4.377E+00   -4.384E+00   -4.390E+00   -4.397E+00   -4.403E+00   -4.410E+00   -4.417E+00
    -4.423E+00   -4.430E+00   -4.436E+00   -4.443E+00   -4.450E+00   -4.456E+00   -4.463E+00   -4.469E+00
 Ala      Conc. = 5.01E+02
