 LCModel (Version 6.3-1L) Copyright: S.W. Provencher.          Ref.: Magn. Reson. Med. 30:672-679 (1993).                
 Slice#2 Row#2 Col#11  PD_24_press_2_raw_act
 36 lines in following concentration table = NCONC+1
    Conc.  %SD /Cr+PCr  Metabolite                                         
  102.759 149%   0.000 Ala                                                 
    0.000 999%   0.000 Asp                                                 
    0.000 999%   0.000 Cr                                                  
    0.000 999%   0.000 PCr                                                 
    0.000 999%   0.000 GABA                                                
    0.000 999%   0.000 Glc                                                 
  336.469  96%   0.000 Gln                                                 
  407.470  86%   0.000 Glu                                                 
    0.000 999%   0.000 GPC                                                 
    0.000 999%   0.000 PCh                                                 
    0.000 999%   0.000 GSH                                                 
  136.706 207%   0.000 Ins                                                 
    0.000 999%   0.000 Lac                                                 
    0.000 999%   0.000 NAA                                                 
    0.000 999%   0.000 NAAG                                                
 3.96E-02 999%   0.000 Scyllo                                              
    0.000 999%   0.000 Tau                                                 
    0.000 999%   0.000 -CrCH2                                              
    0.000 999%   0.000 GPC+PCh                                             
    0.000 999%   0.000 NAA+NAAG                                            
    0.000 999%   0.000 Cr+PCr                                              
  743.939  71%   0.000 Glu+Gln                                             
    0.000 999%   0.000 Lip13a                                              
    0.000 999%   0.000 Lip13b                                              
    0.000 999%   0.000 Lip09                                               
  627.388  97%   0.000 MM09                                                
    0.000 999%   0.000 Lip20                                               
    0.000 999%   0.000 MM20                                                
 1.44E+03  28%   0.000 MM12                                                
 7.74E+03  17%   0.000 MM14                                                
 6.79E+03  21%   0.000 MM17                                                
    0.000 999%   0.000 Lip13a+Lip13b                                       
 9.19E+03  15%   0.000 MM14+Lip13a+Lip13b+MM12                             
  627.388  37%   0.000 MM09+Lip09                                          
    0.000 999%   0.000 MM20+Lip20                                          
   6 lines in following misc. output table
  FWHM = 0.061 ppm    S/N =   5                                            
  Data shift = 0.054 ppm                                                   
  Ph: -64 deg      68.0 deg/ppm                                            
  alphaB,S = 8.5E+01,   1.3E+01                                            
   14 spline knots.   Ns = 5(1)                                            
   2 inflections.     1 extrema                                            
  498 points on ppm-axis = NY
      4.000000     3.992357     3.984714     3.977070     3.969427     3.961784     3.954141     3.946497     3.938854     3.931211
      3.923568     3.915925     3.908281     3.900638     3.892995     3.885352     3.877708     3.870065     3.862422     3.854779
      3.847136     3.839492     3.831849     3.824206     3.816563     3.808919     3.801276     3.793633     3.785990     3.778347
      3.770703     3.763060     3.755417     3.747774     3.740130     3.732487     3.724844     3.717201     3.709558     3.701914
      3.694271     3.686628     3.678985     3.671341     3.663698     3.656055     3.648412     3.640769     3.633125     3.625482
      3.617839     3.610196     3.602552     3.594909     3.587266     3.579623     3.571980     3.564336     3.556693     3.549050
      3.541407     3.533763     3.526120     3.518477     3.510834     3.503191     3.495547     3.487904     3.480261     3.472618
      3.464974     3.457331     3.449688     3.442045     3.434402     3.426758     3.419115     3.411472     3.403829     3.396185
      3.388542     3.380899     3.373256     3.365613     3.357969     3.350326     3.342683     3.335040     3.327396     3.319753
      3.312110     3.304467     3.296824     3.289180     3.281537     3.273894     3.266251     3.258607     3.250964     3.243321
      3.235678     3.228034     3.220391     3.212748     3.205105     3.197462     3.189818     3.182175     3.174532     3.166889
      3.159245     3.151602     3.143959     3.136316     3.128673     3.121029     3.113386     3.105743     3.098100     3.090456
      3.082813     3.075170     3.067527     3.059884     3.052240     3.044597     3.036954     3.029311     3.021667     3.014024
      3.006381     2.998738     2.991095     2.983451     2.975808     2.968165     2.960522     2.952878     2.945235     2.937592
      2.929949     2.922306     2.914662     2.907019     2.899376     2.891733     2.884089     2.876446     2.868803     2.861160
      2.853517     2.845873     2.838230     2.830587     2.822944     2.815300     2.807657     2.800014     2.792371     2.784728
      2.777084     2.769441     2.761798     2.754155     2.746511     2.738868     2.731225     2.723582     2.715939     2.708295
      2.700652     2.693009     2.685366     2.677722     2.670079     2.662436     2.654793     2.647150     2.639506     2.631863
      2.624220     2.616577     2.608933     2.601290     2.593647     2.586004     2.578361     2.570717     2.563074     2.555431
      2.547788     2.540144     2.532501     2.524858     2.517215     2.509572     2.501928     2.494285     2.486642     2.478999
      2.471355     2.463712     2.456069     2.448426     2.440783     2.433139     2.425496     2.417853     2.410210     2.402566
      2.394923     2.387280     2.379637     2.371994     2.364350     2.356707     2.349064     2.341421     2.333777     2.326134
      2.318491     2.310848     2.303205     2.295561     2.287918     2.280275     2.272632     2.264988     2.257345     2.249702
      2.242059     2.234416     2.226772     2.219129     2.211486     2.203843     2.196199     2.188556     2.180913     2.173270
      2.165627     2.157983     2.150340     2.142697     2.135054     2.127410     2.119767     2.112124     2.104481     2.096838
      2.089194     2.081551     2.073908     2.066265     2.058621     2.050978     2.043335     2.035692     2.028049     2.020405
      2.012762     2.005119     1.997476     1.989833     1.982190     1.974546     1.966903     1.959260     1.951617     1.943974
      1.936331     1.928688     1.921045     1.913402     1.905759     1.898115     1.890472     1.882829     1.875186     1.867543
      1.859900     1.852257     1.844614     1.836971     1.829327     1.821684     1.814041     1.806398     1.798755     1.791112
      1.783469     1.775826     1.768183     1.760540     1.752896     1.745253     1.737610     1.729967     1.722324     1.714681
      1.707038     1.699395     1.691752     1.684108     1.676465     1.668822     1.661179     1.653536     1.645893     1.638250
      1.630607     1.622964     1.615321     1.607677     1.600034     1.592391     1.584748     1.577105     1.569462     1.561819
      1.554176     1.546533     1.538890     1.531246     1.523603     1.515960     1.508317     1.500674     1.493031     1.485388
      1.477745     1.470102     1.462458     1.454815     1.447172     1.439529     1.431886     1.424243     1.416600     1.408957
      1.401314     1.393671     1.386027     1.378384     1.370741     1.363098     1.355455     1.347812     1.340169     1.332526
      1.324883     1.317240     1.309596     1.301953     1.294310     1.286667     1.279024     1.271381     1.263738     1.256095
      1.248452     1.240808     1.233165     1.225522     1.217879     1.210236     1.202593     1.194950     1.187307     1.179664
      1.172021     1.164377     1.156734     1.149091     1.141448     1.133805     1.126162     1.118519     1.110876     1.103233
      1.095590     1.087946     1.080303     1.072660     1.065017     1.057374     1.049731     1.042088     1.034445     1.026802
      1.019158     1.011515     1.003872     0.996229     0.988586     0.980943     0.973300     0.965657     0.958014     0.950371
      0.942727     0.935084     0.927441     0.919798     0.912155     0.904512     0.896869     0.889226     0.881583     0.873940
      0.866296     0.858653     0.851010     0.843367     0.835724     0.828081     0.820438     0.812795     0.805152     0.797508
      0.789865     0.782222     0.774579     0.766936     0.759293     0.751650     0.744007     0.736364     0.728721     0.721077
      0.713434     0.705791     0.698148     0.690505     0.682862     0.675219     0.667576     0.659933     0.652290     0.644646
      0.637003     0.629360     0.621717     0.614074     0.606431     0.598788     0.591145     0.583502     0.575858     0.568215
      0.560572     0.552929     0.545286     0.537643     0.530000     0.522357     0.514714     0.507071     0.499427     0.491784
      0.484141     0.476498     0.468855     0.461212     0.453569     0.445925     0.438282     0.430639     0.422996     0.415353
      0.407710     0.400067     0.392424     0.384780     0.377137     0.369494     0.361851     0.354208     0.346565     0.338922
      0.331278     0.323635     0.315992     0.308349     0.300706     0.293063     0.285420     0.277777     0.270133     0.262490
      0.254847     0.247204     0.239561     0.231918     0.224275     0.216631     0.208988     0.201345
 NY phased data points follow
  -3.51802E+00 -1.77976E+00 -9.34603E+00 -6.33581E+00 -4.13387E+00  1.07732E+00 -2.68131E+00 -2.62081E+00  4.92971E+00 -6.85950E-01
  -1.32450E+01 -3.65038E+00 -9.58479E+00  4.70592E+00  4.70988E+00  8.83236E-01  3.66478E+00  3.22014E+00  1.07373E+01  3.28211E+00
  -1.24918E+01  3.38711E-01 -1.65209E+00  5.03284E+00 -7.17814E+00 -1.26694E+00 -1.13793E+01 -7.58880E+00 -1.98969E+00 -5.44743E+00
  -3.78599E+00 -1.15090E+01  2.50237E+00  2.29698E+00 -2.28426E+00  2.77364E+00 -1.00435E+00 -5.51373E+00 -2.17957E+00  3.19869E+00
  -1.29582E+00 -9.29726E+00 -4.82781E+00  5.82466E+00  2.48981E+00  6.82337E-02 -2.78387E+00 -6.44668E+00  2.83941E+00 -1.20887E+01
  -2.07674E+00 -1.66973E+00 -3.72120E+00  6.85212E-01  5.54313E-01 -3.96623E+00 -8.27395E+00 -2.72352E+00  5.30456E+00 -4.19226E-01
  -6.94217E+00 -6.66741E+00 -1.24402E+00 -1.02638E+01 -6.96624E+00 -2.04614E+00  1.75098E+00 -5.34504E+00 -4.22245E+00  5.93388E+00
  -5.93418E+00 -4.10907E+00 -6.98427E+00  3.39116E+00  3.11579E+00 -3.10037E+00 -2.44063E+00  1.47969E+00 -1.01087E+01 -2.18615E+00
  -4.94586E+00  1.51241E+00 -3.83881E+00 -4.14099E+00 -2.93926E+00  4.81217E+00 -5.26617E+00 -3.26218E+00 -7.82279E+00  7.76938E-01
   8.34889E-01 -8.70119E+00 -1.04844E+01 -6.98790E+00  4.08257E-01  1.79588E+00 -6.33871E+00  2.81219E+00 -4.89851E+00 -1.93116E-02
  -9.06905E-01 -1.18787E+01 -7.92580E+00 -1.10160E+01 -6.57359E+00  1.97479E+00  1.60210E-01 -1.17012E+00  8.44761E-02 -8.79930E+00
   1.01304E+00 -1.42583E+00 -1.71642E+01 -5.90022E+00 -1.47511E+01 -6.79457E+00 -8.69159E+00 -2.80476E+00 -5.03838E+00  6.56578E-01
  -1.23260E+00  2.41231E+00 -4.60933E+00 -4.61193E+00 -1.02345E+01 -3.13395E+00 -1.12517E+01 -9.85962E+00 -1.39700E+01 -7.75170E+00
  -4.56884E+00 -4.74290E+00 -1.36317E+01 -4.66025E+00  1.82950E+00  3.20620E-02 -9.79549E+00 -1.12380E+01 -1.76599E+00 -5.55700E+00
  -5.29156E+00 -2.90455E+00 -5.96770E+00 -7.34399E+00  1.83714E+00  5.15886E-01 -2.94645E+00 -1.08847E+01  2.71961E+00 -4.06547E+00
  -9.74340E+00 -1.90934E-01 -6.53784E+00 -4.86380E+00 -2.21138E+00 -8.91008E+00  9.14563E-01 -1.05007E+01 -4.42580E+00 -1.95795E+00
  -3.87045E+00 -5.32597E+00  1.22137E-01  2.01479E+00 -4.76615E+00 -3.04988E+00 -7.21699E+00  5.47561E+00 -8.86202E+00 -6.18590E+00
  -4.71271E-01  6.87449E+00 -5.82096E+00 -3.36540E+00 -8.04813E+00 -4.73991E+00 -3.76447E+00 -9.57319E+00 -3.90153E+00 -4.60323E+00
  -7.47513E+00 -7.53957E+00 -4.29261E+00 -7.58010E+00 -3.35982E+00 -4.60416E-02 -7.99269E+00 -6.41469E+00 -5.38430E+00 -2.65241E+00
  -1.66173E+00 -1.31085E+01 -1.41430E+01 -3.09466E+00 -4.15572E+00 -1.51392E+01 -5.40838E+00 -4.13349E+00 -1.33843E+01 -9.73619E+00
  -2.47029E+00 -7.18799E+00 -7.96576E+00 -1.15023E+01 -2.81383E+00  3.18022E-01 -2.84758E+00 -2.70370E+00 -3.67167E+00 -2.03898E+00
  -1.30638E+01 -7.11645E+00 -1.30662E+01 -5.82612E+00  3.32073E+00 -8.98726E+00 -9.60188E+00 -2.98377E+00  4.25201E+00 -1.23348E+01
  -7.60137E+00 -5.63172E+00 -3.33879E+00 -3.99991E+00  1.65716E+00 -1.10114E+01 -4.10382E+00 -1.34995E+01 -2.50583E+00 -9.09538E+00
   3.79560E+00 -3.76800E+00 -1.80470E+00 -6.29045E+00 -1.01933E+01  1.06200E+00 -1.15931E+01 -8.83917E+00 -1.56732E+00 -6.79270E+00
  -7.90417E+00 -5.39491E+00 -1.44984E+01 -5.56983E+00 -5.31473E+00 -8.04103E+00 -3.87850E+00 -6.70544E+00 -2.87397E+00  7.46970E-01
  -6.50615E+00 -5.72890E+00 -3.96219E+00 -5.09754E+00 -8.76611E+00 -7.56734E+00 -5.73773E+00 -1.49119E+01 -1.00789E+01 -5.22284E+00
  -5.15026E+00  7.03318E-01  2.59772E+00 -2.93287E+00 -6.45731E+00  3.26716E+00  2.17811E+00 -5.25144E+00 -7.66353E-01 -6.93248E+00
  -1.04230E+00  9.31919E-01 -1.49909E+00 -2.47001E-01 -4.07637E+00 -3.83245E-01 -5.98236E-01  1.34236E+01  4.35063E+00  3.67690E+00
   2.49044E+00  4.39538E+00  1.26034E+01  1.00479E+01  7.76247E+00  1.61687E+00  3.30989E+00  7.94828E+00  1.71333E+01  8.07016E+00
   5.71592E+00  4.87858E+00  1.09092E+01  1.33286E+01  1.06069E+01  1.02490E+01  7.79902E+00  1.41795E+01  1.02676E+01  1.48467E+01
   1.97422E+01  2.21670E+01  2.67772E+01  1.09159E+01  2.42593E+01  3.17292E+01  3.44988E+01  3.32532E+01  3.62038E+01  3.46515E+01
   3.90435E+01  3.77538E+01  4.01149E+01  4.13406E+01  4.48197E+01  4.33228E+01  4.75231E+01  5.11505E+01  4.41928E+01  4.46373E+01
   4.47042E+01  4.08383E+01  4.62031E+01  4.75561E+01  5.42440E+01  4.71042E+01  4.65147E+01  5.15813E+01  4.30738E+01  4.44828E+01
   4.27850E+01  3.88013E+01  4.16039E+01  3.66183E+01  3.56774E+01  3.61479E+01  3.03708E+01  3.37405E+01  2.99043E+01  2.05284E+01
   2.31525E+01  2.23927E+01  2.43334E+01  1.98308E+01  1.78131E+01  1.81505E+01  1.46777E+01  1.48821E+01  7.49682E+00  3.62391E+00
   8.91453E+00  9.15543E+00  5.58722E-02  8.45184E+00  3.40614E+00  4.36791E+00 -2.91383E+00 -3.13720E-01 -3.98378E+00 -1.00280E+01
   2.05684E+00  9.44328E+00  2.76419E+00  6.64628E+00  1.87418E+00  1.39900E+00 -2.82580E+00  2.89038E+00  5.45761E+00  7.79328E+00
  -3.10233E+00  2.13503E+00  3.91984E+00 -4.50159E-01 -6.86738E-01  1.20835E+01 -6.51992E-01  3.22099E+00  8.00170E+00  6.28700E+00
   7.84824E+00  1.04492E+01  6.09967E+00 -1.86126E+00  1.42350E+00 -6.38002E-01  1.88272E+00  1.68442E+00 -6.33350E+00 -1.14174E+00
   1.41185E+01 -3.44719E+00  7.15938E+00 -8.16491E-01 -1.39814E+00 -1.08817E+01  6.31365E+00 -1.01969E+01 -1.31091E-01 -1.16984E+01
  -5.85145E+00 -5.35691E+00  1.47153E+00 -8.37488E-01 -8.84208E+00  1.11496E+00 -4.43838E+00 -1.69599E+00 -2.26374E+00 -5.10253E+00
  -7.39531E+00  7.32017E+00 -1.28236E+01 -7.00114E+00  4.31405E-01  3.94130E+00 -2.66904E+00 -3.52420E-01 -5.91509E+00 -9.87341E-01
  -6.12880E+00 -2.99360E+00 -3.70233E+00 -3.33207E+00 -2.75915E-01 -4.29218E+00 -5.21396E-01 -6.31535E+00 -1.32703E+01 -3.88949E+00
   1.91610E+00 -9.43621E+00 -1.13683E+01 -1.72670E+01 -2.23804E+00 -1.38172E+01  2.71081E+00 -1.06059E+01 -3.45040E+00 -7.35536E+00
  -1.12105E+01 -1.01737E+01 -9.99753E+00 -7.68966E+00 -7.95991E+00 -1.33824E+00 -1.45841E+01 -1.29299E+01 -5.48317E+00 -1.31141E+01
  -1.25901E+01 -7.21587E+00 -1.23715E+01 -4.42996E+00 -8.32338E+00 -1.09222E+01 -3.76463E+00 -8.51309E+00  1.22436E+00 -7.80901E+00
  -4.84664E+00 -4.08320E+00 -1.30131E+01 -1.24591E+01 -7.24493E+00 -4.84438E+00 -9.30781E+00 -1.02543E+01 -7.51344E+00 -4.41188E+00
  -8.05874E+00 -1.00890E+01 -5.61092E+00 -1.21382E+01 -2.83937E+00 -7.05473E+00 -1.06996E+01 -7.56850E+00 -8.47287E+00 -1.14076E+01
  -8.37557E+00 -9.53941E+00 -4.40110E+00 -1.42426E+01 -8.69779E+00  2.69636E+00 -1.58346E+01 -8.79597E+00 -1.21920E+01 -6.83216E+00
  -4.06600E+00 -6.39093E+00 -7.27841E+00 -8.17105E+00 -2.71333E+00 -1.51604E+01 -4.24750E+00 -7.37753E+00
 NY points of the fit to the data follow
  -2.21060E+00 -2.30811E+00 -2.40086E+00 -2.45688E+00 -2.48690E+00 -2.50565E+00 -2.51766E+00 -2.52513E+00 -2.52954E+00 -2.53184E+00
  -2.53298E+00 -2.53395E+00 -2.53535E+00 -2.54155E+00 -2.55475E+00 -2.56474E+00 -2.55604E+00 -2.52022E+00 -2.45487E+00 -2.35259E+00
  -2.19274E+00 -1.98156E+00 -1.80460E+00 -1.79099E+00 -2.00486E+00 -2.39706E+00 -2.83246E+00 -3.16258E+00 -3.25829E+00 -3.07950E+00
  -2.71995E+00 -2.29734E+00 -1.84695E+00 -1.46147E+00 -1.26858E+00 -1.33966E+00 -1.61978E+00 -2.08303E+00 -2.69238E+00 -3.18488E+00
  -3.36098E+00 -3.24539E+00 -2.91597E+00 -2.48397E+00 -2.05280E+00 -1.78518E+00 -1.71741E+00 -1.74868E+00 -1.83456E+00 -1.95134E+00
  -2.10559E+00 -2.31835E+00 -2.59476E+00 -2.90070E+00 -3.12691E+00 -3.18231E+00 -3.10385E+00 -2.98007E+00 -2.86447E+00 -2.78329E+00
  -2.74836E+00 -2.75724E+00 -2.80062E+00 -2.86312E+00 -2.94019E+00 -3.03573E+00 -3.12041E+00 -3.16142E+00 -3.15112E+00 -3.09565E+00
  -3.03273E+00 -2.98729E+00 -2.96921E+00 -2.97838E+00 -3.00458E+00 -3.04314E+00 -3.08969E+00 -3.14503E+00 -3.20419E+00 -3.24391E+00
  -3.26933E+00 -3.29227E+00 -3.32675E+00 -3.38644E+00 -3.47486E+00 -3.58066E+00 -3.68278E+00 -3.76589E+00 -3.82488E+00 -3.85746E+00
  -3.85965E+00 -3.82666E+00 -3.75637E+00 -3.66559E+00 -3.59610E+00 -3.57021E+00 -3.58952E+00 -3.63644E+00 -3.69935E+00 -3.77411E+00
  -3.85207E+00 -3.91657E+00 -3.95948E+00 -3.97126E+00 -3.95692E+00 -3.93707E+00 -3.91930E+00 -3.90278E+00 -3.88653E+00 -3.87313E+00
  -3.86615E+00 -3.86751E+00 -3.87397E+00 -3.88006E+00 -3.88809E+00 -3.89836E+00 -3.91115E+00 -3.92559E+00 -3.94078E+00 -3.95563E+00
  -3.96950E+00 -3.98182E+00 -3.99256E+00 -4.00207E+00 -4.01030E+00 -4.01815E+00 -4.02627E+00 -4.03494E+00 -4.04404E+00 -4.05337E+00
  -4.06287E+00 -4.07251E+00 -4.08230E+00 -4.09218E+00 -4.10208E+00 -4.11190E+00 -4.12170E+00 -4.13152E+00 -4.14137E+00 -4.15123E+00
  -4.16105E+00 -4.17081E+00 -4.18050E+00 -4.19012E+00 -4.19971E+00 -4.20937E+00 -4.21910E+00 -4.22886E+00 -4.23857E+00 -4.24823E+00
  -4.25794E+00 -4.26782E+00 -4.27788E+00 -4.28798E+00 -4.29797E+00 -4.30786E+00 -4.31782E+00 -4.32789E+00 -4.33789E+00 -4.34754E+00
  -4.35663E+00 -4.36539E+00 -4.37420E+00 -4.38315E+00 -4.39209E+00 -4.40077E+00 -4.40933E+00 -4.41811E+00 -4.42719E+00 -4.43614E+00
  -4.44425E+00 -4.45146E+00 -4.45831E+00 -4.46542E+00 -4.47334E+00 -4.48211E+00 -4.49095E+00 -4.49930E+00 -4.50743E+00 -4.51476E+00
  -4.52035E+00 -4.52428E+00 -4.52668E+00 -4.52723E+00 -4.52576E+00 -4.52396E+00 -4.52401E+00 -4.52590E+00 -4.53058E+00 -4.54769E+00
  -4.59296E+00 -4.67574E+00 -4.79905E+00 -4.95513E+00 -5.11398E+00 -5.24032E+00 -5.30279E+00 -5.25253E+00 -5.05033E+00 -4.70930E+00
  -4.28664E+00 -3.85080E+00 -3.44102E+00 -3.16210E+00 -3.14437E+00 -3.47624E+00 -4.20289E+00 -5.16703E+00 -6.03249E+00 -6.54407E+00
  -6.67997E+00 -6.48184E+00 -5.86209E+00 -4.86821E+00 -3.79186E+00 -2.84047E+00 -2.17464E+00 -2.17349E+00 -2.83729E+00 -3.85109E+00
  -4.95214E+00 -5.89134E+00 -6.50103E+00 -6.58362E+00 -6.27826E+00 -5.75711E+00 -5.06591E+00 -4.29558E+00 -3.60819E+00 -3.23920E+00
  -3.26436E+00 -3.51760E+00 -3.85974E+00 -4.24828E+00 -4.53234E+00 -4.62132E+00 -4.52536E+00 -4.29589E+00 -4.05689E+00 -3.92259E+00
  -3.88379E+00 -3.85753E+00 -3.86677E+00 -4.07418E+00 -4.43954E+00 -4.81665E+00 -5.12125E+00 -5.30172E+00 -5.25107E+00 -4.95171E+00
  -4.65288E+00 -4.35273E+00 -4.05177E+00 -3.82465E+00 -3.71883E+00 -3.67435E+00 -3.65176E+00 -3.65888E+00 -3.67708E+00 -3.68419E+00
  -3.64409E+00 -3.53744E+00 -3.36970E+00 -3.16037E+00 -2.94162E+00 -2.78106E+00 -2.71871E+00 -2.71091E+00 -2.70163E+00 -2.66692E+00
  -2.58628E+00 -2.43074E+00 -2.22982E+00 -2.02660E+00 -1.79584E+00 -1.53673E+00 -1.25824E+00 -9.68739E-01 -6.74379E-01 -3.82030E-01
  -7.33079E-02  2.78930E-01  6.83754E-01  1.14293E+00  1.66103E+00  2.24387E+00  2.89682E+00  3.61991E+00  4.41181E+00  5.28077E+00
   6.23346E+00  7.27448E+00  8.40696E+00  9.63243E+00  1.09507E+01  1.23584E+01  1.38499E+01  1.54193E+01  1.70571E+01  1.87516E+01
   2.04896E+01  2.22561E+01  2.40348E+01  2.58092E+01  2.75630E+01  2.92807E+01  3.09481E+01  3.25533E+01  3.40866E+01  3.55411E+01
   3.69133E+01  3.82019E+01  3.94076E+01  4.05327E+01  4.15805E+01  4.25543E+01  4.34568E+01  4.42892E+01  4.50512E+01  4.57411E+01
   4.63577E+01  4.69068E+01  4.74092E+01  4.78400E+01  4.80676E+01  4.79484E+01  4.74570E+01  4.66573E+01  4.55959E+01  4.42570E+01
   4.26485E+01  4.09096E+01  3.92007E+01  3.76011E+01  3.61524E+01  3.46739E+01  3.30187E+01  3.12464E+01  2.93760E+01  2.73854E+01
   2.52362E+01  2.28951E+01  2.05512E+01  1.84260E+01  1.64855E+01  1.47050E+01  1.30796E+01  1.16086E+01  1.02907E+01  9.12272E+00
   8.09947E+00  7.21373E+00  6.45662E+00  5.81788E+00  5.28624E+00  4.84969E+00  4.49575E+00  4.21178E+00  3.98521E+00  3.80383E+00
   3.65591E+00  3.53047E+00  3.41738E+00  3.30756E+00  3.19312E+00  3.06751E+00  2.92551E+00  2.76337E+00  2.57871E+00  2.37058E+00
   2.13932E+00  1.88648E+00  1.61466E+00  1.32731E+00  1.02855E+00  7.22985E-01  4.15507E-01  1.11109E-01 -1.85294E-01 -4.69023E-01
  -7.35739E-01 -9.81545E-01 -1.20305E+00 -1.39746E+00 -1.56260E+00 -1.69695E+00 -1.79971E+00 -1.87075E+00 -1.91068E+00 -1.92088E+00
  -1.90346E+00 -1.86132E+00 -1.79806E+00 -1.71798E+00 -1.62595E+00 -1.52737E+00 -1.42797E+00 -1.33367E+00 -1.25032E+00 -1.18353E+00
  -1.13843E+00 -1.11943E+00 -1.13007E+00 -1.17286E+00 -1.24913E+00 -1.35904E+00 -1.50157E+00 -1.67464E+00 -1.87519E+00 -2.09941E+00
  -2.34289E+00 -2.60091E+00 -2.86863E+00 -3.14132E+00 -3.41454E+00 -3.68427E+00 -3.94703E+00 -4.19996E+00 -4.44084E+00 -4.66808E+00
  -4.88068E+00 -5.07814E+00 -5.26043E+00 -5.42788E+00 -5.58112E+00 -5.72099E+00 -5.84842E+00 -5.96446E+00 -6.07014E+00 -6.16651E+00
  -6.25455E+00 -6.33518E+00 -6.40927E+00 -6.47755E+00 -6.54073E+00 -6.59941E+00 -6.65412E+00 -6.70534E+00 -6.75346E+00 -6.79883E+00
  -6.84175E+00 -6.88250E+00 -6.92130E+00 -6.95835E+00 -6.99382E+00 -7.02785E+00 -7.06059E+00 -7.09216E+00 -7.12265E+00 -7.15215E+00
  -7.18075E+00 -7.20851E+00 -7.23550E+00 -7.26178E+00 -7.28740E+00 -7.31240E+00 -7.33682E+00 -7.36070E+00 -7.38409E+00 -7.40701E+00
  -7.42949E+00 -7.45155E+00 -7.47322E+00 -7.49453E+00 -7.51548E+00 -7.53611E+00 -7.55643E+00 -7.57645E+00 -7.59618E+00 -7.61565E+00
  -7.63488E+00 -7.65386E+00 -7.67262E+00 -7.69115E+00 -7.70947E+00 -7.72759E+00 -7.74553E+00 -7.76328E+00 -7.78085E+00 -7.79826E+00
  -7.81550E+00 -7.83259E+00 -7.84954E+00 -7.86634E+00 -7.88300E+00 -7.89953E+00 -7.91593E+00 -7.93221E+00 -7.94837E+00 -7.96442E+00
  -7.98035E+00 -7.99617E+00 -8.01190E+00 -8.02752E+00 -8.04305E+00 -8.05847E+00 -8.07380E+00 -8.08904E+00
 NY background values follow
    -2.664E+00   -2.676E+00   -2.687E+00   -2.698E+00   -2.710E+00   -2.721E+00   -2.733E+00   -2.744E+00   -2.756E+00   -2.767E+00
    -2.779E+00   -2.790E+00   -2.802E+00   -2.813E+00   -2.825E+00   -2.836E+00   -2.848E+00   -2.859E+00   -2.871E+00   -2.882E+00
    -2.894E+00   -2.905E+00   -2.917E+00   -2.928E+00   -2.940E+00   -2.951E+00   -2.963E+00   -2.974E+00   -2.986E+00   -2.997E+00
    -3.009E+00   -3.020E+00   -3.032E+00   -3.043E+00   -3.055E+00   -3.066E+00   -3.078E+00   -3.089E+00   -3.101E+00   -3.112E+00
    -3.123E+00   -3.135E+00   -3.146E+00   -3.158E+00   -3.169E+00   -3.181E+00   -3.192E+00   -3.204E+00   -3.215E+00   -3.227E+00
    -3.238E+00   -3.250E+00   -3.261E+00   -3.273E+00   -3.284E+00   -3.296E+00   -3.307E+00   -3.319E+00   -3.330E+00   -3.342E+00
    -3.353E+00   -3.365E+00   -3.376E+00   -3.388E+00   -3.399E+00   -3.411E+00   -3.422E+00   -3.434E+00   -3.445E+00   -3.457E+00
    -3.468E+00   -3.480E+00   -3.491E+00   -3.503E+00   -3.514E+00   -3.525E+00   -3.537E+00   -3.548E+00   -3.560E+00   -3.571E+00
    -3.583E+00   -3.594E+00   -3.606E+00   -3.617E+00   -3.629E+00   -3.640E+00   -3.652E+00   -3.663E+00   -3.675E+00   -3.686E+00
    -3.698E+00   -3.709E+00   -3.721E+00   -3.732E+00   -3.744E+00   -3.755E+00   -3.767E+00   -3.778E+00   -3.790E+00   -3.801E+00
    -3.813E+00   -3.824E+00   -3.836E+00   -3.847E+00   -3.859E+00   -3.870E+00   -3.882E+00   -3.893E+00   -3.905E+00   -3.916E+00
    -3.928E+00   -3.939E+00   -3.950E+00   -3.962E+00   -3.973E+00   -3.985E+00   -3.996E+00   -4.008E+00   -4.019E+00   -4.031E+00
    -4.042E+00   -4.054E+00   -4.065E+00   -4.077E+00   -4.088E+00   -4.100E+00   -4.111E+00   -4.123E+00   -4.134E+00   -4.146E+00
    -4.157E+00   -4.169E+00   -4.180E+00   -4.192E+00   -4.203E+00   -4.215E+00   -4.226E+00   -4.238E+00   -4.249E+00   -4.261E+00
    -4.272E+00   -4.284E+00   -4.295E+00   -4.307E+00   -4.318E+00   -4.329E+00   -4.341E+00   -4.352E+00   -4.364E+00   -4.375E+00
    -4.387E+00   -4.398E+00   -4.410E+00   -4.421E+00   -4.433E+00   -4.444E+00   -4.456E+00   -4.467E+00   -4.479E+00   -4.490E+00
    -4.502E+00   -4.513E+00   -4.525E+00   -4.536E+00   -4.548E+00   -4.559E+00   -4.571E+00   -4.582E+00   -4.594E+00   -4.605E+00
    -4.617E+00   -4.628E+00   -4.640E+00   -4.651E+00   -4.663E+00   -4.674E+00   -4.686E+00   -4.697E+00   -4.708E+00   -4.720E+00
    -4.731E+00   -4.743E+00   -4.754E+00   -4.766E+00   -4.777E+00   -4.789E+00   -4.800E+00   -4.812E+00   -4.823E+00   -4.835E+00
    -4.846E+00   -4.858E+00   -4.869E+00   -4.881E+00   -4.892E+00   -4.904E+00   -4.915E+00   -4.927E+00   -4.938E+00   -4.950E+00
    -4.961E+00   -4.973E+00   -4.984E+00   -4.996E+00   -5.007E+00   -5.019E+00   -5.030E+00   -5.042E+00   -5.053E+00   -5.065E+00
    -5.076E+00   -5.087E+00   -5.099E+00   -5.110E+00   -5.122E+00   -5.133E+00   -5.145E+00   -5.156E+00   -5.168E+00   -5.179E+00
    -5.191E+00   -5.202E+00   -5.214E+00   -5.225E+00   -5.237E+00   -5.248E+00   -5.260E+00   -5.271E+00   -5.283E+00   -5.294E+00
    -5.306E+00   -5.317E+00   -5.329E+00   -5.340E+00   -5.352E+00   -5.363E+00   -5.375E+00   -5.386E+00   -5.398E+00   -5.409E+00
    -5.421E+00   -5.432E+00   -5.443E+00   -5.455E+00   -5.466E+00   -5.478E+00   -5.489E+00   -5.501E+00   -5.512E+00   -5.524E+00
    -5.535E+00   -5.547E+00   -5.558E+00   -5.570E+00   -5.581E+00   -5.593E+00   -5.604E+00   -5.616E+00   -5.627E+00   -5.639E+00
    -5.650E+00   -5.662E+00   -5.673E+00   -5.685E+00   -5.696E+00   -5.708E+00   -5.719E+00   -5.731E+00   -5.742E+00   -5.754E+00
    -5.765E+00   -5.776E+00   -5.788E+00   -5.799E+00   -5.811E+00   -5.822E+00   -5.834E+00   -5.845E+00   -5.857E+00   -5.868E+00
    -5.880E+00   -5.891E+00   -5.903E+00   -5.914E+00   -5.926E+00   -5.937E+00   -5.949E+00   -5.960E+00   -5.972E+00   -5.983E+00
    -5.995E+00   -6.006E+00   -6.018E+00   -6.029E+00   -6.041E+00   -6.052E+00   -6.064E+00   -6.075E+00   -6.087E+00   -6.098E+00
    -6.110E+00   -6.121E+00   -6.132E+00   -6.144E+00   -6.155E+00   -6.167E+00   -6.178E+00   -6.190E+00   -6.201E+00   -6.213E+00
    -6.224E+00   -6.236E+00   -6.247E+00   -6.259E+00   -6.270E+00   -6.282E+00   -6.293E+00   -6.305E+00   -6.316E+00   -6.328E+00
    -6.339E+00   -6.351E+00   -6.362E+00   -6.374E+00   -6.385E+00   -6.397E+00   -6.408E+00   -6.420E+00   -6.431E+00   -6.443E+00
    -6.454E+00   -6.465E+00   -6.477E+00   -6.488E+00   -6.500E+00   -6.511E+00   -6.523E+00   -6.534E+00   -6.546E+00   -6.557E+00
    -6.569E+00   -6.580E+00   -6.592E+00   -6.603E+00   -6.615E+00   -6.626E+00   -6.638E+00   -6.649E+00   -6.661E+00   -6.672E+00
    -6.684E+00   -6.695E+00   -6.707E+00   -6.718E+00   -6.730E+00   -6.741E+00   -6.753E+00   -6.764E+00   -6.776E+00   -6.787E+00
    -6.799E+00   -6.810E+00   -6.821E+00   -6.833E+00   -6.844E+00   -6.856E+00   -6.867E+00   -6.879E+00   -6.890E+00   -6.902E+00
    -6.913E+00   -6.925E+00   -6.936E+00   -6.948E+00   -6.959E+00   -6.971E+00   -6.982E+00   -6.994E+00   -7.005E+00   -7.017E+00
    -7.028E+00   -7.040E+00   -7.051E+00   -7.063E+00   -7.074E+00   -7.086E+00   -7.097E+00   -7.109E+00   -7.120E+00   -7.132E+00
    -7.143E+00   -7.155E+00   -7.166E+00   -7.177E+00   -7.189E+00   -7.200E+00   -7.212E+00   -7.223E+00   -7.235E+00   -7.246E+00
    -7.258E+00   -7.269E+00   -7.281E+00   -7.292E+00   -7.304E+00   -7.315E+00   -7.327E+00   -7.338E+00   -7.350E+00   -7.361E+00
    -7.373E+00   -7.384E+00   -7.396E+00   -7.407E+00   -7.419E+00   -7.430E+00   -7.442E+00   -7.453E+00   -7.465E+00   -7.476E+00
    -7.488E+00   -7.499E+00   -7.511E+00   -7.522E+00   -7.533E+00   -7.545E+00   -7.556E+00   -7.568E+00   -7.579E+00   -7.591E+00
    -7.602E+00   -7.614E+00   -7.625E+00   -7.637E+00   -7.648E+00   -7.660E+00   -7.671E+00   -7.683E+00   -7.694E+00   -7.706E+00
    -7.717E+00   -7.729E+00   -7.740E+00   -7.752E+00   -7.763E+00   -7.775E+00   -7.786E+00   -7.798E+00   -7.809E+00   -7.821E+00
    -7.832E+00   -7.844E+00   -7.855E+00   -7.867E+00   -7.878E+00   -7.889E+00   -7.901E+00   -7.912E+00   -7.924E+00   -7.935E+00
    -7.947E+00   -7.958E+00   -7.970E+00   -7.981E+00   -7.993E+00   -8.004E+00   -8.016E+00   -8.027E+00   -8.039E+00   -8.050E+00
    -8.062E+00   -8.073E+00   -8.085E+00   -8.096E+00   -8.108E+00   -8.119E+00   -8.131E+00   -8.142E+00   -8.154E+00   -8.165E+00
    -8.177E+00   -8.188E+00   -8.200E+00   -8.211E+00   -8.223E+00   -8.234E+00   -8.245E+00   -8.257E+00   -8.268E+00   -8.280E+00
    -8.291E+00   -8.303E+00   -8.314E+00   -8.326E+00   -8.337E+00   -8.349E+00   -8.360E+00   -8.372E+00
 Ala      Conc. = 1.03E+02
