 LCModel (Version 6.3-1L) Copyright: S.W. Provencher.          Ref.: Magn. Reson. Med. 30:672-679 (1993).                
 Slice#3 Row#3 Col#12  PD_24_press_2_raw_act
 36 lines in following concentration table = NCONC+1
    Conc.  %SD /Cr+PCr  Metabolite                                         
    8.665 241%   0.142 Ala                                                 
   20.749 102%   0.341 Asp                                                 
   26.222 110%   0.430 Cr                                                  
   34.697  91%   0.570 PCr                                                 
    6.335 196%   0.104 GABA                                                
   11.398 113%   0.187 Glc                                                 
    0.000 999%   0.000 Gln                                                 
  110.959  51%   1.821 Glu                                                 
   33.403  34%   0.548 GPC                                                 
    0.000 999%   0.000 PCh                                                 
   12.983 133%   0.213 GSH                                                 
    0.000 999%   0.000 Ins                                                 
    3.834 552% 6.3E-02 Lac                                                 
  121.809  33%   2.000 NAA                                                 
   70.190  33%   1.152 NAAG                                                
    4.277  91% 7.0E-02 Scyllo                                              
   25.334  81%   0.416 Tau                                                 
   17.566 111%   0.288 -CrCH2                                              
   33.403  34%   0.548 GPC+PCh                                             
  191.999  30%   3.152 NAA+NAAG                                            
   60.918  39%   1.000 Cr+PCr                                              
  110.959  51%   1.821 Glu+Gln                                             
  705.381  46%  11.579 Lip13a                                              
    0.000 999%   0.000 Lip13b                                              
  347.430  48%   5.703 Lip09                                               
 1.09E+03  19%  17.962 MM09                                                
   73.828 158%   1.212 Lip20                                               
   28.422 908%   0.467 MM20                                                
  414.361  38%   6.802 MM12                                                
    0.000 999%   0.000 MM14                                                
 1.32E+03  16%  21.656 MM17                                                
  705.381  46%  11.579 Lip13a+Lip13b                                       
 1.12E+03  25%  18.381 MM14+Lip13a+Lip13b+MM12                             
 1.44E+03  11%  23.665 MM09+Lip09                                          
  102.250 247%   1.678 MM20+Lip20                                          
   6 lines in following misc. output table
  FWHM = 0.031 ppm    S/N =   2                                            
  Data shift = 0.008 ppm                                                   
  Ph: -94 deg     -18.8 deg/ppm                                            
  alphaB,S = 8.5E+01,   3.2E+00                                            
   14 spline knots.   Ns = 5(1)                                            
   2 inflections.     2 extrema                                            
  498 points on ppm-axis = NY
      4.000000     3.992357     3.984714     3.977070     3.969427     3.961784     3.954141     3.946497     3.938854     3.931211
      3.923568     3.915925     3.908281     3.900638     3.892995     3.885352     3.877708     3.870065     3.862422     3.854779
      3.847136     3.839492     3.831849     3.824206     3.816563     3.808919     3.801276     3.793633     3.785990     3.778347
      3.770703     3.763060     3.755417     3.747774     3.740130     3.732487     3.724844     3.717201     3.709558     3.701914
      3.694271     3.686628     3.678985     3.671341     3.663698     3.656055     3.648412     3.640769     3.633125     3.625482
      3.617839     3.610196     3.602552     3.594909     3.587266     3.579623     3.571980     3.564336     3.556693     3.549050
      3.541407     3.533763     3.526120     3.518477     3.510834     3.503191     3.495547     3.487904     3.480261     3.472618
      3.464974     3.457331     3.449688     3.442045     3.434402     3.426758     3.419115     3.411472     3.403829     3.396185
      3.388542     3.380899     3.373256     3.365613     3.357969     3.350326     3.342683     3.335040     3.327396     3.319753
      3.312110     3.304467     3.296824     3.289180     3.281537     3.273894     3.266251     3.258607     3.250964     3.243321
      3.235678     3.228034     3.220391     3.212748     3.205105     3.197462     3.189818     3.182175     3.174532     3.166889
      3.159245     3.151602     3.143959     3.136316     3.128673     3.121029     3.113386     3.105743     3.098100     3.090456
      3.082813     3.075170     3.067527     3.059884     3.052240     3.044597     3.036954     3.029311     3.021667     3.014024
      3.006381     2.998738     2.991095     2.983451     2.975808     2.968165     2.960522     2.952878     2.945235     2.937592
      2.929949     2.922306     2.914662     2.907019     2.899376     2.891733     2.884089     2.876446     2.868803     2.861160
      2.853517     2.845873     2.838230     2.830587     2.822944     2.815300     2.807657     2.800014     2.792371     2.784728
      2.777084     2.769441     2.761798     2.754155     2.746511     2.738868     2.731225     2.723582     2.715939     2.708295
      2.700652     2.693009     2.685366     2.677722     2.670079     2.662436     2.654793     2.647150     2.639506     2.631863
      2.624220     2.616577     2.608933     2.601290     2.593647     2.586004     2.578361     2.570717     2.563074     2.555431
      2.547788     2.540144     2.532501     2.524858     2.517215     2.509572     2.501928     2.494285     2.486642     2.478999
      2.471355     2.463712     2.456069     2.448426     2.440783     2.433139     2.425496     2.417853     2.410210     2.402566
      2.394923     2.387280     2.379637     2.371994     2.364350     2.356707     2.349064     2.341421     2.333777     2.326134
      2.318491     2.310848     2.303205     2.295561     2.287918     2.280275     2.272632     2.264988     2.257345     2.249702
      2.242059     2.234416     2.226772     2.219129     2.211486     2.203843     2.196199     2.188556     2.180913     2.173270
      2.165627     2.157983     2.150340     2.142697     2.135054     2.127410     2.119767     2.112124     2.104481     2.096838
      2.089194     2.081551     2.073908     2.066265     2.058621     2.050978     2.043335     2.035692     2.028049     2.020405
      2.012762     2.005119     1.997476     1.989833     1.982190     1.974546     1.966903     1.959260     1.951617     1.943974
      1.936331     1.928688     1.921045     1.913402     1.905759     1.898115     1.890472     1.882829     1.875186     1.867543
      1.859900     1.852257     1.844614     1.836971     1.829327     1.821684     1.814041     1.806398     1.798755     1.791112
      1.783469     1.775826     1.768183     1.760540     1.752896     1.745253     1.737610     1.729967     1.722324     1.714681
      1.707038     1.699395     1.691752     1.684108     1.676465     1.668822     1.661179     1.653536     1.645893     1.638250
      1.630607     1.622964     1.615321     1.607677     1.600034     1.592391     1.584748     1.577105     1.569462     1.561819
      1.554176     1.546533     1.538890     1.531246     1.523603     1.515960     1.508317     1.500674     1.493031     1.485388
      1.477745     1.470102     1.462458     1.454815     1.447172     1.439529     1.431886     1.424243     1.416600     1.408957
      1.401314     1.393671     1.386027     1.378384     1.370741     1.363098     1.355455     1.347812     1.340169     1.332526
      1.324883     1.317240     1.309596     1.301953     1.294310     1.286667     1.279024     1.271381     1.263738     1.256095
      1.248452     1.240808     1.233165     1.225522     1.217879     1.210236     1.202593     1.194950     1.187307     1.179664
      1.172021     1.164377     1.156734     1.149091     1.141448     1.133805     1.126162     1.118519     1.110876     1.103233
      1.095590     1.087946     1.080303     1.072660     1.065017     1.057374     1.049731     1.042088     1.034445     1.026802
      1.019158     1.011515     1.003872     0.996229     0.988586     0.980943     0.973300     0.965657     0.958014     0.950371
      0.942727     0.935084     0.927441     0.919798     0.912155     0.904512     0.896869     0.889226     0.881583     0.873940
      0.866296     0.858653     0.851010     0.843367     0.835724     0.828081     0.820438     0.812795     0.805152     0.797508
      0.789865     0.782222     0.774579     0.766936     0.759293     0.751650     0.744007     0.736364     0.728721     0.721077
      0.713434     0.705791     0.698148     0.690505     0.682862     0.675219     0.667576     0.659933     0.652290     0.644646
      0.637003     0.629360     0.621717     0.614074     0.606431     0.598788     0.591145     0.583502     0.575858     0.568215
      0.560572     0.552929     0.545286     0.537643     0.530000     0.522357     0.514714     0.507071     0.499427     0.491784
      0.484141     0.476498     0.468855     0.461212     0.453569     0.445925     0.438282     0.430639     0.422996     0.415353
      0.407710     0.400067     0.392424     0.384780     0.377137     0.369494     0.361851     0.354208     0.346565     0.338922
      0.331278     0.323635     0.315992     0.308349     0.300706     0.293063     0.285420     0.277777     0.270133     0.262490
      0.254847     0.247204     0.239561     0.231918     0.224275     0.216631     0.208988     0.201345
 NY phased data points follow
  -4.08138E-01 -3.98751E+00 -2.98032E+00 -5.65093E-01 -2.08366E+00  5.02402E+00 -4.03557E+00 -2.26085E+00 -1.24905E+00  5.91175E+00
  -6.38102E+00  4.39338E+00  1.50639E+00  2.73556E+00 -1.11057E+00 -2.50106E+00  3.75967E-01 -1.40459E+00  4.42627E+00  7.97768E+00
  -7.11639E+00 -4.55133E+00  1.40072E+00 -2.75490E-02  3.12788E+00 -3.27935E+00 -3.87345E+00  4.15746E+00  5.44464E+00  3.91058E+00
  -1.24755E+00  5.47018E+00 -3.47962E+00  3.35527E+00  1.34901E+00  5.08985E-01 -2.85036E+00  2.65561E+00 -4.96808E+00 -2.32798E+00
  -2.66484E-01 -1.32527E+00 -5.61775E+00 -4.86913E-01 -9.08425E-01 -2.81179E+00 -2.99571E+00 -1.87218E+00 -3.18244E+00  2.67711E+00
   1.45503E+00 -1.14121E+00 -6.14483E+00 -1.99820E+00  1.21889E-01 -2.25656E+00 -4.26027E+00  3.17530E-01  3.46879E+00  6.76644E+00
  -6.37969E+00 -1.09965E+00 -3.68986E+00 -2.59736E+00 -2.26808E+00 -3.76447E+00 -3.46563E+00 -3.85457E-01 -5.55462E-01 -7.94173E+00
  -1.33255E+00 -2.16613E+00  2.50483E+00  9.77593E-01 -1.52253E+00  3.62064E+00  2.93505E+00  1.47027E+00 -5.19018E-01 -6.54798E-01
  -4.81074E+00 -7.63156E-01 -2.78009E+00  2.69102E+00 -2.98347E+00  9.59401E-01  3.38271E-01  1.04118E+00 -1.77705E+00  3.94829E+00
   2.96023E+00  4.69824E-01 -3.20341E-01  3.64159E+00  6.44064E-01 -9.17191E+00 -2.79019E+00 -8.18503E-01 -9.49083E+00 -7.83182E+00
  -1.60447E+00 -4.06717E+00  5.19897E+00  1.37430E+01  1.11804E+01  6.58984E+00  5.61853E+00 -2.36351E+00 -8.70332E-01 -1.63021E+00
   1.45888E+00  4.14552E+00 -3.67314E-01 -2.63875E+00 -1.74112E+00  3.79370E-01 -4.32379E-01 -6.95500E+00 -5.30836E+00 -7.06421E+00
   9.23948E-01 -1.72666E+00 -6.22065E+00 -4.22093E+00 -5.37767E+00 -3.09102E+00 -3.88359E+00  8.08356E+00  4.32090E+00  7.90036E+00
   8.33285E-01  6.75364E+00  4.11308E+00 -1.34020E+00 -3.23062E+00 -3.37412E+00 -2.00497E+00  1.85083E+00  2.81267E+00 -4.76716E+00
  -1.86827E+00 -7.07493E+00 -5.41913E-01 -2.97701E+00  2.33786E+00 -6.28301E+00  5.46075E+00  1.81944E-01  4.30525E+00 -2.66341E+00
  -1.21498E+00 -4.02390E-01 -2.11281E+00 -6.02391E+00  2.81020E+00  2.51560E+00 -9.05062E-01 -2.26535E+00  6.42890E+00 -1.07061E+00
  -3.28005E+00 -6.62441E+00 -1.98095E+00  1.96456E+00  3.87935E+00 -1.46153E+00 -1.27851E+00  3.70644E+00  1.19611E+00 -2.72853E+00
  -3.20747E+00 -6.85607E+00 -3.56444E+00  3.39881E+00 -1.28472E+00 -1.83772E+00  4.17642E-01 -1.18646E+00 -4.51788E+00 -2.15473E-01
   3.74850E+00  2.47866E+00  4.18847E+00 -1.69464E+00 -1.68325E+00  3.11079E+00  5.21003E+00  2.89706E+00 -1.00312E+00 -1.77572E+00
   2.45062E+00  5.87014E+00  5.83050E+00  1.43677E+00  1.57791E-01  3.32768E+00 -3.44341E-01 -2.95335E+00  2.91719E+00 -8.36263E-01
  -6.57783E+00 -1.31219E+00  2.44464E+00 -3.97659E-02  1.74146E+00  1.58967E+00  1.25146E+00 -6.94384E+00 -4.99533E-02 -6.95523E+00
  -3.20051E+00 -2.75306E+00  2.53097E+00 -2.59980E+00  3.65231E+00  1.17631E+00  4.37693E+00  4.91982E+00  8.87747E+00  2.25063E+00
   2.18421E+00 -4.66572E+00 -8.69271E-01 -3.82345E+00  1.62033E+00 -7.19798E+00 -5.98302E+00 -1.69027E+00 -3.53786E+00  1.14334E-01
  -9.03253E-01 -5.36974E-01  1.70275E+00  1.32892E+00  1.31317E+00  1.04502E+00 -5.60241E+00  3.75136E+00 -3.23724E+00 -3.93944E-01
  -6.29514E+00  3.90006E-02 -2.83656E+00  8.07947E-01 -4.15821E+00  4.80669E-01  7.10274E-01 -4.28874E+00 -1.16581E+00  6.83097E+00
  -2.12481E+00  3.64674E+00 -6.51718E+00 -5.42111E+00 -8.80526E+00 -6.42278E+00 -6.18080E+00  4.05272E+00  4.06739E+00  8.15038E+00
   9.69224E+00  1.52579E+01  1.61505E+01  1.03549E+01  1.62115E+00  4.28246E+00  2.20369E-01  2.54144E+00 -5.84327E-01 -2.88222E+00
  -7.43948E+00 -3.96498E+00 -1.36677E+00 -5.59097E-01 -3.67498E+00 -3.05114E+00 -7.22931E-01 -4.96077E-01 -2.70816E+00  2.79701E-01
  -1.55762E+00  5.28804E+00  2.60200E+00 -2.70341E+00  5.38346E+00 -1.43661E+00 -1.22940E+00  2.71782E+00  3.41654E+00  5.10814E+00
   5.27311E+00  5.28108E+00  5.81521E+00 -2.55840E+00 -2.39960E+00 -4.50391E+00  4.75752E+00  4.56556E+00  5.85885E+00  3.15294E+00
   1.04413E+00  5.61327E+00 -1.76643E+00  6.75876E+00  6.44245E+00  4.10722E+00  5.93216E+00  1.07186E+01  4.97083E+00  1.28932E+01
   8.81574E+00  6.63847E+00  1.00848E+01  1.17852E+01  9.25649E+00  1.53695E+01  6.26067E+00  1.00085E+01  7.39540E+00  1.92675E+00
   5.30675E+00 -1.31507E+00  7.70012E+00  7.33838E+00  7.62299E-01  8.48855E+00  3.99498E+00 -6.93115E-01  6.32337E+00  4.67148E-02
   3.98337E+00 -3.76247E-01 -5.09510E+00  3.00320E+00  1.93133E+00 -2.47103E-01 -3.71692E+00  2.32632E+00 -5.58615E-01  2.97098E+00
  -1.89699E+00 -9.31338E-01  2.23721E+00 -2.33362E+00  2.47868E+00 -4.98429E-01  4.59350E+00  1.82506E+00  3.62419E+00 -1.85200E+00
   3.92107E-01  1.79152E+00  2.62788E+00  6.41117E-01  5.96995E+00 -1.31654E+00  1.62079E+00  7.77230E-01  4.39194E+00  2.81371E-01
   1.78980E+00  3.09837E+00  5.15202E+00  4.13120E+00  1.03393E+01  1.71848E+00  6.07656E+00  1.51378E+00  3.27087E+00  2.55434E+00
   1.45791E+00 -2.63807E+00  7.69651E+00  7.75589E+00  1.05776E+01  5.13425E+00  7.16872E+00  2.64209E+00  7.68475E+00  8.06390E+00
  -8.10022E-02  2.86665E+00  5.20292E+00  2.12886E+00  7.01588E+00  3.50793E+00  1.18225E+01  5.26428E-01  3.12302E+00  1.33100E+01
   6.31336E+00  3.79447E+00  1.14998E+01  5.31404E+00  4.62829E+00  6.99547E+00  5.07081E+00  6.62074E+00  1.24947E+01  5.76055E+00
   2.75234E+00  9.80027E+00  4.24322E+00  1.11958E+01  8.89361E+00  4.85306E+00  7.61135E+00  5.61221E+00  4.26770E+00  4.95062E+00
   1.18030E+01  8.05002E+00  5.25466E+00  9.58350E+00  5.11197E+00  5.63069E+00 -2.14814E+00  2.69388E+00  8.12420E+00  4.73050E+00
   4.85126E+00 -3.36768E+00  6.86298E+00  3.71978E+00 -2.22421E+00  1.61835E+00  7.27528E-01 -4.73357E+00 -3.29278E+00  1.73019E+00
  -1.03448E+00 -1.03993E+00 -3.41074E+00 -2.91547E+00 -7.99622E-01  2.62264E-01  4.05762E+00 -2.80463E+00  1.64152E-01  4.96716E-01
   2.48247E+00 -1.22103E-01 -2.28497E+00 -2.67859E+00 -5.52735E-01 -3.99764E+00 -3.81707E+00  6.90771E+00 -3.55104E+00 -3.70417E+00
  -7.78892E+00 -8.36981E-01 -4.27180E+00 -7.20824E-01 -4.32135E+00 -2.57938E+00 -5.20881E+00 -3.78666E+00 -5.14905E+00  6.07902E-01
   2.66103E-01  5.79576E-01 -5.81561E+00 -3.83298E-02 -5.77109E+00 -5.12701E+00 -1.99378E-01 -8.91450E+00 -5.53218E+00 -4.50587E-01
  -4.51757E+00 -2.10241E+00 -2.20821E+00 -4.04244E+00  2.03468E+00 -3.22639E+00 -3.85150E+00 -3.96098E+00 -2.41642E+00  1.22597E+00
  -4.55777E+00 -1.80101E+00 -1.16437E+00 -4.32881E+00 -5.91924E+00 -2.25061E+00 -6.44752E-01 -1.11917E+01 -5.57991E+00 -9.94035E-01
   1.42374E+00 -3.64894E+00 -3.91421E+00 -5.81911E+00 -4.68227E+00 -5.99572E+00 -5.49774E-02 -5.71686E+00
 NY points of the fit to the data follow
  -5.78743E-01 -6.56245E-01 -7.28022E-01 -7.85380E-01 -9.58866E-01 -1.12167E+00 -1.31813E+00 -1.44220E+00 -9.90125E-01 -4.22907E-02
   1.03202E+00  2.00536E+00  2.55790E+00  2.39918E+00  1.66460E+00  9.01688E-01  4.59995E-01  2.07349E-01 -4.04913E-02 -3.00167E-01
  -5.25192E-01 -6.30445E-01 -5.64496E-01 -2.65979E-01 -2.61150E-02 -1.26292E-01 -2.44304E-01 -3.66154E-01 -7.71563E-01 -1.14171E+00
  -9.94831E-01 -4.03868E-01  2.02378E-01  7.11152E-01  1.13006E+00  1.16854E+00  6.87508E-01 -8.61299E-02 -7.78974E-01 -1.05042E+00
  -9.64281E-01 -7.29090E-01 -3.40145E-01  3.74681E-02  1.03672E-01 -7.39875E-02 -2.30098E-01 -3.51415E-01 -4.73842E-01 -4.81801E-01
  -3.18837E-01 -1.28517E-01 -5.96251E-02 -9.80244E-02 -1.63768E-01 -2.19547E-01 -2.74664E-01 -3.43515E-01 -4.23234E-01 -4.88683E-01
  -5.25884E-01 -5.54894E-01 -5.81361E-01 -5.66372E-01 -5.42762E-01 -4.78957E-01 -3.67243E-01 -3.04019E-01 -3.26927E-01 -3.99197E-01
  -5.83129E-01 -8.32562E-01 -9.19789E-01 -8.04120E-01 -5.61615E-01 -2.08676E-01  1.20306E-01  1.70058E-01 -9.31541E-02 -4.70915E-01
  -8.03485E-01 -1.11353E+00 -1.25080E+00 -1.07158E+00 -7.53214E-01 -3.80665E-01  7.49881E-02  4.20732E-01  4.53333E-01  2.40136E-01
  -1.16307E-02 -1.67487E-01 -2.70146E-01 -4.95107E-01 -9.08530E-01 -1.31839E+00 -1.86458E+00 -3.81197E+00 -6.42843E+00 -6.54703E+00
  -4.38572E+00 -6.94589E-01  4.94194E+00  1.03909E+01  1.19850E+01  9.18621E+00  4.89438E+00  1.80612E+00  2.94307E-01 -2.86812E-01
  -4.47352E-01 -5.28916E-01 -5.86164E-01 -6.22262E-01 -6.41609E-01 -6.40822E-01 -6.41320E-01 -6.56683E-01 -6.82221E-01 -7.48522E-01
  -9.31487E-01 -1.58274E+00 -3.33177E+00 -4.58910E+00 -4.11971E+00 -2.44132E+00  4.39080E-01  4.19130E+00  6.72699E+00  6.43636E+00
   4.16340E+00  1.87774E+00  5.56119E-01  5.74084E-03 -2.19080E-01 -4.49223E-01 -7.44394E-01 -9.86142E-01 -1.07133E+00 -1.00867E+00
  -8.56306E-01 -7.04466E-01 -6.15763E-01 -5.86467E-01 -5.85303E-01 -5.61880E-01 -5.09785E-01 -4.85723E-01 -5.17033E-01 -5.48477E-01
  -5.31749E-01 -5.33715E-01 -5.86038E-01 -6.81554E-01 -8.34902E-01 -9.12863E-01 -7.74840E-01 -5.53829E-01 -3.89824E-01 -3.75515E-01
  -6.22061E-01 -9.71107E-01 -1.19432E+00 -1.15746E+00 -8.79799E-01 -5.54855E-01 -4.29285E-01 -5.81855E-01 -8.30584E-01 -1.02034E+00
  -1.09805E+00 -9.66141E-01 -7.61811E-01 -7.02936E-01 -7.99479E-01 -1.02819E+00 -1.25622E+00 -1.30719E+00 -1.10329E+00 -8.89355E-01
  -9.32689E-01 -1.16310E+00 -1.34752E+00 -1.43950E+00 -1.40480E+00 -1.28154E+00 -1.25320E+00 -1.33769E+00 -1.27238E+00 -9.13888E-01
  -4.65623E-01 -1.59892E-01 -4.23523E-02 -3.08367E-02 -1.73966E-01 -4.30198E-01 -5.99414E-01 -6.74574E-01 -8.25069E-01 -1.00983E+00
  -1.01367E+00 -8.71480E-01 -6.61828E-01 -3.52659E-01  2.70983E-02  3.95071E-01  5.32168E-01  3.76649E-01  5.08811E-02 -5.27670E-01
  -1.32998E+00 -2.25266E+00 -2.78487E+00 -2.51342E+00 -1.58558E+00 -1.63120E-01  1.46979E+00  2.66411E+00  2.79333E+00  1.73085E+00
   4.52844E-02 -1.57473E+00 -2.97619E+00 -3.84349E+00 -3.66210E+00 -2.51401E+00 -1.04559E+00  5.34650E-02  5.16767E-01  5.25048E-01
   2.15180E-01 -3.10543E-01 -7.96059E-01 -9.48720E-01 -7.12015E-01 -2.13800E-01  3.53592E-01  7.62705E-01  8.90996E-01  5.82539E-01
  -9.27247E-02 -8.25581E-01 -1.36898E+00 -1.63423E+00 -1.45401E+00 -7.91587E-01  1.26426E-02  5.06870E-01  5.07281E-01  1.06597E-01
  -8.44089E-01 -3.09770E+00 -5.19346E+00 -5.10852E+00 -3.92338E+00 -3.73961E+00 -2.44842E+00  1.24077E+00  4.36772E+00  6.94515E+00
   1.13005E+01  1.54261E+01  1.51626E+01  1.06371E+01  5.50627E+00  2.17356E+00  5.21304E-01 -1.47615E-01 -3.80263E-01 -5.48682E-01
  -7.08993E-01 -7.94090E-01 -7.36444E-01 -5.59870E-01 -3.35232E-01 -1.32990E-01 -2.05710E-02 -4.56939E-02 -1.65341E-01 -2.85204E-01
  -3.35943E-01 -3.34450E-01 -2.93707E-01 -1.95222E-01 -5.57576E-02  8.14457E-02  1.99514E-01  2.81822E-01  3.40950E-01  4.13704E-01
   5.17729E-01  6.69331E-01  8.91833E-01  1.18722E+00  1.53220E+00  1.89222E+00  2.25535E+00  2.63936E+00  3.04987E+00  3.48575E+00
   3.95903E+00  4.48175E+00  5.04570E+00  5.62550E+00  6.19531E+00  6.73677E+00  7.23452E+00  7.67505E+00  8.04583E+00  8.33498E+00
   8.53211E+00  8.62933E+00  8.62226E+00  8.51024E+00  8.29603E+00  7.98658E+00  7.59274E+00  7.12824E+00  6.60794E+00  6.04681E+00
   5.45783E+00  4.84656E+00  4.22068E+00  3.69993E+00  3.33958E+00  3.04991E+00  2.79673E+00  2.54728E+00  2.19545E+00  1.71875E+00
   1.17814E+00  6.93486E-01  4.00887E-01  2.75424E-01  2.80862E-01  4.65378E-01  7.94067E-01  1.09951E+00  1.25623E+00  1.29356E+00
   1.30870E+00  1.34692E+00  1.40779E+00  1.52961E+00  1.72842E+00  1.95505E+00  2.18468E+00  2.40022E+00  2.54947E+00  2.60692E+00
   2.59018E+00  2.58465E+00  2.65272E+00  2.77047E+00  2.92722E+00  3.13770E+00  3.36356E+00  3.52967E+00  3.60247E+00  3.61204E+00
   3.59904E+00  3.57811E+00  3.55047E+00  3.51332E+00  3.46388E+00  3.40222E+00  3.32959E+00  3.24804E+00  3.15991E+00  3.06788E+00
   2.97471E+00  2.88346E+00  2.79730E+00  2.71949E+00  2.65317E+00  2.60145E+00  2.56725E+00  2.55354E+00  2.56308E+00  2.59850E+00
   2.66205E+00  2.75575E+00  2.88122E+00  3.03987E+00  3.23249E+00  3.45937E+00  3.71991E+00  4.01280E+00  4.33575E+00  4.68560E+00
   5.05796E+00  5.44735E+00  5.84701E+00  6.24928E+00  6.64554E+00  7.02662E+00  7.38278E+00  7.70426E+00  7.98148E+00  8.20573E+00
   8.36933E+00  8.46614E+00  8.49167E+00  8.44344E+00  8.32102E+00  8.12630E+00  7.86313E+00  7.53730E+00  7.15603E+00  6.72787E+00
   6.26213E+00  5.76871E+00  5.25745E+00  4.73786E+00  4.21869E+00  3.70784E+00  3.21209E+00  2.73712E+00  2.28728E+00  1.86572E+00
   1.47434E+00  1.11413E+00  7.85189E-01  4.86964E-01  2.18208E-01 -2.26994E-02 -2.37760E-01 -4.29003E-01 -5.98583E-01 -7.48560E-01
  -8.81066E-01 -9.98049E-01 -1.10139E+00 -1.19266E+00 -1.27335E+00 -1.34474E+00 -1.40809E+00 -1.46441E+00 -1.51467E+00 -1.55954E+00
  -1.59973E+00 -1.63577E+00 -1.66827E+00 -1.69765E+00 -1.72429E+00 -1.74845E+00 -1.77043E+00 -1.79046E+00 -1.80884E+00 -1.82571E+00
  -1.84125E+00 -1.85551E+00 -1.86867E+00 -1.88084E+00 -1.89218E+00 -1.90272E+00 -1.91253E+00 -1.92162E+00 -1.93012E+00 -1.93807E+00
  -1.94558E+00 -1.95263E+00 -1.95925E+00 -1.96543E+00 -1.97129E+00 -1.97684E+00 -1.98214E+00 -1.98713E+00 -1.99186E+00 -1.99631E+00
  -2.00060E+00 -2.00470E+00 -2.00865E+00 -2.01239E+00 -2.01595E+00 -2.01934E+00 -2.02265E+00 -2.02584E+00 -2.02892E+00 -2.03185E+00
  -2.03467E+00 -2.03739E+00 -2.04007E+00 -2.04267E+00 -2.04519E+00 -2.04758E+00 -2.04992E+00 -2.05220E+00 -2.05447E+00 -2.05667E+00
  -2.05880E+00 -2.06084E+00 -2.06287E+00 -2.06486E+00 -2.06685E+00 -2.06877E+00 -2.07064E+00 -2.07245E+00
 NY background values follow
    -5.340E-01   -5.366E-01   -5.393E-01   -5.420E-01   -5.446E-01   -5.473E-01   -5.499E-01   -5.526E-01   -5.553E-01   -5.579E-01
    -5.606E-01   -5.633E-01   -5.659E-01   -5.686E-01   -5.713E-01   -5.739E-01   -5.766E-01   -5.792E-01   -5.819E-01   -5.846E-01
    -5.872E-01   -5.899E-01   -5.926E-01   -5.952E-01   -5.979E-01   -6.005E-01   -6.032E-01   -6.059E-01   -6.085E-01   -6.112E-01
    -6.138E-01   -6.165E-01   -6.192E-01   -6.218E-01   -6.245E-01   -6.271E-01   -6.298E-01   -6.325E-01   -6.351E-01   -6.378E-01
    -6.404E-01   -6.431E-01   -6.457E-01   -6.484E-01   -6.511E-01   -6.537E-01   -6.564E-01   -6.590E-01   -6.617E-01   -6.644E-01
    -6.670E-01   -6.697E-01   -6.723E-01   -6.750E-01   -6.776E-01   -6.803E-01   -6.829E-01   -6.856E-01   -6.883E-01   -6.909E-01
    -6.936E-01   -6.962E-01   -6.989E-01   -7.015E-01   -7.042E-01   -7.068E-01   -7.095E-01   -7.121E-01   -7.148E-01   -7.175E-01
    -7.201E-01   -7.228E-01   -7.254E-01   -7.281E-01   -7.307E-01   -7.334E-01   -7.360E-01   -7.387E-01   -7.413E-01   -7.440E-01
    -7.466E-01   -7.493E-01   -7.519E-01   -7.546E-01   -7.572E-01   -7.599E-01   -7.625E-01   -7.652E-01   -7.678E-01   -7.705E-01
    -7.731E-01   -7.758E-01   -7.784E-01   -7.811E-01   -7.837E-01   -7.864E-01   -7.890E-01   -7.917E-01   -7.943E-01   -7.969E-01
    -7.996E-01   -8.022E-01   -8.049E-01   -8.075E-01   -8.102E-01   -8.128E-01   -8.155E-01   -8.181E-01   -8.208E-01   -8.234E-01
    -8.260E-01   -8.287E-01   -8.313E-01   -8.340E-01   -8.366E-01   -8.393E-01   -8.419E-01   -8.446E-01   -8.472E-01   -8.498E-01
    -8.525E-01   -8.551E-01   -8.578E-01   -8.604E-01   -8.630E-01   -8.657E-01   -8.683E-01   -8.710E-01   -8.736E-01   -8.762E-01
    -8.789E-01   -8.815E-01   -8.842E-01   -8.868E-01   -8.894E-01   -8.921E-01   -8.947E-01   -8.974E-01   -9.000E-01   -9.026E-01
    -9.053E-01   -9.079E-01   -9.105E-01   -9.132E-01   -9.158E-01   -9.184E-01   -9.211E-01   -9.237E-01   -9.263E-01   -9.290E-01
    -9.316E-01   -9.343E-01   -9.369E-01   -9.395E-01   -9.422E-01   -9.448E-01   -9.474E-01   -9.500E-01   -9.527E-01   -9.553E-01
    -9.579E-01   -9.606E-01   -9.632E-01   -9.658E-01   -9.685E-01   -9.711E-01   -9.737E-01   -9.764E-01   -9.790E-01   -9.816E-01
    -9.842E-01   -9.869E-01   -9.895E-01   -9.921E-01   -9.948E-01   -9.974E-01   -1.000E+00   -1.003E+00   -1.005E+00   -1.008E+00
    -1.011E+00   -1.013E+00   -1.016E+00   -1.018E+00   -1.021E+00   -1.024E+00   -1.026E+00   -1.029E+00   -1.032E+00   -1.034E+00
    -1.037E+00   -1.039E+00   -1.042E+00   -1.045E+00   -1.047E+00   -1.050E+00   -1.052E+00   -1.055E+00   -1.058E+00   -1.060E+00
    -1.063E+00   -1.066E+00   -1.068E+00   -1.071E+00   -1.073E+00   -1.076E+00   -1.079E+00   -1.081E+00   -1.084E+00   -1.087E+00
    -1.089E+00   -1.092E+00   -1.094E+00   -1.097E+00   -1.100E+00   -1.102E+00   -1.105E+00   -1.107E+00   -1.110E+00   -1.113E+00
    -1.115E+00   -1.118E+00   -1.121E+00   -1.123E+00   -1.126E+00   -1.128E+00   -1.131E+00   -1.134E+00   -1.136E+00   -1.139E+00
    -1.141E+00   -1.144E+00   -1.147E+00   -1.149E+00   -1.152E+00   -1.154E+00   -1.157E+00   -1.160E+00   -1.162E+00   -1.165E+00
    -1.168E+00   -1.170E+00   -1.173E+00   -1.175E+00   -1.178E+00   -1.181E+00   -1.183E+00   -1.186E+00   -1.188E+00   -1.191E+00
    -1.194E+00   -1.196E+00   -1.199E+00   -1.201E+00   -1.204E+00   -1.207E+00   -1.209E+00   -1.212E+00   -1.214E+00   -1.217E+00
    -1.220E+00   -1.222E+00   -1.225E+00   -1.227E+00   -1.230E+00   -1.233E+00   -1.235E+00   -1.238E+00   -1.240E+00   -1.243E+00
    -1.246E+00   -1.248E+00   -1.251E+00   -1.253E+00   -1.256E+00   -1.259E+00   -1.261E+00   -1.264E+00   -1.266E+00   -1.269E+00
    -1.272E+00   -1.274E+00   -1.277E+00   -1.279E+00   -1.282E+00   -1.284E+00   -1.287E+00   -1.290E+00   -1.292E+00   -1.295E+00
    -1.297E+00   -1.300E+00   -1.303E+00   -1.305E+00   -1.308E+00   -1.310E+00   -1.313E+00   -1.316E+00   -1.318E+00   -1.321E+00
    -1.323E+00   -1.326E+00   -1.328E+00   -1.331E+00   -1.334E+00   -1.336E+00   -1.339E+00   -1.341E+00   -1.344E+00   -1.347E+00
    -1.349E+00   -1.352E+00   -1.354E+00   -1.357E+00   -1.359E+00   -1.362E+00   -1.365E+00   -1.367E+00   -1.370E+00   -1.372E+00
    -1.375E+00   -1.378E+00   -1.380E+00   -1.383E+00   -1.385E+00   -1.388E+00   -1.390E+00   -1.393E+00   -1.396E+00   -1.398E+00
    -1.401E+00   -1.403E+00   -1.406E+00   -1.408E+00   -1.411E+00   -1.414E+00   -1.416E+00   -1.419E+00   -1.421E+00   -1.424E+00
    -1.426E+00   -1.429E+00   -1.432E+00   -1.434E+00   -1.437E+00   -1.439E+00   -1.442E+00   -1.444E+00   -1.447E+00   -1.449E+00
    -1.452E+00   -1.455E+00   -1.457E+00   -1.460E+00   -1.462E+00   -1.465E+00   -1.467E+00   -1.470E+00   -1.473E+00   -1.475E+00
    -1.478E+00   -1.480E+00   -1.483E+00   -1.485E+00   -1.488E+00   -1.490E+00   -1.493E+00   -1.496E+00   -1.498E+00   -1.501E+00
    -1.503E+00   -1.506E+00   -1.508E+00   -1.511E+00   -1.513E+00   -1.516E+00   -1.519E+00   -1.521E+00   -1.524E+00   -1.526E+00
    -1.529E+00   -1.531E+00   -1.534E+00   -1.536E+00   -1.539E+00   -1.542E+00   -1.544E+00   -1.547E+00   -1.549E+00   -1.552E+00
    -1.554E+00   -1.557E+00   -1.559E+00   -1.562E+00   -1.564E+00   -1.567E+00   -1.570E+00   -1.572E+00   -1.575E+00   -1.577E+00
    -1.580E+00   -1.582E+00   -1.585E+00   -1.587E+00   -1.590E+00   -1.592E+00   -1.595E+00   -1.598E+00   -1.600E+00   -1.603E+00
    -1.605E+00   -1.608E+00   -1.610E+00   -1.613E+00   -1.615E+00   -1.618E+00   -1.620E+00   -1.623E+00   -1.625E+00   -1.628E+00
    -1.630E+00   -1.633E+00   -1.636E+00   -1.638E+00   -1.641E+00   -1.643E+00   -1.646E+00   -1.648E+00   -1.651E+00   -1.653E+00
    -1.656E+00   -1.658E+00   -1.661E+00   -1.663E+00   -1.666E+00   -1.668E+00   -1.671E+00   -1.673E+00   -1.676E+00   -1.679E+00
    -1.681E+00   -1.684E+00   -1.686E+00   -1.689E+00   -1.691E+00   -1.694E+00   -1.696E+00   -1.699E+00   -1.701E+00   -1.704E+00
    -1.706E+00   -1.709E+00   -1.711E+00   -1.714E+00   -1.716E+00   -1.719E+00   -1.721E+00   -1.724E+00   -1.726E+00   -1.729E+00
    -1.731E+00   -1.734E+00   -1.736E+00   -1.739E+00   -1.741E+00   -1.744E+00   -1.746E+00   -1.749E+00   -1.751E+00   -1.754E+00
    -1.756E+00   -1.759E+00   -1.761E+00   -1.764E+00   -1.766E+00   -1.769E+00   -1.771E+00   -1.774E+00   -1.776E+00   -1.779E+00
    -1.781E+00   -1.784E+00   -1.786E+00   -1.789E+00   -1.791E+00   -1.794E+00   -1.796E+00   -1.799E+00   -1.801E+00   -1.804E+00
    -1.806E+00   -1.809E+00   -1.811E+00   -1.814E+00   -1.816E+00   -1.819E+00   -1.821E+00   -1.824E+00
 Ala      Conc. = 8.67E+00
