 LCModel (Version 6.3-1L) Copyright: S.W. Provencher.          Ref.: Magn. Reson. Med. 30:672-679 (1993).                
 Slice#1 Row#12 Col#5  PD_24_press_2_raw_act
 36 lines in following concentration table = NCONC+1
    Conc.  %SD /Cr+PCr  Metabolite                                         
    0.000 999%   0.000 Ala                                                 
    3.550  49%   0.360 Asp                                                 
    9.862 165%   1.000 Cr                                                  
    0.000 999%   0.000 PCr                                                 
    2.124  49%   0.215 GABA                                                
    2.121  49%   0.215 Glc                                                 
   17.718 353%   1.797 Gln                                                 
    3.357 999%   0.340 Glu                                                 
    0.000 999%   0.000 GPC                                                 
    0.000 999%   0.000 PCh                                                 
    0.000 999%   0.000 GSH                                                 
   24.251 293%   2.459 Ins                                                 
   17.068 201%   1.731 Lac                                                 
   60.501  35%   6.135 NAA                                                 
    0.567 999% 5.8E-02 NAAG                                                
    0.706  49% 7.2E-02 Scyllo                                              
    3.516  49%   0.356 Tau                                                 
    0.947 219% 9.6E-02 -CrCH2                                              
    0.000 999%   0.000 GPC+PCh                                             
   61.068  39%   6.192 NAA+NAAG                                            
    9.862 165%   1.000 Cr+PCr                                              
   21.075 409%   2.137 Glu+Gln                                             
  907.322  13%  92.002 Lip13a                                              
    0.000 999%   0.000 Lip13b                                              
  187.798  36%  19.043 Lip09                                               
    0.000 999%   0.000 MM09                                                
  127.569  46%  12.935 Lip20                                               
    0.000 999%   0.000 MM20                                                
    6.473 427%   0.656 MM12                                                
    0.000 999%   0.000 MM14                                                
   77.154  71%   7.823 MM17                                                
  907.322  13%  92.002 Lip13a+Lip13b                                       
  913.794  13%  92.659 MM14+Lip13a+Lip13b+MM12                             
  187.798  36%  19.043 MM09+Lip09                                          
  127.569  46%  12.935 MM20+Lip20                                          
   6 lines in following misc. output table
  FWHM = 0.038 ppm    S/N =   1                                            
  Data shift =-0.015 ppm                                                   
  Ph:  82 deg      81.9 deg/ppm                                            
  alphaB,S = 8.5E+01,   2.6E+01                                            
   14 spline knots.   Ns = 5(1)                                            
  ( 7) 2 infls.   ( 7) 1 extrs.                                            
  498 points on ppm-axis = NY
      4.000000     3.992357     3.984714     3.977070     3.969427     3.961784     3.954141     3.946497     3.938854     3.931211
      3.923568     3.915925     3.908281     3.900638     3.892995     3.885352     3.877708     3.870065     3.862422     3.854779
      3.847136     3.839492     3.831849     3.824206     3.816563     3.808919     3.801276     3.793633     3.785990     3.778347
      3.770703     3.763060     3.755417     3.747774     3.740130     3.732487     3.724844     3.717201     3.709558     3.701914
      3.694271     3.686628     3.678985     3.671341     3.663698     3.656055     3.648412     3.640769     3.633125     3.625482
      3.617839     3.610196     3.602552     3.594909     3.587266     3.579623     3.571980     3.564336     3.556693     3.549050
      3.541407     3.533763     3.526120     3.518477     3.510834     3.503191     3.495547     3.487904     3.480261     3.472618
      3.464974     3.457331     3.449688     3.442045     3.434402     3.426758     3.419115     3.411472     3.403829     3.396185
      3.388542     3.380899     3.373256     3.365613     3.357969     3.350326     3.342683     3.335040     3.327396     3.319753
      3.312110     3.304467     3.296824     3.289180     3.281537     3.273894     3.266251     3.258607     3.250964     3.243321
      3.235678     3.228034     3.220391     3.212748     3.205105     3.197462     3.189818     3.182175     3.174532     3.166889
      3.159245     3.151602     3.143959     3.136316     3.128673     3.121029     3.113386     3.105743     3.098100     3.090456
      3.082813     3.075170     3.067527     3.059884     3.052240     3.044597     3.036954     3.029311     3.021667     3.014024
      3.006381     2.998738     2.991095     2.983451     2.975808     2.968165     2.960522     2.952878     2.945235     2.937592
      2.929949     2.922306     2.914662     2.907019     2.899376     2.891733     2.884089     2.876446     2.868803     2.861160
      2.853517     2.845873     2.838230     2.830587     2.822944     2.815300     2.807657     2.800014     2.792371     2.784728
      2.777084     2.769441     2.761798     2.754155     2.746511     2.738868     2.731225     2.723582     2.715939     2.708295
      2.700652     2.693009     2.685366     2.677722     2.670079     2.662436     2.654793     2.647150     2.639506     2.631863
      2.624220     2.616577     2.608933     2.601290     2.593647     2.586004     2.578361     2.570717     2.563074     2.555431
      2.547788     2.540144     2.532501     2.524858     2.517215     2.509572     2.501928     2.494285     2.486642     2.478999
      2.471355     2.463712     2.456069     2.448426     2.440783     2.433139     2.425496     2.417853     2.410210     2.402566
      2.394923     2.387280     2.379637     2.371994     2.364350     2.356707     2.349064     2.341421     2.333777     2.326134
      2.318491     2.310848     2.303205     2.295561     2.287918     2.280275     2.272632     2.264988     2.257345     2.249702
      2.242059     2.234416     2.226772     2.219129     2.211486     2.203843     2.196199     2.188556     2.180913     2.173270
      2.165627     2.157983     2.150340     2.142697     2.135054     2.127410     2.119767     2.112124     2.104481     2.096838
      2.089194     2.081551     2.073908     2.066265     2.058621     2.050978     2.043335     2.035692     2.028049     2.020405
      2.012762     2.005119     1.997476     1.989833     1.982190     1.974546     1.966903     1.959260     1.951617     1.943974
      1.936331     1.928688     1.921045     1.913402     1.905759     1.898115     1.890472     1.882829     1.875186     1.867543
      1.859900     1.852257     1.844614     1.836971     1.829327     1.821684     1.814041     1.806398     1.798755     1.791112
      1.783469     1.775826     1.768183     1.760540     1.752896     1.745253     1.737610     1.729967     1.722324     1.714681
      1.707038     1.699395     1.691752     1.684108     1.676465     1.668822     1.661179     1.653536     1.645893     1.638250
      1.630607     1.622964     1.615321     1.607677     1.600034     1.592391     1.584748     1.577105     1.569462     1.561819
      1.554176     1.546533     1.538890     1.531246     1.523603     1.515960     1.508317     1.500674     1.493031     1.485388
      1.477745     1.470102     1.462458     1.454815     1.447172     1.439529     1.431886     1.424243     1.416600     1.408957
      1.401314     1.393671     1.386027     1.378384     1.370741     1.363098     1.355455     1.347812     1.340169     1.332526
      1.324883     1.317240     1.309596     1.301953     1.294310     1.286667     1.279024     1.271381     1.263738     1.256095
      1.248452     1.240808     1.233165     1.225522     1.217879     1.210236     1.202593     1.194950     1.187307     1.179664
      1.172021     1.164377     1.156734     1.149091     1.141448     1.133805     1.126162     1.118519     1.110876     1.103233
      1.095590     1.087946     1.080303     1.072660     1.065017     1.057374     1.049731     1.042088     1.034445     1.026802
      1.019158     1.011515     1.003872     0.996229     0.988586     0.980943     0.973300     0.965657     0.958014     0.950371
      0.942727     0.935084     0.927441     0.919798     0.912155     0.904512     0.896869     0.889226     0.881583     0.873940
      0.866296     0.858653     0.851010     0.843367     0.835724     0.828081     0.820438     0.812795     0.805152     0.797508
      0.789865     0.782222     0.774579     0.766936     0.759293     0.751650     0.744007     0.736364     0.728721     0.721077
      0.713434     0.705791     0.698148     0.690505     0.682862     0.675219     0.667576     0.659933     0.652290     0.644646
      0.637003     0.629360     0.621717     0.614074     0.606431     0.598788     0.591145     0.583502     0.575858     0.568215
      0.560572     0.552929     0.545286     0.537643     0.530000     0.522357     0.514714     0.507071     0.499427     0.491784
      0.484141     0.476498     0.468855     0.461212     0.453569     0.445925     0.438282     0.430639     0.422996     0.415353
      0.407710     0.400067     0.392424     0.384780     0.377137     0.369494     0.361851     0.354208     0.346565     0.338922
      0.331278     0.323635     0.315992     0.308349     0.300706     0.293063     0.285420     0.277777     0.270133     0.262490
      0.254847     0.247204     0.239561     0.231918     0.224275     0.216631     0.208988     0.201345
 NY phased data points follow
   1.73207E+00  4.30977E+00  1.79031E-01  1.51368E+00  1.22580E+00  3.94619E-01  1.39578E+00  2.21094E+00 -1.01098E-01  2.04895E+00
   2.27175E+00  3.28094E+00  3.84884E+00  3.93774E+00 -4.90905E-01  1.98663E+00  1.31227E+00  2.25550E+00  3.05972E+00  8.75868E-01
  -1.25013E-01  2.66980E+00  9.99744E-01  1.74527E+00 -2.12850E+00 -1.02233E+00  1.21087E+00  1.96760E+00 -1.34820E-01  7.47198E-01
   1.90723E+00  2.77642E-01  6.43889E-01  1.71665E+00 -1.41411E+00  1.43765E+00  1.64284E+00  1.05768E+00  4.24530E-01 -2.00181E-01
   1.97004E-02 -4.96074E-01 -4.32851E-01 -2.39852E+00  2.30964E+00 -1.92976E+00 -9.79499E-01  2.60456E+00  1.44065E+00  4.87239E-01
   9.86084E-01 -1.90797E+00  6.62745E-02 -3.44105E-01  5.23018E-01 -4.24848E-01  2.39496E+00  1.36270E+00 -1.40602E+00 -1.41485E+00
   1.05382E+00  5.81161E-01  1.44429E+00  2.67036E+00  1.85228E-01 -1.15062E+00  3.60505E-01 -2.41447E-01  1.84826E-01 -1.65620E+00
  -5.93845E-01 -3.04106E-02 -2.73935E+00 -2.67417E-01 -9.76421E-02  1.09961E+00 -1.50468E+00 -8.41816E-01  8.81930E-01  2.68982E-01
   6.53495E-01 -5.65823E-01  8.32609E-01 -1.20675E+00 -2.99871E-01 -6.73873E-02  1.32701E-01 -5.47900E-01 -2.46486E+00 -1.20684E+00
  -2.98445E-01 -8.01607E-01 -8.68910E-01 -1.72765E+00  1.63238E+00 -1.17149E+00 -1.44003E+00 -2.04999E+00 -8.22339E-02 -1.84910E+00
  -2.88382E+00 -1.50875E+00 -2.63698E+00 -8.63792E-01  4.25903E-01  2.50626E-01 -1.19152E+00 -1.31215E+00  2.82212E-02 -8.76754E-01
   1.26148E+00 -7.00419E-01 -1.04333E+00 -4.38999E-01 -3.45122E+00 -2.16812E+00 -8.70671E-01 -2.87818E+00 -8.75818E-03 -4.53893E-01
  -5.00763E-01 -1.31125E+00 -4.74083E+00 -3.96347E+00 -3.35732E+00  2.72786E-02 -2.22918E+00 -7.16166E-01  1.15025E+00 -1.63288E+00
  -1.69328E+00 -2.93858E+00 -1.14340E+00 -2.52249E+00 -1.39153E+00 -3.11620E+00  7.33669E-01 -4.98253E-01  3.96042E-01  2.09561E-01
  -2.60776E+00  6.14771E-01 -2.15306E+00 -2.91531E+00 -9.38176E-01 -1.43752E+00 -5.48031E-02 -3.39603E+00 -2.27894E+00 -2.31890E+00
  -7.84227E-01 -6.81618E-01 -1.94419E+00  3.21805E-01 -1.38590E+00 -1.01311E+00 -1.21342E+00 -8.75537E-01 -1.69037E+00 -2.35084E+00
  -1.33836E+00 -3.49978E+00 -6.60343E-01 -7.06786E-01 -1.77848E+00 -9.39786E-01 -2.94376E+00 -1.74063E+00 -6.72414E-01 -1.91217E+00
  -3.16176E+00 -2.76571E+00 -2.34611E+00 -4.37876E+00 -4.51954E+00 -1.03021E+00 -3.74816E+00 -3.60609E+00 -1.91102E+00 -4.61194E+00
  -2.88120E+00 -1.13257E+00 -6.34195E-01 -3.32045E+00 -2.43210E+00 -3.31511E+00  7.35990E-01 -2.87908E+00 -2.40365E+00 -3.79893E+00
  -1.21629E+00 -3.10228E+00 -5.48077E-01 -3.71998E+00 -4.42161E+00 -2.78489E+00 -1.72685E+00 -4.25017E-01 -9.56668E-01 -2.61724E+00
  -4.78130E+00 -1.99867E+00 -6.94785E-01 -3.27677E+00 -2.12168E+00 -4.27984E+00 -5.67465E-01 -1.44617E+00 -1.25117E+00 -4.33059E+00
  -8.69897E-01 -3.43386E+00 -2.36026E+00  2.25092E-02 -2.70698E+00 -2.20614E+00 -1.02724E+00  2.62033E-01 -1.63829E+00 -2.39409E+00
  -2.47626E+00 -3.44679E+00  8.45581E-01 -4.89846E-01 -9.13688E-01 -1.51197E+00 -7.28778E-01 -9.45581E-01 -1.05643E+00 -1.51643E+00
   1.56094E+00 -2.11511E+00 -1.88590E-02 -1.12852E-01  1.49506E+00 -5.24182E-01 -2.00958E+00 -9.18302E-01 -1.77659E+00 -2.22908E+00
  -9.96032E-01 -4.24389E+00 -1.75131E+00 -6.99100E-01  2.68929E-02 -2.44391E+00 -2.72351E+00 -2.41848E+00 -2.42705E+00 -2.49295E+00
  -2.91995E+00 -3.25585E+00 -1.26090E+00 -2.01613E+00 -4.11653E+00 -2.72649E+00 -2.59611E+00 -1.33428E+00  1.34068E+00 -2.08362E+00
   1.42648E+00  3.50109E-01  1.54064E+00 -9.86875E-02 -1.78275E+00 -2.89269E+00 -4.21347E+00 -2.64400E+00 -4.40655E+00 -3.30943E+00
  -3.66872E-01 -1.66540E+00 -2.15007E+00 -4.48534E+00 -7.48832E-01 -4.90366E+00 -1.86113E+00 -3.10274E+00 -2.21461E+00 -7.64031E-01
  -4.01291E+00 -1.17255E+00 -1.15896E-01 -2.86148E+00 -1.54540E+00 -3.94490E+00 -3.90932E+00 -3.08915E+00 -2.52629E+00 -1.99307E+00
  -2.47287E+00 -1.41717E+00 -2.06824E+00 -3.66731E+00 -2.80546E+00 -2.94815E+00 -4.29347E-01 -4.14699E+00 -1.42246E+00 -9.47349E-01
  -3.11283E+00 -1.55998E+00 -4.41900E+00  3.93971E-01  9.78029E-01 -1.88189E+00 -1.69299E+00  5.94111E-01 -7.67738E-01  1.41625E+00
   5.42498E-01 -2.41682E+00  9.00198E-01 -2.91396E+00 -1.86786E+00 -6.03191E-02 -1.71442E+00 -3.17281E+00 -1.47812E+00 -5.42770E+00
  -4.23897E+00 -3.67382E+00 -4.71636E+00 -4.26906E+00 -7.44713E+00 -5.06971E+00 -5.07983E+00 -7.53380E+00 -5.25263E+00 -5.20773E+00
  -6.66246E+00 -5.58623E+00 -6.81385E+00 -6.96021E+00 -7.14366E+00 -5.11090E+00 -3.79361E+00 -3.20266E+00 -7.46298E+00 -5.87898E+00
  -4.88595E+00 -3.09657E+00 -3.77389E+00 -4.61825E+00 -2.07276E+00  6.71724E-01 -1.78803E+00  2.73811E-01  9.06459E-01 -2.31720E+00
  -8.55119E-01 -1.21735E-01  5.75565E-01 -1.05457E+00  3.56813E-01  1.63523E-01 -8.48891E-01 -1.45122E+00  8.46904E-01 -1.36971E+00
  -1.17867E+00 -3.15508E-01 -7.81524E-01 -2.54800E+00 -7.95437E-01  7.65128E-01  1.16535E+00 -4.80812E-01  2.24559E+00 -2.06562E+00
  -1.51786E+00 -5.63634E-01  1.53870E+00  4.69429E-01  7.23525E-01  1.45277E+00  1.96461E+00  2.06744E+00  1.36796E+00 -4.79904E-01
   6.17258E-01  5.18151E-01 -3.45253E-01 -9.13003E-01 -3.42284E-01  3.39450E-01  1.49336E+00  1.94110E-02 -8.86570E-01 -2.18753E-01
  -1.54948E+00 -3.57160E-01  8.07796E-01  1.51299E+00  1.60397E-01 -9.24061E-01  8.59347E-02 -4.84427E-01  4.22595E+00  5.62402E-01
   2.58222E-01  2.36027E+00  1.59979E+00  3.43332E+00 -2.24540E-01  4.61739E-01 -1.54905E+00 -1.18409E+00 -1.14088E+00 -4.54572E-01
  -2.15810E+00 -1.95520E+00  3.35434E-01 -2.68917E-01 -2.00353E+00  1.98818E+00 -1.31547E+00 -2.89144E+00 -1.39316E+00 -8.56994E-01
   1.06814E+00  1.12520E+00  6.73523E-02 -1.53942E+00 -1.64325E+00 -1.44010E-02  6.46927E-03  1.27810E+00  1.02015E+00 -6.85345E-01
   1.22841E+00 -7.00490E-02  1.04844E+00  1.76942E+00 -1.94770E+00 -2.13425E-01 -3.14737E+00  9.64834E-02  9.66867E-01 -2.10756E+00
  -1.35601E+00  8.73743E-01  1.44175E+00 -3.51599E-01  1.54990E-01  3.41969E-01  3.61065E-01 -2.48369E+00 -8.57370E-01  3.50779E-02
  -9.03856E-01  1.49144E+00 -1.33029E-01 -1.16623E+00 -2.29230E+00  6.68877E-01 -2.53239E-01  2.00524E-01  5.77068E-01 -8.60099E-01
  -3.47459E-01 -6.20759E-01 -3.50761E-01 -1.23352E+00 -5.74545E-03  1.79983E-01 -1.68485E+00  6.46736E-01 -6.27640E-01  1.25899E+00
   9.86851E-01 -2.89986E-01 -7.19984E-01  6.50616E-01  1.11327E+00  1.59069E+00  1.81354E+00  6.69825E-01 -3.66766E-01  1.40572E+00
   1.58439E+00 -2.06937E-01  5.90545E-01  9.06157E-01  8.90849E-01 -5.01524E-02  1.25736E+00  2.50813E+00 -2.28890E-01  8.74122E-03
   1.92942E-01  8.45264E-01  2.45797E+00  2.26287E+00  1.24049E+00  7.38298E-01  1.18079E+00  2.55316E+00
 NY points of the fit to the data follow
   1.11262E+00  1.10270E+00  1.09492E+00  1.08275E+00  1.06581E+00  1.05174E+00  1.05942E+00  1.09980E+00  1.15403E+00  1.19885E+00
   1.21792E+00  1.20234E+00  1.14887E+00  1.06508E+00  9.71435E-01  8.93705E-01  8.48890E-01  8.33877E-01  8.29142E-01  8.22762E-01
   8.18558E-01  8.13250E-01  8.00529E-01  7.77759E-01  7.47190E-01  7.14105E-01  6.86638E-01  6.77272E-01  6.88796E-01  7.11245E-01
   7.30926E-01  7.35630E-01  7.18332E-01  6.81533E-01  6.34529E-01  5.87217E-01  5.48834E-01  5.24012E-01  5.09721E-01  4.97504E-01
   4.84329E-01  4.74164E-01  4.78046E-01  5.07170E-01  5.55011E-01  5.98817E-01  6.17382E-01  6.00748E-01  5.47782E-01  4.66341E-01
   3.74199E-01  2.95077E-01  2.47090E-01  2.31622E-01  2.36365E-01  2.48231E-01  2.61539E-01  2.75037E-01  2.83543E-01  2.80893E-01
   2.63431E-01  2.31440E-01  1.90028E-01  1.47146E-01  1.12344E-01  9.13831E-02  8.21343E-02  8.09861E-02  8.31172E-02  8.24519E-02
   7.75270E-02  6.97389E-02  5.88570E-02  4.33012E-02  2.18234E-02 -5.09049E-03 -3.55084E-02 -6.54750E-02 -9.18140E-02 -1.14257E-01
  -1.31357E-01 -1.40086E-01 -1.45116E-01 -1.56216E-01 -1.79304E-01 -2.13581E-01 -2.54072E-01 -2.93976E-01 -3.27287E-01 -3.49767E-01
  -3.60067E-01 -3.60762E-01 -3.58692E-01 -3.62842E-01 -3.74849E-01 -3.92930E-01 -4.15179E-01 -4.40286E-01 -4.67774E-01 -4.97076E-01
  -5.25467E-01 -5.49460E-01 -5.67826E-01 -5.80893E-01 -5.90495E-01 -5.98491E-01 -6.07338E-01 -6.18048E-01 -6.31310E-01 -6.47078E-01
  -6.63972E-01 -6.80774E-01 -6.97370E-01 -7.14181E-01 -7.31340E-01 -7.49663E-01 -7.68984E-01 -7.88623E-01 -8.08418E-01 -8.28288E-01
  -8.47471E-01 -8.61428E-01 -8.45081E-01 -7.75949E-01 -6.74631E-01 -5.74898E-01 -5.05084E-01 -4.84467E-01 -5.23749E-01 -6.17417E-01
  -7.39735E-01 -8.53129E-01 -9.28301E-01 -9.61208E-01 -9.74924E-01 -9.89269E-01 -1.00187E+00 -1.01269E+00 -1.02324E+00 -1.03392E+00
  -1.04433E+00 -1.05352E+00 -1.06102E+00 -1.06754E+00 -1.07352E+00 -1.07943E+00 -1.08621E+00 -1.09445E+00 -1.10386E+00 -1.11329E+00
  -1.12173E+00 -1.12896E+00 -1.13533E+00 -1.14143E+00 -1.14735E+00 -1.15417E+00 -1.16850E+00 -1.19431E+00 -1.22800E+00 -1.26195E+00
  -1.28537E+00 -1.29441E+00 -1.29306E+00 -1.28758E+00 -1.28584E+00 -1.29622E+00 -1.32344E+00 -1.36389E+00 -1.40632E+00 -1.44226E+00
  -1.47109E+00 -1.50039E+00 -1.53928E+00 -1.58071E+00 -1.61440E+00 -1.63656E+00 -1.65185E+00 -1.66574E+00 -1.67918E+00 -1.69370E+00
  -1.71167E+00 -1.73472E+00 -1.76369E+00 -1.79227E+00 -1.81087E+00 -1.82092E+00 -1.82531E+00 -1.82429E+00 -1.81593E+00 -1.80397E+00
  -1.79745E+00 -1.80272E+00 -1.81817E+00 -1.83851E+00 -1.85921E+00 -1.88041E+00 -1.90410E+00 -1.92723E+00 -1.94489E+00 -1.94897E+00
  -1.93468E+00 -1.90433E+00 -1.86934E+00 -1.84531E+00 -1.84777E+00 -1.89011E+00 -1.97033E+00 -2.06602E+00 -2.15740E+00 -2.23069E+00
  -2.27366E+00 -2.28145E+00 -2.25886E+00 -2.22000E+00 -2.18060E+00 -2.15234E+00 -2.13910E+00 -2.13768E+00 -2.14652E+00 -2.16369E+00
  -2.17895E+00 -2.18613E+00 -2.18635E+00 -2.18252E+00 -2.17748E+00 -2.17430E+00 -2.17667E+00 -2.18623E+00 -2.20083E+00 -2.21575E+00
  -2.22843E+00 -2.24445E+00 -2.26840E+00 -2.29658E+00 -2.32303E+00 -2.34219E+00 -2.34747E+00 -2.33401E+00 -2.30984E+00 -2.28801E+00
  -2.28151E+00 -2.29974E+00 -2.34332E+00 -2.40094E+00 -2.45934E+00 -2.50956E+00 -2.54504E+00 -2.56498E+00 -2.57550E+00 -2.58424E+00
  -2.59518E+00 -2.61398E+00 -2.64898E+00 -2.71087E+00 -2.80656E+00 -2.82942E+00 -2.55171E+00 -1.97049E+00 -1.23648E+00 -5.30087E-01
  -5.68838E-03  2.07355E-01  4.96475E-02 -4.14446E-01 -9.97323E-01 -1.47878E+00 -1.73402E+00 -1.82444E+00 -1.89769E+00 -1.96955E+00
  -2.03357E+00 -2.08997E+00 -2.13963E+00 -2.18368E+00 -2.22381E+00 -2.26165E+00 -2.29835E+00 -2.33440E+00 -2.36993E+00 -2.40469E+00
  -2.43809E+00 -2.46929E+00 -2.49749E+00 -2.52234E+00 -2.54383E+00 -2.56187E+00 -2.57640E+00 -2.58759E+00 -2.59549E+00 -2.60011E+00
  -2.60141E+00 -2.59930E+00 -2.59379E+00 -2.58511E+00 -2.57363E+00 -2.55975E+00 -2.54402E+00 -2.52715E+00 -2.50991E+00 -2.49314E+00
  -2.47777E+00 -2.46463E+00 -2.45448E+00 -2.44798E+00 -2.44569E+00 -2.44799E+00 -2.45512E+00 -2.46713E+00 -2.48391E+00 -2.50523E+00
  -2.53072E+00 -2.55992E+00 -2.59232E+00 -2.62737E+00 -2.66451E+00 -2.70321E+00 -2.74297E+00 -2.78335E+00 -2.82396E+00 -2.86448E+00
  -2.90464E+00 -2.94421E+00 -2.98299E+00 -3.02083E+00 -3.05757E+00 -3.09301E+00 -3.12695E+00 -3.15913E+00 -3.18922E+00 -3.21681E+00
  -3.24139E+00 -3.26233E+00 -3.27889E+00 -3.29018E+00 -3.29518E+00 -3.29275E+00 -3.28161E+00 -3.26036E+00 -3.22745E+00 -3.18115E+00
  -3.11921E+00 -3.03707E+00 -2.91765E+00 -2.74042E+00 -2.52450E+00 -2.30238E+00 -2.09981E+00 -1.93216E+00 -1.80896E+00 -1.73475E+00
  -1.68539E+00 -1.59787E+00 -1.42648E+00 -1.16596E+00 -8.47519E-01 -5.11025E-01 -1.81249E-01  1.13136E-01  3.48547E-01  5.20848E-01
   6.47278E-01  7.54192E-01  8.51394E-01  9.29019E-01  9.84397E-01  1.01792E+00  1.03063E+00  1.02403E+00  9.99959E-01  9.60527E-01
   9.07971E-01  8.44577E-01  7.72602E-01  6.94196E-01  6.11358E-01  5.25900E-01  4.39432E-01  3.53350E-01  2.68844E-01  1.86902E-01
   1.08338E-01  3.38085E-02 -3.61608E-02 -1.01152E-01 -1.60834E-01 -2.14947E-01 -2.63279E-01 -3.05662E-01 -3.41960E-01 -3.72067E-01
  -3.95911E-01 -4.13453E-01 -4.24697E-01 -4.29696E-01 -4.28561E-01 -4.21474E-01 -4.08693E-01 -3.90555E-01 -3.67483E-01 -3.39983E-01
  -3.08641E-01 -2.74114E-01 -2.37115E-01 -1.98397E-01 -1.58735E-01 -1.18905E-01 -7.96589E-02 -4.17069E-02 -5.69502E-03  2.78128E-02
   5.83476E-02  8.55441E-02  1.09145E-01  1.29004E-01  1.45079E-01  1.57426E-01  1.66189E-01  1.71582E-01  1.73879E-01  1.73394E-01
   1.70473E-01  1.65473E-01  1.58754E-01  1.50664E-01  1.41534E-01  1.31672E-01  1.21356E-01  1.10833E-01  1.00317E-01  8.99899E-02
   8.00026E-02  7.04789E-02  6.15170E-02  5.31926E-02  4.55595E-02  3.86558E-02  3.25051E-02  2.71212E-02  2.25079E-02  1.86599E-02
   1.55673E-02  1.32156E-02  1.15880E-02  1.06658E-02  1.04289E-02  1.08549E-02  1.19215E-02  1.36072E-02  1.58908E-02  1.87522E-02
   2.21708E-02  2.61260E-02  3.05995E-02  3.55728E-02  4.10305E-02  4.69554E-02  5.33320E-02  6.01446E-02  6.73797E-02  7.50239E-02
   8.30651E-02  9.14915E-02  1.00291E-01  1.09452E-01  1.18965E-01  1.28821E-01  1.39011E-01  1.49525E-01  1.60354E-01  1.71490E-01
   1.82927E-01  1.94657E-01  2.06673E-01  2.18968E-01  2.31535E-01  2.44368E-01  2.57462E-01  2.70811E-01  2.84410E-01  2.98253E-01
   3.12334E-01  3.26650E-01  3.41195E-01  3.55966E-01  3.70956E-01  3.86162E-01  4.01579E-01  4.17203E-01  4.33030E-01  4.49056E-01
   4.65277E-01  4.81687E-01  4.98283E-01  5.15061E-01  5.32017E-01  5.49145E-01  5.66441E-01  5.83898E-01
 NY background values follow
     1.011E+00    9.970E-01    9.831E-01    9.692E-01    9.552E-01    9.412E-01    9.271E-01    9.131E-01    8.990E-01    8.848E-01
     8.707E-01    8.565E-01    8.423E-01    8.281E-01    8.138E-01    7.995E-01    7.852E-01    7.708E-01    7.565E-01    7.421E-01
     7.277E-01    7.132E-01    6.988E-01    6.843E-01    6.698E-01    6.552E-01    6.407E-01    6.261E-01    6.116E-01    5.970E-01
     5.823E-01    5.677E-01    5.530E-01    5.384E-01    5.237E-01    5.090E-01    4.943E-01    4.795E-01    4.648E-01    4.500E-01
     4.353E-01    4.205E-01    4.057E-01    3.909E-01    3.761E-01    3.613E-01    3.465E-01    3.316E-01    3.168E-01    3.019E-01
     2.871E-01    2.722E-01    2.573E-01    2.425E-01    2.276E-01    2.127E-01    1.978E-01    1.830E-01    1.681E-01    1.532E-01
     1.383E-01    1.234E-01    1.085E-01    9.363E-02    7.874E-02    6.386E-02    4.898E-02    3.410E-02    1.923E-02    4.360E-03
    -1.050E-02   -2.536E-02   -4.021E-02   -5.506E-02   -6.990E-02   -8.473E-02   -9.955E-02   -1.144E-01   -1.292E-01   -1.440E-01
    -1.587E-01   -1.735E-01   -1.883E-01   -2.030E-01   -2.177E-01   -2.325E-01   -2.472E-01   -2.619E-01   -2.765E-01   -2.912E-01
    -3.058E-01   -3.205E-01   -3.351E-01   -3.497E-01   -3.642E-01   -3.788E-01   -3.933E-01   -4.078E-01   -4.223E-01   -4.368E-01
    -4.512E-01   -4.656E-01   -4.800E-01   -4.944E-01   -5.088E-01   -5.231E-01   -5.374E-01   -5.517E-01   -5.659E-01   -5.802E-01
    -5.943E-01   -6.085E-01   -6.226E-01   -6.368E-01   -6.508E-01   -6.649E-01   -6.789E-01   -6.929E-01   -7.068E-01   -7.208E-01
    -7.346E-01   -7.485E-01   -7.623E-01   -7.761E-01   -7.898E-01   -8.036E-01   -8.172E-01   -8.309E-01   -8.445E-01   -8.580E-01
    -8.715E-01   -8.850E-01   -8.985E-01   -9.119E-01   -9.252E-01   -9.386E-01   -9.518E-01   -9.651E-01   -9.783E-01   -9.914E-01
    -1.005E+00   -1.018E+00   -1.031E+00   -1.044E+00   -1.056E+00   -1.069E+00   -1.082E+00   -1.095E+00   -1.108E+00   -1.120E+00
    -1.133E+00   -1.146E+00   -1.158E+00   -1.171E+00   -1.183E+00   -1.195E+00   -1.208E+00   -1.220E+00   -1.232E+00   -1.244E+00
    -1.257E+00   -1.269E+00   -1.281E+00   -1.293E+00   -1.304E+00   -1.316E+00   -1.328E+00   -1.340E+00   -1.351E+00   -1.363E+00
    -1.375E+00   -1.386E+00   -1.397E+00   -1.409E+00   -1.420E+00   -1.431E+00   -1.443E+00   -1.454E+00   -1.465E+00   -1.476E+00
    -1.487E+00   -1.497E+00   -1.508E+00   -1.519E+00   -1.530E+00   -1.540E+00   -1.551E+00   -1.561E+00   -1.571E+00   -1.582E+00
    -1.592E+00   -1.602E+00   -1.612E+00   -1.622E+00   -1.632E+00   -1.642E+00   -1.652E+00   -1.662E+00   -1.671E+00   -1.681E+00
    -1.691E+00   -1.700E+00   -1.709E+00   -1.719E+00   -1.728E+00   -1.737E+00   -1.746E+00   -1.755E+00   -1.764E+00   -1.773E+00
    -1.782E+00   -1.790E+00   -1.799E+00   -1.807E+00   -1.816E+00   -1.824E+00   -1.832E+00   -1.841E+00   -1.849E+00   -1.857E+00
    -1.865E+00   -1.873E+00   -1.880E+00   -1.888E+00   -1.896E+00   -1.903E+00   -1.911E+00   -1.918E+00   -1.925E+00   -1.933E+00
    -1.940E+00   -1.947E+00   -1.954E+00   -1.960E+00   -1.967E+00   -1.974E+00   -1.980E+00   -1.987E+00   -1.993E+00   -2.000E+00
    -2.006E+00   -2.012E+00   -2.018E+00   -2.024E+00   -2.030E+00   -2.035E+00   -2.041E+00   -2.047E+00   -2.052E+00   -2.057E+00
    -2.063E+00   -2.068E+00   -2.073E+00   -2.078E+00   -2.083E+00   -2.088E+00   -2.092E+00   -2.097E+00   -2.101E+00   -2.106E+00
    -2.110E+00   -2.114E+00   -2.119E+00   -2.123E+00   -2.126E+00   -2.130E+00   -2.134E+00   -2.138E+00   -2.141E+00   -2.145E+00
    -2.148E+00   -2.151E+00   -2.154E+00   -2.157E+00   -2.160E+00   -2.163E+00   -2.166E+00   -2.168E+00   -2.171E+00   -2.173E+00
    -2.175E+00   -2.178E+00   -2.180E+00   -2.182E+00   -2.183E+00   -2.185E+00   -2.187E+00   -2.188E+00   -2.190E+00   -2.191E+00
    -2.192E+00   -2.194E+00   -2.195E+00   -2.195E+00   -2.196E+00   -2.197E+00   -2.197E+00   -2.198E+00   -2.198E+00   -2.199E+00
    -2.199E+00   -2.199E+00   -2.199E+00   -2.198E+00   -2.198E+00   -2.198E+00   -2.197E+00   -2.197E+00   -2.196E+00   -2.195E+00
    -2.194E+00   -2.193E+00   -2.192E+00   -2.190E+00   -2.189E+00   -2.187E+00   -2.186E+00   -2.184E+00   -2.182E+00   -2.180E+00
    -2.178E+00   -2.176E+00   -2.173E+00   -2.171E+00   -2.168E+00   -2.166E+00   -2.163E+00   -2.160E+00   -2.157E+00   -2.154E+00
    -2.150E+00   -2.147E+00   -2.144E+00   -2.140E+00   -2.136E+00   -2.132E+00   -2.128E+00   -2.124E+00   -2.120E+00   -2.116E+00
    -2.111E+00   -2.107E+00   -2.102E+00   -2.097E+00   -2.092E+00   -2.087E+00   -2.082E+00   -2.077E+00   -2.072E+00   -2.066E+00
    -2.060E+00   -2.055E+00   -2.049E+00   -2.043E+00   -2.037E+00   -2.031E+00   -2.024E+00   -2.018E+00   -2.011E+00   -2.004E+00
    -1.998E+00   -1.991E+00   -1.984E+00   -1.976E+00   -1.969E+00   -1.962E+00   -1.954E+00   -1.947E+00   -1.939E+00   -1.931E+00
    -1.923E+00   -1.915E+00   -1.906E+00   -1.898E+00   -1.890E+00   -1.881E+00   -1.872E+00   -1.863E+00   -1.854E+00   -1.845E+00
    -1.836E+00   -1.827E+00   -1.817E+00   -1.807E+00   -1.798E+00   -1.788E+00   -1.778E+00   -1.768E+00   -1.758E+00   -1.747E+00
    -1.737E+00   -1.726E+00   -1.716E+00   -1.705E+00   -1.694E+00   -1.683E+00   -1.672E+00   -1.660E+00   -1.649E+00   -1.637E+00
    -1.626E+00   -1.614E+00   -1.602E+00   -1.590E+00   -1.578E+00   -1.565E+00   -1.553E+00   -1.540E+00   -1.528E+00   -1.515E+00
    -1.502E+00   -1.489E+00   -1.476E+00   -1.463E+00   -1.449E+00   -1.436E+00   -1.422E+00   -1.409E+00   -1.395E+00   -1.381E+00
    -1.367E+00   -1.352E+00   -1.338E+00   -1.324E+00   -1.309E+00   -1.294E+00   -1.280E+00   -1.265E+00   -1.250E+00   -1.234E+00
    -1.219E+00   -1.204E+00   -1.188E+00   -1.173E+00   -1.157E+00   -1.141E+00   -1.125E+00   -1.109E+00   -1.092E+00   -1.076E+00
    -1.060E+00   -1.043E+00   -1.026E+00   -1.009E+00   -9.925E-01   -9.754E-01   -9.582E-01   -9.409E-01   -9.235E-01   -9.060E-01
    -8.883E-01   -8.705E-01   -8.526E-01   -8.346E-01   -8.165E-01   -7.982E-01   -7.799E-01   -7.614E-01   -7.428E-01   -7.241E-01
    -7.053E-01   -6.864E-01   -6.673E-01   -6.481E-01   -6.289E-01   -6.095E-01   -5.900E-01   -5.703E-01   -5.506E-01   -5.308E-01
    -5.108E-01   -4.907E-01   -4.705E-01   -4.502E-01   -4.298E-01   -4.093E-01   -3.887E-01   -3.679E-01   -3.471E-01   -3.261E-01
    -3.050E-01   -2.838E-01   -2.625E-01   -2.411E-01   -2.196E-01   -1.980E-01   -1.763E-01   -1.544E-01   -1.324E-01   -1.104E-01
    -8.822E-02   -6.594E-02   -4.355E-02   -2.106E-02    1.544E-03    2.425E-02    4.707E-02    6.998E-02
 Asp      Conc. = 3.55E+00
