 LCModel (Version 6.3-1L) Copyright: S.W. Provencher.          Ref.: Magn. Reson. Med. 30:672-679 (1993).                
 Slice#3 Row#1 Col#2  PD_24_press_2_raw_act
 36 lines in following concentration table = NCONC+1
    Conc.  %SD /Cr+PCr  Metabolite                                         
    0.000 999%   0.000 Ala                                                 
   22.068 109%   0.184 Asp                                                 
  119.707  42%   1.000 Cr                                                  
    0.000 999%   0.000 PCr                                                 
   14.180 101%   0.118 GABA                                                
   13.864 104%   0.116 Glc                                                 
    0.000 999%   0.000 Gln                                                 
  432.445  51%   3.613 Glu                                                 
    0.000 999%   0.000 GPC                                                 
   84.177  24%   0.703 PCh                                                 
    0.000 999%   0.000 GSH                                                 
    0.000 999%   0.000 Ins                                                 
    0.000 999%   0.000 Lac                                                 
  105.461  50%   0.881 NAA                                                 
    0.000 999%   0.000 NAAG                                                
    5.307  89% 4.4E-02 Scyllo                                              
   25.769  92%   0.215 Tau                                                 
   29.419 121%   0.246 -CrCH2                                              
   84.177  24%   0.703 GPC+PCh                                             
  105.461  50%   0.881 NAA+NAAG                                            
  119.707  42%   1.000 Cr+PCr                                              
  432.445  51%   3.613 Glu+Gln                                             
    0.000 999%   0.000 Lip13a                                              
    0.000 999%   0.000 Lip13b                                              
    0.000 999%   0.000 Lip09                                               
    0.000 999%   0.000 MM09                                                
 2.31E-05 999% 1.9E-07 Lip20                                               
    0.000 999%   0.000 MM20                                                
    0.000 999%   0.000 MM12                                                
    0.000 999%   0.000 MM14                                                
    0.000 999%   0.000 MM17                                                
    0.000 999%   0.000 Lip13a+Lip13b                                       
    0.000 999%   0.000 MM14+Lip13a+Lip13b+MM12                             
    0.000 999%   0.000 MM09+Lip09                                          
 2.31E-05 999% 1.9E-07 MM20+Lip20                                          
   6 lines in following misc. output table
  FWHM = 0.038 ppm    S/N =   1                                            
  Data shift = 0.076 ppm                                                   
  Ph:  55 deg      -4.7 deg/ppm                                            
  alphaB,S = 8.5E+01,   1.3E+01                                            
   14 spline knots.   Ns = 5(1)                                            
   2 inflections.     1 extrema                                            
  498 points on ppm-axis = NY
      4.000000     3.992357     3.984714     3.977070     3.969427     3.961784     3.954141     3.946497     3.938854     3.931211
      3.923568     3.915925     3.908281     3.900638     3.892995     3.885352     3.877708     3.870065     3.862422     3.854779
      3.847136     3.839492     3.831849     3.824206     3.816563     3.808919     3.801276     3.793633     3.785990     3.778347
      3.770703     3.763060     3.755417     3.747774     3.740130     3.732487     3.724844     3.717201     3.709558     3.701914
      3.694271     3.686628     3.678985     3.671341     3.663698     3.656055     3.648412     3.640769     3.633125     3.625482
      3.617839     3.610196     3.602552     3.594909     3.587266     3.579623     3.571980     3.564336     3.556693     3.549050
      3.541407     3.533763     3.526120     3.518477     3.510834     3.503191     3.495547     3.487904     3.480261     3.472618
      3.464974     3.457331     3.449688     3.442045     3.434402     3.426758     3.419115     3.411472     3.403829     3.396185
      3.388542     3.380899     3.373256     3.365613     3.357969     3.350326     3.342683     3.335040     3.327396     3.319753
      3.312110     3.304467     3.296824     3.289180     3.281537     3.273894     3.266251     3.258607     3.250964     3.243321
      3.235678     3.228034     3.220391     3.212748     3.205105     3.197462     3.189818     3.182175     3.174532     3.166889
      3.159245     3.151602     3.143959     3.136316     3.128673     3.121029     3.113386     3.105743     3.098100     3.090456
      3.082813     3.075170     3.067527     3.059884     3.052240     3.044597     3.036954     3.029311     3.021667     3.014024
      3.006381     2.998738     2.991095     2.983451     2.975808     2.968165     2.960522     2.952878     2.945235     2.937592
      2.929949     2.922306     2.914662     2.907019     2.899376     2.891733     2.884089     2.876446     2.868803     2.861160
      2.853517     2.845873     2.838230     2.830587     2.822944     2.815300     2.807657     2.800014     2.792371     2.784728
      2.777084     2.769441     2.761798     2.754155     2.746511     2.738868     2.731225     2.723582     2.715939     2.708295
      2.700652     2.693009     2.685366     2.677722     2.670079     2.662436     2.654793     2.647150     2.639506     2.631863
      2.624220     2.616577     2.608933     2.601290     2.593647     2.586004     2.578361     2.570717     2.563074     2.555431
      2.547788     2.540144     2.532501     2.524858     2.517215     2.509572     2.501928     2.494285     2.486642     2.478999
      2.471355     2.463712     2.456069     2.448426     2.440783     2.433139     2.425496     2.417853     2.410210     2.402566
      2.394923     2.387280     2.379637     2.371994     2.364350     2.356707     2.349064     2.341421     2.333777     2.326134
      2.318491     2.310848     2.303205     2.295561     2.287918     2.280275     2.272632     2.264988     2.257345     2.249702
      2.242059     2.234416     2.226772     2.219129     2.211486     2.203843     2.196199     2.188556     2.180913     2.173270
      2.165627     2.157983     2.150340     2.142697     2.135054     2.127410     2.119767     2.112124     2.104481     2.096838
      2.089194     2.081551     2.073908     2.066265     2.058621     2.050978     2.043335     2.035692     2.028049     2.020405
      2.012762     2.005119     1.997476     1.989833     1.982190     1.974546     1.966903     1.959260     1.951617     1.943974
      1.936331     1.928688     1.921045     1.913402     1.905759     1.898115     1.890472     1.882829     1.875186     1.867543
      1.859900     1.852257     1.844614     1.836971     1.829327     1.821684     1.814041     1.806398     1.798755     1.791112
      1.783469     1.775826     1.768183     1.760540     1.752896     1.745253     1.737610     1.729967     1.722324     1.714681
      1.707038     1.699395     1.691752     1.684108     1.676465     1.668822     1.661179     1.653536     1.645893     1.638250
      1.630607     1.622964     1.615321     1.607677     1.600034     1.592391     1.584748     1.577105     1.569462     1.561819
      1.554176     1.546533     1.538890     1.531246     1.523603     1.515960     1.508317     1.500674     1.493031     1.485388
      1.477745     1.470102     1.462458     1.454815     1.447172     1.439529     1.431886     1.424243     1.416600     1.408957
      1.401314     1.393671     1.386027     1.378384     1.370741     1.363098     1.355455     1.347812     1.340169     1.332526
      1.324883     1.317240     1.309596     1.301953     1.294310     1.286667     1.279024     1.271381     1.263738     1.256095
      1.248452     1.240808     1.233165     1.225522     1.217879     1.210236     1.202593     1.194950     1.187307     1.179664
      1.172021     1.164377     1.156734     1.149091     1.141448     1.133805     1.126162     1.118519     1.110876     1.103233
      1.095590     1.087946     1.080303     1.072660     1.065017     1.057374     1.049731     1.042088     1.034445     1.026802
      1.019158     1.011515     1.003872     0.996229     0.988586     0.980943     0.973300     0.965657     0.958014     0.950371
      0.942727     0.935084     0.927441     0.919798     0.912155     0.904512     0.896869     0.889226     0.881583     0.873940
      0.866296     0.858653     0.851010     0.843367     0.835724     0.828081     0.820438     0.812795     0.805152     0.797508
      0.789865     0.782222     0.774579     0.766936     0.759293     0.751650     0.744007     0.736364     0.728721     0.721077
      0.713434     0.705791     0.698148     0.690505     0.682862     0.675219     0.667576     0.659933     0.652290     0.644646
      0.637003     0.629360     0.621717     0.614074     0.606431     0.598788     0.591145     0.583502     0.575858     0.568215
      0.560572     0.552929     0.545286     0.537643     0.530000     0.522357     0.514714     0.507071     0.499427     0.491784
      0.484141     0.476498     0.468855     0.461212     0.453569     0.445925     0.438282     0.430639     0.422996     0.415353
      0.407710     0.400067     0.392424     0.384780     0.377137     0.369494     0.361851     0.354208     0.346565     0.338922
      0.331278     0.323635     0.315992     0.308349     0.300706     0.293063     0.285420     0.277777     0.270133     0.262490
      0.254847     0.247204     0.239561     0.231918     0.224275     0.216631     0.208988     0.201345
 NY phased data points follow
   5.94394E+00 -3.77683E-01 -6.19668E+00 -6.67352E+00 -1.19240E+01 -1.58546E+00 -5.89363E-01 -3.03466E+00  6.66356E-01 -1.51659E+00
   6.12369E+00 -1.20861E+00  1.21272E+00  1.08520E+00  5.75904E-01 -3.27178E+00  6.06847E-01 -7.40415E+00 -1.47001E+00 -2.65435E+00
   2.82055E+00 -2.43345E-01 -3.42941E+00 -2.18694E+00  1.12561E+00 -1.16779E+00  1.75036E+00  7.60768E-01 -4.34333E+00 -4.66362E+00
   4.82437E+00 -6.79099E+00  8.91626E+00  3.45704E-01  7.39551E-01  8.34405E-01  3.37189E+00 -2.59939E+00  1.43877E+00  2.94997E+00
   3.39755E+00 -6.81300E+00  2.36029E+00 -1.39975E+00  2.52241E+00  3.68735E+00  1.61307E+00 -8.66082E+00  5.50602E-01 -7.45748E+00
   2.53050E-01  2.71824E-01  4.32178E+00 -7.90687E+00  4.30256E-01 -3.13723E+00 -4.44797E+00  1.24903E+00  5.73983E+00 -2.24343E+00
  -8.63151E+00 -1.36590E+01  9.40149E-02  1.75211E+00 -5.91207E+00  3.83155E+00  2.38523E+00  6.02361E+00 -9.78098E-01  5.02557E+00
   5.55743E-01 -4.67358E-01  2.02926E+00  1.47147E+00 -5.94608E+00 -1.93901E+00  5.22785E+00 -4.55827E+00  1.36112E-01  1.05033E+00
   6.29088E-02  1.86253E+00 -6.44139E-01  4.26510E+00  3.55164E+00  7.43102E-01 -1.88305E-01 -3.39145E+00  2.96849E+00 -5.25437E+00
   2.55772E+00 -2.22018E+00  2.75127E+00 -1.63540E-01 -2.50108E+00  5.55025E-01  4.02382E+00  3.02482E+00  6.26536E+00 -7.09213E-01
   4.15872E+00  1.27965E+01  1.24847E+01  7.02266E+00  3.68035E+00  7.39581E+00  8.52560E+00 -4.51630E+00  8.48482E-01  7.16413E-02
   2.44103E+00 -2.97747E+00  3.36877E+00  5.34725E+00  4.22137E+00 -7.73534E+00 -9.70434E+00 -4.64927E+00 -5.02929E+00 -9.13000E-01
  -8.51584E+00 -1.33544E+00  1.56453E+00  7.38266E+00 -2.53319E+00  3.07208E+00  1.15403E+01  5.14319E+00  3.14185E+00 -1.87714E+00
  -6.15080E-01 -1.50281E-01 -1.28006E+00 -4.67901E-01 -1.66634E+00 -1.11595E+01  1.71629E-01 -8.76602E-01  1.43564E+00  5.25303E+00
  -1.87274E+00 -2.82741E+00 -8.33137E+00  8.06748E+00 -3.15452E+00 -1.61767E-01 -1.22527E+00  2.20914E+00  5.59106E+00  1.25718E+00
   6.93300E+00  3.77907E-01 -2.45734E+00 -3.02469E+00  3.37619E+00 -2.83836E+00 -4.80601E-01  2.51727E+00 -2.53961E+00 -1.03324E+00
   7.41908E-01  2.19542E+00  3.32306E+00  8.65060E-01  5.53903E+00 -1.56831E+00  3.07364E+00  1.54298E-01  2.26726E-01 -1.76701E+00
   5.70614E+00  3.60930E+00  3.52567E+00  3.96684E+00  2.40648E+00 -5.37600E+00 -6.93826E+00  8.55230E-01  2.34106E+00  9.00097E+00
  -1.50058E+00 -3.36769E-01  6.69882E+00  4.45354E+00 -5.04652E+00 -2.22172E+00  1.73467E-02  3.86427E-01  1.51101E+00  4.58917E+00
   2.89947E+00  8.16261E+00 -3.15077E+00 -5.12268E+00 -1.91314E+00  4.68127E-01  5.15646E+00  4.44652E+00 -7.13079E+00 -7.04632E+00
  -7.97295E+00 -1.05233E+01  8.51171E+00 -3.64956E+00  4.91046E+00 -7.05126E-01 -1.90292E+00 -5.94042E+00 -1.25630E+00  2.75663E+00
  -9.53318E-01 -3.56881E+00 -1.66001E+00 -4.42219E-01  2.00438E+00 -4.34331E+00  2.48025E+00 -3.26764E-01 -1.87122E+00 -7.82419E-01
  -7.26556E+00 -1.07024E+01 -5.31411E+00  4.38239E-01  2.67564E-01  1.92344E+00  3.80438E+00 -1.74213E+00 -1.34891E+00  6.76218E+00
   2.96059E+00  4.88155E-01  4.63661E-01  3.11830E+00 -2.32885E+00 -5.88291E+00 -4.87199E+00 -4.85214E+00  3.59618E+00  9.55522E-01
  -2.41733E+00  3.24504E-01 -6.85728E+00 -1.04251E+00  7.75759E+00 -4.60645E+00 -4.41789E+00 -9.35943E-01 -4.74303E-01 -1.61432E+01
  -8.18204E+00 -6.15043E+00  1.11273E+00 -4.17797E+00  3.94975E-01 -2.50480E+00  1.56537E+00  3.04375E+00  6.13724E+00  7.77808E-01
   3.45317E+00  3.12945E+00  2.13300E+00  1.71314E+00  6.03020E+00  4.36050E+00 -3.79538E+00 -2.09505E+00 -5.78257E-01  3.76536E+00
   4.83917E+00 -1.07323E+00 -3.39167E+00 -7.56661E-01  7.74976E-01  6.93456E+00  3.13904E+00 -1.25464E+00  2.15359E+00  5.02941E-01
   7.04896E+00 -4.13124E+00 -1.04050E+00  1.66897E+00  7.63617E-01 -1.13022E+01 -4.36088E+00 -3.46838E+00 -1.64249E+00  4.66558E+00
   7.32157E-01  1.60991E+00 -4.40947E+00 -1.20911E+00  3.18804E+00 -6.46692E+00 -5.98975E+00 -3.04000E+00 -6.40917E-01 -9.41087E-01
  -6.35939E-01  2.84463E-01  5.37178E+00 -6.62775E+00 -4.32414E+00 -6.44224E+00  2.65145E+00 -6.12551E-01  1.35531E+00 -4.24529E+00
  -1.24983E+01 -6.39666E+00 -6.56059E+00 -1.28802E+01 -6.18842E+00 -4.95460E+00  2.73693E+00  1.16551E+00 -5.79647E+00 -9.12029E+00
   1.36475E+00 -4.30165E+00 -7.34727E-01  4.95974E+00  2.73404E-01 -4.32392E+00 -1.08473E+01 -5.12678E+00  3.62459E+00 -5.91801E-01
  -1.04376E+00 -6.48796E+00 -8.90124E+00 -7.79689E+00 -4.58084E+00 -4.81765E+00  4.17815E+00 -3.01495E+00 -4.33523E+00 -1.03703E+01
  -5.39085E+00 -3.87187E+00 -3.63806E+00 -1.18269E+01  1.37667E-01  4.71961E-01  1.58550E+00 -2.52823E+00 -3.36478E+00  3.71377E+00
  -4.15705E+00 -6.03028E+00 -4.40326E+00 -4.29871E+00 -1.13234E+00  7.95117E-01 -2.40348E-01 -9.15596E+00 -8.08766E+00 -5.57411E+00
  -5.09578E+00  4.00135E-01 -1.10658E+00 -1.35869E+01  4.96673E+00 -7.13178E+00  7.56696E-01  5.95069E+00 -4.10488E+00 -1.82099E+00
  -1.41238E+00  4.93971E-01  3.78162E-01 -7.27310E+00  5.20575E+00 -3.32979E+00 -3.52066E+00 -2.76156E+00  3.58669E-04 -1.53824E+00
   1.03265E+01 -3.37163E+00 -2.01799E+00 -4.49038E-01 -4.62572E+00  1.10228E+01 -2.93726E+00 -6.16842E+00  2.80474E+00  1.78815E-02
  -2.15690E-01 -2.37271E+00  5.08013E+00  9.15798E-01  2.91425E+00  3.37707E-01 -5.60827E+00  2.66929E+00  4.55045E+00 -7.52120E+00
  -4.74279E+00 -6.50017E+00 -1.36104E+00 -7.13200E+00  6.00633E-01 -5.05860E-01 -4.16219E+00 -1.76984E+00 -4.48033E+00 -8.13641E+00
   3.95781E+00  1.74818E+00  2.80216E+00  2.04266E+00 -1.21353E+00 -2.10572E+00 -8.00228E+00 -6.00874E-01 -1.24395E+00 -6.80326E+00
   7.17751E-02 -8.90513E+00 -1.17255E+01 -2.95976E+00  5.01612E+00 -2.14295E+00  2.45931E+00 -8.05752E+00 -3.26129E+00 -7.13543E+00
   8.42838E+00 -3.06459E+00 -6.12806E+00 -4.55189E-01  7.08991E+00 -2.13102E+00 -3.26432E+00 -2.08404E+00  3.40390E-01 -3.33108E+00
  -1.99340E-01 -1.63794E+00  9.33017E+00  1.10372E-01 -4.65645E+00 -3.28349E-01 -2.23007E+00  3.17668E+00 -1.40616E+00 -3.68631E+00
  -4.55457E+00  1.28207E+00 -1.46439E-02 -9.93387E-01  3.19388E+00 -3.15341E+00 -1.95473E+00  3.12517E+00  5.42191E+00  2.77682E+00
   4.54483E+00  2.96579E+00 -5.87943E+00  5.20655E-01  7.33655E+00 -6.98672E+00 -2.73374E+00 -4.78877E-01 -1.16798E+00  8.17533E+00
   8.23683E+00 -2.77505E+00 -3.97230E+00 -5.45299E+00 -1.87100E+00 -4.85031E-01 -1.97907E+00 -2.85587E+00 -3.42687E+00  3.15769E+00
   2.56048E+00  5.25101E+00 -4.35796E+00  3.29031E-01  3.09892E+00 -5.76852E+00  4.90689E+00  7.09862E-01 -5.73100E-01  2.08668E+00
  -4.77089E+00 -5.10180E+00  4.18149E+00 -3.41651E+00 -4.39074E+00 -6.98359E-01  1.67996E+00 -3.04259E+00
 NY points of the fit to the data follow
  -4.34504E-01 -4.24190E-01 -4.12480E-01 -4.23992E-01 -5.09916E-01 -6.29753E-01 -5.44728E-01 -3.25983E-02  9.21024E-01  1.99346E+00
   2.57541E+00  2.42547E+00  1.87280E+00  1.27084E+00  6.63519E-01  7.74965E-02 -2.96424E-01 -3.81796E-01 -3.32961E-01 -2.64796E-01
  -1.65762E-01 -2.44261E-02  1.41900E-01  2.21891E-01  1.19890E-01 -2.29537E-01 -7.21878E-01 -1.06533E+00 -1.03412E+00 -6.17871E-01
   4.49400E-02  7.18185E-01  1.10752E+00  9.82825E-01  3.97641E-01 -3.03960E-01 -8.35679E-01 -1.02447E+00 -8.55645E-01 -5.11038E-01
  -2.31926E-01 -1.00809E-01 -6.96334E-02 -1.12944E-01 -2.18196E-01 -3.22224E-01 -3.84945E-01 -4.25528E-01 -4.52263E-01 -4.57006E-01
  -4.31602E-01 -3.93397E-01 -3.65956E-01 -3.61638E-01 -3.76748E-01 -4.03286E-01 -4.37817E-01 -4.72759E-01 -4.93805E-01 -5.02411E-01
  -5.06067E-01 -5.03027E-01 -4.92326E-01 -4.80434E-01 -4.70951E-01 -4.73036E-01 -4.89537E-01 -5.14118E-01 -5.40651E-01 -5.61585E-01
  -5.58907E-01 -5.21021E-01 -4.57873E-01 -3.89867E-01 -3.53414E-01 -3.76229E-01 -4.46798E-01 -5.22624E-01 -5.76068E-01 -5.98173E-01
  -5.80102E-01 -5.05447E-01 -3.85073E-01 -2.45591E-01 -1.26093E-01 -8.84159E-02 -1.45836E-01 -2.42477E-01 -3.30676E-01 -4.13353E-01
  -4.99325E-01 -5.75118E-01 -6.21558E-01 -6.27701E-01 -5.79143E-01 -4.71228E-01 -2.94306E-01  5.39742E-02  1.11437E+00  3.29602E+00
   6.32304E+00  9.30989E+00  1.06988E+01  9.80733E+00  7.56899E+00  5.19631E+00  3.02466E+00  1.11063E+00 -1.35674E-01 -5.18680E-01
  -5.08291E-01 -5.35483E-01 -5.71493E-01 -5.97557E-01 -6.14425E-01 -6.28573E-01 -6.40972E-01 -6.49987E-01 -6.52793E-01 -6.41209E-01
  -5.98167E-01 -4.32783E-01  1.74332E-01  1.33372E+00  2.86147E+00  4.22568E+00  4.68624E+00  4.08532E+00  2.96952E+00  1.84570E+00
   7.99084E-01 -9.89603E-02 -6.30629E-01 -7.61477E-01 -7.61518E-01 -7.76686E-01 -7.83998E-01 -7.82986E-01 -7.83100E-01 -7.91745E-01
  -8.05201E-01 -8.09398E-01 -7.99834E-01 -7.86286E-01 -7.78963E-01 -7.83027E-01 -7.96686E-01 -8.13484E-01 -8.29247E-01 -8.42263E-01
  -8.51063E-01 -8.54520E-01 -8.53985E-01 -8.53530E-01 -8.55726E-01 -8.64430E-01 -8.88688E-01 -9.31034E-01 -9.83597E-01 -1.02598E+00
  -1.03125E+00 -9.99011E-01 -9.49286E-01 -9.06610E-01 -8.85697E-01 -8.85835E-01 -9.00337E-01 -9.23656E-01 -9.50350E-01 -9.74720E-01
  -9.93962E-01 -1.01536E+00 -1.04675E+00 -1.07758E+00 -1.09518E+00 -1.08535E+00 -1.05707E+00 -1.03871E+00 -1.04562E+00 -1.06060E+00
  -1.05515E+00 -1.03114E+00 -1.01353E+00 -1.00992E+00 -1.00759E+00 -9.91481E-01 -9.49136E-01 -8.94130E-01 -8.52859E-01 -8.32632E-01
  -8.22142E-01 -8.08759E-01 -7.85530E-01 -7.53412E-01 -7.15522E-01 -6.87698E-01 -6.85354E-01 -7.03360E-01 -7.19426E-01 -7.05969E-01
  -6.47283E-01 -5.36586E-01 -4.18765E-01 -3.57891E-01 -4.02824E-01 -6.00792E-01 -9.08117E-01 -1.27091E+00 -1.61240E+00 -1.77222E+00
  -1.59179E+00 -9.25223E-01  1.05228E-01  1.19902E+00  1.91858E+00  1.84348E+00  9.57017E-01 -4.36034E-01 -2.06741E+00 -3.68444E+00
  -4.83441E+00 -5.03206E+00 -4.19392E+00 -2.86975E+00 -1.61545E+00 -6.24426E-01  4.90628E-02  3.13225E-01  1.66075E-01 -1.71952E-01
  -4.46582E-01 -5.82284E-01 -6.17604E-01 -5.85082E-01 -5.18262E-01 -4.78701E-01 -5.33493E-01 -6.99930E-01 -9.69231E-01 -1.23562E+00
  -1.39151E+00 -1.36590E+00 -1.15825E+00 -8.41696E-01 -5.56807E-01 -4.10695E-01 -4.33130E-01 -6.31830E-01 -9.56068E-01 -1.25197E+00
  -1.33085E+00 -1.19063E+00 -9.64233E-01 -7.81349E-01 -6.31875E-01 -2.97872E-01  4.72980E-01  1.68907E+00  3.08902E+00  3.98504E+00
   3.91101E+00  3.14810E+00  2.21477E+00  1.25103E+00  2.90741E-01 -4.14134E-01 -7.26832E-01 -8.49867E-01 -9.73534E-01 -1.04333E+00
  -1.03284E+00 -9.56368E-01 -8.37995E-01 -7.16752E-01 -6.35694E-01 -6.02538E-01 -6.15990E-01 -6.71528E-01 -7.52536E-01 -8.26914E-01
  -8.74445E-01 -8.97092E-01 -9.03429E-01 -8.99443E-01 -8.90049E-01 -8.82518E-01 -8.82593E-01 -8.88564E-01 -8.95621E-01 -9.04417E-01
  -9.14869E-01 -9.24747E-01 -9.32954E-01 -9.40181E-01 -9.46755E-01 -9.52231E-01 -9.56807E-01 -9.61209E-01 -9.65387E-01 -9.69000E-01
  -9.72049E-01 -9.74505E-01 -9.76944E-01 -9.80017E-01 -9.83755E-01 -9.87816E-01 -9.92020E-01 -9.96321E-01 -1.00053E+00 -1.00445E+00
  -1.00815E+00 -1.01176E+00 -1.01528E+00 -1.01873E+00 -1.02212E+00 -1.02546E+00 -1.02875E+00 -1.03199E+00 -1.03517E+00 -1.03832E+00
  -1.04146E+00 -1.04458E+00 -1.04765E+00 -1.05068E+00 -1.05365E+00 -1.05660E+00 -1.05954E+00 -1.06246E+00 -1.06534E+00 -1.06819E+00
  -1.07101E+00 -1.07380E+00 -1.07658E+00 -1.07935E+00 -1.08207E+00 -1.08478E+00 -1.08746E+00 -1.09013E+00 -1.09279E+00 -1.09542E+00
  -1.09803E+00 -1.10061E+00 -1.10318E+00 -1.10576E+00 -1.10832E+00 -1.11087E+00 -1.11340E+00 -1.11591E+00 -1.11841E+00 -1.12092E+00
  -1.12341E+00 -1.12588E+00 -1.12833E+00 -1.13078E+00 -1.13323E+00 -1.13568E+00 -1.13810E+00 -1.14051E+00 -1.14290E+00 -1.14530E+00
  -1.14769E+00 -1.15007E+00 -1.15244E+00 -1.15479E+00 -1.15714E+00 -1.15949E+00 -1.16184E+00 -1.16418E+00 -1.16649E+00 -1.16880E+00
  -1.17111E+00 -1.17342E+00 -1.17573E+00 -1.17803E+00 -1.18031E+00 -1.18258E+00 -1.18486E+00 -1.18714E+00 -1.18941E+00 -1.19167E+00
  -1.19391E+00 -1.19616E+00 -1.19841E+00 -1.20066E+00 -1.20290E+00 -1.20512E+00 -1.20734E+00 -1.20957E+00 -1.21179E+00 -1.21401E+00
  -1.21622E+00 -1.21842E+00 -1.22062E+00 -1.22282E+00 -1.22502E+00 -1.22722E+00 -1.22940E+00 -1.23158E+00 -1.23376E+00 -1.23594E+00
  -1.23812E+00 -1.24029E+00 -1.24245E+00 -1.24461E+00 -1.24678E+00 -1.24894E+00 -1.25110E+00 -1.25325E+00 -1.25540E+00 -1.25754E+00
  -1.25970E+00 -1.26185E+00 -1.26398E+00 -1.26612E+00 -1.26825E+00 -1.27038E+00 -1.27252E+00 -1.27465E+00 -1.27677E+00 -1.27888E+00
  -1.28100E+00 -1.28312E+00 -1.28525E+00 -1.28736E+00 -1.28947E+00 -1.29157E+00 -1.29368E+00 -1.29580E+00 -1.29791E+00 -1.30001E+00
  -1.30210E+00 -1.30420E+00 -1.30630E+00 -1.30840E+00 -1.31049E+00 -1.31258E+00 -1.31466E+00 -1.31676E+00 -1.31885E+00 -1.32095E+00
  -1.32303E+00 -1.32510E+00 -1.32718E+00 -1.32926E+00 -1.33134E+00 -1.33342E+00 -1.33549E+00 -1.33755E+00 -1.33962E+00 -1.34170E+00
  -1.34378E+00 -1.34584E+00 -1.34791E+00 -1.34997E+00 -1.35203E+00 -1.35409E+00 -1.35615E+00 -1.35821E+00 -1.36026E+00 -1.36231E+00
  -1.36437E+00 -1.36643E+00 -1.36849E+00 -1.37054E+00 -1.37258E+00 -1.37463E+00 -1.37668E+00 -1.37874E+00 -1.38078E+00 -1.38283E+00
  -1.38487E+00 -1.38692E+00 -1.38896E+00 -1.39100E+00 -1.39303E+00 -1.39506E+00 -1.39709E+00 -1.39913E+00 -1.40117E+00 -1.40320E+00
  -1.40522E+00 -1.40724E+00 -1.40927E+00 -1.41129E+00 -1.41332E+00 -1.41533E+00 -1.41734E+00 -1.41935E+00 -1.42137E+00 -1.42338E+00
  -1.42539E+00 -1.42738E+00 -1.42938E+00 -1.43137E+00 -1.43337E+00 -1.43536E+00 -1.43733E+00 -1.43929E+00
 NY background values follow
    -5.037E-01   -5.056E-01   -5.075E-01   -5.094E-01   -5.114E-01   -5.133E-01   -5.152E-01   -5.171E-01   -5.190E-01   -5.209E-01
    -5.228E-01   -5.247E-01   -5.266E-01   -5.285E-01   -5.304E-01   -5.323E-01   -5.342E-01   -5.361E-01   -5.381E-01   -5.400E-01
    -5.419E-01   -5.438E-01   -5.457E-01   -5.476E-01   -5.495E-01   -5.514E-01   -5.533E-01   -5.552E-01   -5.571E-01   -5.590E-01
    -5.609E-01   -5.628E-01   -5.648E-01   -5.667E-01   -5.686E-01   -5.705E-01   -5.724E-01   -5.743E-01   -5.762E-01   -5.781E-01
    -5.800E-01   -5.819E-01   -5.838E-01   -5.857E-01   -5.876E-01   -5.895E-01   -5.915E-01   -5.934E-01   -5.953E-01   -5.972E-01
    -5.991E-01   -6.010E-01   -6.029E-01   -6.048E-01   -6.067E-01   -6.086E-01   -6.105E-01   -6.124E-01   -6.143E-01   -6.162E-01
    -6.182E-01   -6.201E-01   -6.220E-01   -6.239E-01   -6.258E-01   -6.277E-01   -6.296E-01   -6.315E-01   -6.334E-01   -6.353E-01
    -6.372E-01   -6.391E-01   -6.410E-01   -6.429E-01   -6.449E-01   -6.468E-01   -6.487E-01   -6.506E-01   -6.525E-01   -6.544E-01
    -6.563E-01   -6.582E-01   -6.601E-01   -6.620E-01   -6.639E-01   -6.658E-01   -6.677E-01   -6.696E-01   -6.716E-01   -6.735E-01
    -6.754E-01   -6.773E-01   -6.792E-01   -6.811E-01   -6.830E-01   -6.849E-01   -6.868E-01   -6.887E-01   -6.906E-01   -6.925E-01
    -6.944E-01   -6.963E-01   -6.983E-01   -7.002E-01   -7.021E-01   -7.040E-01   -7.059E-01   -7.078E-01   -7.097E-01   -7.116E-01
    -7.135E-01   -7.154E-01   -7.173E-01   -7.192E-01   -7.211E-01   -7.230E-01   -7.250E-01   -7.269E-01   -7.288E-01   -7.307E-01
    -7.326E-01   -7.345E-01   -7.364E-01   -7.383E-01   -7.402E-01   -7.421E-01   -7.440E-01   -7.459E-01   -7.478E-01   -7.498E-01
    -7.517E-01   -7.536E-01   -7.555E-01   -7.574E-01   -7.593E-01   -7.612E-01   -7.631E-01   -7.650E-01   -7.669E-01   -7.688E-01
    -7.707E-01   -7.726E-01   -7.745E-01   -7.765E-01   -7.784E-01   -7.803E-01   -7.822E-01   -7.841E-01   -7.860E-01   -7.879E-01
    -7.898E-01   -7.917E-01   -7.936E-01   -7.955E-01   -7.974E-01   -7.993E-01   -8.012E-01   -8.032E-01   -8.051E-01   -8.070E-01
    -8.089E-01   -8.108E-01   -8.127E-01   -8.146E-01   -8.165E-01   -8.184E-01   -8.203E-01   -8.222E-01   -8.241E-01   -8.260E-01
    -8.280E-01   -8.299E-01   -8.318E-01   -8.337E-01   -8.356E-01   -8.375E-01   -8.394E-01   -8.413E-01   -8.432E-01   -8.451E-01
    -8.470E-01   -8.489E-01   -8.508E-01   -8.528E-01   -8.547E-01   -8.566E-01   -8.585E-01   -8.604E-01   -8.623E-01   -8.642E-01
    -8.661E-01   -8.680E-01   -8.699E-01   -8.718E-01   -8.737E-01   -8.756E-01   -8.775E-01   -8.795E-01   -8.814E-01   -8.833E-01
    -8.852E-01   -8.871E-01   -8.890E-01   -8.909E-01   -8.928E-01   -8.947E-01   -8.966E-01   -8.985E-01   -9.004E-01   -9.023E-01
    -9.043E-01   -9.062E-01   -9.081E-01   -9.100E-01   -9.119E-01   -9.138E-01   -9.157E-01   -9.176E-01   -9.195E-01   -9.214E-01
    -9.233E-01   -9.252E-01   -9.271E-01   -9.291E-01   -9.310E-01   -9.329E-01   -9.348E-01   -9.367E-01   -9.386E-01   -9.405E-01
    -9.424E-01   -9.443E-01   -9.462E-01   -9.481E-01   -9.500E-01   -9.519E-01   -9.538E-01   -9.558E-01   -9.577E-01   -9.596E-01
    -9.615E-01   -9.634E-01   -9.653E-01   -9.672E-01   -9.691E-01   -9.710E-01   -9.729E-01   -9.748E-01   -9.767E-01   -9.786E-01
    -9.806E-01   -9.825E-01   -9.844E-01   -9.863E-01   -9.882E-01   -9.901E-01   -9.920E-01   -9.939E-01   -9.958E-01   -9.977E-01
    -9.996E-01   -1.002E+00   -1.003E+00   -1.005E+00   -1.007E+00   -1.009E+00   -1.011E+00   -1.013E+00   -1.015E+00   -1.017E+00
    -1.019E+00   -1.021E+00   -1.023E+00   -1.024E+00   -1.026E+00   -1.028E+00   -1.030E+00   -1.032E+00   -1.034E+00   -1.036E+00
    -1.038E+00   -1.040E+00   -1.042E+00   -1.043E+00   -1.045E+00   -1.047E+00   -1.049E+00   -1.051E+00   -1.053E+00   -1.055E+00
    -1.057E+00   -1.059E+00   -1.061E+00   -1.063E+00   -1.064E+00   -1.066E+00   -1.068E+00   -1.070E+00   -1.072E+00   -1.074E+00
    -1.076E+00   -1.078E+00   -1.080E+00   -1.082E+00   -1.084E+00   -1.085E+00   -1.087E+00   -1.089E+00   -1.091E+00   -1.093E+00
    -1.095E+00   -1.097E+00   -1.099E+00   -1.101E+00   -1.103E+00   -1.105E+00   -1.106E+00   -1.108E+00   -1.110E+00   -1.112E+00
    -1.114E+00   -1.116E+00   -1.118E+00   -1.120E+00   -1.122E+00   -1.124E+00   -1.126E+00   -1.127E+00   -1.129E+00   -1.131E+00
    -1.133E+00   -1.135E+00   -1.137E+00   -1.139E+00   -1.141E+00   -1.143E+00   -1.145E+00   -1.146E+00   -1.148E+00   -1.150E+00
    -1.152E+00   -1.154E+00   -1.156E+00   -1.158E+00   -1.160E+00   -1.162E+00   -1.164E+00   -1.166E+00   -1.167E+00   -1.169E+00
    -1.171E+00   -1.173E+00   -1.175E+00   -1.177E+00   -1.179E+00   -1.181E+00   -1.183E+00   -1.185E+00   -1.187E+00   -1.188E+00
    -1.190E+00   -1.192E+00   -1.194E+00   -1.196E+00   -1.198E+00   -1.200E+00   -1.202E+00   -1.204E+00   -1.206E+00   -1.208E+00
    -1.209E+00   -1.211E+00   -1.213E+00   -1.215E+00   -1.217E+00   -1.219E+00   -1.221E+00   -1.223E+00   -1.225E+00   -1.227E+00
    -1.228E+00   -1.230E+00   -1.232E+00   -1.234E+00   -1.236E+00   -1.238E+00   -1.240E+00   -1.242E+00   -1.244E+00   -1.246E+00
    -1.248E+00   -1.249E+00   -1.251E+00   -1.253E+00   -1.255E+00   -1.257E+00   -1.259E+00   -1.261E+00   -1.263E+00   -1.265E+00
    -1.267E+00   -1.269E+00   -1.270E+00   -1.272E+00   -1.274E+00   -1.276E+00   -1.278E+00   -1.280E+00   -1.282E+00   -1.284E+00
    -1.286E+00   -1.288E+00   -1.289E+00   -1.291E+00   -1.293E+00   -1.295E+00   -1.297E+00   -1.299E+00   -1.301E+00   -1.303E+00
    -1.305E+00   -1.307E+00   -1.309E+00   -1.310E+00   -1.312E+00   -1.314E+00   -1.316E+00   -1.318E+00   -1.320E+00   -1.322E+00
    -1.324E+00   -1.326E+00   -1.328E+00   -1.330E+00   -1.331E+00   -1.333E+00   -1.335E+00   -1.337E+00   -1.339E+00   -1.341E+00
    -1.343E+00   -1.345E+00   -1.347E+00   -1.349E+00   -1.351E+00   -1.352E+00   -1.354E+00   -1.356E+00   -1.358E+00   -1.360E+00
    -1.362E+00   -1.364E+00   -1.366E+00   -1.368E+00   -1.370E+00   -1.371E+00   -1.373E+00   -1.375E+00   -1.377E+00   -1.379E+00
    -1.381E+00   -1.383E+00   -1.385E+00   -1.387E+00   -1.389E+00   -1.391E+00   -1.392E+00   -1.394E+00   -1.396E+00   -1.398E+00
    -1.400E+00   -1.402E+00   -1.404E+00   -1.406E+00   -1.408E+00   -1.410E+00   -1.412E+00   -1.413E+00   -1.415E+00   -1.417E+00
    -1.419E+00   -1.421E+00   -1.423E+00   -1.425E+00   -1.427E+00   -1.429E+00   -1.431E+00   -1.432E+00   -1.434E+00   -1.436E+00
    -1.438E+00   -1.440E+00   -1.442E+00   -1.444E+00   -1.446E+00   -1.448E+00   -1.450E+00   -1.452E+00
 Asp      Conc. = 2.21E+01
