 LCModel (Version 6.3-1L) Copyright: S.W. Provencher.          Ref.: Magn. Reson. Med. 30:672-679 (1993).                
 Slice#3 Row#9 Col#4  PD_24_press_2_raw_act
 36 lines in following concentration table = NCONC+1
    Conc.  %SD /Cr+PCr  Metabolite                                         
  265.972  50%   0.101 Ala                                                 
    0.000 999%   0.000 Asp                                                 
  816.254  33%   0.309 Cr                                                  
 1.82E+03  16%   0.691 PCr                                                 
    0.000 999%   0.000 GABA                                                
    0.000 999%   0.000 Glc                                                 
  718.984  39%   0.273 Gln                                                 
 2.02E+03  15%   0.765 Glu                                                 
  806.663   4%   0.306 GPC                                                 
    0.000 999%   0.000 PCh                                                 
  773.165  12%   0.293 GSH                                                 
 2.41E+03  15%   0.915 Ins                                                 
    0.000 999%   0.000 Lac                                                 
 3.51E+03   5%   1.332 NAA                                                 
  201.014  88% 7.6E-02 NAAG                                                
  202.627  19% 7.7E-02 Scyllo                                              
  218.204 134% 8.3E-02 Tau                                                 
   69.315 214% 2.6E-02 -CrCH2                                              
  806.663   4%   0.306 GPC+PCh                                             
 3.71E+03   3%   1.408 NAA+NAAG                                            
 2.64E+03   3%   1.000 Cr+PCr                                              
 2.74E+03  16%   1.038 Glu+Gln                                             
    0.000 999%   0.000 Lip13a                                              
  513.962  54%   0.195 Lip13b                                              
   66.032 212% 2.5E-02 Lip09                                               
 1.65E+03  17%   0.625 MM09                                                
   77.890 118% 3.0E-02 Lip20                                               
 3.90E+03  12%   1.479 MM20                                                
  524.770  34%   0.199 MM12                                                
 1.29E+03  30%   0.491 MM14                                                
    0.000 999%   0.000 MM17                                                
  513.962  54%   0.195 Lip13a+Lip13b                                       
 2.33E+03  21%   0.885 MM14+Lip13a+Lip13b+MM12                             
 1.71E+03  16%   0.650 MM09+Lip09                                          
 3.98E+03  12%   1.508 MM20+Lip20                                          
   6 lines in following misc. output table
  FWHM = 0.046 ppm    S/N =  16                                            
  Data shift = 0.031 ppm                                                   
  Ph: -13 deg      -7.1 deg/ppm                                            
  alphaB,S = 6.7E-01,   2.6E+01                                            
   14 spline knots.   Ns = 7(1)                                            
  ( 9) 7 infls.   ( 9) 3 extrs.                                            
  498 points on ppm-axis = NY
      4.000000     3.992357     3.984714     3.977070     3.969427     3.961784     3.954141     3.946497     3.938854     3.931211
      3.923568     3.915925     3.908281     3.900638     3.892995     3.885352     3.877708     3.870065     3.862422     3.854779
      3.847136     3.839492     3.831849     3.824206     3.816563     3.808919     3.801276     3.793633     3.785990     3.778347
      3.770703     3.763060     3.755417     3.747774     3.740130     3.732487     3.724844     3.717201     3.709558     3.701914
      3.694271     3.686628     3.678985     3.671341     3.663698     3.656055     3.648412     3.640769     3.633125     3.625482
      3.617839     3.610196     3.602552     3.594909     3.587266     3.579623     3.571980     3.564336     3.556693     3.549050
      3.541407     3.533763     3.526120     3.518477     3.510834     3.503191     3.495547     3.487904     3.480261     3.472618
      3.464974     3.457331     3.449688     3.442045     3.434402     3.426758     3.419115     3.411472     3.403829     3.396185
      3.388542     3.380899     3.373256     3.365613     3.357969     3.350326     3.342683     3.335040     3.327396     3.319753
      3.312110     3.304467     3.296824     3.289180     3.281537     3.273894     3.266251     3.258607     3.250964     3.243321
      3.235678     3.228034     3.220391     3.212748     3.205105     3.197462     3.189818     3.182175     3.174532     3.166889
      3.159245     3.151602     3.143959     3.136316     3.128673     3.121029     3.113386     3.105743     3.098100     3.090456
      3.082813     3.075170     3.067527     3.059884     3.052240     3.044597     3.036954     3.029311     3.021667     3.014024
      3.006381     2.998738     2.991095     2.983451     2.975808     2.968165     2.960522     2.952878     2.945235     2.937592
      2.929949     2.922306     2.914662     2.907019     2.899376     2.891733     2.884089     2.876446     2.868803     2.861160
      2.853517     2.845873     2.838230     2.830587     2.822944     2.815300     2.807657     2.800014     2.792371     2.784728
      2.777084     2.769441     2.761798     2.754155     2.746511     2.738868     2.731225     2.723582     2.715939     2.708295
      2.700652     2.693009     2.685366     2.677722     2.670079     2.662436     2.654793     2.647150     2.639506     2.631863
      2.624220     2.616577     2.608933     2.601290     2.593647     2.586004     2.578361     2.570717     2.563074     2.555431
      2.547788     2.540144     2.532501     2.524858     2.517215     2.509572     2.501928     2.494285     2.486642     2.478999
      2.471355     2.463712     2.456069     2.448426     2.440783     2.433139     2.425496     2.417853     2.410210     2.402566
      2.394923     2.387280     2.379637     2.371994     2.364350     2.356707     2.349064     2.341421     2.333777     2.326134
      2.318491     2.310848     2.303205     2.295561     2.287918     2.280275     2.272632     2.264988     2.257345     2.249702
      2.242059     2.234416     2.226772     2.219129     2.211486     2.203843     2.196199     2.188556     2.180913     2.173270
      2.165627     2.157983     2.150340     2.142697     2.135054     2.127410     2.119767     2.112124     2.104481     2.096838
      2.089194     2.081551     2.073908     2.066265     2.058621     2.050978     2.043335     2.035692     2.028049     2.020405
      2.012762     2.005119     1.997476     1.989833     1.982190     1.974546     1.966903     1.959260     1.951617     1.943974
      1.936331     1.928688     1.921045     1.913402     1.905759     1.898115     1.890472     1.882829     1.875186     1.867543
      1.859900     1.852257     1.844614     1.836971     1.829327     1.821684     1.814041     1.806398     1.798755     1.791112
      1.783469     1.775826     1.768183     1.760540     1.752896     1.745253     1.737610     1.729967     1.722324     1.714681
      1.707038     1.699395     1.691752     1.684108     1.676465     1.668822     1.661179     1.653536     1.645893     1.638250
      1.630607     1.622964     1.615321     1.607677     1.600034     1.592391     1.584748     1.577105     1.569462     1.561819
      1.554176     1.546533     1.538890     1.531246     1.523603     1.515960     1.508317     1.500674     1.493031     1.485388
      1.477745     1.470102     1.462458     1.454815     1.447172     1.439529     1.431886     1.424243     1.416600     1.408957
      1.401314     1.393671     1.386027     1.378384     1.370741     1.363098     1.355455     1.347812     1.340169     1.332526
      1.324883     1.317240     1.309596     1.301953     1.294310     1.286667     1.279024     1.271381     1.263738     1.256095
      1.248452     1.240808     1.233165     1.225522     1.217879     1.210236     1.202593     1.194950     1.187307     1.179664
      1.172021     1.164377     1.156734     1.149091     1.141448     1.133805     1.126162     1.118519     1.110876     1.103233
      1.095590     1.087946     1.080303     1.072660     1.065017     1.057374     1.049731     1.042088     1.034445     1.026802
      1.019158     1.011515     1.003872     0.996229     0.988586     0.980943     0.973300     0.965657     0.958014     0.950371
      0.942727     0.935084     0.927441     0.919798     0.912155     0.904512     0.896869     0.889226     0.881583     0.873940
      0.866296     0.858653     0.851010     0.843367     0.835724     0.828081     0.820438     0.812795     0.805152     0.797508
      0.789865     0.782222     0.774579     0.766936     0.759293     0.751650     0.744007     0.736364     0.728721     0.721077
      0.713434     0.705791     0.698148     0.690505     0.682862     0.675219     0.667576     0.659933     0.652290     0.644646
      0.637003     0.629360     0.621717     0.614074     0.606431     0.598788     0.591145     0.583502     0.575858     0.568215
      0.560572     0.552929     0.545286     0.537643     0.530000     0.522357     0.514714     0.507071     0.499427     0.491784
      0.484141     0.476498     0.468855     0.461212     0.453569     0.445925     0.438282     0.430639     0.422996     0.415353
      0.407710     0.400067     0.392424     0.384780     0.377137     0.369494     0.361851     0.354208     0.346565     0.338922
      0.331278     0.323635     0.315992     0.308349     0.300706     0.293063     0.285420     0.277777     0.270133     0.262490
      0.254847     0.247204     0.239561     0.231918     0.224275     0.216631     0.208988     0.201345
 NY phased data points follow
  -5.78515E+01 -5.59835E+01 -4.74430E+01 -4.90572E+01 -3.53310E+01 -2.82582E+01 -1.87547E+01 -7.01976E+00  1.11371E+00  4.52424E+00
   4.70764E+00  3.90527E+00 -3.81478E+00 -1.16468E+01 -1.90702E+01 -3.80287E+01 -3.88540E+01 -4.63655E+01 -4.18722E+01 -4.71408E+01
  -4.18730E+01 -4.63236E+01 -4.15990E+01 -4.52389E+01 -3.70387E+01 -3.79660E+01 -3.35147E+01 -3.20467E+01 -3.19730E+01 -2.81928E+01
  -2.04679E+01 -2.02020E+01 -2.57325E+01 -3.24478E+01 -3.26417E+01 -3.40008E+01 -2.88561E+01 -3.28199E+01 -2.70527E+01 -2.86200E+01
  -2.64519E+01 -3.02168E+01 -2.52937E+01 -2.70733E+01 -2.65127E+01 -2.39015E+01 -1.22487E+01 -1.83131E+01 -1.80292E+01 -1.88735E+01
  -2.32365E+01 -2.82082E+01 -2.77519E+01 -3.14459E+01 -3.46242E+01 -2.81362E+01 -2.66773E+01 -2.12893E+01 -2.39722E+01 -2.54448E+01
  -2.33867E+01 -2.72544E+01 -3.35561E+01 -3.11948E+01 -3.66367E+01 -3.89111E+01 -3.42698E+01 -3.60332E+01 -3.37072E+01 -2.98632E+01
  -3.00976E+01 -3.17259E+01 -2.66542E+01 -2.73601E+01 -2.87038E+01 -2.67313E+01 -3.05573E+01 -3.08941E+01 -2.95273E+01 -2.83589E+01
  -2.62089E+01 -3.18449E+01 -2.56872E+01 -2.31845E+01 -2.37786E+01 -1.85670E+01 -1.79514E+01 -2.73273E+01 -1.90536E+01 -2.48348E+01
  -1.77919E+01 -2.20646E+01 -2.13999E+01 -2.19068E+01 -1.51238E+01 -1.36759E+01 -1.51729E+01 -8.18693E+00  2.27328E-03  5.15508E+00
   2.03832E+01  3.66701E+01  4.64779E+01  4.51915E+01  3.39462E+01  2.35147E+01  1.66876E+01  2.72981E+00  1.26450E-01 -1.39168E+01
  -1.48132E+01 -1.33213E+01 -1.02457E+01 -1.78645E+01 -1.82061E+01 -2.18903E+01 -1.62831E+01 -1.86503E+01 -1.51558E+01 -1.41375E+01
  -8.17339E+00 -5.26859E+00  4.57098E-01  1.02290E+01  3.03314E+01  5.35344E+01  6.57194E+01  6.71433E+01  5.85388E+01  3.85814E+01
   3.13780E+01  1.55156E+01  5.11000E+00 -7.55108E+00 -6.79138E+00 -1.59322E+01 -1.87737E+01 -2.05241E+01 -1.70906E+01 -2.01269E+01
  -1.48576E+01 -2.12202E+01 -1.28352E+01 -2.48611E+01 -1.87869E+01 -2.15490E+01 -2.08792E+01 -2.23410E+01 -2.11017E+01 -2.27538E+01
  -1.87429E+01 -2.15851E+01 -2.60474E+01 -2.61244E+01 -2.47210E+01 -2.45102E+01 -1.92426E+01 -1.79602E+01 -1.82469E+01 -1.88760E+01
  -2.54447E+01 -3.05800E+01 -3.48463E+01 -2.78440E+01 -2.63471E+01 -2.86941E+01 -2.83805E+01 -2.90176E+01 -2.77614E+01 -2.18889E+01
  -2.40824E+01 -3.03008E+01 -3.06674E+01 -3.13072E+01 -3.61415E+01 -3.57558E+01 -2.97050E+01 -3.62780E+01 -3.22467E+01 -3.33035E+01
  -3.26474E+01 -3.63715E+01 -3.75205E+01 -3.58942E+01 -3.52880E+01 -3.13164E+01 -2.41102E+01 -2.88688E+01 -2.33998E+01 -1.65174E+01
  -1.19875E+01 -1.05163E+01 -1.08950E+01 -9.12578E+00 -6.16144E+00 -1.04844E+01 -1.28216E+01 -1.41431E+01 -1.82491E+01 -1.75039E+01
  -1.37582E+01 -1.58412E+01 -1.57236E+01 -1.48402E+01 -1.34297E+01 -1.11544E+01 -1.68846E+01 -1.34018E+01 -2.27597E+01 -1.52514E+01
  -2.15760E+01 -2.05961E+01 -1.40809E+01 -7.47324E+00  5.37716E-01  1.34394E+00  2.79912E+00  2.55804E+00  1.14837E-01 -9.50781E+00
  -1.29902E+01 -1.49415E+01 -1.49000E+01 -1.61124E+01 -1.45455E+01 -1.02025E+01  1.03893E+00 -2.24819E+00 -1.21270E+00 -2.64370E+00
   2.67428E+00 -2.67599E+00 -4.09909E-03 -2.36177E+00 -7.03257E+00  2.85626E+00  2.57492E+00  4.66479E+00 -3.76309E+00 -6.40072E+00
  -3.52616E+00 -8.45099E+00 -6.36148E+00 -3.28432E-01 -1.36215E-01  2.47257E+00  6.09193E+00  3.17600E+00  5.93192E+00 -4.74427E-01
   8.43263E+00  1.55728E+01  1.93286E+01  2.67485E+01  3.04214E+01  3.87010E+01  5.37136E+01  7.05645E+01  1.02487E+02  1.18630E+02
   1.21183E+02  1.19905E+02  8.95323E+01  6.99837E+01  5.20927E+01  3.97205E+01  2.21888E+01  1.43802E+01  1.15490E+01  6.86116E+00
   8.05833E+00  1.94521E+00  2.90412E+00 -1.99611E+00  2.88059E+00 -2.00599E+00  2.06175E+00  7.90154E-01 -1.24927E+00 -5.06686E+00
  -4.12320E-01 -5.22490E-01 -5.25887E+00 -3.80176E+00 -4.18344E+00 -3.84806E+00 -3.93949E+00 -8.13227E+00 -1.25643E+00 -6.52987E+00
  -3.00845E+00 -5.30697E+00 -2.49457E+00 -6.26422E+00 -7.71368E+00 -9.46394E+00 -9.89198E+00 -1.15874E+01 -7.52714E+00 -6.96368E+00
  -1.11310E+01 -7.10523E+00 -1.32645E+01 -6.72286E+00 -6.81436E+00 -6.51465E+00 -4.61791E+00 -5.95782E+00 -6.22205E+00 -3.04382E+00
  -3.32757E+00 -5.09056E+00 -4.44026E+00  3.74001E+00 -1.07295E+00 -3.81819E+00  4.93089E-01  3.47233E-01  6.38894E-01  5.32539E+00
   2.00126E+00  1.76307E+00  3.61760E+00  2.94145E+00 -5.24067E+00 -2.85826E+00  1.55019E+00  1.21023E+00 -5.31427E+00 -4.57915E+00
   4.14262E-01 -7.19498E-01 -7.18607E+00  2.94060E+00 -1.44776E-01 -1.99192E+00  2.36353E+00 -2.29013E-01  4.56392E+00  3.50987E+00
   3.68700E+00 -1.12445E+00  6.54270E-01 -1.11931E+00  1.44293E+00  1.92485E+00  3.13860E+00 -7.40129E-02  3.67057E+00  6.85964E-01
   2.62292E+00  6.50922E+00  4.50275E+00  6.97319E+00  3.92209E+00  8.98719E+00  3.34930E+00  3.41946E+00  4.27499E+00  7.10556E+00
   4.65846E+00  1.25892E-01  5.21145E-01  3.40002E+00  1.90947E+00  4.29347E+00 -7.71942E-01  5.69952E-02 -2.56818E+00 -2.82994E+00
   6.49956E+00  1.09312E+00  5.02298E-01 -2.88471E+00  1.58357E+00  1.16612E+00  1.39060E+00 -1.83275E-01 -7.93232E+00 -4.67013E+00
   1.85390E+00 -6.76937E+00  1.57760E+00 -1.79565E+00 -1.52850E+00  6.52136E-01 -6.10638E+00 -3.58030E+00 -7.24696E-01 -9.77719E-02
  -1.19420E+00  5.72878E+00 -1.20047E+00  2.58812E+00  6.19315E+00  2.08655E+00  6.46381E+00 -7.98577E-01  1.51624E+01  3.44318E+00
   8.76690E-01  4.92729E+00  8.46420E+00  7.20210E+00  7.29542E+00  7.15033E+00  4.77633E+00  1.54099E+01  7.51237E+00  1.11634E+01
   1.19302E+01  5.52665E+00  7.00152E+00  8.01559E+00  3.46632E+00  2.94661E+00  7.07157E+00  2.97357E+00  2.64447E+00  1.95826E+00
   6.01757E-01  1.14426E-01  6.36824E+00 -5.16775E+00 -9.39445E-01  6.48183E+00  7.47276E-01 -2.45924E+00  2.31632E+00  1.25581E+00
  -1.07750E+00  3.83964E+00 -3.57193E+00 -1.29424E+00  5.71608E+00 -1.74842E+00  8.46870E-01 -2.08083E-01 -2.24543E+00 -1.39637E+00
  -3.62102E+00 -6.23817E+00  7.65641E-01 -3.42500E+00 -2.33774E+00  1.11795E+00  1.72993E+00 -4.45099E+00 -2.94196E-01 -3.59539E+00
  -3.87856E+00  2.89703E+00 -2.45588E+00 -2.97288E+00  2.22829E+00 -1.20935E+00 -7.43417E+00 -4.19112E+00  1.23876E-01  2.85108E+00
  -1.01994E+00 -3.51262E+00 -2.84749E+00  5.02437E+00 -1.88651E+00 -4.69133E+00 -3.68607E-01 -6.43459E-01  3.91303E+00 -2.94186E-01
  -8.24519E-01  2.13129E+00 -2.55126E+00  1.76342E+00 -6.00765E-01  5.90392E-01  1.68779E-01 -3.84966E+00  3.28098E-01 -3.76513E+00
  -5.20304E-01 -6.02119E+00  1.35127E+00 -3.28755E+00  4.79356E-01 -3.63891E+00 -1.75791E+00 -4.12169E+00 -3.47385E+00  7.52471E-01
   5.13187E-01 -3.19125E+00 -7.15574E+00 -1.82917E+00 -5.11385E+00 -2.50604E+00 -3.89549E+00  1.46349E+00
 NY points of the fit to the data follow
  -4.97806E+01 -4.90143E+01 -4.51448E+01 -4.17072E+01 -3.70754E+01 -3.03773E+01 -2.07192E+01 -8.69794E+00  1.28392E+00  7.26700E+00
   6.85995E+00  6.17545E-01 -7.17709E+00 -1.53036E+01 -2.30143E+01 -2.93986E+01 -3.31908E+01 -3.72593E+01 -3.97465E+01 -4.10147E+01
  -4.18100E+01 -4.22584E+01 -4.19784E+01 -4.05945E+01 -4.02640E+01 -3.95680E+01 -3.77463E+01 -3.39206E+01 -2.90054E+01 -2.52051E+01
  -2.23570E+01 -2.18213E+01 -2.32967E+01 -2.50921E+01 -2.73786E+01 -3.03917E+01 -3.31881E+01 -3.48474E+01 -3.65809E+01 -3.68985E+01
  -3.54425E+01 -3.35135E+01 -3.17502E+01 -2.93324E+01 -2.53790E+01 -2.09740E+01 -1.80148E+01 -1.74022E+01 -1.94780E+01 -2.31861E+01
  -2.68631E+01 -2.98533E+01 -3.19191E+01 -3.30872E+01 -3.31822E+01 -3.28691E+01 -3.21317E+01 -3.05939E+01 -2.89179E+01 -2.76258E+01
  -2.72959E+01 -2.81059E+01 -2.92643E+01 -3.04888E+01 -3.11770E+01 -3.11952E+01 -3.07090E+01 -2.99941E+01 -2.90640E+01 -2.79363E+01
  -2.69950E+01 -2.63388E+01 -2.59723E+01 -2.59517E+01 -2.60934E+01 -2.63607E+01 -2.66431E+01 -2.71713E+01 -2.74708E+01 -2.71821E+01
  -2.63057E+01 -2.60387E+01 -2.53527E+01 -2.40450E+01 -2.22017E+01 -2.04733E+01 -2.00528E+01 -2.06845E+01 -2.21584E+01 -2.36235E+01
  -2.43203E+01 -2.45346E+01 -2.46521E+01 -2.44679E+01 -2.31444E+01 -2.01251E+01 -1.39784E+01 -1.03127E+01 -4.74703E+00  5.58643E+00
   2.14578E+01  3.77388E+01  4.66351E+01  4.70099E+01  3.82514E+01  2.48780E+01  1.35681E+01  3.68915E+00 -5.83665E+00 -1.29334E+01
  -1.59687E+01 -2.02280E+01 -2.26539E+01 -2.32471E+01 -2.33445E+01 -2.32108E+01 -2.29679E+01 -2.25361E+01 -2.15973E+01 -1.81979E+01
  -9.70247E+00 -4.82965E+00  1.41390E+00  1.30946E+01  3.18575E+01  5.28371E+01  6.53082E+01  6.72163E+01  5.77706E+01  4.14628E+01
   2.78117E+01  1.66174E+01  5.16127E+00 -5.11901E+00 -9.85961E+00 -1.65638E+01 -2.13026E+01 -2.22137E+01 -2.18184E+01 -2.08028E+01
  -1.95621E+01 -1.87273E+01 -1.85361E+01 -1.86940E+01 -1.90505E+01 -1.95212E+01 -1.99400E+01 -2.04222E+01 -2.08984E+01 -2.12345E+01
  -2.16515E+01 -2.19772E+01 -2.22127E+01 -2.24480E+01 -2.27545E+01 -2.27682E+01 -2.26951E+01 -2.27603E+01 -2.31469E+01 -2.40248E+01
  -2.45677E+01 -2.45656E+01 -2.39635E+01 -2.31994E+01 -2.30689E+01 -2.34500E+01 -2.41294E+01 -2.49206E+01 -2.56865E+01 -2.62887E+01
  -2.66924E+01 -2.69124E+01 -2.72746E+01 -2.81121E+01 -2.89739E+01 -2.89863E+01 -2.83963E+01 -2.76780E+01 -2.72762E+01 -2.73986E+01
  -2.76671E+01 -2.73117E+01 -2.66935E+01 -2.62561E+01 -2.58787E+01 -2.51284E+01 -2.37071E+01 -2.14676E+01 -1.88297E+01 -1.62030E+01
  -1.44848E+01 -1.40595E+01 -1.41568E+01 -1.48165E+01 -1.58879E+01 -1.68336E+01 -1.74104E+01 -1.71802E+01 -1.63134E+01 -1.47058E+01
  -1.27719E+01 -1.10025E+01 -9.49184E+00 -8.94965E+00 -8.95693E+00 -1.05158E+01 -1.29600E+01 -1.54888E+01 -1.76706E+01 -1.84869E+01
  -1.84735E+01 -1.76239E+01 -1.51241E+01 -1.15754E+01 -7.49107E+00 -4.76691E+00 -4.38594E+00 -5.90532E+00 -8.53780E+00 -1.22655E+01
  -1.61985E+01 -1.90321E+01 -1.98325E+01 -1.80675E+01 -1.49007E+01 -1.15014E+01 -8.19489E+00 -5.79867E+00 -4.29884E+00 -3.90719E+00
  -3.89917E+00 -3.66950E+00 -3.24473E+00 -2.58908E+00 -1.43543E+00 -1.25178E-01  7.27093E-01  1.19396E+00  8.90112E-01 -2.82371E-01
  -1.69477E+00 -2.69425E+00 -2.92600E+00 -2.12556E+00 -2.70865E-01  1.82798E+00  3.66967E+00  5.09733E+00  6.23657E+00  7.40228E+00
   8.12570E+00  9.42109E+00  1.33841E+01  2.47789E+01  3.45913E+01  4.13957E+01  5.37357E+01  7.40367E+01  1.00131E+02  1.18809E+02
   1.23991E+02  1.14786E+02  9.34012E+01  7.21670E+01  5.51491E+01  3.87051E+01  2.36792E+01  1.63658E+01  1.01689E+01  3.10480E+00
   5.98336E-01 -3.68956E-01 -8.35315E-01 -1.19567E+00 -1.38166E+00 -1.63150E+00 -1.97182E+00 -2.34322E+00 -2.72453E+00 -3.13558E+00
  -3.51088E+00 -3.80954E+00 -4.05266E+00 -4.25891E+00 -4.44541E+00 -4.60776E+00 -4.75213E+00 -4.88484E+00 -5.01829E+00 -5.11637E+00
  -5.18268E+00 -5.22898E+00 -5.26363E+00 -5.28125E+00 -5.29334E+00 -5.30242E+00 -5.30961E+00 -5.31135E+00 -5.30421E+00 -5.28060E+00
  -5.24241E+00 -5.18816E+00 -5.12286E+00 -5.04781E+00 -4.96222E+00 -4.86851E+00 -4.76853E+00 -4.65633E+00 -4.53237E+00 -4.39631E+00
  -4.24464E+00 -4.07628E+00 -3.89088E+00 -3.68585E+00 -3.45849E+00 -3.20537E+00 -2.92190E+00 -2.60078E+00 -2.22557E+00 -1.75153E+00
  -1.13500E+00 -7.15230E-01 -3.34329E-01  2.48416E-01  8.66127E-01  1.22170E+00  8.81340E-01 -4.02074E-02 -1.01456E+00 -1.85715E+00
  -2.47434E+00 -2.69079E+00 -2.50892E+00 -1.59975E+00 -1.17455E-01  1.19485E+00  2.16940E+00  2.68335E+00  2.75000E+00  2.69803E+00
   2.50046E+00  2.11522E+00  1.83434E+00  1.68465E+00  1.44748E+00  1.37560E+00  1.46153E+00  1.68529E+00  2.04102E+00  2.51679E+00
   3.08777E+00  3.71327E+00  4.33911E+00  4.90224E+00  5.33938E+00  5.59599E+00  5.63611E+00  5.44825E+00  5.04808E+00  4.47435E+00
   3.78202E+00  3.03192E+00  2.28200E+00  1.57944E+00  9.57038E-01  4.31354E-01  5.11751E-03 -3.29721E-01 -5.86769E-01 -7.81807E-01
  -9.29340E-01 -1.04184E+00 -1.12851E+00 -1.19588E+00 -1.24721E+00 -1.28372E+00 -1.30469E+00 -1.30891E+00 -1.29442E+00 -1.25916E+00
  -1.20031E+00 -1.11503E+00 -1.00019E+00 -8.53243E-01 -6.71553E-01 -4.52829E-01 -1.94439E-01  1.05642E-01  4.49090E-01  8.36315E-01
   1.26714E+00  1.74015E+00  2.25318E+00  2.80225E+00  3.38185E+00  3.98428E+00  4.60059E+00  5.22017E+00  5.83150E+00  6.42161E+00
   6.97700E+00  7.48372E+00  7.92882E+00  8.30031E+00  8.58825E+00  8.78431E+00  8.88297E+00  8.88131E+00  8.77998E+00  8.58247E+00
   8.29531E+00  7.92699E+00  7.48825E+00  6.99111E+00  6.44905E+00  5.87552E+00  5.28389E+00  4.68620E+00  4.09367E+00  3.51589E+00
   2.96129E+00  2.43620E+00  1.94535E+00  1.49138E+00  1.07593E+00  6.99279E-01  3.61063E-01  5.96559E-02 -2.07014E-01 -4.41769E-01
  -6.47133E-01 -8.25877E-01 -9.80427E-01 -1.11364E+00 -1.22800E+00 -1.32609E+00 -1.40970E+00 -1.48066E+00 -1.54037E+00 -1.59056E+00
  -1.63250E+00 -1.66748E+00 -1.69614E+00 -1.71929E+00 -1.73752E+00 -1.75179E+00 -1.76260E+00 -1.77053E+00 -1.77565E+00 -1.77840E+00
  -1.77901E+00 -1.77812E+00 -1.77587E+00 -1.77250E+00 -1.76783E+00 -1.76217E+00 -1.75562E+00 -1.74861E+00 -1.74104E+00 -1.73298E+00
  -1.72424E+00 -1.71511E+00 -1.70565E+00 -1.69617E+00 -1.68642E+00 -1.67645E+00 -1.66609E+00 -1.65568E+00 -1.64522E+00 -1.63490E+00
  -1.62441E+00 -1.61380E+00 -1.60298E+00 -1.59227E+00 -1.58163E+00 -1.57113E+00 -1.56045E+00 -1.54971E+00 -1.53886E+00 -1.52822E+00
  -1.51765E+00 -1.50717E+00 -1.49647E+00 -1.48573E+00 -1.47494E+00 -1.46437E+00 -1.45380E+00 -1.44320E+00 -1.43232E+00 -1.42142E+00
  -1.41049E+00 -1.39971E+00 -1.38878E+00 -1.37769E+00 -1.36626E+00 -1.35478E+00 -1.34319E+00 -1.33160E+00
 NY background values follow
    -5.781E+01   -5.745E+01   -5.709E+01   -5.673E+01   -5.637E+01   -5.601E+01   -5.565E+01   -5.529E+01   -5.493E+01   -5.457E+01
    -5.421E+01   -5.385E+01   -5.350E+01   -5.314E+01   -5.278E+01   -5.242E+01   -5.207E+01   -5.171E+01   -5.136E+01   -5.101E+01
    -5.065E+01   -5.030E+01   -4.995E+01   -4.960E+01   -4.925E+01   -4.890E+01   -4.856E+01   -4.821E+01   -4.787E+01   -4.753E+01
    -4.718E+01   -4.685E+01   -4.651E+01   -4.617E+01   -4.584E+01   -4.550E+01   -4.517E+01   -4.484E+01   -4.452E+01   -4.419E+01
    -4.387E+01   -4.355E+01   -4.323E+01   -4.291E+01   -4.259E+01   -4.228E+01   -4.197E+01   -4.166E+01   -4.136E+01   -4.105E+01
    -4.075E+01   -4.046E+01   -4.016E+01   -3.987E+01   -3.957E+01   -3.929E+01   -3.900E+01   -3.872E+01   -3.844E+01   -3.816E+01
    -3.788E+01   -3.761E+01   -3.734E+01   -3.707E+01   -3.681E+01   -3.654E+01   -3.628E+01   -3.603E+01   -3.577E+01   -3.552E+01
    -3.527E+01   -3.503E+01   -3.479E+01   -3.455E+01   -3.431E+01   -3.407E+01   -3.384E+01   -3.361E+01   -3.339E+01   -3.317E+01
    -3.295E+01   -3.273E+01   -3.252E+01   -3.231E+01   -3.210E+01   -3.189E+01   -3.169E+01   -3.149E+01   -3.130E+01   -3.111E+01
    -3.092E+01   -3.073E+01   -3.055E+01   -3.037E+01   -3.020E+01   -3.002E+01   -2.985E+01   -2.968E+01   -2.952E+01   -2.936E+01
    -2.920E+01   -2.904E+01   -2.889E+01   -2.874E+01   -2.859E+01   -2.845E+01   -2.831E+01   -2.817E+01   -2.803E+01   -2.789E+01
    -2.776E+01   -2.763E+01   -2.750E+01   -2.738E+01   -2.726E+01   -2.714E+01   -2.702E+01   -2.690E+01   -2.679E+01   -2.667E+01
    -2.656E+01   -2.645E+01   -2.635E+01   -2.624E+01   -2.614E+01   -2.604E+01   -2.594E+01   -2.584E+01   -2.575E+01   -2.565E+01
    -2.556E+01   -2.547E+01   -2.538E+01   -2.529E+01   -2.521E+01   -2.512E+01   -2.504E+01   -2.495E+01   -2.487E+01   -2.479E+01
    -2.471E+01   -2.463E+01   -2.456E+01   -2.448E+01   -2.440E+01   -2.433E+01   -2.425E+01   -2.418E+01   -2.410E+01   -2.403E+01
    -2.395E+01   -2.388E+01   -2.380E+01   -2.373E+01   -2.365E+01   -2.358E+01   -2.350E+01   -2.342E+01   -2.335E+01   -2.327E+01
    -2.319E+01   -2.311E+01   -2.303E+01   -2.294E+01   -2.286E+01   -2.277E+01   -2.268E+01   -2.260E+01   -2.251E+01   -2.241E+01
    -2.232E+01   -2.222E+01   -2.212E+01   -2.202E+01   -2.192E+01   -2.182E+01   -2.171E+01   -2.160E+01   -2.148E+01   -2.137E+01
    -2.125E+01   -2.113E+01   -2.100E+01   -2.088E+01   -2.075E+01   -2.061E+01   -2.048E+01   -2.034E+01   -2.020E+01   -2.006E+01
    -1.991E+01   -1.977E+01   -1.962E+01   -1.947E+01   -1.931E+01   -1.916E+01   -1.901E+01   -1.885E+01   -1.869E+01   -1.853E+01
    -1.837E+01   -1.821E+01   -1.805E+01   -1.789E+01   -1.773E+01   -1.756E+01   -1.740E+01   -1.723E+01   -1.707E+01   -1.691E+01
    -1.674E+01   -1.658E+01   -1.641E+01   -1.625E+01   -1.609E+01   -1.593E+01   -1.577E+01   -1.561E+01   -1.545E+01   -1.529E+01
    -1.513E+01   -1.497E+01   -1.482E+01   -1.467E+01   -1.451E+01   -1.437E+01   -1.422E+01   -1.407E+01   -1.393E+01   -1.379E+01
    -1.364E+01   -1.351E+01   -1.337E+01   -1.324E+01   -1.310E+01   -1.297E+01   -1.284E+01   -1.271E+01   -1.259E+01   -1.246E+01
    -1.234E+01   -1.222E+01   -1.210E+01   -1.198E+01   -1.187E+01   -1.176E+01   -1.164E+01   -1.153E+01   -1.142E+01   -1.131E+01
    -1.121E+01   -1.110E+01   -1.100E+01   -1.090E+01   -1.080E+01   -1.070E+01   -1.060E+01   -1.051E+01   -1.041E+01   -1.032E+01
    -1.023E+01   -1.014E+01   -1.005E+01   -9.961E+00   -9.875E+00   -9.789E+00   -9.706E+00   -9.623E+00   -9.542E+00   -9.462E+00
    -9.383E+00   -9.305E+00   -9.229E+00   -9.153E+00   -9.079E+00   -9.006E+00   -8.934E+00   -8.863E+00   -8.793E+00   -8.725E+00
    -8.657E+00   -8.590E+00   -8.525E+00   -8.460E+00   -8.397E+00   -8.334E+00   -8.273E+00   -8.212E+00   -8.152E+00   -8.093E+00
    -8.036E+00   -7.979E+00   -7.923E+00   -7.867E+00   -7.813E+00   -7.760E+00   -7.707E+00   -7.655E+00   -7.604E+00   -7.554E+00
    -7.504E+00   -7.456E+00   -7.408E+00   -7.361E+00   -7.314E+00   -7.268E+00   -7.223E+00   -7.179E+00   -7.135E+00   -7.092E+00
    -7.050E+00   -7.008E+00   -6.966E+00   -6.926E+00   -6.886E+00   -6.846E+00   -6.807E+00   -6.769E+00   -6.731E+00   -6.694E+00
    -6.657E+00   -6.621E+00   -6.585E+00   -6.549E+00   -6.514E+00   -6.480E+00   -6.446E+00   -6.412E+00   -6.379E+00   -6.346E+00
    -6.314E+00   -6.282E+00   -6.250E+00   -6.219E+00   -6.188E+00   -6.158E+00   -6.128E+00   -6.098E+00   -6.069E+00   -6.039E+00
    -6.011E+00   -5.982E+00   -5.954E+00   -5.926E+00   -5.898E+00   -5.870E+00   -5.843E+00   -5.816E+00   -5.789E+00   -5.763E+00
    -5.737E+00   -5.710E+00   -5.684E+00   -5.659E+00   -5.633E+00   -5.607E+00   -5.582E+00   -5.557E+00   -5.532E+00   -5.507E+00
    -5.482E+00   -5.457E+00   -5.432E+00   -5.408E+00   -5.383E+00   -5.358E+00   -5.334E+00   -5.309E+00   -5.285E+00   -5.260E+00
    -5.236E+00   -5.211E+00   -5.187E+00   -5.162E+00   -5.137E+00   -5.112E+00   -5.087E+00   -5.062E+00   -5.037E+00   -5.012E+00
    -4.986E+00   -4.961E+00   -4.935E+00   -4.909E+00   -4.883E+00   -4.856E+00   -4.829E+00   -4.802E+00   -4.775E+00   -4.748E+00
    -4.720E+00   -4.692E+00   -4.664E+00   -4.635E+00   -4.606E+00   -4.576E+00   -4.547E+00   -4.516E+00   -4.486E+00   -4.455E+00
    -4.423E+00   -4.392E+00   -4.359E+00   -4.327E+00   -4.293E+00   -4.260E+00   -4.226E+00   -4.191E+00   -4.156E+00   -4.120E+00
    -4.084E+00   -4.047E+00   -4.010E+00   -3.973E+00   -3.935E+00   -3.897E+00   -3.859E+00   -3.820E+00   -3.781E+00   -3.742E+00
    -3.703E+00   -3.663E+00   -3.624E+00   -3.584E+00   -3.544E+00   -3.504E+00   -3.465E+00   -3.425E+00   -3.385E+00   -3.345E+00
    -3.305E+00   -3.266E+00   -3.226E+00   -3.187E+00   -3.148E+00   -3.109E+00   -3.070E+00   -3.031E+00   -2.993E+00   -2.955E+00
    -2.918E+00   -2.881E+00   -2.844E+00   -2.808E+00   -2.772E+00   -2.736E+00   -2.701E+00   -2.667E+00   -2.633E+00   -2.600E+00
    -2.567E+00   -2.535E+00   -2.504E+00   -2.473E+00   -2.443E+00   -2.414E+00   -2.385E+00   -2.357E+00   -2.330E+00   -2.303E+00
    -2.276E+00   -2.251E+00   -2.225E+00   -2.201E+00   -2.177E+00   -2.153E+00   -2.130E+00   -2.107E+00   -2.085E+00   -2.063E+00
    -2.042E+00   -2.021E+00   -2.001E+00   -1.981E+00   -1.961E+00   -1.942E+00   -1.923E+00   -1.904E+00   -1.886E+00   -1.868E+00
    -1.850E+00   -1.833E+00   -1.816E+00   -1.799E+00   -1.782E+00   -1.766E+00   -1.750E+00   -1.734E+00   -1.718E+00   -1.702E+00
    -1.687E+00   -1.672E+00   -1.656E+00   -1.641E+00   -1.626E+00   -1.611E+00   -1.597E+00   -1.582E+00
 Ala      Conc. = 2.66E+02
