 LCModel (Version 6.3-1L) Copyright: S.W. Provencher.          Ref.: Magn. Reson. Med. 30:672-679 (1993).                
 Slice#2 Row#9 Col#2  PD_24_press_2_raw_act
 36 lines in following concentration table = NCONC+1
    Conc.  %SD /Cr+PCr  Metabolite                                         
    0.000 999%   0.000 Ala                                                 
  103.313 125%   0.000 Asp                                                 
    0.000 999%   0.000 Cr                                                  
    0.000 999%   0.000 PCr                                                 
   63.973 124%   0.000 GABA                                                
   94.704  83%   0.000 Glc                                                 
    0.000 999%   0.000 Gln                                                 
 1.14E+04  11%   0.000 Glu                                                 
   41.226  82%   0.000 GPC                                                 
    0.000 999%   0.000 PCh                                                 
    0.000 999%   0.000 GSH                                                 
 2.05E+03  24%   0.000 Ins                                                 
 1.35E+03  46%   0.000 Lac                                                 
 2.22E+03   9%   0.000 NAA                                                 
    0.000 999%   0.000 NAAG                                                
   14.731 162%   0.000 Scyllo                                              
  141.177  91%   0.000 Tau                                                 
    0.000 999%   0.000 -CrCH2                                              
   41.226  82%   0.000 GPC+PCh                                             
 2.22E+03   9%   0.000 NAA+NAAG                                            
    0.000 999%   0.000 Cr+PCr                                              
 1.14E+04  11%   0.000 Glu+Gln                                             
 7.91E+03  22%   0.000 Lip13a                                              
    0.000 999%   0.000 Lip13b                                              
    0.000 999%   0.000 Lip09                                               
 3.48E+03  15%   0.000 MM09                                                
 2.55E+03  19%   0.000 Lip20                                               
 5.00E+03  16%   0.000 MM20                                                
 1.05E+03  18%   0.000 MM12                                                
 3.79E+03  15%   0.000 MM14                                                
 2.44E+03  12%   0.000+MM17                                                
 7.91E+03  22%   0.000 Lip13a+Lip13b                                       
 1.27E+04  14%   0.000 MM14+Lip13a+Lip13b+MM12                             
 3.48E+03  15%   0.000 MM09+Lip09                                          
 7.56E+03  10%   0.000 MM20+Lip20                                          
   6 lines in following misc. output table
  FWHM = 0.122 ppm    S/N =   7                                            
  Data shift = 0.275 ppm                                                   
  Ph: -93 deg      -3.1 deg/ppm                                            
  alphaB,S = 7.2E-01,   1.0E+02                                            
   12 spline knots.   Ns = 9(2)                                            
  (11) 7 infls.   ( 2) 2 extrs.                                            
  498 points on ppm-axis = NY
      4.000000     3.992357     3.984714     3.977070     3.969427     3.961784     3.954141     3.946497     3.938854     3.931211
      3.923568     3.915925     3.908281     3.900638     3.892995     3.885352     3.877708     3.870065     3.862422     3.854779
      3.847136     3.839492     3.831849     3.824206     3.816563     3.808919     3.801276     3.793633     3.785990     3.778347
      3.770703     3.763060     3.755417     3.747774     3.740130     3.732487     3.724844     3.717201     3.709558     3.701914
      3.694271     3.686628     3.678985     3.671341     3.663698     3.656055     3.648412     3.640769     3.633125     3.625482
      3.617839     3.610196     3.602552     3.594909     3.587266     3.579623     3.571980     3.564336     3.556693     3.549050
      3.541407     3.533763     3.526120     3.518477     3.510834     3.503191     3.495547     3.487904     3.480261     3.472618
      3.464974     3.457331     3.449688     3.442045     3.434402     3.426758     3.419115     3.411472     3.403829     3.396185
      3.388542     3.380899     3.373256     3.365613     3.357969     3.350326     3.342683     3.335040     3.327396     3.319753
      3.312110     3.304467     3.296824     3.289180     3.281537     3.273894     3.266251     3.258607     3.250964     3.243321
      3.235678     3.228034     3.220391     3.212748     3.205105     3.197462     3.189818     3.182175     3.174532     3.166889
      3.159245     3.151602     3.143959     3.136316     3.128673     3.121029     3.113386     3.105743     3.098100     3.090456
      3.082813     3.075170     3.067527     3.059884     3.052240     3.044597     3.036954     3.029311     3.021667     3.014024
      3.006381     2.998738     2.991095     2.983451     2.975808     2.968165     2.960522     2.952878     2.945235     2.937592
      2.929949     2.922306     2.914662     2.907019     2.899376     2.891733     2.884089     2.876446     2.868803     2.861160
      2.853517     2.845873     2.838230     2.830587     2.822944     2.815300     2.807657     2.800014     2.792371     2.784728
      2.777084     2.769441     2.761798     2.754155     2.746511     2.738868     2.731225     2.723582     2.715939     2.708295
      2.700652     2.693009     2.685366     2.677722     2.670079     2.662436     2.654793     2.647150     2.639506     2.631863
      2.624220     2.616577     2.608933     2.601290     2.593647     2.586004     2.578361     2.570717     2.563074     2.555431
      2.547788     2.540144     2.532501     2.524858     2.517215     2.509572     2.501928     2.494285     2.486642     2.478999
      2.471355     2.463712     2.456069     2.448426     2.440783     2.433139     2.425496     2.417853     2.410210     2.402566
      2.394923     2.387280     2.379637     2.371994     2.364350     2.356707     2.349064     2.341421     2.333777     2.326134
      2.318491     2.310848     2.303205     2.295561     2.287918     2.280275     2.272632     2.264988     2.257345     2.249702
      2.242059     2.234416     2.226772     2.219129     2.211486     2.203843     2.196199     2.188556     2.180913     2.173270
      2.165627     2.157983     2.150340     2.142697     2.135054     2.127410     2.119767     2.112124     2.104481     2.096838
      2.089194     2.081551     2.073908     2.066265     2.058621     2.050978     2.043335     2.035692     2.028049     2.020405
      2.012762     2.005119     1.997476     1.989833     1.982190     1.974546     1.966903     1.959260     1.951617     1.943974
      1.936331     1.928688     1.921045     1.913402     1.905759     1.898115     1.890472     1.882829     1.875186     1.867543
      1.859900     1.852257     1.844614     1.836971     1.829327     1.821684     1.814041     1.806398     1.798755     1.791112
      1.783469     1.775826     1.768183     1.760540     1.752896     1.745253     1.737610     1.729967     1.722324     1.714681
      1.707038     1.699395     1.691752     1.684108     1.676465     1.668822     1.661179     1.653536     1.645893     1.638250
      1.630607     1.622964     1.615321     1.607677     1.600034     1.592391     1.584748     1.577105     1.569462     1.561819
      1.554176     1.546533     1.538890     1.531246     1.523603     1.515960     1.508317     1.500674     1.493031     1.485388
      1.477745     1.470102     1.462458     1.454815     1.447172     1.439529     1.431886     1.424243     1.416600     1.408957
      1.401314     1.393671     1.386027     1.378384     1.370741     1.363098     1.355455     1.347812     1.340169     1.332526
      1.324883     1.317240     1.309596     1.301953     1.294310     1.286667     1.279024     1.271381     1.263738     1.256095
      1.248452     1.240808     1.233165     1.225522     1.217879     1.210236     1.202593     1.194950     1.187307     1.179664
      1.172021     1.164377     1.156734     1.149091     1.141448     1.133805     1.126162     1.118519     1.110876     1.103233
      1.095590     1.087946     1.080303     1.072660     1.065017     1.057374     1.049731     1.042088     1.034445     1.026802
      1.019158     1.011515     1.003872     0.996229     0.988586     0.980943     0.973300     0.965657     0.958014     0.950371
      0.942727     0.935084     0.927441     0.919798     0.912155     0.904512     0.896869     0.889226     0.881583     0.873940
      0.866296     0.858653     0.851010     0.843367     0.835724     0.828081     0.820438     0.812795     0.805152     0.797508
      0.789865     0.782222     0.774579     0.766936     0.759293     0.751650     0.744007     0.736364     0.728721     0.721077
      0.713434     0.705791     0.698148     0.690505     0.682862     0.675219     0.667576     0.659933     0.652290     0.644646
      0.637003     0.629360     0.621717     0.614074     0.606431     0.598788     0.591145     0.583502     0.575858     0.568215
      0.560572     0.552929     0.545286     0.537643     0.530000     0.522357     0.514714     0.507071     0.499427     0.491784
      0.484141     0.476498     0.468855     0.461212     0.453569     0.445925     0.438282     0.430639     0.422996     0.415353
      0.407710     0.400067     0.392424     0.384780     0.377137     0.369494     0.361851     0.354208     0.346565     0.338922
      0.331278     0.323635     0.315992     0.308349     0.300706     0.293063     0.285420     0.277777     0.270133     0.262490
      0.254847     0.247204     0.239561     0.231918     0.224275     0.216631     0.208988     0.201345
 NY phased data points follow
  -3.18058E+02 -3.17140E+02 -3.15446E+02 -3.05069E+02 -3.07811E+02 -3.07248E+02 -3.07693E+02 -3.05112E+02 -3.02325E+02 -2.98048E+02
  -2.96541E+02 -2.92684E+02 -2.94745E+02 -2.86121E+02 -2.92014E+02 -2.89522E+02 -2.82339E+02 -2.80874E+02 -2.81086E+02 -2.75995E+02
  -2.78401E+02 -2.77789E+02 -2.71462E+02 -2.63389E+02 -2.64361E+02 -2.64829E+02 -2.63582E+02 -2.59290E+02 -2.55469E+02 -2.52673E+02
  -2.54441E+02 -2.48764E+02 -2.49740E+02 -2.50045E+02 -2.44206E+02 -2.42421E+02 -2.45176E+02 -2.40988E+02 -2.38234E+02 -2.36946E+02
  -2.35594E+02 -2.33670E+02 -2.33475E+02 -2.26408E+02 -2.33763E+02 -2.28540E+02 -2.24890E+02 -2.26109E+02 -2.22489E+02 -2.16892E+02
  -2.18988E+02 -2.15149E+02 -2.12224E+02 -2.14119E+02 -2.13385E+02 -2.07766E+02 -2.08731E+02 -2.05920E+02 -2.05892E+02 -1.98361E+02
  -2.03083E+02 -2.02609E+02 -2.03172E+02 -2.05845E+02 -2.06831E+02 -2.00897E+02 -2.03273E+02 -1.96799E+02 -2.00523E+02 -1.94816E+02
  -1.98101E+02 -2.04773E+02 -2.02627E+02 -2.02266E+02 -1.99341E+02 -1.91904E+02 -1.92482E+02 -1.91535E+02 -1.92053E+02 -1.84615E+02
  -1.84101E+02 -1.88389E+02 -1.84491E+02 -1.82009E+02 -1.85942E+02 -1.86753E+02 -1.86707E+02 -1.83603E+02 -1.86214E+02 -1.86090E+02
  -1.87895E+02 -1.84536E+02 -1.78490E+02 -1.80026E+02 -1.86004E+02 -1.87017E+02 -1.88881E+02 -1.88880E+02 -1.90670E+02 -1.83321E+02
  -1.85289E+02 -1.80246E+02 -1.77015E+02 -1.76610E+02 -1.76722E+02 -1.78160E+02 -1.75933E+02 -1.73200E+02 -1.72300E+02 -1.71801E+02
  -1.76394E+02 -1.70602E+02 -1.66384E+02 -1.65636E+02 -1.69026E+02 -1.65105E+02 -1.66386E+02 -1.60999E+02 -1.67086E+02 -1.62126E+02
  -1.62947E+02 -1.60251E+02 -1.61802E+02 -1.61566E+02 -1.60000E+02 -1.58527E+02 -1.59651E+02 -1.57886E+02 -1.54967E+02 -1.58892E+02
  -1.58146E+02 -1.53955E+02 -1.52982E+02 -1.58341E+02 -1.54912E+02 -1.53171E+02 -1.46512E+02 -1.43604E+02 -1.44620E+02 -1.48631E+02
  -1.46195E+02 -1.44384E+02 -1.42208E+02 -1.35540E+02 -1.38433E+02 -1.35354E+02 -1.33501E+02 -1.35202E+02 -1.34542E+02 -1.32026E+02
  -1.30666E+02 -1.31759E+02 -1.31953E+02 -1.28744E+02 -1.32059E+02 -1.29249E+02 -1.27869E+02 -1.27788E+02 -1.28507E+02 -1.28626E+02
  -1.33446E+02 -1.31319E+02 -1.28314E+02 -1.22740E+02 -1.31084E+02 -1.26719E+02 -1.26115E+02 -1.20962E+02 -1.23313E+02 -1.18522E+02
  -1.25584E+02 -1.18874E+02 -1.26218E+02 -1.22693E+02 -1.26702E+02 -1.22957E+02 -1.19942E+02 -1.23324E+02 -1.20845E+02 -1.21248E+02
  -1.22443E+02 -1.19436E+02 -1.24485E+02 -1.23847E+02 -1.22228E+02 -1.27538E+02 -1.24673E+02 -1.22723E+02 -1.25706E+02 -1.25995E+02
  -1.20176E+02 -1.20003E+02 -1.23985E+02 -1.24400E+02 -1.24650E+02 -1.22565E+02 -1.23902E+02 -1.17797E+02 -1.20140E+02 -1.24624E+02
  -1.24014E+02 -1.13541E+02 -1.15074E+02 -1.12060E+02 -1.13840E+02 -1.09720E+02 -1.07783E+02 -1.09112E+02 -1.04203E+02 -1.01638E+02
  -1.02991E+02 -1.00890E+02 -1.00324E+02 -1.01539E+02 -1.00985E+02 -9.60537E+01 -1.00134E+02 -1.01316E+02 -1.02677E+02 -1.05848E+02
  -1.11595E+02 -1.13427E+02 -1.12980E+02 -1.18572E+02 -1.17171E+02 -1.08753E+02 -1.10917E+02 -1.17670E+02 -1.25699E+02 -1.30527E+02
  -1.32254E+02 -1.28642E+02 -1.22498E+02 -1.22274E+02 -1.18698E+02 -1.16758E+02 -1.20787E+02 -1.19550E+02 -1.16193E+02 -1.12827E+02
  -1.15716E+02 -1.09854E+02 -1.10634E+02 -1.12124E+02 -1.11664E+02 -1.12390E+02 -1.12364E+02 -1.07378E+02 -1.02544E+02 -1.03291E+02
  -1.03263E+02 -1.05548E+02 -1.01307E+02 -1.01872E+02 -1.00804E+02 -9.66096E+01 -1.01823E+02 -9.46944E+01 -9.97672E+01 -1.01371E+02
  -9.40477E+01 -9.37785E+01 -9.27747E+01 -9.13890E+01 -8.97700E+01 -8.52567E+01 -9.03435E+01 -9.00971E+01 -8.95063E+01 -9.17049E+01
  -9.56075E+01 -9.88221E+01 -9.78702E+01 -1.02384E+02 -1.04754E+02 -1.11026E+02 -1.16038E+02 -1.24807E+02 -1.30985E+02 -1.31352E+02
  -1.36355E+02 -1.37895E+02 -1.45992E+02 -1.48862E+02 -1.49900E+02 -1.56749E+02 -1.54396E+02 -1.52071E+02 -1.56403E+02 -1.52590E+02
  -1.50276E+02 -1.49224E+02 -1.47082E+02 -1.42556E+02 -1.41486E+02 -1.38593E+02 -1.33350E+02 -1.35225E+02 -1.35471E+02 -1.29550E+02
  -1.22645E+02 -1.23044E+02 -1.20226E+02 -1.19595E+02 -1.25444E+02 -1.24846E+02 -1.22047E+02 -1.16718E+02 -1.19755E+02 -1.17951E+02
  -1.13378E+02 -1.13097E+02 -1.17967E+02 -1.14093E+02 -1.10047E+02 -1.13274E+02 -1.10819E+02 -1.10551E+02 -1.09345E+02 -1.11703E+02
  -1.05848E+02 -1.05942E+02 -1.07877E+02 -1.06289E+02 -1.09780E+02 -1.04301E+02 -1.08102E+02 -1.07830E+02 -1.01152E+02 -1.06989E+02
  -1.10638E+02 -1.02128E+02 -1.03322E+02 -1.06670E+02 -1.05456E+02 -1.04988E+02 -1.03830E+02 -1.02306E+02 -1.03377E+02 -9.82528E+01
  -1.01659E+02 -1.01232E+02 -9.92817E+01 -1.02171E+02 -9.87447E+01 -1.01906E+02 -9.67573E+01 -9.68287E+01 -9.81850E+01 -9.82731E+01
  -9.63091E+01 -9.71260E+01 -1.00552E+02 -9.41193E+01 -9.52056E+01 -9.16931E+01 -9.52355E+01 -9.46565E+01 -8.96534E+01 -9.22496E+01
  -9.48333E+01 -9.69475E+01 -9.29898E+01 -8.95142E+01 -8.92697E+01 -9.17105E+01 -9.15912E+01 -8.89785E+01 -8.99286E+01 -9.09296E+01
  -9.32963E+01 -9.45642E+01 -8.87442E+01 -8.76513E+01 -8.80012E+01 -9.16796E+01 -8.55110E+01 -8.49032E+01 -8.68469E+01 -8.82464E+01
  -9.11360E+01 -8.67347E+01 -8.92504E+01 -8.59940E+01 -8.61423E+01 -8.11293E+01 -8.85040E+01 -8.32804E+01 -8.71885E+01 -8.31238E+01
  -8.51996E+01 -8.34497E+01 -8.33413E+01 -8.61702E+01 -8.61929E+01 -8.42178E+01 -8.28341E+01 -8.33296E+01 -8.11618E+01 -7.71597E+01
  -8.25205E+01 -8.05902E+01 -8.17258E+01 -8.17077E+01 -7.68242E+01 -7.99766E+01 -7.76044E+01 -7.59963E+01 -8.23869E+01 -7.56311E+01
  -7.55771E+01 -7.74781E+01 -7.63788E+01 -7.79688E+01 -7.54442E+01 -7.78079E+01 -7.18857E+01 -7.49956E+01 -7.72460E+01 -7.49961E+01
  -7.54749E+01 -7.26325E+01 -7.58196E+01 -7.65728E+01 -7.75500E+01 -7.04956E+01 -7.42365E+01 -7.04594E+01 -7.09993E+01 -7.22715E+01
  -6.69256E+01 -6.95815E+01 -7.25216E+01 -6.93361E+01 -7.07278E+01 -6.96460E+01 -7.18893E+01 -7.00893E+01 -6.96700E+01 -6.46424E+01
  -6.30774E+01 -6.65978E+01 -6.77168E+01 -6.48191E+01 -6.57500E+01 -6.80436E+01 -6.62648E+01 -6.28263E+01 -6.41683E+01 -6.14935E+01
  -6.42380E+01 -6.25523E+01 -6.20871E+01 -6.33673E+01 -6.06562E+01 -5.75031E+01 -6.24256E+01 -6.04316E+01 -5.98073E+01 -6.19153E+01
  -6.18046E+01 -5.98046E+01 -6.07643E+01 -5.69225E+01 -6.30543E+01 -5.94693E+01 -6.13868E+01 -5.97523E+01 -5.81167E+01 -5.73879E+01
  -5.90879E+01 -5.77556E+01 -6.13663E+01 -5.73716E+01 -5.79763E+01 -5.68572E+01 -5.83055E+01 -5.83845E+01 -5.98161E+01 -5.72293E+01
  -5.77012E+01 -5.91467E+01 -5.81833E+01 -5.55361E+01 -5.72212E+01 -5.47393E+01 -5.39088E+01 -5.56290E+01 -5.64364E+01 -5.90357E+01
  -5.65798E+01 -5.82104E+01 -5.61475E+01 -5.49459E+01 -6.11570E+01 -5.83042E+01 -5.37827E+01 -5.06790E+01
 NY points of the fit to the data follow
  -3.14179E+02 -3.11381E+02 -3.09545E+02 -3.07282E+02 -3.05600E+02 -3.03471E+02 -3.02258E+02 -3.00443E+02 -2.99575E+02 -2.97946E+02
  -2.96204E+02 -2.94769E+02 -2.92689E+02 -2.91088E+02 -2.89731E+02 -2.88429E+02 -2.87134E+02 -2.85754E+02 -2.83243E+02 -2.80965E+02
  -2.77778E+02 -2.74979E+02 -2.72547E+02 -2.69917E+02 -2.68244E+02 -2.65480E+02 -2.64206E+02 -2.60938E+02 -2.60002E+02 -2.56177E+02
  -2.55602E+02 -2.51347E+02 -2.51048E+02 -2.46335E+02 -2.46926E+02 -2.42445E+02 -2.43847E+02 -2.39407E+02 -2.40132E+02 -2.35267E+02
  -2.34929E+02 -2.30120E+02 -2.30110E+02 -2.26579E+02 -2.27460E+02 -2.25123E+02 -2.25055E+02 -2.22592E+02 -2.19954E+02 -2.17301E+02
  -2.15694E+02 -2.14480E+02 -2.14152E+02 -2.14034E+02 -2.13217E+02 -2.12090E+02 -2.09555E+02 -2.08024E+02 -2.06299E+02 -2.05486E+02
  -2.05474E+02 -2.05432E+02 -2.05184E+02 -2.04728E+02 -2.04200E+02 -2.03458E+02 -2.02971E+02 -2.02276E+02 -2.02030E+02 -2.01108E+02
  -2.00140E+02 -1.98462E+02 -1.97519E+02 -1.96069E+02 -1.95388E+02 -1.94148E+02 -1.93552E+02 -1.92434E+02 -1.91918E+02 -1.90896E+02
  -1.90610E+02 -1.89742E+02 -1.89343E+02 -1.88494E+02 -1.88066E+02 -1.87448E+02 -1.87144E+02 -1.86694E+02 -1.86537E+02 -1.86103E+02
  -1.85963E+02 -1.85441E+02 -1.85284E+02 -1.84798E+02 -1.84611E+02 -1.83924E+02 -1.83771E+02 -1.82813E+02 -1.82557E+02 -1.81349E+02
  -1.80970E+02 -1.79542E+02 -1.79103E+02 -1.77580E+02 -1.77201E+02 -1.75713E+02 -1.75339E+02 -1.73796E+02 -1.73215E+02 -1.71676E+02
  -1.71201E+02 -1.69829E+02 -1.69459E+02 -1.68199E+02 -1.67772E+02 -1.66659E+02 -1.66111E+02 -1.65027E+02 -1.64315E+02 -1.63128E+02
  -1.62304E+02 -1.61264E+02 -1.60458E+02 -1.59591E+02 -1.58593E+02 -1.57582E+02 -1.56605E+02 -1.55655E+02 -1.54691E+02 -1.53749E+02
  -1.52783E+02 -1.51859E+02 -1.50899E+02 -1.49984E+02 -1.49023E+02 -1.48106E+02 -1.47141E+02 -1.46208E+02 -1.45238E+02 -1.44290E+02
  -1.43310E+02 -1.42350E+02 -1.41334E+02 -1.40283E+02 -1.39273E+02 -1.38236E+02 -1.37294E+02 -1.36342E+02 -1.35373E+02 -1.34437E+02
  -1.33470E+02 -1.32567E+02 -1.31655E+02 -1.30843E+02 -1.30035E+02 -1.29358E+02 -1.28668E+02 -1.28123E+02 -1.27500E+02 -1.27139E+02
  -1.26705E+02 -1.26471E+02 -1.26143E+02 -1.25897E+02 -1.25725E+02 -1.25570E+02 -1.25554E+02 -1.25509E+02 -1.25514E+02 -1.25437E+02
  -1.25533E+02 -1.25425E+02 -1.25603E+02 -1.25478E+02 -1.25688E+02 -1.25586E+02 -1.25744E+02 -1.25694E+02 -1.25714E+02 -1.25696E+02
  -1.25500E+02 -1.25425E+02 -1.25137E+02 -1.25182E+02 -1.24706E+02 -1.24845E+02 -1.24105E+02 -1.24192E+02 -1.23397E+02 -1.23199E+02
  -1.22125E+02 -1.21795E+02 -1.20109E+02 -1.19663E+02 -1.17890E+02 -1.17519E+02 -1.16560E+02 -1.16872E+02 -1.17752E+02 -1.17701E+02
  -1.17528E+02 -1.16423E+02 -1.15170E+02 -1.13256E+02 -1.11094E+02 -1.08668E+02 -1.08146E+02 -1.07092E+02 -1.07917E+02 -1.07542E+02
  -1.08170E+02 -1.07297E+02 -1.07067E+02 -1.05695E+02 -1.05388E+02 -1.04589E+02 -1.05516E+02 -1.05889E+02 -1.08310E+02 -1.09187E+02
  -1.11262E+02 -1.11890E+02 -1.12697E+02 -1.12901E+02 -1.14001E+02 -1.14024E+02 -1.17643E+02 -1.18634E+02 -1.23150E+02 -1.24100E+02
  -1.26896E+02 -1.25461E+02 -1.26127E+02 -1.22664E+02 -1.23517E+02 -1.20399E+02 -1.21831E+02 -1.18413E+02 -1.16508E+02 -1.13315E+02
  -1.10114E+02 -1.07446E+02 -1.05680E+02 -1.05223E+02 -1.05526E+02 -1.08327E+02 -1.07259E+02 -1.09868E+02 -1.07804E+02 -1.10258E+02
  -1.07261E+02 -1.09032E+02 -1.04921E+02 -1.06067E+02 -1.01761E+02 -1.02628E+02 -9.88874E+01 -9.96319E+01 -9.60640E+01 -9.60488E+01
  -9.25528E+01 -9.14733E+01 -9.00534E+01 -8.90622E+01 -8.91882E+01 -8.89053E+01 -8.95300E+01 -8.89026E+01 -9.06503E+01 -9.06615E+01
  -9.45586E+01 -9.55286E+01 -1.02096E+02 -1.04538E+02 -1.12053E+02 -1.14273E+02 -1.20451E+02 -1.22490E+02 -1.28850E+02 -1.31455E+02
  -1.39117E+02 -1.41034E+02 -1.42802E+02 -1.42937E+02 -1.43853E+02 -1.43787E+02 -1.43796E+02 -1.43934E+02 -1.43768E+02 -1.43600E+02
  -1.43047E+02 -1.42617E+02 -1.41792E+02 -1.41196E+02 -1.40329E+02 -1.39388E+02 -1.38055E+02 -1.36658E+02 -1.34963E+02 -1.33212E+02
  -1.31278E+02 -1.29310E+02 -1.27386E+02 -1.25505E+02 -1.23713E+02 -1.22035E+02 -1.20502E+02 -1.19129E+02 -1.17923E+02 -1.16882E+02
  -1.16009E+02 -1.15269E+02 -1.14635E+02 -1.14087E+02 -1.13577E+02 -1.13086E+02 -1.12574E+02 -1.12031E+02 -1.11434E+02 -1.10790E+02
  -1.10094E+02 -1.09372E+02 -1.08634E+02 -1.07915E+02 -1.07236E+02 -1.06627E+02 -1.06120E+02 -1.05756E+02 -1.05615E+02 -1.05798E+02
  -1.05533E+02 -1.05294E+02 -1.04981E+02 -1.04503E+02 -1.04268E+02 -1.03762E+02 -1.03529E+02 -1.03678E+02 -1.03629E+02 -1.03572E+02
  -1.03327E+02 -1.02702E+02 -1.02139E+02 -1.01152E+02 -1.00435E+02 -9.94188E+01 -9.87970E+01 -9.79429E+01 -9.75267E+01 -9.69449E+01
  -9.65082E+01 -9.57494E+01 -9.52851E+01 -9.43304E+01 -9.40425E+01 -9.33863E+01 -9.33541E+01 -9.34909E+01 -9.35807E+01 -9.37628E+01
  -9.36039E+01 -9.30906E+01 -9.25322E+01 -9.15678E+01 -9.10472E+01 -9.07929E+01 -9.04790E+01 -9.07630E+01 -9.00424E+01 -8.92590E+01
  -8.89815E+01 -8.86140E+01 -8.84755E+01 -8.86831E+01 -8.88306E+01 -9.00810E+01 -9.06670E+01 -9.08559E+01 -9.08292E+01 -9.06505E+01
  -9.03502E+01 -8.99469E+01 -8.94546E+01 -8.88848E+01 -8.82489E+01 -8.75580E+01 -8.68239E+01 -8.60584E+01 -8.52737E+01 -8.44823E+01
  -8.36960E+01 -8.29268E+01 -8.21853E+01 -8.14814E+01 -8.08235E+01 -8.02182E+01 -7.96706E+01 -7.91842E+01 -7.87604E+01 -7.83988E+01
  -7.80973E+01 -7.78522E+01 -7.76586E+01 -7.75104E+01 -7.74008E+01 -7.73222E+01 -7.72670E+01 -7.72275E+01 -7.71963E+01 -7.71665E+01
  -7.71316E+01 -7.70862E+01 -7.70255E+01 -7.69454E+01 -7.68431E+01 -7.67163E+01 -7.65636E+01 -7.63843E+01 -7.61781E+01 -7.59457E+01
  -7.56878E+01 -7.54057E+01 -7.51009E+01 -7.47750E+01 -7.44299E+01 -7.40674E+01 -7.36896E+01 -7.32983E+01 -7.28954E+01 -7.24828E+01
  -7.20622E+01 -7.16353E+01 -7.12038E+01 -7.07692E+01 -7.03329E+01 -6.98962E+01 -6.94606E+01 -6.90271E+01 -6.85969E+01 -6.81712E+01
  -6.77508E+01 -6.73368E+01 -6.69301E+01 -6.65313E+01 -6.61408E+01 -6.57585E+01 -6.53847E+01 -6.50192E+01 -6.46623E+01 -6.43139E+01
  -6.39740E+01 -6.36426E+01 -6.33195E+01 -6.30048E+01 -6.26984E+01 -6.24001E+01 -6.21099E+01 -6.18276E+01 -6.15531E+01 -6.12862E+01
  -6.10269E+01 -6.07748E+01 -6.05299E+01 -6.02920E+01 -6.00610E+01 -5.98365E+01 -5.96185E+01 -5.94067E+01 -5.92009E+01 -5.90009E+01
  -5.88065E+01 -5.86175E+01 -5.84338E+01 -5.82549E+01 -5.80808E+01 -5.79111E+01 -5.77458E+01 -5.75845E+01 -5.74270E+01 -5.72730E+01
  -5.71224E+01 -5.69748E+01 -5.68301E+01 -5.66880E+01 -5.65483E+01 -5.64106E+01 -5.62749E+01 -5.61407E+01 -5.60080E+01 -5.58763E+01
  -5.57456E+01 -5.56154E+01 -5.54857E+01 -5.53561E+01 -5.52264E+01 -5.50964E+01 -5.49659E+01 -5.48347E+01
 NY background values follow
    -3.226E+02   -3.205E+02   -3.184E+02   -3.163E+02   -3.142E+02   -3.121E+02   -3.100E+02   -3.080E+02   -3.059E+02   -3.039E+02
    -3.018E+02   -2.998E+02   -2.977E+02   -2.957E+02   -2.937E+02   -2.916E+02   -2.896E+02   -2.876E+02   -2.856E+02   -2.837E+02
    -2.817E+02   -2.797E+02   -2.778E+02   -2.758E+02   -2.739E+02   -2.720E+02   -2.701E+02   -2.682E+02   -2.664E+02   -2.645E+02
    -2.627E+02   -2.608E+02   -2.590E+02   -2.572E+02   -2.554E+02   -2.537E+02   -2.519E+02   -2.502E+02   -2.485E+02   -2.468E+02
    -2.451E+02   -2.435E+02   -2.419E+02   -2.403E+02   -2.387E+02   -2.371E+02   -2.356E+02   -2.340E+02   -2.325E+02   -2.310E+02
    -2.296E+02   -2.282E+02   -2.268E+02   -2.254E+02   -2.240E+02   -2.227E+02   -2.214E+02   -2.201E+02   -2.188E+02   -2.176E+02
    -2.164E+02   -2.152E+02   -2.141E+02   -2.129E+02   -2.118E+02   -2.107E+02   -2.096E+02   -2.086E+02   -2.075E+02   -2.065E+02
    -2.055E+02   -2.045E+02   -2.036E+02   -2.026E+02   -2.017E+02   -2.008E+02   -1.999E+02   -1.990E+02   -1.981E+02   -1.972E+02
    -1.964E+02   -1.955E+02   -1.947E+02   -1.939E+02   -1.931E+02   -1.923E+02   -1.915E+02   -1.907E+02   -1.899E+02   -1.891E+02
    -1.883E+02   -1.876E+02   -1.868E+02   -1.861E+02   -1.853E+02   -1.846E+02   -1.838E+02   -1.831E+02   -1.823E+02   -1.816E+02
    -1.809E+02   -1.801E+02   -1.794E+02   -1.786E+02   -1.779E+02   -1.771E+02   -1.764E+02   -1.756E+02   -1.748E+02   -1.741E+02
    -1.733E+02   -1.725E+02   -1.717E+02   -1.709E+02   -1.701E+02   -1.693E+02   -1.685E+02   -1.677E+02   -1.669E+02   -1.660E+02
    -1.652E+02   -1.644E+02   -1.635E+02   -1.627E+02   -1.619E+02   -1.610E+02   -1.602E+02   -1.593E+02   -1.585E+02   -1.576E+02
    -1.568E+02   -1.559E+02   -1.551E+02   -1.542E+02   -1.534E+02   -1.525E+02   -1.517E+02   -1.509E+02   -1.500E+02   -1.492E+02
    -1.484E+02   -1.475E+02   -1.467E+02   -1.459E+02   -1.451E+02   -1.443E+02   -1.435E+02   -1.427E+02   -1.419E+02   -1.411E+02
    -1.403E+02   -1.396E+02   -1.388E+02   -1.381E+02   -1.373E+02   -1.366E+02   -1.359E+02   -1.352E+02   -1.345E+02   -1.338E+02
    -1.331E+02   -1.324E+02   -1.318E+02   -1.311E+02   -1.305E+02   -1.298E+02   -1.292E+02   -1.286E+02   -1.281E+02   -1.275E+02
    -1.269E+02   -1.264E+02   -1.259E+02   -1.254E+02   -1.249E+02   -1.244E+02   -1.239E+02   -1.235E+02   -1.230E+02   -1.226E+02
    -1.222E+02   -1.218E+02   -1.214E+02   -1.211E+02   -1.207E+02   -1.204E+02   -1.201E+02   -1.198E+02   -1.195E+02   -1.193E+02
    -1.191E+02   -1.188E+02   -1.186E+02   -1.185E+02   -1.183E+02   -1.181E+02   -1.180E+02   -1.179E+02   -1.178E+02   -1.177E+02
    -1.177E+02   -1.177E+02   -1.176E+02   -1.176E+02   -1.177E+02   -1.177E+02   -1.178E+02   -1.179E+02   -1.180E+02   -1.181E+02
    -1.183E+02   -1.184E+02   -1.186E+02   -1.188E+02   -1.191E+02   -1.193E+02   -1.196E+02   -1.199E+02   -1.203E+02   -1.206E+02
    -1.210E+02   -1.214E+02   -1.218E+02   -1.222E+02   -1.227E+02   -1.232E+02   -1.237E+02   -1.242E+02   -1.248E+02   -1.253E+02
    -1.259E+02   -1.265E+02   -1.271E+02   -1.277E+02   -1.283E+02   -1.289E+02   -1.296E+02   -1.302E+02   -1.309E+02   -1.316E+02
    -1.323E+02   -1.330E+02   -1.336E+02   -1.343E+02   -1.350E+02   -1.357E+02   -1.364E+02   -1.371E+02   -1.378E+02   -1.385E+02
    -1.392E+02   -1.399E+02   -1.406E+02   -1.413E+02   -1.420E+02   -1.426E+02   -1.433E+02   -1.439E+02   -1.446E+02   -1.452E+02
    -1.458E+02   -1.464E+02   -1.470E+02   -1.476E+02   -1.482E+02   -1.487E+02   -1.492E+02   -1.498E+02   -1.503E+02   -1.507E+02
    -1.512E+02   -1.516E+02   -1.520E+02   -1.524E+02   -1.527E+02   -1.531E+02   -1.534E+02   -1.537E+02   -1.539E+02   -1.541E+02
    -1.543E+02   -1.545E+02   -1.546E+02   -1.548E+02   -1.549E+02   -1.549E+02   -1.550E+02   -1.550E+02   -1.550E+02   -1.550E+02
    -1.550E+02   -1.549E+02   -1.548E+02   -1.547E+02   -1.546E+02   -1.545E+02   -1.543E+02   -1.542E+02   -1.540E+02   -1.538E+02
    -1.535E+02   -1.533E+02   -1.530E+02   -1.528E+02   -1.525E+02   -1.522E+02   -1.519E+02   -1.516E+02   -1.512E+02   -1.509E+02
    -1.505E+02   -1.501E+02   -1.498E+02   -1.494E+02   -1.490E+02   -1.486E+02   -1.481E+02   -1.477E+02   -1.473E+02   -1.468E+02
    -1.464E+02   -1.459E+02   -1.455E+02   -1.450E+02   -1.445E+02   -1.441E+02   -1.436E+02   -1.431E+02   -1.426E+02   -1.421E+02
    -1.417E+02   -1.412E+02   -1.407E+02   -1.402E+02   -1.397E+02   -1.392E+02   -1.387E+02   -1.382E+02   -1.377E+02   -1.372E+02
    -1.367E+02   -1.362E+02   -1.357E+02   -1.352E+02   -1.347E+02   -1.342E+02   -1.337E+02   -1.332E+02   -1.327E+02   -1.322E+02
    -1.316E+02   -1.311E+02   -1.306E+02   -1.301E+02   -1.295E+02   -1.290E+02   -1.285E+02   -1.279E+02   -1.274E+02   -1.268E+02
    -1.263E+02   -1.257E+02   -1.252E+02   -1.246E+02   -1.240E+02   -1.234E+02   -1.229E+02   -1.223E+02   -1.217E+02   -1.211E+02
    -1.205E+02   -1.199E+02   -1.193E+02   -1.187E+02   -1.181E+02   -1.174E+02   -1.168E+02   -1.162E+02   -1.155E+02   -1.149E+02
    -1.142E+02   -1.135E+02   -1.129E+02   -1.122E+02   -1.115E+02   -1.108E+02   -1.101E+02   -1.094E+02   -1.087E+02   -1.080E+02
    -1.072E+02   -1.065E+02   -1.058E+02   -1.050E+02   -1.043E+02   -1.035E+02   -1.028E+02   -1.020E+02   -1.013E+02   -1.005E+02
    -9.972E+01   -9.895E+01   -9.818E+01   -9.741E+01   -9.664E+01   -9.586E+01   -9.509E+01   -9.431E+01   -9.354E+01   -9.277E+01
    -9.199E+01   -9.122E+01   -9.046E+01   -8.969E+01   -8.893E+01   -8.817E+01   -8.742E+01   -8.667E+01   -8.592E+01   -8.518E+01
    -8.444E+01   -8.371E+01   -8.299E+01   -8.227E+01   -8.156E+01   -8.086E+01   -8.016E+01   -7.947E+01   -7.880E+01   -7.812E+01
    -7.746E+01   -7.681E+01   -7.617E+01   -7.554E+01   -7.492E+01   -7.431E+01   -7.371E+01   -7.312E+01   -7.255E+01   -7.199E+01
    -7.144E+01   -7.090E+01   -7.038E+01   -6.988E+01   -6.938E+01   -6.890E+01   -6.844E+01   -6.798E+01   -6.754E+01   -6.712E+01
    -6.670E+01   -6.630E+01   -6.590E+01   -6.552E+01   -6.515E+01   -6.479E+01   -6.445E+01   -6.411E+01   -6.378E+01   -6.346E+01
    -6.315E+01   -6.285E+01   -6.256E+01   -6.228E+01   -6.201E+01   -6.174E+01   -6.148E+01   -6.123E+01   -6.099E+01   -6.075E+01
    -6.053E+01   -6.030E+01   -6.009E+01   -5.988E+01   -5.967E+01   -5.947E+01   -5.928E+01   -5.909E+01   -5.891E+01   -5.873E+01
    -5.855E+01   -5.838E+01   -5.821E+01   -5.804E+01   -5.788E+01   -5.772E+01   -5.756E+01   -5.741E+01   -5.726E+01   -5.710E+01
    -5.695E+01   -5.681E+01   -5.666E+01   -5.651E+01   -5.636E+01   -5.622E+01   -5.607E+01   -5.592E+01
 Asp      Conc. = 1.03E+02
