 LCModel (Version 6.3-1L) Copyright: S.W. Provencher.          Ref.: Magn. Reson. Med. 30:672-679 (1993).                
 Slice#1 Row#8 Col#8  PD_24_press_2_raw_act
 36 lines in following concentration table = NCONC+1
    Conc.  %SD /Cr+PCr  Metabolite                                         
  330.476  38%   0.196 Ala                                                 
  211.037 128%   0.125 Asp                                                 
  389.426  66%   0.231 Cr                                                  
 1.30E+03  21%   0.769 PCr                                                 
    0.000 999%   0.000 GABA                                                
  182.978  98%   0.108 Glc                                                 
  348.667  71%   0.206 Gln                                                 
 1.73E+03  16%   1.024 Glu                                                 
  506.811   5%   0.300 GPC                                                 
    0.000 999%   0.000 PCh                                                 
  348.782  24%   0.207 GSH                                                 
 1.70E+03  17%   1.009 Ins                                                 
   51.875 257% 3.1E-02 Lac                                                 
 3.19E+03   5%   1.890 NAA                                                 
  158.909 101% 9.4E-02 NAAG                                                
  148.791  21% 8.8E-02 Scyllo                                              
    0.000 999%   0.000 Tau                                                 
  470.266  26%   0.278 -CrCH2                                              
  506.811   5%   0.300 GPC+PCh                                             
 3.35E+03   3%   1.984 NAA+NAAG                                            
 1.69E+03   4%   1.000 Cr+PCr                                              
 2.08E+03  18%   1.231 Glu+Gln                                             
 1.50E+03  48%   0.888 Lip13a                                              
    0.000 999%   0.000 Lip13b                                              
    7.651 999% 4.5E-03 Lip09                                               
 2.56E+03  16%   1.514 MM09                                                
  106.607 243% 6.3E-02 Lip20                                               
 5.15E+03  10%   3.050 MM20                                                
  767.612  39%   0.455 MM12                                                
 2.79E+03  23%   1.653 MM14                                                
 2.98E+03  14%   1.764 MM17                                                
 1.50E+03  48%   0.888 Lip13a+Lip13b                                       
 5.06E+03   9%   2.996 MM14+Lip13a+Lip13b+MM12                             
 2.56E+03  10%   1.518 MM09+Lip09                                          
 5.26E+03   9%   3.113 MM20+Lip20                                          
   6 lines in following misc. output table
  FWHM = 0.046 ppm    S/N =  14                                            
  Data shift = 0.000 ppm                                                   
  Ph: -26 deg      -5.8 deg/ppm                                            
  alphaB,S = 8.5E+01,   1.1E+02                                            
   14 spline knots.   Ns = 6(1)                                            
   2 inflections.     1 extrema                                            
  498 points on ppm-axis = NY
      4.000000     3.992357     3.984714     3.977070     3.969427     3.961784     3.954141     3.946497     3.938854     3.931211
      3.923568     3.915925     3.908281     3.900638     3.892995     3.885352     3.877708     3.870065     3.862422     3.854779
      3.847136     3.839492     3.831849     3.824206     3.816563     3.808919     3.801276     3.793633     3.785990     3.778347
      3.770703     3.763060     3.755417     3.747774     3.740130     3.732487     3.724844     3.717201     3.709558     3.701914
      3.694271     3.686628     3.678985     3.671341     3.663698     3.656055     3.648412     3.640769     3.633125     3.625482
      3.617839     3.610196     3.602552     3.594909     3.587266     3.579623     3.571980     3.564336     3.556693     3.549050
      3.541407     3.533763     3.526120     3.518477     3.510834     3.503191     3.495547     3.487904     3.480261     3.472618
      3.464974     3.457331     3.449688     3.442045     3.434402     3.426758     3.419115     3.411472     3.403829     3.396185
      3.388542     3.380899     3.373256     3.365613     3.357969     3.350326     3.342683     3.335040     3.327396     3.319753
      3.312110     3.304467     3.296824     3.289180     3.281537     3.273894     3.266251     3.258607     3.250964     3.243321
      3.235678     3.228034     3.220391     3.212748     3.205105     3.197462     3.189818     3.182175     3.174532     3.166889
      3.159245     3.151602     3.143959     3.136316     3.128673     3.121029     3.113386     3.105743     3.098100     3.090456
      3.082813     3.075170     3.067527     3.059884     3.052240     3.044597     3.036954     3.029311     3.021667     3.014024
      3.006381     2.998738     2.991095     2.983451     2.975808     2.968165     2.960522     2.952878     2.945235     2.937592
      2.929949     2.922306     2.914662     2.907019     2.899376     2.891733     2.884089     2.876446     2.868803     2.861160
      2.853517     2.845873     2.838230     2.830587     2.822944     2.815300     2.807657     2.800014     2.792371     2.784728
      2.777084     2.769441     2.761798     2.754155     2.746511     2.738868     2.731225     2.723582     2.715939     2.708295
      2.700652     2.693009     2.685366     2.677722     2.670079     2.662436     2.654793     2.647150     2.639506     2.631863
      2.624220     2.616577     2.608933     2.601290     2.593647     2.586004     2.578361     2.570717     2.563074     2.555431
      2.547788     2.540144     2.532501     2.524858     2.517215     2.509572     2.501928     2.494285     2.486642     2.478999
      2.471355     2.463712     2.456069     2.448426     2.440783     2.433139     2.425496     2.417853     2.410210     2.402566
      2.394923     2.387280     2.379637     2.371994     2.364350     2.356707     2.349064     2.341421     2.333777     2.326134
      2.318491     2.310848     2.303205     2.295561     2.287918     2.280275     2.272632     2.264988     2.257345     2.249702
      2.242059     2.234416     2.226772     2.219129     2.211486     2.203843     2.196199     2.188556     2.180913     2.173270
      2.165627     2.157983     2.150340     2.142697     2.135054     2.127410     2.119767     2.112124     2.104481     2.096838
      2.089194     2.081551     2.073908     2.066265     2.058621     2.050978     2.043335     2.035692     2.028049     2.020405
      2.012762     2.005119     1.997476     1.989833     1.982190     1.974546     1.966903     1.959260     1.951617     1.943974
      1.936331     1.928688     1.921045     1.913402     1.905759     1.898115     1.890472     1.882829     1.875186     1.867543
      1.859900     1.852257     1.844614     1.836971     1.829327     1.821684     1.814041     1.806398     1.798755     1.791112
      1.783469     1.775826     1.768183     1.760540     1.752896     1.745253     1.737610     1.729967     1.722324     1.714681
      1.707038     1.699395     1.691752     1.684108     1.676465     1.668822     1.661179     1.653536     1.645893     1.638250
      1.630607     1.622964     1.615321     1.607677     1.600034     1.592391     1.584748     1.577105     1.569462     1.561819
      1.554176     1.546533     1.538890     1.531246     1.523603     1.515960     1.508317     1.500674     1.493031     1.485388
      1.477745     1.470102     1.462458     1.454815     1.447172     1.439529     1.431886     1.424243     1.416600     1.408957
      1.401314     1.393671     1.386027     1.378384     1.370741     1.363098     1.355455     1.347812     1.340169     1.332526
      1.324883     1.317240     1.309596     1.301953     1.294310     1.286667     1.279024     1.271381     1.263738     1.256095
      1.248452     1.240808     1.233165     1.225522     1.217879     1.210236     1.202593     1.194950     1.187307     1.179664
      1.172021     1.164377     1.156734     1.149091     1.141448     1.133805     1.126162     1.118519     1.110876     1.103233
      1.095590     1.087946     1.080303     1.072660     1.065017     1.057374     1.049731     1.042088     1.034445     1.026802
      1.019158     1.011515     1.003872     0.996229     0.988586     0.980943     0.973300     0.965657     0.958014     0.950371
      0.942727     0.935084     0.927441     0.919798     0.912155     0.904512     0.896869     0.889226     0.881583     0.873940
      0.866296     0.858653     0.851010     0.843367     0.835724     0.828081     0.820438     0.812795     0.805152     0.797508
      0.789865     0.782222     0.774579     0.766936     0.759293     0.751650     0.744007     0.736364     0.728721     0.721077
      0.713434     0.705791     0.698148     0.690505     0.682862     0.675219     0.667576     0.659933     0.652290     0.644646
      0.637003     0.629360     0.621717     0.614074     0.606431     0.598788     0.591145     0.583502     0.575858     0.568215
      0.560572     0.552929     0.545286     0.537643     0.530000     0.522357     0.514714     0.507071     0.499427     0.491784
      0.484141     0.476498     0.468855     0.461212     0.453569     0.445925     0.438282     0.430639     0.422996     0.415353
      0.407710     0.400067     0.392424     0.384780     0.377137     0.369494     0.361851     0.354208     0.346565     0.338922
      0.331278     0.323635     0.315992     0.308349     0.300706     0.293063     0.285420     0.277777     0.270133     0.262490
      0.254847     0.247204     0.239561     0.231918     0.224275     0.216631     0.208988     0.201345
 NY phased data points follow
  -7.88326E+00 -6.97354E+00 -9.58580E-01 -3.41846E+00 -6.82846E-01  2.02526E+00  1.28158E+01  7.47449E+00  1.76271E+01  1.64967E+01
   2.48333E+01  2.16167E+01  2.15913E+01  1.21062E+01  1.63783E+01 -1.16129E-01  5.50275E+00 -8.37135E-01 -3.98593E+00 -2.92438E+00
  -5.15971E+00 -1.01013E+01 -8.46372E-01 -6.17388E+00 -2.95111E-01 -3.16806E+00  1.38762E+00  3.54710E+00  2.37572E+00  1.59053E+00
  -4.14222E-01 -3.47822E-02  2.43325E+00 -5.01241E-01  5.51670E-01 -8.79055E-01  4.61587E+00  4.28944E+00 -1.82101E+00 -6.22041E+00
   1.71193E-01 -3.67518E+00  1.45809E+00 -1.26446E+00  8.03750E-01 -4.28028E+00  1.22492E+01  9.59452E+00  1.66149E+01  7.95661E+00
   7.23081E+00 -2.67170E+00  4.22177E+00  3.65367E+00  3.09336E-01 -6.13185E-01  4.48812E+00  2.76319E+00  4.26941E+00  5.21675E-01
   2.14690E+00 -3.44396E+00 -9.24821E-01 -9.96261E+00 -1.71365E+00 -9.58574E+00 -3.47654E+00 -9.51277E+00 -7.82244E+00 -1.19004E+00
   1.62505E+00 -4.29054E+00 -7.89984E+00 -5.32326E+00 -2.15770E+00 -6.13400E+00 -3.21608E+00 -1.99456E+00  1.21203E+00 -2.60674E+00
  -6.07832E+00 -2.74958E+00 -5.36024E+00  8.71630E-01 -1.48972E-01  4.84447E+00 -3.01871E+00  2.04652E-01 -2.79604E+00  1.07085E+00
   3.91830E+00  2.19956E+00  3.98751E-01 -2.17606E-01  2.28028E+00  2.35803E+00  5.09171E+00 -2.29023E+00  6.58277E+00  7.39797E+00
   9.88710E+00  2.88637E+01  3.74264E+01  4.98543E+01  5.54553E+01  3.75365E+01  2.95122E+01  1.04152E+01  6.08404E+00  6.89545E-01
   4.75136E+00 -3.45136E+00 -3.03660E-01 -1.78675E+00 -3.24166E+00  1.59815E+00 -1.40426E-01 -2.44208E+00  2.93589E+00 -3.38783E+00
   1.65811E+00  1.88513E-01  6.17134E+00  1.23433E+01  1.44046E+01  3.32374E+01  5.13356E+01  6.10879E+01  6.15885E+01  5.65095E+01
   4.10804E+01  2.60380E+01  1.97552E+01  1.05615E+01  1.19324E+01  1.41074E+00  6.47535E+00  1.79184E-01  9.01205E-01 -5.05761E-01
   2.29290E+00  6.43231E-01  6.89757E+00 -6.30648E+00  6.49989E-03 -2.42792E+00 -2.23892E+00  1.59220E-01 -5.01395E+00 -3.97758E+00
  -6.24792E+00 -6.83535E+00 -4.70642E+00 -8.82741E+00 -7.09005E+00 -7.69392E+00 -1.87886E+00 -1.10574E+01 -7.23445E+00 -2.68728E+00
  -5.50851E+00 -2.48148E+00 -4.65106E+00 -5.70385E+00 -7.23827E+00 -9.20226E+00 -1.02599E+01 -1.10689E+01 -1.73417E+01 -1.70260E+01
  -1.46121E+01 -2.22558E+01 -1.33671E+01 -1.66042E+01 -1.76927E+01 -1.47852E+01 -2.14208E+01 -2.75514E+01 -1.88548E+01 -1.78838E+01
  -1.83641E+01 -1.81806E+01 -1.88798E+01 -1.54571E+01 -7.28667E+00 -8.00584E+00 -7.10044E+00 -2.29067E+00 -1.08315E+01 -7.29658E+00
  -7.46166E+00 -1.48646E+00 -7.03201E-01 -5.88883E+00 -3.89561E+00 -2.66490E+00 -3.89054E+00 -6.16136E+00 -4.89227E+00 -9.88229E+00
  -5.97571E+00 -1.16233E+01 -2.06040E+00 -2.72015E+00  6.33392E+00  1.04635E+01  6.70880E+00 -3.11278E+00  1.66728E+00 -3.73645E+00
  -5.32536E-01  1.87681E+00  7.10092E+00  5.42258E+00  1.68817E+01  1.66696E+01  1.52397E+01  1.20389E+01  1.25149E+01  3.81837E+00
   7.94501E+00 -2.02581E+00 -4.26320E+00 -9.77705E+00 -1.09010E+00  3.41474E+00  9.47604E+00  1.18183E+01  1.24909E+01  8.23775E+00
   1.01315E+01  1.13461E+01  1.20582E+01  1.16617E+01  1.05999E+01  1.34096E+01  1.47059E+01  1.01511E+01  8.25069E+00  1.14431E+01
   7.01684E+00  1.23166E+01  9.98222E+00  4.38816E+00  9.73884E+00  8.03826E+00  1.13811E+01  1.01989E+01  1.89826E+01  1.58959E+01
   1.75053E+01  1.74596E+01  1.37935E+01  1.81453E+01  3.08367E+01  3.39141E+01  4.98512E+01  6.23713E+01  8.04204E+01  1.07440E+02
   1.29188E+02  1.37270E+02  1.23122E+02  1.03066E+02  7.63658E+01  4.74447E+01  3.32075E+01  3.06372E+01  2.15459E+01  1.91463E+01
   1.41240E+01  1.19062E+01  6.47090E+00  1.13567E+01  5.01857E+00  2.50998E+00  7.66352E-01  6.58021E+00  4.24001E-01  8.11072E+00
  -1.12928E+00  5.87591E+00  1.89548E+00  3.08214E+00  7.63637E+00  1.76339E+00  4.10953E+00  7.32458E+00  1.29093E+01  1.61152E+01
   1.15381E+01  1.44130E+01  9.76674E+00  9.26759E+00  1.50717E+01  6.41865E+00  1.13407E+01  1.57206E+01  8.84483E+00  1.64051E+01
   8.77933E+00  1.27544E+01  9.87634E+00  1.68055E+01  1.67358E+01  1.47959E+01  1.41740E+01  1.31311E+01  2.16717E+01  1.23938E+01
   2.23570E+01  1.54147E+01  1.64281E+01  1.96947E+01  1.99275E+01  1.93504E+01  1.78061E+01  2.24167E+01  1.68775E+01  2.51894E+01
   2.27916E+01  1.18699E+01  1.60880E+01  1.61372E+01  1.78129E+01  1.57777E+01  1.04337E+01  1.49595E+01  8.35375E+00  1.10547E+01
   1.15932E+01  6.27209E+00  1.48351E+01  7.21642E+00  1.41621E+01  1.30831E+01  1.02111E+01  1.31377E+01  2.05434E+01  1.49896E+01
   2.10251E+01  2.05974E+01  2.31387E+01  2.06436E+01  1.81630E+01  2.08233E+01  1.95158E+01  2.96647E+01  2.12898E+01  2.40923E+01
   1.59000E+01  1.87828E+01  2.10901E+01  1.49490E+01  1.48270E+01  1.94128E+01  1.25007E+01  1.53801E+01  9.11279E+00  1.39968E+01
   1.99638E+01  1.14870E+01  1.70495E+01  1.47076E+01  1.65447E+01  1.59008E+01  8.44512E+00  6.63503E+00  1.35950E+01  1.68155E+01
   8.11633E+00  1.01823E+01  8.32286E+00  7.66166E+00  9.31343E+00  5.68006E+00  1.13582E+01  7.81891E+00  9.82396E+00  8.21802E+00
   7.84203E+00  3.46520E+00  6.61131E+00  1.56878E+00  1.23594E+01  9.06757E+00  7.32265E+00  1.00318E+01  2.45874E+00  1.25837E+01
   1.71509E+01  9.07428E+00  8.70481E+00  1.07294E+01  1.18931E+01  1.01290E+01  1.47569E+01  1.30863E+01  1.44603E+01  9.62336E+00
   1.35100E+01  1.51622E+01  2.00064E+01  2.41952E+01  2.30666E+01  2.44612E+01  1.86751E+01  2.09286E+01  2.53615E+01  2.38718E+01
   2.32311E+01  1.70127E+01  2.62908E+01  1.74519E+01  1.70210E+01  1.59011E+01  1.69868E+01  1.81870E+01  1.26554E+01  1.02239E+01
   1.25897E+01  1.01444E+01  5.43025E+00  6.66091E+00  1.35081E+01  9.55607E+00  7.23015E+00  1.14487E+01  9.89334E+00  3.92961E+00
  -1.49769E-02  5.94903E+00  8.12530E+00  8.56927E+00  9.19670E+00  3.37283E+00  9.58930E+00  1.97691E+00  1.80545E-01  9.58508E+00
   6.68118E+00  2.76869E-01  4.02199E+00 -2.78219E-01  2.41103E+00  7.80223E+00  2.03202E-01  2.60745E+00  7.19244E+00  8.22970E-01
   4.80766E+00  3.07474E+00  2.13741E+00  7.89425E+00  7.99990E-01  2.60005E+00  3.54018E+00  9.09316E+00  2.12724E+00  1.27394E+00
   2.92647E+00  8.03808E+00  9.00645E-01  4.40784E+00  5.85963E+00  1.90626E+00  8.55207E+00  7.62577E-01  3.69680E+00  4.98324E+00
   3.54838E+00  5.36145E+00  2.62052E+00  1.43760E+00  6.30035E+00  3.04587E+00  4.61089E+00  2.32436E+00  6.17974E+00  6.21381E+00
   6.96102E+00  4.61249E+00  2.01986E+00 -3.75809E-01  4.51959E+00  5.24096E+00  1.41933E+00  5.37528E+00  4.68914E+00  5.94735E-01
  -1.99085E-01  4.45915E+00  3.79405E-01  2.70862E+00  1.91450E+00  4.71111E+00  1.85115E+00  5.23012E+00
 NY points of the fit to the data follow
  -4.04998E+00 -4.43329E+00 -4.32129E+00 -3.45571E+00 -1.49831E+00  1.30669E+00  5.13245E+00  1.00447E+01  1.56284E+01  2.07352E+01
   2.38511E+01  2.38573E+01  2.07304E+01  1.55758E+01  1.00411E+01  5.27724E+00  1.53167E+00 -1.11819E+00 -2.61299E+00 -3.43571E+00
  -3.56909E+00 -3.34527E+00 -3.08633E+00 -2.74093E+00 -2.26358E+00 -1.88276E+00 -1.55864E+00 -9.05050E-01  3.15429E-01  1.93013E+00
   3.53067E+00  4.77282E+00  5.40030E+00  5.26981E+00  4.43199E+00  2.92797E+00  7.47837E-01 -1.49173E+00 -3.14536E+00 -4.21161E+00
  -4.49832E+00 -3.80314E+00 -2.25324E+00 -1.98777E-01  2.22597E+00  5.09711E+00  7.95760E+00  9.75770E+00  9.70547E+00  7.61122E+00
   4.17605E+00  6.02087E-01 -2.22281E+00 -3.99950E+00 -4.79977E+00 -4.70162E+00 -3.90692E+00 -2.77217E+00 -1.54563E+00 -4.87928E-01
   6.39235E-02 -1.40551E-01 -1.12432E+00 -2.55183E+00 -3.90673E+00 -4.77684E+00 -5.00823E+00 -4.64626E+00 -3.90936E+00 -3.00834E+00
  -2.10634E+00 -1.39025E+00 -9.83036E-01 -9.30177E-01 -1.17432E+00 -1.55400E+00 -1.94535E+00 -2.25717E+00 -2.52784E+00 -2.75379E+00
  -2.79915E+00 -2.52712E+00 -2.08083E+00 -1.47758E+00 -5.58743E-01  5.84113E-01  1.43321E+00  1.43286E+00  4.33061E-01 -1.18317E+00
  -2.72980E+00 -3.68678E+00 -3.96867E+00 -3.89087E+00 -3.73215E+00 -3.37762E+00 -2.64590E+00 -3.27563E-01  3.59799E+00  9.16130E+00
   1.75085E+01  2.88045E+01  4.03598E+01  4.77319E+01  4.77446E+01  4.05243E+01  2.91824E+01  1.77824E+01  9.02284E+00  2.94571E+00
  -1.43949E+00 -3.32885E+00 -3.61133E+00 -3.55185E+00 -3.40979E+00 -3.24440E+00 -3.06464E+00 -2.86280E+00 -2.59766E+00 -2.16682E+00
  -1.20207E+00  1.61407E+00  6.70180E+00  1.34573E+01  2.26637E+01  3.49691E+01  4.83792E+01  5.83930E+01  6.08392E+01  5.47500E+01
   4.28945E+01  2.97287E+01  1.87339E+01  1.06178E+01  4.17724E+00 -4.78197E-02 -1.83673E+00 -2.58971E+00 -2.65799E+00 -2.26642E+00
  -1.72862E+00 -1.28339E+00 -1.09533E+00 -1.19974E+00 -1.47776E+00 -1.82195E+00 -2.19678E+00 -2.57058E+00 -2.96777E+00 -3.33425E+00
  -3.64936E+00 -3.92070E+00 -4.14134E+00 -4.30136E+00 -4.40604E+00 -4.54007E+00 -4.73182E+00 -4.99956E+00 -5.44324E+00 -6.07505E+00
  -6.80066E+00 -7.32461E+00 -7.31697E+00 -6.74934E+00 -5.97613E+00 -5.49687E+00 -5.60043E+00 -6.18087E+00 -6.92706E+00 -7.67159E+00
  -8.34467E+00 -8.94964E+00 -9.48421E+00 -9.95811E+00 -1.04872E+01 -1.10148E+01 -1.12146E+01 -1.08924E+01 -1.02657E+01 -9.75456E+00
  -9.60319E+00 -9.75019E+00 -9.82426E+00 -9.53409E+00 -9.05692E+00 -8.58796E+00 -7.88995E+00 -6.69126E+00 -4.89012E+00 -2.83574E+00
  -1.06474E+00  4.24589E-02  3.26281E-01  2.92394E-02 -4.69419E-01 -1.01403E+00 -1.47668E+00 -1.69374E+00 -1.58785E+00 -1.14280E+00
  -3.30011E-01  8.07002E-01  2.13052E+00  3.35128E+00  3.96098E+00  3.68419E+00  2.41706E+00  2.84307E-01 -2.21137E+00 -4.37093E+00
  -5.56188E+00 -5.53809E+00 -4.19204E+00 -1.51750E+00  2.13046E+00  5.69146E+00  7.78245E+00  7.54965E+00  4.97376E+00  9.80615E-01
  -3.33975E+00 -7.01158E+00 -9.03274E+00 -8.77914E+00 -6.14075E+00 -2.04601E+00  2.10662E+00  5.38444E+00  7.42542E+00  8.37846E+00
   8.51345E+00  8.21871E+00  8.03014E+00  8.32119E+00  9.02340E+00  9.94818E+00  1.08267E+01  1.13393E+01  1.14240E+01  1.11367E+01
   1.06152E+01  1.01328E+01  1.00841E+01  1.07348E+01  1.20051E+01  1.36366E+01  1.52097E+01  1.63651E+01  1.69359E+01  1.70664E+01
   1.72236E+01  1.76313E+01  1.85889E+01  2.07792E+01  2.63210E+01  3.60849E+01  4.81776E+01  6.36214E+01  8.44767E+01  1.08510E+02
   1.27966E+02  1.34505E+02  1.24807E+02  1.02737E+02  7.66113E+01  5.39314E+01  3.72222E+01  2.45647E+01  1.61600E+01  1.27948E+01
   1.11224E+01  9.99509E+00  9.25193E+00  8.80670E+00  8.48705E+00  8.19561E+00  7.85158E+00  7.43211E+00  6.96826E+00  6.51241E+00
   6.09586E+00  5.75328E+00  5.51904E+00  5.39592E+00  5.35898E+00  5.37960E+00  5.44663E+00  5.56741E+00  5.75105E+00  6.00129E+00
   6.33155E+00  6.75223E+00  7.26295E+00  7.85239E+00  8.50855E+00  9.22125E+00  9.97961E+00  1.07748E+01  1.15983E+01  1.24392E+01
   1.32855E+01  1.41217E+01  1.49272E+01  1.56806E+01  1.63599E+01  1.69476E+01  1.74297E+01  1.77956E+01  1.80409E+01  1.81661E+01
   1.81741E+01  1.80727E+01  1.78732E+01  1.75911E+01  1.72448E+01  1.68560E+01  1.64477E+01  1.60452E+01  1.56754E+01  1.53716E+01
   1.51824E+01  1.51922E+01  1.53808E+01  1.56278E+01  1.59484E+01  1.62832E+01  1.63403E+01  1.57527E+01  1.43899E+01  1.25789E+01
   1.09683E+01  9.97277E+00  9.78904E+00  1.04924E+01  1.20375E+01  1.42666E+01  1.66941E+01  1.86086E+01  1.97128E+01  2.00757E+01
   2.00083E+01  1.98294E+01  1.96035E+01  1.93308E+01  1.91939E+01  1.91369E+01  1.90505E+01  1.88498E+01  1.85040E+01  1.80718E+01
   1.76450E+01  1.72879E+01  1.70427E+01  1.69227E+01  1.69024E+01  1.69360E+01  1.69352E+01  1.68006E+01  1.65101E+01  1.60961E+01
   1.56142E+01  1.51023E+01  1.45617E+01  1.40143E+01  1.34794E+01  1.29494E+01  1.24222E+01  1.19001E+01  1.13861E+01  1.08847E+01
   1.03998E+01  9.93599E+00  9.49675E+00  9.08594E+00  8.70665E+00  8.36252E+00  8.05644E+00  7.79160E+00  7.57034E+00  7.39562E+00
   7.27000E+00  7.19690E+00  7.17921E+00  7.22049E+00  7.32371E+00  7.49269E+00  7.73076E+00  8.04179E+00  8.42846E+00  8.89327E+00
   9.43701E+00  1.00598E+01  1.07596E+01  1.15325E+01  1.23714E+01  1.32670E+01  1.42063E+01  1.51743E+01  1.61526E+01  1.71211E+01
   1.80571E+01  1.89375E+01  1.97388E+01  2.04389E+01  2.10175E+01  2.14577E+01  2.17456E+01  2.18726E+01  2.18349E+01  2.16344E+01
   2.12775E+01  2.07758E+01  2.01442E+01  1.94014E+01  1.85682E+01  1.76668E+01  1.67192E+01  1.57469E+01  1.47692E+01  1.38043E+01
   1.28669E+01  1.19697E+01  1.11215E+01  1.03292E+01  9.59630E+00  8.92485E+00  8.31450E+00  7.76381E+00  7.26954E+00  6.82821E+00
   6.43539E+00  6.08712E+00  5.77882E+00  5.50646E+00  5.26559E+00  5.05272E+00  4.86422E+00  4.69748E+00  4.54954E+00  4.41827E+00
   4.30119E+00  4.19682E+00  4.10343E+00  4.02007E+00  3.94530E+00  3.87829E+00  3.81784E+00  3.76354E+00  3.71458E+00  3.67075E+00
   3.63121E+00  3.59569E+00  3.56354E+00  3.53480E+00  3.50901E+00  3.48617E+00  3.46570E+00  3.44756E+00  3.43134E+00  3.41725E+00
   3.40492E+00  3.39446E+00  3.38535E+00  3.37771E+00  3.37126E+00  3.36629E+00  3.36244E+00  3.35982E+00  3.35799E+00  3.35718E+00
   3.35716E+00  3.35822E+00  3.36000E+00  3.36262E+00  3.36571E+00  3.36958E+00  3.37401E+00  3.37926E+00  3.38495E+00  3.39122E+00
   3.39777E+00  3.40493E+00  3.41251E+00  3.42071E+00  3.42913E+00  3.43797E+00  3.44699E+00  3.45653E+00  3.46636E+00  3.47664E+00
   3.48699E+00  3.49764E+00  3.50841E+00  3.51963E+00  3.53101E+00  3.54269E+00  3.55432E+00  3.56619E+00
 NY background values follow
    -9.606E+00   -9.582E+00   -9.558E+00   -9.533E+00   -9.509E+00   -9.485E+00   -9.461E+00   -9.437E+00   -9.413E+00   -9.389E+00
    -9.365E+00   -9.340E+00   -9.316E+00   -9.292E+00   -9.268E+00   -9.244E+00   -9.220E+00   -9.196E+00   -9.172E+00   -9.147E+00
    -9.123E+00   -9.099E+00   -9.075E+00   -9.051E+00   -9.027E+00   -9.003E+00   -8.979E+00   -8.954E+00   -8.930E+00   -8.906E+00
    -8.882E+00   -8.858E+00   -8.834E+00   -8.810E+00   -8.785E+00   -8.761E+00   -8.737E+00   -8.713E+00   -8.689E+00   -8.665E+00
    -8.640E+00   -8.616E+00   -8.592E+00   -8.568E+00   -8.544E+00   -8.520E+00   -8.496E+00   -8.471E+00   -8.447E+00   -8.423E+00
    -8.399E+00   -8.375E+00   -8.351E+00   -8.326E+00   -8.302E+00   -8.278E+00   -8.254E+00   -8.230E+00   -8.205E+00   -8.181E+00
    -8.157E+00   -8.133E+00   -8.109E+00   -8.085E+00   -8.060E+00   -8.036E+00   -8.012E+00   -7.988E+00   -7.964E+00   -7.940E+00
    -7.915E+00   -7.891E+00   -7.867E+00   -7.843E+00   -7.819E+00   -7.794E+00   -7.770E+00   -7.746E+00   -7.722E+00   -7.698E+00
    -7.673E+00   -7.649E+00   -7.625E+00   -7.601E+00   -7.577E+00   -7.552E+00   -7.528E+00   -7.504E+00   -7.480E+00   -7.456E+00
    -7.431E+00   -7.407E+00   -7.383E+00   -7.359E+00   -7.335E+00   -7.310E+00   -7.286E+00   -7.262E+00   -7.238E+00   -7.213E+00
    -7.189E+00   -7.165E+00   -7.141E+00   -7.117E+00   -7.092E+00   -7.068E+00   -7.044E+00   -7.020E+00   -6.996E+00   -6.971E+00
    -6.947E+00   -6.923E+00   -6.899E+00   -6.874E+00   -6.850E+00   -6.826E+00   -6.802E+00   -6.778E+00   -6.753E+00   -6.729E+00
    -6.705E+00   -6.681E+00   -6.656E+00   -6.632E+00   -6.608E+00   -6.584E+00   -6.559E+00   -6.535E+00   -6.511E+00   -6.487E+00
    -6.462E+00   -6.438E+00   -6.414E+00   -6.390E+00   -6.366E+00   -6.341E+00   -6.317E+00   -6.293E+00   -6.269E+00   -6.244E+00
    -6.220E+00   -6.196E+00   -6.172E+00   -6.147E+00   -6.123E+00   -6.099E+00   -6.075E+00   -6.050E+00   -6.026E+00   -6.002E+00
    -5.978E+00   -5.953E+00   -5.929E+00   -5.905E+00   -5.881E+00   -5.856E+00   -5.832E+00   -5.808E+00   -5.784E+00   -5.759E+00
    -5.735E+00   -5.711E+00   -5.687E+00   -5.662E+00   -5.638E+00   -5.614E+00   -5.590E+00   -5.565E+00   -5.541E+00   -5.517E+00
    -5.492E+00   -5.468E+00   -5.444E+00   -5.420E+00   -5.395E+00   -5.371E+00   -5.347E+00   -5.323E+00   -5.298E+00   -5.274E+00
    -5.250E+00   -5.226E+00   -5.201E+00   -5.177E+00   -5.153E+00   -5.128E+00   -5.104E+00   -5.080E+00   -5.056E+00   -5.031E+00
    -5.007E+00   -4.983E+00   -4.959E+00   -4.934E+00   -4.910E+00   -4.886E+00   -4.862E+00   -4.837E+00   -4.813E+00   -4.789E+00
    -4.764E+00   -4.740E+00   -4.716E+00   -4.692E+00   -4.667E+00   -4.643E+00   -4.619E+00   -4.594E+00   -4.570E+00   -4.546E+00
    -4.522E+00   -4.497E+00   -4.473E+00   -4.449E+00   -4.425E+00   -4.400E+00   -4.376E+00   -4.352E+00   -4.327E+00   -4.303E+00
    -4.279E+00   -4.255E+00   -4.230E+00   -4.206E+00   -4.182E+00   -4.157E+00   -4.133E+00   -4.109E+00   -4.085E+00   -4.060E+00
    -4.036E+00   -4.012E+00   -3.987E+00   -3.963E+00   -3.939E+00   -3.915E+00   -3.890E+00   -3.866E+00   -3.842E+00   -3.817E+00
    -3.793E+00   -3.769E+00   -3.745E+00   -3.720E+00   -3.696E+00   -3.672E+00   -3.648E+00   -3.623E+00   -3.599E+00   -3.575E+00
    -3.550E+00   -3.526E+00   -3.502E+00   -3.478E+00   -3.453E+00   -3.429E+00   -3.405E+00   -3.380E+00   -3.356E+00   -3.332E+00
    -3.308E+00   -3.283E+00   -3.259E+00   -3.235E+00   -3.210E+00   -3.186E+00   -3.162E+00   -3.138E+00   -3.113E+00   -3.089E+00
    -3.065E+00   -3.040E+00   -3.016E+00   -2.992E+00   -2.968E+00   -2.943E+00   -2.919E+00   -2.895E+00   -2.871E+00   -2.846E+00
    -2.822E+00   -2.798E+00   -2.773E+00   -2.749E+00   -2.725E+00   -2.701E+00   -2.676E+00   -2.652E+00   -2.628E+00   -2.603E+00
    -2.579E+00   -2.555E+00   -2.531E+00   -2.506E+00   -2.482E+00   -2.458E+00   -2.434E+00   -2.409E+00   -2.385E+00   -2.361E+00
    -2.336E+00   -2.312E+00   -2.288E+00   -2.264E+00   -2.239E+00   -2.215E+00   -2.191E+00   -2.167E+00   -2.142E+00   -2.118E+00
    -2.094E+00   -2.069E+00   -2.045E+00   -2.021E+00   -1.997E+00   -1.972E+00   -1.948E+00   -1.924E+00   -1.900E+00   -1.875E+00
    -1.851E+00   -1.827E+00   -1.802E+00   -1.778E+00   -1.754E+00   -1.730E+00   -1.705E+00   -1.681E+00   -1.657E+00   -1.633E+00
    -1.608E+00   -1.584E+00   -1.560E+00   -1.536E+00   -1.511E+00   -1.487E+00   -1.463E+00   -1.439E+00   -1.414E+00   -1.390E+00
    -1.366E+00   -1.342E+00   -1.317E+00   -1.293E+00   -1.269E+00   -1.244E+00   -1.220E+00   -1.196E+00   -1.172E+00   -1.147E+00
    -1.123E+00   -1.099E+00   -1.075E+00   -1.050E+00   -1.026E+00   -1.002E+00   -9.777E-01   -9.535E-01   -9.292E-01   -9.050E-01
    -8.808E-01   -8.565E-01   -8.323E-01   -8.080E-01   -7.838E-01   -7.595E-01   -7.353E-01   -7.111E-01   -6.868E-01   -6.626E-01
    -6.383E-01   -6.141E-01   -5.899E-01   -5.656E-01   -5.414E-01   -5.172E-01   -4.929E-01   -4.687E-01   -4.445E-01   -4.202E-01
    -3.960E-01   -3.718E-01   -3.475E-01   -3.233E-01   -2.991E-01   -2.748E-01   -2.506E-01   -2.264E-01   -2.022E-01   -1.779E-01
    -1.537E-01   -1.295E-01   -1.053E-01   -8.106E-02   -5.684E-02   -3.262E-02   -8.401E-03    1.582E-02    4.003E-02    6.425E-02
     8.846E-02    1.127E-01    1.369E-01    1.611E-01    1.853E-01    2.095E-01    2.337E-01    2.579E-01    2.822E-01    3.064E-01
     3.306E-01    3.548E-01    3.790E-01    4.032E-01    4.274E-01    4.516E-01    4.758E-01    5.000E-01    5.242E-01    5.484E-01
     5.726E-01    5.968E-01    6.210E-01    6.452E-01    6.693E-01    6.935E-01    7.177E-01    7.419E-01    7.661E-01    7.903E-01
     8.145E-01    8.387E-01    8.629E-01    8.870E-01    9.112E-01    9.354E-01    9.596E-01    9.838E-01    1.008E+00    1.032E+00
     1.056E+00    1.080E+00    1.105E+00    1.129E+00    1.153E+00    1.177E+00    1.201E+00    1.225E+00    1.250E+00    1.274E+00
     1.298E+00    1.322E+00    1.346E+00    1.370E+00    1.395E+00    1.419E+00    1.443E+00    1.467E+00    1.491E+00    1.515E+00
     1.540E+00    1.564E+00    1.588E+00    1.612E+00    1.636E+00    1.660E+00    1.684E+00    1.709E+00    1.733E+00    1.757E+00
     1.781E+00    1.805E+00    1.829E+00    1.853E+00    1.878E+00    1.902E+00    1.926E+00    1.950E+00    1.974E+00    1.998E+00
     2.022E+00    2.046E+00    2.071E+00    2.095E+00    2.119E+00    2.143E+00    2.167E+00    2.191E+00    2.215E+00    2.239E+00
     2.264E+00    2.288E+00    2.312E+00    2.336E+00    2.360E+00    2.384E+00    2.408E+00    2.432E+00
 Ala      Conc. = 3.30E+02
