 LCModel (Version 6.3-1L) Copyright: S.W. Provencher.          Ref.: Magn. Reson. Med. 30:672-679 (1993).                
 Slice#2 Row#4 Col#4  PD_24_press_2_raw_act
 36 lines in following concentration table = NCONC+1
    Conc.  %SD /Cr+PCr  Metabolite                                         
    0.000 999%   0.000 Ala                                                 
  245.196 228% 6.9E-02 Asp                                                 
 2.13E+03  31%   0.603 Cr                                                  
 1.40E+03  49%   0.397 PCr                                                 
  185.751 222% 5.3E-02 GABA                                                
  606.146  66%   0.171 Glc                                                 
 1.13E+03  63%   0.319 Gln                                                 
 3.56E+03  24%   1.007 Glu                                                 
 1.64E+03   4%   0.465 GPC                                                 
    0.000 999%   0.000 PCh                                                 
  865.272  24%   0.245 GSH                                                 
 4.76E+03  17%   1.346 Ins                                                 
   62.420 591% 1.8E-02 Lac                                                 
 5.38E+03   3%   1.521 NAA                                                 
    0.000 999%   0.000 NAAG                                                
  680.107  12%   0.192 Scyllo                                              
 1.64E+03  36%   0.464 Tau                                                 
  901.628  35%   0.255 -CrCH2                                              
 1.64E+03   4%   0.465 GPC+PCh                                             
 5.38E+03   3%   1.521 NAA+NAAG                                            
 3.54E+03   4%   1.000 Cr+PCr                                              
 4.69E+03  28%   1.326 Glu+Gln                                             
 1.55E+03 118%   0.438 Lip13a                                              
  596.375 170%   0.169 Lip13b                                              
  190.044 236% 5.4E-02 Lip09                                               
 2.62E+03  20%   0.742 MM09                                                
  396.688  72%   0.112 Lip20                                               
 5.68E+03  15%   1.607 MM20                                                
  883.893  34%   0.250 MM12                                                
 2.33E+03  27%   0.657 MM14                                                
    0.000 999%   0.000 MM17                                                
 2.15E+03  51%   0.607 Lip13a+Lip13b                                       
 5.35E+03  22%   1.514 MM14+Lip13a+Lip13b+MM12                             
 2.81E+03  18%   0.795 MM09+Lip09                                          
 6.08E+03  14%   1.719 MM20+Lip20                                          
   6 lines in following misc. output table
  FWHM = 0.069 ppm    S/N =  11                                            
  Data shift = 0.023 ppm                                                   
  Ph: -42 deg     -14.6 deg/ppm                                            
  alphaB,S = 8.3E-01,   2.6E+01                                            
   14 spline knots.   Ns = 8(1)                                            
  (14) 9 infls.   (13) 1 extrs.                                            
  498 points on ppm-axis = NY
      4.000000     3.992357     3.984714     3.977070     3.969427     3.961784     3.954141     3.946497     3.938854     3.931211
      3.923568     3.915925     3.908281     3.900638     3.892995     3.885352     3.877708     3.870065     3.862422     3.854779
      3.847136     3.839492     3.831849     3.824206     3.816563     3.808919     3.801276     3.793633     3.785990     3.778347
      3.770703     3.763060     3.755417     3.747774     3.740130     3.732487     3.724844     3.717201     3.709558     3.701914
      3.694271     3.686628     3.678985     3.671341     3.663698     3.656055     3.648412     3.640769     3.633125     3.625482
      3.617839     3.610196     3.602552     3.594909     3.587266     3.579623     3.571980     3.564336     3.556693     3.549050
      3.541407     3.533763     3.526120     3.518477     3.510834     3.503191     3.495547     3.487904     3.480261     3.472618
      3.464974     3.457331     3.449688     3.442045     3.434402     3.426758     3.419115     3.411472     3.403829     3.396185
      3.388542     3.380899     3.373256     3.365613     3.357969     3.350326     3.342683     3.335040     3.327396     3.319753
      3.312110     3.304467     3.296824     3.289180     3.281537     3.273894     3.266251     3.258607     3.250964     3.243321
      3.235678     3.228034     3.220391     3.212748     3.205105     3.197462     3.189818     3.182175     3.174532     3.166889
      3.159245     3.151602     3.143959     3.136316     3.128673     3.121029     3.113386     3.105743     3.098100     3.090456
      3.082813     3.075170     3.067527     3.059884     3.052240     3.044597     3.036954     3.029311     3.021667     3.014024
      3.006381     2.998738     2.991095     2.983451     2.975808     2.968165     2.960522     2.952878     2.945235     2.937592
      2.929949     2.922306     2.914662     2.907019     2.899376     2.891733     2.884089     2.876446     2.868803     2.861160
      2.853517     2.845873     2.838230     2.830587     2.822944     2.815300     2.807657     2.800014     2.792371     2.784728
      2.777084     2.769441     2.761798     2.754155     2.746511     2.738868     2.731225     2.723582     2.715939     2.708295
      2.700652     2.693009     2.685366     2.677722     2.670079     2.662436     2.654793     2.647150     2.639506     2.631863
      2.624220     2.616577     2.608933     2.601290     2.593647     2.586004     2.578361     2.570717     2.563074     2.555431
      2.547788     2.540144     2.532501     2.524858     2.517215     2.509572     2.501928     2.494285     2.486642     2.478999
      2.471355     2.463712     2.456069     2.448426     2.440783     2.433139     2.425496     2.417853     2.410210     2.402566
      2.394923     2.387280     2.379637     2.371994     2.364350     2.356707     2.349064     2.341421     2.333777     2.326134
      2.318491     2.310848     2.303205     2.295561     2.287918     2.280275     2.272632     2.264988     2.257345     2.249702
      2.242059     2.234416     2.226772     2.219129     2.211486     2.203843     2.196199     2.188556     2.180913     2.173270
      2.165627     2.157983     2.150340     2.142697     2.135054     2.127410     2.119767     2.112124     2.104481     2.096838
      2.089194     2.081551     2.073908     2.066265     2.058621     2.050978     2.043335     2.035692     2.028049     2.020405
      2.012762     2.005119     1.997476     1.989833     1.982190     1.974546     1.966903     1.959260     1.951617     1.943974
      1.936331     1.928688     1.921045     1.913402     1.905759     1.898115     1.890472     1.882829     1.875186     1.867543
      1.859900     1.852257     1.844614     1.836971     1.829327     1.821684     1.814041     1.806398     1.798755     1.791112
      1.783469     1.775826     1.768183     1.760540     1.752896     1.745253     1.737610     1.729967     1.722324     1.714681
      1.707038     1.699395     1.691752     1.684108     1.676465     1.668822     1.661179     1.653536     1.645893     1.638250
      1.630607     1.622964     1.615321     1.607677     1.600034     1.592391     1.584748     1.577105     1.569462     1.561819
      1.554176     1.546533     1.538890     1.531246     1.523603     1.515960     1.508317     1.500674     1.493031     1.485388
      1.477745     1.470102     1.462458     1.454815     1.447172     1.439529     1.431886     1.424243     1.416600     1.408957
      1.401314     1.393671     1.386027     1.378384     1.370741     1.363098     1.355455     1.347812     1.340169     1.332526
      1.324883     1.317240     1.309596     1.301953     1.294310     1.286667     1.279024     1.271381     1.263738     1.256095
      1.248452     1.240808     1.233165     1.225522     1.217879     1.210236     1.202593     1.194950     1.187307     1.179664
      1.172021     1.164377     1.156734     1.149091     1.141448     1.133805     1.126162     1.118519     1.110876     1.103233
      1.095590     1.087946     1.080303     1.072660     1.065017     1.057374     1.049731     1.042088     1.034445     1.026802
      1.019158     1.011515     1.003872     0.996229     0.988586     0.980943     0.973300     0.965657     0.958014     0.950371
      0.942727     0.935084     0.927441     0.919798     0.912155     0.904512     0.896869     0.889226     0.881583     0.873940
      0.866296     0.858653     0.851010     0.843367     0.835724     0.828081     0.820438     0.812795     0.805152     0.797508
      0.789865     0.782222     0.774579     0.766936     0.759293     0.751650     0.744007     0.736364     0.728721     0.721077
      0.713434     0.705791     0.698148     0.690505     0.682862     0.675219     0.667576     0.659933     0.652290     0.644646
      0.637003     0.629360     0.621717     0.614074     0.606431     0.598788     0.591145     0.583502     0.575858     0.568215
      0.560572     0.552929     0.545286     0.537643     0.530000     0.522357     0.514714     0.507071     0.499427     0.491784
      0.484141     0.476498     0.468855     0.461212     0.453569     0.445925     0.438282     0.430639     0.422996     0.415353
      0.407710     0.400067     0.392424     0.384780     0.377137     0.369494     0.361851     0.354208     0.346565     0.338922
      0.331278     0.323635     0.315992     0.308349     0.300706     0.293063     0.285420     0.277777     0.270133     0.262490
      0.254847     0.247204     0.239561     0.231918     0.224275     0.216631     0.208988     0.201345
 NY phased data points follow
  -2.26956E+02 -2.21037E+02 -2.07202E+02 -2.08578E+02 -1.97736E+02 -1.77577E+02 -1.74630E+02 -1.59273E+02 -1.52729E+02 -1.46090E+02
  -1.51412E+02 -1.37909E+02 -1.40925E+02 -1.52287E+02 -1.54146E+02 -1.62118E+02 -1.73342E+02 -1.74031E+02 -1.85814E+02 -1.87826E+02
  -1.87032E+02 -1.83398E+02 -1.78903E+02 -1.64574E+02 -1.64424E+02 -1.57002E+02 -1.61727E+02 -1.52143E+02 -1.53148E+02 -1.46669E+02
  -1.50432E+02 -1.45999E+02 -1.36927E+02 -1.46047E+02 -1.44839E+02 -1.36752E+02 -1.36224E+02 -1.48883E+02 -1.43762E+02 -1.40950E+02
  -1.38937E+02 -1.31115E+02 -1.20670E+02 -1.22232E+02 -1.26018E+02 -1.24757E+02 -1.07834E+02 -1.15687E+02 -1.10568E+02 -1.17443E+02
  -1.15540E+02 -1.19823E+02 -1.15730E+02 -1.06962E+02 -1.28677E+02 -1.25881E+02 -1.12063E+02 -1.29352E+02 -1.16413E+02 -1.19736E+02
  -1.10896E+02 -1.14148E+02 -1.17033E+02 -1.13628E+02 -1.22930E+02 -1.23401E+02 -1.22068E+02 -1.11638E+02 -1.08285E+02 -1.09882E+02
  -1.03536E+02 -8.99892E+01 -9.41851E+01 -9.06458E+01 -9.84300E+01 -9.21459E+01 -1.07442E+02 -9.43474E+01 -8.93418E+01 -8.67864E+01
  -9.65080E+01 -8.59722E+01 -8.40112E+01 -7.96212E+01 -7.95235E+01 -6.70337E+01 -6.50652E+01 -7.53364E+01 -5.78214E+01 -6.67062E+01
  -6.20167E+01 -6.12525E+01 -7.19496E+01 -6.77152E+01 -6.67602E+01 -6.15471E+01 -5.40751E+01 -3.47805E+01 -1.84575E+01 -3.04210E-01
   6.18267E+00  3.07987E+01  3.92411E+01  4.89101E+01  3.10130E+01  2.56741E+01  4.13278E+00 -9.40242E+00 -2.65467E+01 -4.12485E+01
  -4.70616E+01 -5.82325E+01 -5.53992E+01 -5.89111E+01 -6.73023E+01 -6.42288E+01 -7.64226E+01 -7.07454E+01 -8.06827E+01 -6.12091E+01
  -4.50948E+01 -3.27738E+01 -1.93885E+01 -1.12263E+01  8.72749E+00  2.70968E+01  2.87424E+01  3.47237E+01  1.87969E+01  1.84972E+01
   5.97990E+00  2.64438E-01 -3.62081E+01 -2.94259E+01 -4.73512E+01 -5.02594E+01 -5.99643E+01 -4.85435E+01 -5.91538E+01 -6.29141E+01
  -5.95057E+01 -4.53736E+01 -6.06928E+01 -6.22034E+01 -5.52586E+01 -5.32088E+01 -6.15111E+01 -5.82578E+01 -5.95459E+01 -5.14984E+01
  -5.54591E+01 -4.78531E+01 -5.16823E+01 -4.55683E+01 -5.06777E+01 -4.47475E+01 -5.36102E+01 -5.63708E+01 -5.03267E+01 -4.97138E+01
  -5.74082E+01 -4.92021E+01 -5.84192E+01 -4.93436E+01 -5.07088E+01 -4.67713E+01 -4.72308E+01 -5.21281E+01 -3.89272E+01 -5.08793E+01
  -5.31701E+01 -5.03233E+01 -6.00585E+01 -5.26536E+01 -5.79976E+01 -5.98262E+01 -7.13932E+01 -5.58058E+01 -5.91930E+01 -5.67825E+01
  -5.03122E+01 -5.13931E+01 -3.76631E+01 -4.31637E+01 -4.88369E+01 -4.29544E+01 -3.25350E+01 -2.32888E+01 -3.49472E+01 -3.01254E+01
  -2.62803E+01 -1.89798E+01 -1.84805E+01 -2.50512E+01 -1.66676E+01 -2.14580E+01 -9.43679E+00 -1.47063E+01 -3.29371E+01 -2.45875E+01
  -1.41153E+01 -1.64644E+01 -2.65033E+01 -3.10392E+01 -2.55931E+01 -2.56891E+01 -2.10269E+01 -2.26971E+01 -2.24445E+01 -2.42936E+01
  -2.19935E+01 -1.61172E+01 -8.04314E+00  2.71522E+00 -5.13427E+00 -9.50526E+00 -1.23906E+00 -3.20927E+00 -8.50114E+00 -7.96509E+00
  -1.45306E+01 -1.70684E+01 -1.01719E+01 -1.00917E+01 -7.71008E+00 -1.73565E+00 -1.32562E+01  9.94207E+00  1.13761E+01  1.79333E+01
   7.40429E+00  1.07881E+01  1.70156E+01  1.66798E+01  1.57624E+01  3.95387E+00  8.20354E+00  1.70107E+01  4.32632E+00  9.56670E+00
   1.49271E+01  1.42478E+01  1.59419E+01  2.14145E+01  2.17638E+01  5.18871E+00  2.22689E+01  1.80708E+01  1.25437E+01  1.64425E+01
   1.09069E+01  1.54056E+01  1.72082E+01  3.76415E+01  6.07020E+01  8.89488E+01  1.10108E+02  1.14590E+02  1.43617E+02  1.59826E+02
   1.56101E+02  1.72587E+02  1.42835E+02  1.23421E+02  1.04112E+02  7.96743E+01  4.99264E+01  4.29723E+01  2.07770E+01  1.83156E+01
   1.76863E+01  1.34332E+01  1.50161E+01  1.31321E+01  1.63196E+01  1.33338E+01  7.10390E-01  1.48495E+01  1.43906E+01  7.58124E+00
   1.04458E+01  1.35462E+01  1.25989E+01  1.24281E+01  1.94244E+01  5.07216E+00  1.14566E+01  4.11679E+00  3.08477E+00  4.65946E+00
   8.45137E+00  6.17962E+00 -6.03095E-01  1.05975E+01 -7.82491E+00  3.74437E-01  7.24550E+00 -4.19579E-01  5.73316E+00 -2.10648E+01
  -1.88257E+01 -2.54327E+00 -2.30697E+01  5.75766E-01 -1.65750E+01 -1.28990E+01 -1.42753E+01 -5.90955E+00 -1.36676E+01  3.71170E+00
  -8.61522E+00  4.72339E+00  1.22081E+01  4.97850E+00  8.77693E+00  1.26057E+01  9.36686E+00  7.40715E+00  1.79270E+01  1.49442E+01
   7.18128E+00  1.17649E+01  2.86292E+01  1.28251E+01  1.72464E+01  1.91966E+01  1.60842E+01  1.07052E+01  2.24331E+01  2.02449E+01
   2.19122E+01  2.31479E+01  1.18581E+01  1.71611E+01  7.17479E+00  1.98811E+01  2.04867E+01  8.89360E+00  1.11635E+01  1.37212E+01
   1.39275E+01  1.80701E+01  1.04522E+01  2.23673E+01  1.59555E+01  2.57383E+01  1.49155E+01  2.57099E+01  1.54532E+01  1.74994E+01
   2.95007E+01  1.76123E+01  2.26070E+01  1.99013E+01  2.72850E+01  1.82799E+01  2.50200E+01  2.66639E+01  2.17115E+01  2.94618E+01
   2.65630E+01  2.96117E+01  2.39428E+01  2.15980E+01  1.50073E+01  2.20802E+01  2.59803E+01  2.31508E+01  1.85978E+01  2.05433E+01
   1.38322E+01  2.08978E+01  2.38135E+01  1.49133E+01  1.07298E+01  1.31765E+01  2.41296E+01  2.59690E+01  2.37364E+01  1.62006E+01
   1.56110E+01  1.81365E+01  1.22609E+01  1.82235E+01  8.47833E+00  2.43366E+01  1.92511E+01  2.37598E+01  1.89545E+01  1.83568E+01
   6.57365E+00  2.93424E+01  1.31843E+01  1.58706E+01  8.55836E+00  1.48106E+01  1.84337E+01  2.45366E+01  2.45159E+01  2.46504E+01
   2.63886E+01  2.74286E+01  2.81832E+01  3.34823E+01  2.71260E+01  4.57274E+01  3.13512E+01  2.92351E+01  3.80156E+01  2.94041E+01
   3.08035E+01  4.02511E+01  3.17637E+01  3.62936E+01  3.51454E+01  4.02569E+01  3.72583E+01  3.19680E+01  3.04626E+01  2.25860E+01
   2.08958E+01  2.40063E+01  1.44068E+01  3.27824E+01  1.99083E+01  2.31023E+01  2.62627E+01  2.95782E+01  2.35214E+01  1.81376E+01
   1.66301E+01  2.94484E+01  2.50015E+01  2.48028E+01  2.35274E+01  2.94337E+01  2.25194E+01  3.15223E+01  2.18259E+01  2.84766E+01
   2.78519E+01  3.69787E+01  1.61748E+01  2.48806E+01  2.48272E+01  2.14023E+01  2.41632E+01  1.86779E+01  2.90648E+01  2.48738E+01
   3.27497E+01  2.07136E+01  2.12555E+01  2.64254E+01  2.58058E+01  2.66871E+01  1.59731E+01  3.06038E+01  2.42304E+01  2.28001E+01
   1.26578E+01  2.64712E+01  2.52075E+01  2.72506E+01  3.30791E+01  2.13440E+01  2.23620E+01  2.99881E+01  1.61952E+01  3.06686E+01
   2.07449E+01  2.33836E+01  2.37855E+01  2.26595E+01  2.57359E+01  3.41475E+01  2.50338E+01  2.05021E+01  2.81454E+01  4.01283E+01
   2.46978E+01  3.60756E+01  2.41308E+01  3.37800E+01  2.36633E+01  2.72240E+01  2.54666E+01  3.03725E+01  2.44217E+01  2.25720E+01
   2.87147E+01  3.07615E+01  2.27167E+01  2.47761E+01  3.30202E+01  2.40794E+01  1.88368E+01  2.88107E+01
 NY points of the fit to the data follow
  -2.08212E+02 -2.07474E+02 -2.05153E+02 -1.99742E+02 -1.90720E+02 -1.80662E+02 -1.72268E+02 -1.64994E+02 -1.57048E+02 -1.49147E+02
  -1.44442E+02 -1.43055E+02 -1.45487E+02 -1.49835E+02 -1.55020E+02 -1.60957E+02 -1.67032E+02 -1.70949E+02 -1.73856E+02 -1.75676E+02
  -1.76546E+02 -1.76630E+02 -1.75649E+02 -1.72990E+02 -1.69099E+02 -1.65282E+02 -1.61854E+02 -1.57144E+02 -1.52163E+02 -1.48141E+02
  -1.44478E+02 -1.42442E+02 -1.41513E+02 -1.41416E+02 -1.42834E+02 -1.44905E+02 -1.46556E+02 -1.47700E+02 -1.47981E+02 -1.47151E+02
  -1.42777E+02 -1.36534E+02 -1.31180E+02 -1.26645E+02 -1.21872E+02 -1.17251E+02 -1.13937E+02 -1.13011E+02 -1.14341E+02 -1.17017E+02
  -1.19875E+02 -1.23191E+02 -1.26029E+02 -1.26688E+02 -1.25757E+02 -1.24599E+02 -1.22988E+02 -1.20952E+02 -1.18673E+02 -1.16412E+02
  -1.14987E+02 -1.14172E+02 -1.13656E+02 -1.13570E+02 -1.13178E+02 -1.12258E+02 -1.10834E+02 -1.08844E+02 -1.06918E+02 -1.03998E+02
  -1.00866E+02 -9.86332E+01 -9.71709E+01 -9.57808E+01 -9.49681E+01 -9.43716E+01 -9.41293E+01 -9.43936E+01 -9.48159E+01 -9.44728E+01
  -9.25220E+01 -8.83845E+01 -8.31546E+01 -7.95315E+01 -7.67170E+01 -7.18889E+01 -6.77489E+01 -6.59296E+01 -6.55908E+01 -6.77552E+01
  -7.00715E+01 -7.22148E+01 -7.53102E+01 -7.71524E+01 -7.61626E+01 -7.09487E+01 -5.61737E+01 -3.55142E+01 -1.62594E+01 -2.72697E+00
   1.27076E+01  3.03026E+01  4.04771E+01  4.39765E+01  3.74395E+01  2.38253E+01  9.29527E+00 -8.37286E+00 -2.85520E+01 -4.27600E+01
  -5.38111E+01 -6.21869E+01 -6.84566E+01 -7.17436E+01 -7.22497E+01 -7.19964E+01 -7.12750E+01 -7.01610E+01 -6.78196E+01 -6.15409E+01
  -4.82691E+01 -3.08746E+01 -1.57507E+01 -5.88935E+00  6.99911E+00  2.17460E+01  2.94956E+01  3.27358E+01  2.75010E+01  1.64657E+01
   4.89837E+00 -9.28066E+00 -2.55934E+01 -3.64157E+01 -4.52048E+01 -5.18281E+01 -5.68418E+01 -5.88065E+01 -5.87490E+01 -5.78388E+01
  -5.65577E+01 -5.54639E+01 -5.44652E+01 -5.37240E+01 -5.32188E+01 -5.29236E+01 -5.28435E+01 -5.28520E+01 -5.28594E+01 -5.28468E+01
  -5.27151E+01 -5.24925E+01 -5.21582E+01 -5.18853E+01 -5.18677E+01 -5.20616E+01 -5.21482E+01 -5.17989E+01 -5.13190E+01 -5.10178E+01
  -5.07544E+01 -5.06758E+01 -5.01179E+01 -4.92134E+01 -4.87253E+01 -4.83273E+01 -4.80689E+01 -4.81992E+01 -4.84338E+01 -4.90457E+01
  -4.98524E+01 -5.01137E+01 -4.99494E+01 -4.97499E+01 -5.00376E+01 -5.00787E+01 -4.95015E+01 -4.85107E+01 -4.73839E+01 -4.68724E+01
  -4.65230E+01 -4.58218E+01 -4.46374E+01 -4.29421E+01 -4.10402E+01 -3.91575E+01 -3.66362E+01 -3.41964E+01 -3.16870E+01 -2.90810E+01
  -2.69508E+01 -2.55505E+01 -2.47174E+01 -2.45031E+01 -2.42813E+01 -2.39796E+01 -2.35428E+01 -2.23792E+01 -2.07420E+01 -1.86596E+01
  -1.66998E+01 -1.49579E+01 -1.36762E+01 -1.32665E+01 -1.40702E+01 -1.55992E+01 -1.72659E+01 -1.92071E+01 -2.05676E+01 -1.97772E+01
  -1.79851E+01 -1.58356E+01 -1.33404E+01 -1.05446E+01 -7.61444E+00 -6.61282E+00 -7.76355E+00 -1.00686E+01 -1.21159E+01 -1.41131E+01
  -1.66919E+01 -1.85900E+01 -1.77617E+01 -1.55125E+01 -1.22255E+01 -8.74949E+00 -5.21181E+00 -1.30490E+00  1.67330E+00  3.10825E+00
   4.16022E+00  5.40801E+00  6.48364E+00  7.19197E+00  7.60646E+00  8.36727E+00  8.97595E+00  9.17116E+00  9.27035E+00  9.62006E+00
   9.81616E+00  9.99422E+00  1.04139E+01  1.10568E+01  1.20996E+01  1.34472E+01  1.48845E+01  1.63964E+01  1.81155E+01  1.93862E+01
   2.06078E+01  2.23923E+01  2.72648E+01  4.07577E+01  6.44103E+01  8.94712E+01  1.06239E+02  1.20032E+02  1.41396E+02  1.57586E+02
   1.63318E+02  1.60980E+02  1.45239E+02  1.26561E+02  1.06477E+02  8.04240E+01  5.75163E+01  4.27792E+01  2.94376E+01  1.97872E+01
   1.26628E+01  1.03206E+01  9.40324E+00  8.88827E+00  8.52940E+00  8.18833E+00  7.78468E+00  7.35853E+00  6.80391E+00  6.19675E+00
   5.62096E+00  5.06372E+00  4.56164E+00  4.13650E+00  3.79906E+00  3.54578E+00  3.34693E+00  3.17506E+00  3.03361E+00  2.90429E+00
   2.78819E+00  2.67134E+00  2.56518E+00  2.48067E+00  2.40781E+00  2.35015E+00  2.31891E+00  2.30993E+00  2.32131E+00  2.35279E+00
   2.40366E+00  2.47611E+00  2.56819E+00  2.68232E+00  2.81964E+00  2.97979E+00  3.16723E+00  3.38342E+00  3.63184E+00  3.91644E+00
   4.24078E+00  4.60592E+00  5.01503E+00  5.46921E+00  5.97117E+00  6.51989E+00  7.11491E+00  7.75268E+00  8.43035E+00  9.14212E+00
   9.88251E+00  1.06423E+01  1.14128E+01  1.21825E+01  1.29413E+01  1.36771E+01  1.43798E+01  1.50371E+01  1.56398E+01  1.61787E+01
   1.66483E+01  1.70439E+01  1.73648E+01  1.76111E+01  1.77875E+01  1.79005E+01  1.79613E+01  1.79831E+01  1.79851E+01  1.79933E+01
   1.80342E+01  1.80929E+01  1.81349E+01  1.81659E+01  1.82660E+01  1.84624E+01  1.86858E+01  1.89756E+01  1.93990E+01  1.99808E+01
   2.07325E+01  2.15378E+01  2.23712E+01  2.32776E+01  2.41171E+01  2.47902E+01  2.52358E+01  2.53940E+01  2.53033E+01  2.49595E+01
   2.43712E+01  2.36438E+01  2.28414E+01  2.20081E+01  2.11858E+01  2.04096E+01  1.97079E+01  1.90789E+01  1.85194E+01  1.80231E+01
   1.75841E+01  1.71955E+01  1.68528E+01  1.65521E+01  1.62926E+01  1.60737E+01  1.58972E+01  1.57639E+01  1.56763E+01  1.56361E+01
   1.56465E+01  1.57094E+01  1.58280E+01  1.60041E+01  1.62407E+01  1.65399E+01  1.69051E+01  1.73385E+01  1.78428E+01  1.84192E+01
   1.90694E+01  1.97931E+01  2.05903E+01  2.14576E+01  2.23911E+01  2.33831E+01  2.44252E+01  2.55051E+01  2.66092E+01  2.77202E+01
   2.88196E+01  2.98864E+01  3.09000E+01  3.18387E+01  3.26823E+01  3.34112E+01  3.40094E+01  3.44635E+01  3.47650E+01  3.49092E+01
   3.48967E+01  3.47318E+01  3.44243E+01  3.39871E+01  3.34374E+01  3.27939E+01  3.20773E+01  3.13080E+01  3.05072E+01  2.96940E+01
   2.88868E+01  2.81008E+01  2.73493E+01  2.66420E+01  2.59871E+01  2.53894E+01  2.48522E+01  2.43758E+01  2.39596E+01  2.36011E+01
   2.32977E+01  2.30453E+01  2.28401E+01  2.26773E+01  2.25529E+01  2.24623E+01  2.24020E+01  2.23682E+01  2.23578E+01  2.23673E+01
   2.23942E+01  2.24360E+01  2.24911E+01  2.25573E+01  2.26332E+01  2.27170E+01  2.28078E+01  2.29043E+01  2.30061E+01  2.31118E+01
   2.32211E+01  2.33328E+01  2.34467E+01  2.35623E+01  2.36796E+01  2.37977E+01  2.39168E+01  2.40363E+01  2.41563E+01  2.42767E+01
   2.43974E+01  2.45180E+01  2.46386E+01  2.47589E+01  2.48792E+01  2.49993E+01  2.51192E+01  2.52386E+01  2.53577E+01  2.54762E+01
   2.55946E+01  2.57126E+01  2.58304E+01  2.59475E+01  2.60642E+01  2.61805E+01  2.62967E+01  2.64125E+01  2.65280E+01  2.66430E+01
   2.67578E+01  2.68723E+01  2.69868E+01  2.71010E+01  2.72150E+01  2.73288E+01  2.74426E+01  2.75564E+01  2.76703E+01  2.77842E+01
   2.78981E+01  2.80120E+01  2.81263E+01  2.82408E+01  2.83558E+01  2.84709E+01  2.85865E+01  2.87024E+01
 NY background values follow
    -2.246E+02   -2.231E+02   -2.215E+02   -2.199E+02   -2.183E+02   -2.168E+02   -2.152E+02   -2.136E+02   -2.121E+02   -2.105E+02
    -2.089E+02   -2.074E+02   -2.058E+02   -2.042E+02   -2.027E+02   -2.011E+02   -1.996E+02   -1.980E+02   -1.965E+02   -1.949E+02
    -1.934E+02   -1.918E+02   -1.903E+02   -1.887E+02   -1.872E+02   -1.857E+02   -1.842E+02   -1.826E+02   -1.811E+02   -1.796E+02
    -1.781E+02   -1.766E+02   -1.751E+02   -1.736E+02   -1.721E+02   -1.707E+02   -1.692E+02   -1.677E+02   -1.662E+02   -1.648E+02
    -1.633E+02   -1.619E+02   -1.605E+02   -1.590E+02   -1.576E+02   -1.562E+02   -1.548E+02   -1.534E+02   -1.520E+02   -1.506E+02
    -1.492E+02   -1.479E+02   -1.465E+02   -1.452E+02   -1.438E+02   -1.425E+02   -1.412E+02   -1.398E+02   -1.385E+02   -1.372E+02
    -1.359E+02   -1.347E+02   -1.334E+02   -1.321E+02   -1.309E+02   -1.296E+02   -1.284E+02   -1.271E+02   -1.259E+02   -1.247E+02
    -1.235E+02   -1.223E+02   -1.211E+02   -1.199E+02   -1.188E+02   -1.176E+02   -1.165E+02   -1.153E+02   -1.142E+02   -1.131E+02
    -1.120E+02   -1.109E+02   -1.098E+02   -1.087E+02   -1.077E+02   -1.066E+02   -1.055E+02   -1.045E+02   -1.035E+02   -1.025E+02
    -1.015E+02   -1.005E+02   -9.948E+01   -9.851E+01   -9.754E+01   -9.659E+01   -9.564E+01   -9.471E+01   -9.379E+01   -9.287E+01
    -9.196E+01   -9.107E+01   -9.018E+01   -8.930E+01   -8.843E+01   -8.757E+01   -8.672E+01   -8.587E+01   -8.504E+01   -8.421E+01
    -8.339E+01   -8.258E+01   -8.177E+01   -8.098E+01   -8.019E+01   -7.941E+01   -7.863E+01   -7.786E+01   -7.710E+01   -7.635E+01
    -7.560E+01   -7.486E+01   -7.412E+01   -7.339E+01   -7.267E+01   -7.195E+01   -7.124E+01   -7.054E+01   -6.984E+01   -6.914E+01
    -6.845E+01   -6.777E+01   -6.709E+01   -6.641E+01   -6.574E+01   -6.507E+01   -6.441E+01   -6.375E+01   -6.310E+01   -6.245E+01
    -6.180E+01   -6.116E+01   -6.052E+01   -5.989E+01   -5.926E+01   -5.863E+01   -5.800E+01   -5.738E+01   -5.676E+01   -5.614E+01
    -5.553E+01   -5.492E+01   -5.431E+01   -5.370E+01   -5.310E+01   -5.250E+01   -5.190E+01   -5.130E+01   -5.070E+01   -5.011E+01
    -4.951E+01   -4.892E+01   -4.833E+01   -4.774E+01   -4.715E+01   -4.657E+01   -4.598E+01   -4.539E+01   -4.481E+01   -4.422E+01
    -4.364E+01   -4.305E+01   -4.247E+01   -4.189E+01   -4.130E+01   -4.072E+01   -4.013E+01   -3.955E+01   -3.896E+01   -3.838E+01
    -3.779E+01   -3.720E+01   -3.661E+01   -3.602E+01   -3.543E+01   -3.484E+01   -3.425E+01   -3.366E+01   -3.307E+01   -3.249E+01
    -3.190E+01   -3.131E+01   -3.073E+01   -3.014E+01   -2.956E+01   -2.898E+01   -2.840E+01   -2.783E+01   -2.726E+01   -2.669E+01
    -2.612E+01   -2.556E+01   -2.500E+01   -2.444E+01   -2.389E+01   -2.334E+01   -2.280E+01   -2.226E+01   -2.173E+01   -2.120E+01
    -2.068E+01   -2.016E+01   -1.965E+01   -1.915E+01   -1.865E+01   -1.816E+01   -1.767E+01   -1.720E+01   -1.673E+01   -1.626E+01
    -1.581E+01   -1.536E+01   -1.492E+01   -1.449E+01   -1.407E+01   -1.366E+01   -1.325E+01   -1.286E+01   -1.247E+01   -1.209E+01
    -1.172E+01   -1.137E+01   -1.102E+01   -1.067E+01   -1.034E+01   -1.001E+01   -9.698E+00   -9.389E+00   -9.089E+00   -8.796E+00
    -8.511E+00   -8.234E+00   -7.964E+00   -7.702E+00   -7.447E+00   -7.199E+00   -6.959E+00   -6.725E+00   -6.499E+00   -6.279E+00
    -6.066E+00   -5.859E+00   -5.659E+00   -5.465E+00   -5.277E+00   -5.095E+00   -4.920E+00   -4.750E+00   -4.586E+00   -4.428E+00
    -4.275E+00   -4.128E+00   -3.986E+00   -3.849E+00   -3.717E+00   -3.590E+00   -3.468E+00   -3.351E+00   -3.238E+00   -3.130E+00
    -3.026E+00   -2.927E+00   -2.832E+00   -2.741E+00   -2.653E+00   -2.570E+00   -2.489E+00   -2.413E+00   -2.339E+00   -2.269E+00
    -2.201E+00   -2.136E+00   -2.073E+00   -2.013E+00   -1.955E+00   -1.900E+00   -1.846E+00   -1.793E+00   -1.743E+00   -1.694E+00
    -1.645E+00   -1.599E+00   -1.552E+00   -1.507E+00   -1.462E+00   -1.418E+00   -1.374E+00   -1.330E+00   -1.285E+00   -1.241E+00
    -1.196E+00   -1.151E+00   -1.105E+00   -1.057E+00   -1.009E+00   -9.599E-01   -9.090E-01   -8.567E-01   -8.025E-01   -7.465E-01
    -6.885E-01   -6.281E-01   -5.655E-01   -5.002E-01   -4.322E-01   -3.614E-01   -2.875E-01   -2.104E-01   -1.301E-01   -4.662E-02
     3.990E-02    1.294E-01    2.219E-01    3.172E-01    4.154E-01    5.162E-01    6.198E-01    7.259E-01    8.346E-01    9.457E-01
     1.059E+00    1.175E+00    1.293E+00    1.414E+00    1.536E+00    1.660E+00    1.787E+00    1.915E+00    2.046E+00    2.178E+00
     2.311E+00    2.447E+00    2.584E+00    2.722E+00    2.862E+00    3.004E+00    3.146E+00    3.290E+00    3.435E+00    3.581E+00
     3.728E+00    3.877E+00    4.026E+00    4.176E+00    4.326E+00    4.478E+00    4.630E+00    4.782E+00    4.935E+00    5.089E+00
     5.243E+00    5.397E+00    5.551E+00    5.706E+00    5.861E+00    6.016E+00    6.172E+00    6.327E+00    6.483E+00    6.640E+00
     6.797E+00    6.954E+00    7.112E+00    7.270E+00    7.429E+00    7.588E+00    7.748E+00    7.908E+00    8.069E+00    8.231E+00
     8.393E+00    8.556E+00    8.720E+00    8.884E+00    9.050E+00    9.216E+00    9.383E+00    9.551E+00    9.719E+00    9.889E+00
     1.006E+01    1.023E+01    1.040E+01    1.058E+01    1.075E+01    1.093E+01    1.110E+01    1.128E+01    1.146E+01    1.164E+01
     1.182E+01    1.200E+01    1.219E+01    1.237E+01    1.256E+01    1.275E+01    1.294E+01    1.313E+01    1.332E+01    1.351E+01
     1.371E+01    1.390E+01    1.410E+01    1.430E+01    1.450E+01    1.470E+01    1.490E+01    1.510E+01    1.530E+01    1.550E+01
     1.570E+01    1.590E+01    1.611E+01    1.631E+01    1.651E+01    1.672E+01    1.692E+01    1.712E+01    1.732E+01    1.753E+01
     1.773E+01    1.793E+01    1.813E+01    1.833E+01    1.853E+01    1.873E+01    1.893E+01    1.912E+01    1.932E+01    1.951E+01
     1.970E+01    1.990E+01    2.009E+01    2.027E+01    2.046E+01    2.065E+01    2.083E+01    2.101E+01    2.119E+01    2.137E+01
     2.155E+01    2.172E+01    2.189E+01    2.206E+01    2.223E+01    2.239E+01    2.256E+01    2.272E+01    2.288E+01    2.303E+01
     2.319E+01    2.334E+01    2.349E+01    2.364E+01    2.379E+01    2.394E+01    2.408E+01    2.423E+01    2.437E+01    2.451E+01
     2.465E+01    2.478E+01    2.492E+01    2.506E+01    2.519E+01    2.532E+01    2.545E+01    2.559E+01    2.572E+01    2.584E+01
     2.597E+01    2.610E+01    2.623E+01    2.635E+01    2.648E+01    2.660E+01    2.673E+01    2.685E+01    2.698E+01    2.710E+01
     2.722E+01    2.735E+01    2.747E+01    2.759E+01    2.771E+01    2.784E+01    2.796E+01    2.808E+01
 Asp      Conc. = 2.45E+02
