 LCModel (Version 6.3-1L) Copyright: S.W. Provencher.          Ref.: Magn. Reson. Med. 30:672-679 (1993).                
 Slice#3 Row#8 Col#6  PD_24_press_2_raw_act
 36 lines in following concentration table = NCONC+1
    Conc.  %SD /Cr+PCr  Metabolite                                         
    0.000 999%   0.000 Ala                                                 
    0.000 999%   0.000 Asp                                                 
 1.82E+03  17%   0.607 Cr                                                  
 1.18E+03  26%   0.393 PCr                                                 
    0.000 999%   0.000 GABA                                                
    0.000 999%   0.000 Glc                                                 
  989.456  31%   0.330 Gln                                                 
 2.01E+03  17%   0.669 Glu                                                 
  724.309   5%   0.242 GPC                                                 
    0.000 999%   0.000 PCh                                                 
 1.02E+03  11%   0.342 GSH                                                 
 1.77E+03  21%   0.590 Ins                                                 
  153.032 109% 5.1E-02 Lac                                                 
 3.12E+03   4%   1.042 NAA                                                 
    0.000 999%   0.000 NAAG                                                
   72.172  56% 2.4E-02 Scyllo                                              
    0.000 999%   0.000 Tau                                                 
    0.000 999%   0.000 -CrCH2                                              
  724.309   5%   0.242 GPC+PCh                                             
 3.12E+03   4%   1.042 NAA+NAAG                                            
 3.00E+03   3%   1.000 Cr+PCr                                              
 3.00E+03  15%   0.999 Glu+Gln                                             
 2.35E+03  47%   0.785 Lip13a                                              
  173.093 248% 5.8E-02 Lip13b                                              
  147.247 254% 4.9E-02 Lip09                                               
 1.91E+03  23%   0.636 MM09                                                
  479.574  53%   0.160 Lip20                                               
 3.93E+03  16%   1.311 MM20                                                
  639.770  40%   0.213 MM12                                                
 3.10E+03  21%   1.034 MM14                                                
 1.66E+03  25%   0.554 MM17                                                
 2.53E+03  34%   0.842 Lip13a+Lip13b                                       
 6.27E+03  13%   2.090 MM14+Lip13a+Lip13b+MM12                             
 2.05E+03  16%   0.685 MM09+Lip09                                          
 4.41E+03  14%   1.471 MM20+Lip20                                          
   6 lines in following misc. output table
  FWHM = 0.038 ppm    S/N =  10                                            
  Data shift = 0.015 ppm                                                   
  Ph:  11 deg       0.6 deg/ppm                                            
  alphaB,S = 1.9E+00,   4.5E+01                                            
   14 spline knots.   Ns = 5(1)                                            
  ( 9) 4 infls.   ( 7) 1 extrs.                                            
  498 points on ppm-axis = NY
      4.000000     3.992357     3.984714     3.977070     3.969427     3.961784     3.954141     3.946497     3.938854     3.931211
      3.923568     3.915925     3.908281     3.900638     3.892995     3.885352     3.877708     3.870065     3.862422     3.854779
      3.847136     3.839492     3.831849     3.824206     3.816563     3.808919     3.801276     3.793633     3.785990     3.778347
      3.770703     3.763060     3.755417     3.747774     3.740130     3.732487     3.724844     3.717201     3.709558     3.701914
      3.694271     3.686628     3.678985     3.671341     3.663698     3.656055     3.648412     3.640769     3.633125     3.625482
      3.617839     3.610196     3.602552     3.594909     3.587266     3.579623     3.571980     3.564336     3.556693     3.549050
      3.541407     3.533763     3.526120     3.518477     3.510834     3.503191     3.495547     3.487904     3.480261     3.472618
      3.464974     3.457331     3.449688     3.442045     3.434402     3.426758     3.419115     3.411472     3.403829     3.396185
      3.388542     3.380899     3.373256     3.365613     3.357969     3.350326     3.342683     3.335040     3.327396     3.319753
      3.312110     3.304467     3.296824     3.289180     3.281537     3.273894     3.266251     3.258607     3.250964     3.243321
      3.235678     3.228034     3.220391     3.212748     3.205105     3.197462     3.189818     3.182175     3.174532     3.166889
      3.159245     3.151602     3.143959     3.136316     3.128673     3.121029     3.113386     3.105743     3.098100     3.090456
      3.082813     3.075170     3.067527     3.059884     3.052240     3.044597     3.036954     3.029311     3.021667     3.014024
      3.006381     2.998738     2.991095     2.983451     2.975808     2.968165     2.960522     2.952878     2.945235     2.937592
      2.929949     2.922306     2.914662     2.907019     2.899376     2.891733     2.884089     2.876446     2.868803     2.861160
      2.853517     2.845873     2.838230     2.830587     2.822944     2.815300     2.807657     2.800014     2.792371     2.784728
      2.777084     2.769441     2.761798     2.754155     2.746511     2.738868     2.731225     2.723582     2.715939     2.708295
      2.700652     2.693009     2.685366     2.677722     2.670079     2.662436     2.654793     2.647150     2.639506     2.631863
      2.624220     2.616577     2.608933     2.601290     2.593647     2.586004     2.578361     2.570717     2.563074     2.555431
      2.547788     2.540144     2.532501     2.524858     2.517215     2.509572     2.501928     2.494285     2.486642     2.478999
      2.471355     2.463712     2.456069     2.448426     2.440783     2.433139     2.425496     2.417853     2.410210     2.402566
      2.394923     2.387280     2.379637     2.371994     2.364350     2.356707     2.349064     2.341421     2.333777     2.326134
      2.318491     2.310848     2.303205     2.295561     2.287918     2.280275     2.272632     2.264988     2.257345     2.249702
      2.242059     2.234416     2.226772     2.219129     2.211486     2.203843     2.196199     2.188556     2.180913     2.173270
      2.165627     2.157983     2.150340     2.142697     2.135054     2.127410     2.119767     2.112124     2.104481     2.096838
      2.089194     2.081551     2.073908     2.066265     2.058621     2.050978     2.043335     2.035692     2.028049     2.020405
      2.012762     2.005119     1.997476     1.989833     1.982190     1.974546     1.966903     1.959260     1.951617     1.943974
      1.936331     1.928688     1.921045     1.913402     1.905759     1.898115     1.890472     1.882829     1.875186     1.867543
      1.859900     1.852257     1.844614     1.836971     1.829327     1.821684     1.814041     1.806398     1.798755     1.791112
      1.783469     1.775826     1.768183     1.760540     1.752896     1.745253     1.737610     1.729967     1.722324     1.714681
      1.707038     1.699395     1.691752     1.684108     1.676465     1.668822     1.661179     1.653536     1.645893     1.638250
      1.630607     1.622964     1.615321     1.607677     1.600034     1.592391     1.584748     1.577105     1.569462     1.561819
      1.554176     1.546533     1.538890     1.531246     1.523603     1.515960     1.508317     1.500674     1.493031     1.485388
      1.477745     1.470102     1.462458     1.454815     1.447172     1.439529     1.431886     1.424243     1.416600     1.408957
      1.401314     1.393671     1.386027     1.378384     1.370741     1.363098     1.355455     1.347812     1.340169     1.332526
      1.324883     1.317240     1.309596     1.301953     1.294310     1.286667     1.279024     1.271381     1.263738     1.256095
      1.248452     1.240808     1.233165     1.225522     1.217879     1.210236     1.202593     1.194950     1.187307     1.179664
      1.172021     1.164377     1.156734     1.149091     1.141448     1.133805     1.126162     1.118519     1.110876     1.103233
      1.095590     1.087946     1.080303     1.072660     1.065017     1.057374     1.049731     1.042088     1.034445     1.026802
      1.019158     1.011515     1.003872     0.996229     0.988586     0.980943     0.973300     0.965657     0.958014     0.950371
      0.942727     0.935084     0.927441     0.919798     0.912155     0.904512     0.896869     0.889226     0.881583     0.873940
      0.866296     0.858653     0.851010     0.843367     0.835724     0.828081     0.820438     0.812795     0.805152     0.797508
      0.789865     0.782222     0.774579     0.766936     0.759293     0.751650     0.744007     0.736364     0.728721     0.721077
      0.713434     0.705791     0.698148     0.690505     0.682862     0.675219     0.667576     0.659933     0.652290     0.644646
      0.637003     0.629360     0.621717     0.614074     0.606431     0.598788     0.591145     0.583502     0.575858     0.568215
      0.560572     0.552929     0.545286     0.537643     0.530000     0.522357     0.514714     0.507071     0.499427     0.491784
      0.484141     0.476498     0.468855     0.461212     0.453569     0.445925     0.438282     0.430639     0.422996     0.415353
      0.407710     0.400067     0.392424     0.384780     0.377137     0.369494     0.361851     0.354208     0.346565     0.338922
      0.331278     0.323635     0.315992     0.308349     0.300706     0.293063     0.285420     0.277777     0.270133     0.262490
      0.254847     0.247204     0.239561     0.231918     0.224275     0.216631     0.208988     0.201345
 NY phased data points follow
   8.91460E+01  7.23459E+01  9.72630E+01  7.43714E+01  1.01684E+02  9.00059E+01  1.11133E+02  1.14898E+02  1.44069E+02  1.44567E+02
   1.68437E+02  1.62003E+02  1.61379E+02  1.40350E+02  1.44549E+02  1.13281E+02  1.12482E+02  9.70772E+01  9.34462E+01  8.14532E+01
   8.60404E+01  7.35969E+01  7.89044E+01  7.46081E+01  9.37016E+01  7.94932E+01  9.20019E+01  8.84696E+01  1.01484E+02  9.53171E+01
   1.07600E+02  1.01813E+02  1.07868E+02  8.85210E+01  9.59516E+01  7.95553E+01  8.93731E+01  7.18270E+01  8.02230E+01  7.16530E+01
   8.73253E+01  7.32735E+01  8.26760E+01  7.43252E+01  7.83928E+01  7.31975E+01  8.34594E+01  8.52240E+01  9.55438E+01  7.50705E+01
   9.05781E+01  6.37338E+01  7.96203E+01  6.58074E+01  7.37875E+01  5.61769E+01  7.36860E+01  6.89846E+01  7.70974E+01  6.74941E+01
   7.13283E+01  6.18364E+01  6.86464E+01  5.24117E+01  5.62502E+01  4.90680E+01  5.73517E+01  3.83757E+01  5.37760E+01  4.02131E+01
   6.29810E+01  4.55884E+01  5.32628E+01  5.88978E+01  5.95594E+01  5.12586E+01  5.01751E+01  5.70688E+01  4.66800E+01  4.39963E+01
   5.08336E+01  4.33599E+01  5.15331E+01  4.44866E+01  4.67669E+01  4.78691E+01  6.14378E+01  4.86549E+01  5.31983E+01  4.59090E+01
   4.53424E+01  4.52253E+01  5.14822E+01  3.69922E+01  6.10722E+01  3.93364E+01  4.80039E+01  3.33024E+01  4.82119E+01  4.88938E+01
   7.10883E+01  8.15997E+01  1.13549E+02  1.21953E+02  1.31581E+02  1.10948E+02  1.00694E+02  7.05096E+01  6.46170E+01  5.74270E+01
   5.14921E+01  4.42440E+01  4.86670E+01  4.36426E+01  4.47840E+01  4.32143E+01  4.69150E+01  3.19031E+01  4.26324E+01  2.81247E+01
   4.12900E+01  2.87483E+01  4.90981E+01  5.64483E+01  8.72979E+01  1.02014E+02  1.35907E+02  1.47442E+02  1.55054E+02  1.30690E+02
   1.16475E+02  8.67541E+01  6.44051E+01  6.01254E+01  5.80378E+01  3.94800E+01  3.93356E+01  3.18902E+01  3.80568E+01  2.61685E+01
   3.78424E+01  2.73608E+01  3.82448E+01  3.40087E+01  2.83814E+01  2.48203E+01  3.40486E+01  2.74029E+01  3.14062E+01  2.62487E+01
   3.48834E+01  2.71011E+01  2.98951E+01  2.73669E+01  3.16794E+01  2.94183E+01  3.08597E+01  2.97762E+01  3.82430E+01  2.21601E+01
   3.42318E+01  2.77102E+01  2.32428E+01  2.16599E+01  2.74470E+01  2.62028E+01  3.81826E+01  2.85096E+01  3.69570E+01  2.79715E+01
   2.05506E+01  1.43524E+01  2.56677E+01  7.70986E+00  1.70250E+01  3.72905E+00  7.98227E+00  2.17148E+00  9.65139E+00  4.13435E+00
   1.21680E+01  1.77336E+00  9.77559E+00  1.20618E+00  1.14231E+01  1.11996E+01  1.28615E+01  1.31508E+01  1.76660E+01  1.37437E+01
   3.30392E+01  2.83926E+01  2.96708E+01  2.54700E+01  3.50313E+01  3.05150E+01  1.88607E+01  2.00131E+01  1.65004E+01  1.56741E+01
   2.07484E+01  2.09489E+01  3.09805E+01  2.70246E+01  3.19882E+01  2.12589E+01  1.95799E+01  1.44478E+01  1.73309E+01  1.31961E+01
   1.18427E+01  1.37725E+01  1.87056E+01  2.53539E+01  4.19565E+01  3.70146E+01  4.42590E+01  2.95473E+01  3.83377E+01  2.59469E+01
   1.91359E+01  1.50599E+01  2.21372E+01  1.74033E+01  1.71967E+01  1.70085E+01  2.69713E+01  2.88975E+01  3.93924E+01  3.17587E+01
   2.80378E+01  3.44402E+01  3.10900E+01  2.84412E+01  3.27755E+01  2.90791E+01  3.19985E+01  2.96060E+01  3.21040E+01  3.40274E+01
   3.38518E+01  2.00748E+01  1.85439E+01  2.26167E+01  2.92234E+01  2.85783E+01  3.28166E+01  3.10285E+01  3.41743E+01  3.14258E+01
   4.37515E+01  2.93763E+01  3.16352E+01  3.32047E+01  3.83234E+01  4.15247E+01  5.65203E+01  7.02820E+01  1.02114E+02  1.30353E+02
   1.56092E+02  1.56148E+02  1.36838E+02  9.98260E+01  6.81162E+01  5.13686E+01  3.59364E+01  3.36625E+01  3.02621E+01  2.49630E+01
   2.44826E+01  2.45274E+01  2.37825E+01  1.69066E+01  2.24987E+01  2.26681E+01  1.53817E+01  1.77374E+01  1.74183E+01  1.15715E+01
   2.64856E+01  1.24005E+01  1.68040E+01  1.35856E+01  1.35730E+01  1.68727E+01  1.58355E+01  1.45440E+01  1.56085E+01  1.18355E+01
   1.04580E+01  1.03576E+01  1.97941E+01  1.44579E+01  1.61608E+01  1.58537E+01  1.41237E+01  1.53160E+01  1.44359E+01  1.04181E+01
   2.21739E+01  2.25086E+01  1.87248E+01  1.13106E+01  2.34608E+01  1.04526E+01  2.71485E+01  1.62934E+01  2.41845E+01  1.59820E+01
   3.43154E+01  2.63952E+01  3.04231E+01  3.41495E+01  3.49984E+01  3.05391E+01  3.20690E+01  3.37004E+01  2.88216E+01  2.80614E+01
   2.89758E+01  2.33063E+01  3.39575E+01  2.75934E+01  2.66090E+01  2.76935E+01  3.01468E+01  2.55789E+01  3.50983E+01  3.14147E+01
   3.69735E+01  3.40654E+01  3.08582E+01  3.40034E+01  3.13126E+01  2.22354E+01  2.94030E+01  2.84547E+01  3.66165E+01  2.81186E+01
   2.99606E+01  2.77408E+01  3.23952E+01  1.92471E+01  2.87361E+01  3.32725E+01  2.67777E+01  2.87870E+01  2.72706E+01  2.33470E+01
   2.65065E+01  2.91590E+01  2.09969E+01  2.44921E+01  3.39159E+01  2.84891E+01  2.73176E+01  3.30287E+01  2.65975E+01  2.56524E+01
   2.99121E+01  2.19691E+01  2.38874E+01  2.05359E+01  2.23410E+01  2.49606E+01  2.49047E+01  1.37650E+01  2.36933E+01  1.47593E+01
   2.83039E+01  1.53785E+01  2.41529E+01  2.17448E+01  2.37240E+01  1.06051E+01  2.10291E+01  1.68921E+01  1.82910E+01  1.26659E+01
   1.30082E+01  1.06138E+01  1.86398E+01  1.85892E+01  1.17637E+01  1.13430E+01  1.70062E+01  4.10070E-01  1.48812E+01  1.18499E+01
   1.30225E+01  1.64464E+01  1.85343E+01  1.34813E+01  1.05363E+01  1.50370E+01  1.65269E+01  1.60987E+01  1.73981E+01  1.74441E+01
   2.39911E+01  2.63506E+01  1.46799E+01  2.25609E+01  2.17914E+01  2.35153E+01  1.82204E+01  2.44838E+01  2.37988E+01  1.73106E+01
   2.14620E+01  1.79633E+01  1.46101E+01  1.25393E+01  1.45191E+01  1.80408E+01  1.69469E+01  8.88949E+00  2.12681E+01  1.34089E+01
   1.40803E+01  1.57942E+01  1.11971E+01  1.23016E+01  1.68594E+00  1.00561E+01  1.27609E+01  1.48967E+01  4.30969E+00  1.45600E+01
   1.38226E+01  5.44057E+00  1.06069E+01  1.12403E+01  1.23149E+01  5.03998E+00  1.31473E+01  9.84851E+00  7.97694E+00  1.68087E+01
   9.40612E+00 -1.46353E+00  9.43972E+00  1.65542E+01  1.20442E+01  6.57594E+00  9.01617E+00  1.19602E+01  1.21445E+01  5.97551E+00
   1.10554E+01  1.48972E+01  1.36157E+01  6.02080E+00  1.00925E+01  4.13653E+00  7.13228E+00  1.22686E+01  5.79404E+00  6.79663E+00
   7.54877E+00  6.77562E+00  9.04731E+00  8.08501E+00  1.23052E+01  9.01827E+00  3.70350E+00  9.60242E+00  1.55829E+01  1.17315E+01
   8.79324E+00  3.84512E+00  8.01384E+00  1.41281E+00 -1.01167E+00  5.50850E+00  9.60609E+00  1.20810E+01  1.13778E+01  9.72891E+00
   7.99663E+00 -7.53904E-01  5.55920E+00  1.08952E+01  4.32640E+00  6.75770E+00  8.14078E+00  2.27220E+00  1.32288E+01 -1.54645E+00
  -1.22782E+00  7.28701E+00  6.05329E+00  8.41143E+00  2.27396E+00 -4.36687E+00  9.15774E+00  8.15815E+00
 NY points of the fit to the data follow
   8.74391E+01  8.65225E+01  8.60436E+01  8.63671E+01  8.84150E+01  9.30006E+01  1.00782E+02  1.12890E+02  1.27904E+02  1.42651E+02
   1.53698E+02  1.57497E+02  1.52567E+02  1.40660E+02  1.25687E+02  1.10932E+02  1.00205E+02  9.34305E+01  8.82370E+01  8.56487E+01
   8.41933E+01  8.29198E+01  8.15501E+01  7.99320E+01  7.84686E+01  7.85168E+01  8.06602E+01  8.51833E+01  9.20501E+01  9.96494E+01
   1.05345E+02  1.06649E+02  1.03216E+02  9.65462E+01  8.93885E+01  8.27449E+01  7.66786E+01  7.30244E+01  7.15286E+01  7.13519E+01
   7.17063E+01  7.22063E+01  7.32280E+01  7.47990E+01  7.70300E+01  7.99053E+01  8.27670E+01  8.46328E+01  8.44090E+01  8.14748E+01
   7.67059E+01  7.19898E+01  6.83109E+01  6.55701E+01  6.38452E+01  6.33798E+01  6.37896E+01  6.46057E+01  6.56237E+01  6.64903E+01
   6.67998E+01  6.61304E+01  6.44223E+01  6.21559E+01  6.00329E+01  5.84376E+01  5.75834E+01  5.75419E+01  5.79881E+01  5.86447E+01
   5.92232E+01  5.95344E+01  5.94622E+01  5.89093E+01  5.79769E+01  5.68792E+01  5.58850E+01  5.51019E+01  5.43989E+01  5.38329E+01
   5.33911E+01  5.31381E+01  5.31061E+01  5.31527E+01  5.31324E+01  5.27949E+01  5.18174E+01  5.01222E+01  4.80996E+01  4.64261E+01
   4.56500E+01  4.58099E+01  4.63880E+01  4.70462E+01  4.76289E+01  4.78103E+01  4.75226E+01  4.72816E+01  4.94047E+01  5.71074E+01
   7.05237E+01  8.89485E+01  1.09384E+02  1.24622E+02  1.28008E+02  1.17691E+02  9.84711E+01  7.85235E+01  6.42038E+01  5.37957E+01
   4.58903E+01  4.31642E+01  4.23028E+01  4.18709E+01  4.15902E+01  4.13631E+01  4.11532E+01  4.09605E+01  4.08113E+01  4.08237E+01
   4.12704E+01  4.30036E+01  4.92674E+01  6.31966E+01  8.42588E+01  1.11010E+02  1.38414E+02  1.56755E+02  1.58171E+02  1.42171E+02
   1.16092E+02  9.07846E+01  7.25340E+01  5.76128E+01  4.55893E+01  3.90375E+01  3.48889E+01  3.28096E+01  3.29444E+01  3.45671E+01
   3.67603E+01  3.87631E+01  3.96931E+01  3.93571E+01  3.82398E+01  3.67656E+01  3.53921E+01  3.42695E+01  3.32995E+01  3.25339E+01
   3.18000E+01  3.10691E+01  3.04023E+01  2.98751E+01  2.95268E+01  2.93205E+01  2.90866E+01  2.86342E+01  2.78706E+01  2.68160E+01
   2.58270E+01  2.52788E+01  2.53394E+01  2.59211E+01  2.65062E+01  2.64340E+01  2.55543E+01  2.43344E+01  2.30847E+01  2.21102E+01
   2.13836E+01  2.05632E+01  1.96896E+01  1.87799E+01  1.78290E+01  1.70871E+01  1.68076E+01  1.70277E+01  1.74879E+01  1.76977E+01
   1.73924E+01  1.67655E+01  1.62266E+01  1.57929E+01  1.53601E+01  1.52440E+01  1.59522E+01  1.80489E+01  2.12820E+01  2.47761E+01
   2.75742E+01  2.88288E+01  2.82061E+01  2.60709E+01  2.30563E+01  2.00529E+01  1.78746E+01  1.70492E+01  1.78290E+01  2.02403E+01
   2.36755E+01  2.71829E+01  2.99511E+01  3.14693E+01  3.15154E+01  2.94301E+01  2.56136E+01  2.09207E+01  1.62631E+01  1.27964E+01
   1.14346E+01  1.28058E+01  1.66341E+01  2.19834E+01  2.76270E+01  3.22820E+01  3.47367E+01  3.33709E+01  2.85561E+01  2.21461E+01
   1.58686E+01  1.11282E+01  8.76665E+00  9.76410E+00  1.39345E+01  1.94670E+01  2.44108E+01  2.74568E+01  2.86296E+01  2.83869E+01
   2.69734E+01  2.52417E+01  2.45288E+01  2.52310E+01  2.69712E+01  2.91665E+01  3.11558E+01  3.23956E+01  3.21564E+01  3.01142E+01
   2.70215E+01  2.41539E+01  2.24860E+01  2.22520E+01  2.37148E+01  2.65379E+01  2.95298E+01  3.15922E+01  3.25455E+01  3.28340E+01
   3.27063E+01  3.25222E+01  3.27230E+01  3.36037E+01  3.54913E+01  4.16789E+01  5.56246E+01  7.68554E+01  1.04378E+02  1.33077E+02
   1.52296E+02  1.53030E+02  1.34410E+02  1.04574E+02  7.58719E+01  5.57079E+01  4.00988E+01  2.89766E+01  2.50135E+01  2.31986E+01
   2.19122E+01  2.09944E+01  2.04788E+01  2.01757E+01  2.00022E+01  1.98179E+01  1.94933E+01  1.90139E+01  1.84616E+01  1.78735E+01
   1.72860E+01  1.67715E+01  1.63718E+01  1.60735E+01  1.58417E+01  1.56416E+01  1.54652E+01  1.53184E+01  1.51899E+01  1.50905E+01
   1.50329E+01  1.50243E+01  1.50688E+01  1.51686E+01  1.53278E+01  1.55494E+01  1.58327E+01  1.61828E+01  1.66048E+01  1.70997E+01
   1.76668E+01  1.83045E+01  1.90079E+01  1.97685E+01  2.05744E+01  2.14105E+01  2.22613E+01  2.31109E+01  2.39440E+01  2.47438E+01
   2.54941E+01  2.61815E+01  2.67944E+01  2.73256E+01  2.77722E+01  2.81352E+01  2.84192E+01  2.86325E+01  2.87859E+01  2.88930E+01
   2.89675E+01  2.90230E+01  2.90711E+01  2.91214E+01  2.91809E+01  2.92538E+01  2.93407E+01  2.94389E+01  2.95430E+01  2.96460E+01
   2.97399E+01  2.98167E+01  2.98686E+01  2.98890E+01  2.98731E+01  2.98192E+01  2.97287E+01  2.96062E+01  2.94598E+01  2.93026E+01
   2.91552E+01  2.90567E+01  2.90747E+01  2.91916E+01  2.93056E+01  2.93209E+01  2.90739E+01  2.84248E+01  2.74165E+01  2.62986E+01
   2.54668E+01  2.51998E+01  2.54721E+01  2.61285E+01  2.71050E+01  2.81090E+01  2.86984E+01  2.86997E+01  2.81596E+01  2.73334E+01
   2.64244E+01  2.54095E+01  2.44101E+01  2.35040E+01  2.26541E+01  2.18482E+01  2.10829E+01  2.03562E+01  1.96659E+01  1.90107E+01
   1.83900E+01  1.78038E+01  1.72533E+01  1.67404E+01  1.62674E+01  1.58373E+01  1.54527E+01  1.51159E+01  1.48290E+01  1.45939E+01
   1.44123E+01  1.42857E+01  1.42156E+01  1.42028E+01  1.42480E+01  1.43518E+01  1.45147E+01  1.47365E+01  1.50161E+01  1.53517E+01
   1.57405E+01  1.61786E+01  1.66607E+01  1.71801E+01  1.77282E+01  1.82946E+01  1.88681E+01  1.94357E+01  1.99839E+01  2.04983E+01
   2.09642E+01  2.13679E+01  2.16964E+01  2.19388E+01  2.20862E+01  2.21320E+01  2.20728E+01  2.19081E+01  2.16408E+01  2.12767E+01
   2.08242E+01  2.02937E+01  1.96974E+01  1.90488E+01  1.83619E+01  1.76506E+01  1.69281E+01  1.62065E+01  1.54967E+01  1.48080E+01
   1.41480E+01  1.35224E+01  1.29352E+01  1.23887E+01  1.18842E+01  1.14217E+01  1.10001E+01  1.06177E+01  1.02720E+01  9.96044E+00
   9.68022E+00  9.42862E+00  9.20284E+00  9.00011E+00  8.81779E+00  8.65358E+00  8.50547E+00  8.37163E+00  8.25036E+00  8.14005E+00
   8.03934E+00  7.94714E+00  7.86256E+00  7.78477E+00  7.71292E+00  7.64625E+00  7.58417E+00  7.52628E+00  7.47222E+00  7.42157E+00
   7.37389E+00  7.32881E+00  7.28613E+00  7.24570E+00  7.20739E+00  7.17095E+00  7.13612E+00  7.10273E+00  7.07074E+00  7.04011E+00
   7.01074E+00  6.98245E+00  6.95508E+00  6.92858E+00  6.90300E+00  6.87833E+00  6.85445E+00  6.83121E+00  6.80852E+00  6.78643E+00
   6.76498E+00  6.74415E+00  6.72382E+00  6.70391E+00  6.68438E+00  6.66531E+00  6.64675E+00  6.62862E+00  6.61082E+00  6.59328E+00
   6.57605E+00  6.55920E+00  6.54276E+00  6.52663E+00  6.51072E+00  6.49503E+00  6.47964E+00  6.46462E+00  6.44994E+00  6.43549E+00
   6.42124E+00  6.40722E+00  6.39354E+00  6.38024E+00  6.36726E+00  6.35451E+00  6.34201E+00  6.32986E+00
 NY background values follow
     8.308E+01    8.265E+01    8.222E+01    8.179E+01    8.136E+01    8.093E+01    8.051E+01    8.008E+01    7.965E+01    7.922E+01
     7.879E+01    7.836E+01    7.793E+01    7.750E+01    7.708E+01    7.665E+01    7.622E+01    7.579E+01    7.536E+01    7.493E+01
     7.451E+01    7.408E+01    7.365E+01    7.322E+01    7.280E+01    7.237E+01    7.194E+01    7.152E+01    7.109E+01    7.067E+01
     7.024E+01    6.982E+01    6.939E+01    6.897E+01    6.854E+01    6.812E+01    6.770E+01    6.728E+01    6.685E+01    6.643E+01
     6.601E+01    6.559E+01    6.517E+01    6.475E+01    6.433E+01    6.392E+01    6.350E+01    6.308E+01    6.267E+01    6.225E+01
     6.184E+01    6.142E+01    6.101E+01    6.060E+01    6.019E+01    5.978E+01    5.937E+01    5.896E+01    5.855E+01    5.815E+01
     5.774E+01    5.734E+01    5.693E+01    5.653E+01    5.613E+01    5.573E+01    5.533E+01    5.494E+01    5.454E+01    5.414E+01
     5.375E+01    5.336E+01    5.297E+01    5.258E+01    5.219E+01    5.180E+01    5.142E+01    5.104E+01    5.065E+01    5.027E+01
     4.990E+01    4.952E+01    4.914E+01    4.877E+01    4.840E+01    4.803E+01    4.766E+01    4.729E+01    4.693E+01    4.656E+01
     4.620E+01    4.584E+01    4.548E+01    4.513E+01    4.478E+01    4.442E+01    4.407E+01    4.373E+01    4.338E+01    4.304E+01
     4.269E+01    4.235E+01    4.202E+01    4.168E+01    4.135E+01    4.101E+01    4.068E+01    4.036E+01    4.003E+01    3.971E+01
     3.938E+01    3.906E+01    3.875E+01    3.843E+01    3.812E+01    3.781E+01    3.750E+01    3.719E+01    3.688E+01    3.658E+01
     3.628E+01    3.598E+01    3.568E+01    3.539E+01    3.510E+01    3.481E+01    3.452E+01    3.423E+01    3.395E+01    3.367E+01
     3.339E+01    3.311E+01    3.283E+01    3.256E+01    3.229E+01    3.202E+01    3.175E+01    3.149E+01    3.123E+01    3.097E+01
     3.071E+01    3.046E+01    3.020E+01    2.995E+01    2.970E+01    2.946E+01    2.921E+01    2.897E+01    2.873E+01    2.849E+01
     2.825E+01    2.802E+01    2.779E+01    2.756E+01    2.733E+01    2.711E+01    2.688E+01    2.666E+01    2.644E+01    2.623E+01
     2.601E+01    2.580E+01    2.559E+01    2.538E+01    2.517E+01    2.497E+01    2.476E+01    2.456E+01    2.437E+01    2.417E+01
     2.397E+01    2.378E+01    2.359E+01    2.340E+01    2.322E+01    2.303E+01    2.285E+01    2.267E+01    2.249E+01    2.231E+01
     2.214E+01    2.197E+01    2.180E+01    2.163E+01    2.146E+01    2.130E+01    2.113E+01    2.097E+01    2.081E+01    2.065E+01
     2.050E+01    2.034E+01    2.019E+01    2.004E+01    1.989E+01    1.974E+01    1.960E+01    1.945E+01    1.931E+01    1.917E+01
     1.903E+01    1.889E+01    1.876E+01    1.862E+01    1.849E+01    1.835E+01    1.822E+01    1.809E+01    1.797E+01    1.784E+01
     1.771E+01    1.759E+01    1.747E+01    1.734E+01    1.722E+01    1.710E+01    1.699E+01    1.687E+01    1.675E+01    1.664E+01
     1.652E+01    1.641E+01    1.630E+01    1.619E+01    1.608E+01    1.597E+01    1.586E+01    1.575E+01    1.565E+01    1.554E+01
     1.544E+01    1.534E+01    1.523E+01    1.513E+01    1.503E+01    1.493E+01    1.483E+01    1.473E+01    1.464E+01    1.454E+01
     1.444E+01    1.435E+01    1.426E+01    1.416E+01    1.407E+01    1.398E+01    1.389E+01    1.380E+01    1.371E+01    1.362E+01
     1.353E+01    1.345E+01    1.336E+01    1.328E+01    1.319E+01    1.311E+01    1.303E+01    1.295E+01    1.286E+01    1.278E+01
     1.270E+01    1.263E+01    1.255E+01    1.247E+01    1.240E+01    1.232E+01    1.225E+01    1.217E+01    1.210E+01    1.203E+01
     1.195E+01    1.188E+01    1.181E+01    1.174E+01    1.167E+01    1.161E+01    1.154E+01    1.147E+01    1.141E+01    1.134E+01
     1.128E+01    1.121E+01    1.115E+01    1.109E+01    1.102E+01    1.096E+01    1.090E+01    1.084E+01    1.078E+01    1.072E+01
     1.067E+01    1.061E+01    1.055E+01    1.049E+01    1.044E+01    1.038E+01    1.033E+01    1.028E+01    1.022E+01    1.017E+01
     1.012E+01    1.007E+01    1.002E+01    9.965E+00    9.915E+00    9.866E+00    9.817E+00    9.769E+00    9.721E+00    9.674E+00
     9.627E+00    9.581E+00    9.535E+00    9.490E+00    9.445E+00    9.401E+00    9.358E+00    9.314E+00    9.272E+00    9.229E+00
     9.188E+00    9.146E+00    9.105E+00    9.065E+00    9.025E+00    8.986E+00    8.947E+00    8.908E+00    8.870E+00    8.832E+00
     8.795E+00    8.758E+00    8.722E+00    8.686E+00    8.650E+00    8.615E+00    8.580E+00    8.546E+00    8.512E+00    8.478E+00
     8.445E+00    8.413E+00    8.380E+00    8.348E+00    8.317E+00    8.286E+00    8.255E+00    8.224E+00    8.194E+00    8.164E+00
     8.135E+00    8.106E+00    8.078E+00    8.049E+00    8.021E+00    7.994E+00    7.967E+00    7.940E+00    7.913E+00    7.887E+00
     7.861E+00    7.835E+00    7.810E+00    7.785E+00    7.761E+00    7.736E+00    7.712E+00    7.689E+00    7.665E+00    7.642E+00
     7.620E+00    7.597E+00    7.575E+00    7.553E+00    7.532E+00    7.511E+00    7.490E+00    7.469E+00    7.449E+00    7.429E+00
     7.410E+00    7.390E+00    7.371E+00    7.353E+00    7.334E+00    7.316E+00    7.299E+00    7.281E+00    7.264E+00    7.247E+00
     7.231E+00    7.214E+00    7.199E+00    7.183E+00    7.168E+00    7.153E+00    7.138E+00    7.124E+00    7.109E+00    7.096E+00
     7.082E+00    7.069E+00    7.056E+00    7.043E+00    7.031E+00    7.019E+00    7.007E+00    6.996E+00    6.985E+00    6.974E+00
     6.963E+00    6.953E+00    6.943E+00    6.933E+00    6.924E+00    6.915E+00    6.905E+00    6.897E+00    6.888E+00    6.879E+00
     6.871E+00    6.863E+00    6.855E+00    6.847E+00    6.840E+00    6.832E+00    6.825E+00    6.817E+00    6.810E+00    6.803E+00
     6.796E+00    6.790E+00    6.783E+00    6.776E+00    6.770E+00    6.763E+00    6.757E+00    6.750E+00    6.744E+00    6.737E+00
     6.731E+00    6.725E+00    6.718E+00    6.712E+00    6.705E+00    6.699E+00    6.692E+00    6.686E+00    6.679E+00    6.673E+00
     6.666E+00    6.659E+00    6.652E+00    6.645E+00    6.638E+00    6.631E+00    6.623E+00    6.616E+00    6.608E+00    6.601E+00
     6.593E+00    6.585E+00    6.578E+00    6.570E+00    6.562E+00    6.554E+00    6.546E+00    6.537E+00    6.529E+00    6.521E+00
     6.512E+00    6.504E+00    6.495E+00    6.487E+00    6.478E+00    6.470E+00    6.461E+00    6.452E+00    6.443E+00    6.435E+00
     6.426E+00    6.417E+00    6.408E+00    6.399E+00    6.390E+00    6.381E+00    6.372E+00    6.363E+00    6.354E+00    6.344E+00
     6.335E+00    6.326E+00    6.317E+00    6.308E+00    6.299E+00    6.290E+00    6.280E+00    6.271E+00
 Cr       Conc. = 1.82E+03
