 LCModel (Version 6.3-1L) Copyright: S.W. Provencher.          Ref.: Magn. Reson. Med. 30:672-679 (1993).                
 Slice#2 Row#1 Col#4  PD_24_press_2_raw_act
 36 lines in following concentration table = NCONC+1
    Conc.  %SD /Cr+PCr  Metabolite                                         
  418.243  39%   1.755 Ala                                                 
   35.240 108%   0.148 Asp                                                 
    0.000 999%   0.000 Cr                                                  
  238.272  31%   1.000 PCr                                                 
   22.165 103% 9.3E-02 GABA                                                
   23.190  99% 9.7E-02 Glc                                                 
    0.000 999%   0.000 Gln                                                 
  617.744  57%   2.593 Glu                                                 
    0.000 999%   0.000 GPC                                                 
  112.738  27%   0.473 PCh                                                 
  370.324  30%   1.554 GSH                                                 
  779.916  45%   3.273 Ins                                                 
   24.510 662%   0.103 Lac                                                 
  171.727  47%   0.721 NAA                                                 
    0.000 999%   0.000 NAAG                                                
    8.535  89% 3.6E-02 Scyllo                                              
   33.734 113%   0.142 Tau                                                 
    0.000 999%   0.000 -CrCH2                                              
  112.738  27%   0.473 GPC+PCh                                             
  171.727  47%   0.721 NAA+NAAG                                            
  238.272  31%   1.000 Cr+PCr                                              
  617.744  57%   2.593 Glu+Gln                                             
    0.000 999%   0.000 Lip13a                                              
    0.000 999%   0.000 Lip13b                                              
    0.000 999%   0.000 Lip09                                               
 2.36E-02 999% 9.9E-05 MM09                                                
    0.000 999%   0.000 Lip20                                               
    0.000 999%   0.000 MM20                                                
    0.000 999%   0.000 MM12                                                
    0.378 999% 1.6E-03 MM14                                                
    1.499 489% 6.3E-03 MM17                                                
    0.000 999%   0.000 Lip13a+Lip13b                                       
    0.378 999% 1.6E-03 MM14+Lip13a+Lip13b+MM12                             
 2.36E-02 999% 9.9E-05 MM09+Lip09                                          
    0.000 999%   0.000 MM20+Lip20                                          
   6 lines in following misc. output table
  FWHM = 0.054 ppm    S/N =   1                                            
  Data shift = 0.031 ppm                                                   
  Ph: -10 deg      28.4 deg/ppm                                            
  alphaB,S = 5.8E-01,   5.6E+00                                            
   14 spline knots.   Ns = 5(1)                                            
  (10) 5 infls.   ( 9) 4 extrs.                                            
  498 points on ppm-axis = NY
      4.000000     3.992357     3.984714     3.977070     3.969427     3.961784     3.954141     3.946497     3.938854     3.931211
      3.923568     3.915925     3.908281     3.900638     3.892995     3.885352     3.877708     3.870065     3.862422     3.854779
      3.847136     3.839492     3.831849     3.824206     3.816563     3.808919     3.801276     3.793633     3.785990     3.778347
      3.770703     3.763060     3.755417     3.747774     3.740130     3.732487     3.724844     3.717201     3.709558     3.701914
      3.694271     3.686628     3.678985     3.671341     3.663698     3.656055     3.648412     3.640769     3.633125     3.625482
      3.617839     3.610196     3.602552     3.594909     3.587266     3.579623     3.571980     3.564336     3.556693     3.549050
      3.541407     3.533763     3.526120     3.518477     3.510834     3.503191     3.495547     3.487904     3.480261     3.472618
      3.464974     3.457331     3.449688     3.442045     3.434402     3.426758     3.419115     3.411472     3.403829     3.396185
      3.388542     3.380899     3.373256     3.365613     3.357969     3.350326     3.342683     3.335040     3.327396     3.319753
      3.312110     3.304467     3.296824     3.289180     3.281537     3.273894     3.266251     3.258607     3.250964     3.243321
      3.235678     3.228034     3.220391     3.212748     3.205105     3.197462     3.189818     3.182175     3.174532     3.166889
      3.159245     3.151602     3.143959     3.136316     3.128673     3.121029     3.113386     3.105743     3.098100     3.090456
      3.082813     3.075170     3.067527     3.059884     3.052240     3.044597     3.036954     3.029311     3.021667     3.014024
      3.006381     2.998738     2.991095     2.983451     2.975808     2.968165     2.960522     2.952878     2.945235     2.937592
      2.929949     2.922306     2.914662     2.907019     2.899376     2.891733     2.884089     2.876446     2.868803     2.861160
      2.853517     2.845873     2.838230     2.830587     2.822944     2.815300     2.807657     2.800014     2.792371     2.784728
      2.777084     2.769441     2.761798     2.754155     2.746511     2.738868     2.731225     2.723582     2.715939     2.708295
      2.700652     2.693009     2.685366     2.677722     2.670079     2.662436     2.654793     2.647150     2.639506     2.631863
      2.624220     2.616577     2.608933     2.601290     2.593647     2.586004     2.578361     2.570717     2.563074     2.555431
      2.547788     2.540144     2.532501     2.524858     2.517215     2.509572     2.501928     2.494285     2.486642     2.478999
      2.471355     2.463712     2.456069     2.448426     2.440783     2.433139     2.425496     2.417853     2.410210     2.402566
      2.394923     2.387280     2.379637     2.371994     2.364350     2.356707     2.349064     2.341421     2.333777     2.326134
      2.318491     2.310848     2.303205     2.295561     2.287918     2.280275     2.272632     2.264988     2.257345     2.249702
      2.242059     2.234416     2.226772     2.219129     2.211486     2.203843     2.196199     2.188556     2.180913     2.173270
      2.165627     2.157983     2.150340     2.142697     2.135054     2.127410     2.119767     2.112124     2.104481     2.096838
      2.089194     2.081551     2.073908     2.066265     2.058621     2.050978     2.043335     2.035692     2.028049     2.020405
      2.012762     2.005119     1.997476     1.989833     1.982190     1.974546     1.966903     1.959260     1.951617     1.943974
      1.936331     1.928688     1.921045     1.913402     1.905759     1.898115     1.890472     1.882829     1.875186     1.867543
      1.859900     1.852257     1.844614     1.836971     1.829327     1.821684     1.814041     1.806398     1.798755     1.791112
      1.783469     1.775826     1.768183     1.760540     1.752896     1.745253     1.737610     1.729967     1.722324     1.714681
      1.707038     1.699395     1.691752     1.684108     1.676465     1.668822     1.661179     1.653536     1.645893     1.638250
      1.630607     1.622964     1.615321     1.607677     1.600034     1.592391     1.584748     1.577105     1.569462     1.561819
      1.554176     1.546533     1.538890     1.531246     1.523603     1.515960     1.508317     1.500674     1.493031     1.485388
      1.477745     1.470102     1.462458     1.454815     1.447172     1.439529     1.431886     1.424243     1.416600     1.408957
      1.401314     1.393671     1.386027     1.378384     1.370741     1.363098     1.355455     1.347812     1.340169     1.332526
      1.324883     1.317240     1.309596     1.301953     1.294310     1.286667     1.279024     1.271381     1.263738     1.256095
      1.248452     1.240808     1.233165     1.225522     1.217879     1.210236     1.202593     1.194950     1.187307     1.179664
      1.172021     1.164377     1.156734     1.149091     1.141448     1.133805     1.126162     1.118519     1.110876     1.103233
      1.095590     1.087946     1.080303     1.072660     1.065017     1.057374     1.049731     1.042088     1.034445     1.026802
      1.019158     1.011515     1.003872     0.996229     0.988586     0.980943     0.973300     0.965657     0.958014     0.950371
      0.942727     0.935084     0.927441     0.919798     0.912155     0.904512     0.896869     0.889226     0.881583     0.873940
      0.866296     0.858653     0.851010     0.843367     0.835724     0.828081     0.820438     0.812795     0.805152     0.797508
      0.789865     0.782222     0.774579     0.766936     0.759293     0.751650     0.744007     0.736364     0.728721     0.721077
      0.713434     0.705791     0.698148     0.690505     0.682862     0.675219     0.667576     0.659933     0.652290     0.644646
      0.637003     0.629360     0.621717     0.614074     0.606431     0.598788     0.591145     0.583502     0.575858     0.568215
      0.560572     0.552929     0.545286     0.537643     0.530000     0.522357     0.514714     0.507071     0.499427     0.491784
      0.484141     0.476498     0.468855     0.461212     0.453569     0.445925     0.438282     0.430639     0.422996     0.415353
      0.407710     0.400067     0.392424     0.384780     0.377137     0.369494     0.361851     0.354208     0.346565     0.338922
      0.331278     0.323635     0.315992     0.308349     0.300706     0.293063     0.285420     0.277777     0.270133     0.262490
      0.254847     0.247204     0.239561     0.231918     0.224275     0.216631     0.208988     0.201345
 NY phased data points follow
   1.76310E+01  9.03918E+00  1.08737E+01  2.64246E+01  2.34794E+01  2.03287E+01  2.28541E+01  1.42417E+01  2.16605E+01  2.22803E+01
   2.62240E+01  2.34398E+01  2.71618E+01  8.87201E+00  1.73510E+01  1.11123E+01  1.94817E+01  9.94223E+00  2.46768E+01  1.06335E+01
   2.48954E+01  9.62737E+00  1.53881E+01  1.86115E+01  8.74586E+00  2.44068E+01  1.73030E+01  2.11572E+01  2.56601E+01  2.11090E+01
   2.38426E+01  1.91667E+01  2.26756E+01  1.12635E+01  2.18028E+01  7.09371E+00  1.70573E+01  2.08049E+01  1.67243E+01  1.24271E+01
   1.44810E+01  7.10636E+00 -6.11518E+00  5.01006E+00  1.40732E+01  1.83540E+01  1.44054E+01  1.77731E+01  1.31763E+01  9.77657E+00
   1.74667E+01  1.73953E+01 -4.19293E+00  3.90402E+00  1.48284E+01  1.12672E+01  1.73913E+01  1.47142E+01  1.64672E+01  1.40491E+01
   1.23043E+01  9.28531E+00  1.21391E+01  1.87611E+00  1.57526E+01  1.43027E+01  1.43774E+01  8.80891E+00  1.92230E+01  1.41081E+01
   1.33670E+01  1.00343E+01  2.39866E+01  4.31125E+00  1.31947E+01  9.20203E+00  1.26800E+01  1.26342E+01  1.25376E+01  6.99860E+00
   1.07049E+01  1.35236E+01  9.25794E+00  1.40956E+01  1.07218E+01 -1.25377E+00  2.04253E+01  1.16364E+01  5.76000E+00  1.48176E+01
   7.88373E+00  8.31747E+00  3.07721E+00  2.76084E+00  6.17425E+00  1.41764E+01  8.15071E+00 -3.44414E-03 -2.65151E+00  5.72201E+00
   7.16337E+00  1.54865E+01  2.14729E+01  1.17774E+01  3.36471E+01  1.23403E+01  1.61156E+01  1.64822E+01  2.29304E+01  1.41478E+01
   7.08640E-01 -1.05898E+00  8.85731E+00  5.81953E+00  2.29774E+00  1.29589E+01  1.10196E+00  5.43550E+00  1.57620E+01  4.41284E+00
   1.02723E+01  1.23209E+01  6.24385E+00  8.84530E+00  9.81552E+00  1.61294E+01  9.97646E+00  1.03610E+01  1.96789E+01  1.83836E+01
   1.90952E+01  1.68390E+00  6.81030E+00  3.30194E+00 -8.36765E-01  1.10095E+01  1.41148E+00  1.24251E+01  6.98373E+00  4.94032E+00
   6.13709E+00  1.59106E+01  3.84941E+00  1.77067E+00  1.07093E+01  1.09980E+01  5.29149E+00  6.82904E+00  1.14620E+01  1.55832E+01
   1.39992E+01  8.56143E+00  1.49389E+01  1.85015E+01  7.04382E+00  5.20248E+00  1.11558E+01  1.19316E+01  1.39072E+01  6.37130E+00
   3.37975E+00  8.29459E+00  6.92536E+00  9.42244E+00  2.18542E+00  9.10244E+00  4.73299E+00  5.54936E+00 -8.02574E+00  7.85528E+00
   1.11386E+01  9.28348E+00  5.48550E+00 -1.59002E+00 -5.69524E-02  7.62535E+00  6.12395E+00  9.72311E-01  7.13545E+00  2.09676E+00
   6.19590E-01  1.55807E+01  6.96023E-01  4.81818E+00 -1.59285E+00  4.20529E+00  2.41152E+00  1.01221E+01  3.39253E+00  5.96129E-01
   1.13771E+01 -3.84575E+00  5.64848E+00  6.00662E+00 -2.97466E+00 -2.82423E+00  1.00994E+01  6.03989E+00  1.17728E+01  1.31907E+01
  -6.53280E+00  5.82375E+00  6.18803E+00  1.09667E+01 -1.82006E-02  8.43717E+00  3.74417E+00  1.58697E+00  2.82243E+00  1.00255E+01
   2.31549E+00  1.07052E+01  1.70795E+00  1.46784E+01  8.00805E+00  7.09080E+00 -1.15178E+00  4.19269E+00  1.30107E+01  5.61813E+00
   8.43917E+00 -1.03994E+00 -9.67318E-01  4.06762E-02  6.44998E+00  9.49195E+00  2.94701E+00  6.04845E+00  6.38336E+00  8.73270E+00
  -7.70181E-01  1.18351E+01  1.74021E+00  1.66406E+01  1.14082E+01  6.42447E+00  4.77318E+00  8.95893E+00  7.82448E+00  8.81721E+00
   8.44237E+00  8.31208E+00  4.12489E-01 -2.11977E+00  5.69792E+00  2.08415E+00  1.22951E+01  3.54335E+00  7.18934E+00  6.15439E+00
   4.75492E+00 -3.44185E+00  3.34706E+00 -3.40218E+00  6.51938E+00  6.11324E+00  8.61799E+00  4.59939E-01  1.41272E+01  7.74506E+00
   8.92010E+00  2.08361E+01  1.20882E+01  1.75276E+01  6.28479E+00  1.25707E+01 -6.51245E+00 -1.55768E+00  1.17530E+01  2.40656E+00
   6.86544E+00  1.06710E+01  6.86802E+00  5.47915E+00  8.18965E+00  9.70301E+00  4.23780E+00 -2.66691E+00  1.14667E+01  1.36432E+01
   8.91852E+00  3.78843E+00  5.22760E+00  1.45408E+01  8.24316E+00  8.73230E+00  1.44981E+01  1.05932E+01  9.98952E+00  9.35098E+00
   1.32019E+01  1.88935E+01  1.52337E+01  5.47038E+00  1.75332E+01  1.48512E+01  1.26271E+01  1.85077E+01  8.13157E+00  9.77198E+00
   1.48139E+01  1.76343E+01  8.72107E+00  9.90067E+00  1.70469E+01  1.21828E+01  1.61000E+01  1.59596E+01  2.15673E+01  1.96520E+01
   2.26475E+01  1.53342E+01  2.07026E+01  1.97254E+01  2.21473E+01  2.35870E+01  1.58762E+01  1.22463E+01  1.56360E+01  1.33844E+01
   1.15023E+01  7.34488E+00  8.83795E+00  2.08843E+01  1.70017E+01  1.11342E+01  5.18799E+00  1.05345E+01  2.19267E+00  1.22220E+01
   1.78988E+00 -1.40193E-01 -1.02744E+01  3.50012E+00  7.75779E+00 -2.97826E+00  1.25992E+01  2.91748E+00  3.84668E-02  2.01101E+00
  -1.10595E+01 -1.05923E+01  1.29874E+01  8.59747E+00  1.10609E+01  1.66562E-02  4.54997E+00  6.15546E+00  8.29941E+00 -9.44735E-01
  -2.03652E+00 -9.06856E-01  6.89208E+00  6.09376E+00 -5.38168E+00 -9.17236E+00  2.08573E+00  8.40998E-01 -2.55202E+00  8.51008E+00
   1.46930E+00 -3.76489E+00 -1.25284E+00  4.15519E+00  1.03208E+00 -1.36903E+00 -4.20973E-01  9.41317E-01  1.38580E-01 -9.98612E+00
   2.81360E+00 -1.81041E-01  3.49892E+00 -3.31082E+00 -2.67734E+00 -2.81645E+00 -8.88187E+00  5.90772E+00  7.06210E+00  3.59496E+00
  -8.24572E+00 -1.56528E+01  1.63243E+00  7.06771E+00 -3.19960E+00  9.45553E-02 -6.25555E+00 -3.75328E+00  1.95397E+01 -2.38382E+00
  -6.05668E+00 -2.31808E+00 -9.44377E+00 -1.40623E+01 -7.38076E+00 -4.04708E+00  1.41014E+00 -7.94311E+00  6.18013E+00 -3.05704E+00
   1.15794E+01  2.52822E+00  1.20833E+00  2.71515E+00 -7.15325E+00 -1.98577E+00 -1.49773E+00 -4.28922E+00 -6.60116E+00 -9.79757E-01
  -6.65773E+00 -1.40293E+01 -7.77564E+00 -3.36770E-01 -5.25843E+00 -8.05833E+00 -8.74408E+00 -2.43910E+00  3.40586E+00 -7.65345E+00
  -1.25936E+01 -1.45640E+01 -8.65862E+00 -1.78929E+00 -1.10308E+00 -2.94832E+00 -7.16306E+00 -9.49334E+00 -7.93639E+00 -6.77087E+00
  -1.52068E+01 -1.74738E+00 -1.04824E+01 -8.77287E+00 -3.53826E+00 -8.15812E+00 -1.36783E+00 -1.48665E+00 -5.13861E+00 -2.98106E+00
  -4.07888E+00  3.95219E-01 -2.71534E+00  9.43408E+00 -1.62267E+01 -3.53109E+00 -4.07699E+00 -1.14998E+01 -2.33294E+00 -4.07755E+00
   2.96883E+00 -5.24175E+00  6.71392E+00  7.14176E+00 -1.35315E+00  1.52643E+00 -1.83680E+00  3.61871E-01 -1.33930E+01  3.60888E+00
  -5.64051E+00 -7.63375E+00 -7.53353E+00 -1.04007E+01 -5.06591E+00 -9.03202E+00 -1.15354E+01  4.67291E+00 -5.29669E+00 -2.60274E+00
  -5.40720E+00 -3.27706E+00 -1.26482E+01 -2.63304E+00 -1.21814E+01 -5.82034E+00  4.82856E+00 -4.04440E-02 -5.84098E+00 -1.18045E+01
  -9.91268E-02 -1.16779E+01 -3.80384E+00 -4.11515E+00  5.55529E-01 -1.22253E+01 -8.68232E-01 -4.94786E+00 -6.00025E+00 -2.02715E+00
  -3.53146E+00 -9.44003E+00 -3.94749E+00 -5.18263E+00 -1.00358E+00 -1.14598E+01 -6.12569E+00  2.38113E+00
 NY points of the fit to the data follow
   1.46583E+01  1.40463E+01  1.41841E+01  1.44798E+01  1.52520E+01  1.70757E+01  1.86915E+01  1.90047E+01  1.86160E+01  1.81478E+01
   1.79470E+01  1.82379E+01  1.74286E+01  1.44848E+01  1.20938E+01  1.24265E+01  1.29119E+01  1.32139E+01  1.36285E+01  1.39749E+01
   1.41122E+01  1.44331E+01  1.48774E+01  1.49803E+01  1.47202E+01  1.54135E+01  1.80301E+01  2.03248E+01  2.05271E+01  1.99682E+01
   1.99236E+01  2.09363E+01  2.23744E+01  2.13411E+01  1.62113E+01  1.28035E+01  1.38181E+01  1.34500E+01  1.18375E+01  1.12388E+01
   1.15969E+01  1.16256E+01  1.14804E+01  1.31727E+01  1.61883E+01  1.78947E+01  1.76319E+01  1.65439E+01  1.57087E+01  1.55506E+01
   1.53979E+01  1.36378E+01  1.04463E+01  8.76539E+00  9.44555E+00  1.08348E+01  1.20357E+01  1.30120E+01  1.35825E+01  1.36519E+01
   1.32757E+01  1.29053E+01  1.28093E+01  1.24462E+01  1.16393E+01  1.10452E+01  1.07775E+01  1.09252E+01  1.15766E+01  1.22547E+01
   1.26692E+01  1.27404E+01  1.25823E+01  1.24046E+01  1.22933E+01  1.21762E+01  1.16273E+01  1.10928E+01  1.10449E+01  1.10168E+01
   1.08573E+01  1.07239E+01  1.06766E+01  1.04079E+01  9.82046E+00  9.17253E+00  8.70979E+00  8.52409E+00  8.55172E+00  8.52855E+00
   8.43612E+00  8.69343E+00  9.55546E+00  1.03478E+01  1.05718E+01  1.03878E+01  1.01572E+01  9.94328E+00  9.86718E+00  1.01969E+01
   1.22828E+01  1.62777E+01  1.92198E+01  1.96010E+01  1.88956E+01  1.82320E+01  1.86127E+01  1.93579E+01  1.62942E+01  9.65786E+00
   6.73959E+00  8.06893E+00  8.51438E+00  8.57875E+00  8.64108E+00  8.65295E+00  8.58901E+00  8.51500E+00  8.50478E+00  8.56986E+00
   8.76270E+00  9.18761E+00  1.05572E+01  1.35357E+01  1.61186E+01  1.67464E+01  1.63519E+01  1.59680E+01  1.62337E+01  1.73400E+01
   1.64496E+01  1.18449E+01  8.01327E+00  7.81294E+00  7.53154E+00  7.39234E+00  7.46022E+00  7.02933E+00  6.57948E+00  7.19906E+00
   8.30589E+00  9.09665E+00  9.79466E+00  1.00756E+01  9.73236E+00  9.13289E+00  8.28384E+00  7.87937E+00  7.81728E+00  7.69762E+00
   7.55534E+00  7.42724E+00  7.34439E+00  7.26665E+00  7.23256E+00  7.26720E+00  7.25557E+00  7.19516E+00  7.18060E+00  7.23549E+00
   7.22721E+00  7.14622E+00  7.10352E+00  7.04559E+00  7.01283E+00  7.06260E+00  7.13751E+00  7.15372E+00  7.11985E+00  7.07020E+00
   7.03829E+00  7.02107E+00  6.91105E+00  6.76879E+00  6.69681E+00  6.68703E+00  6.64682E+00  6.50265E+00  6.31678E+00  6.24829E+00
   6.32088E+00  6.31224E+00  6.11397E+00  5.85302E+00  5.75621E+00  5.99328E+00  6.59331E+00  7.24610E+00  7.81151E+00  8.28214E+00
   8.52007E+00  8.49233E+00  8.39438E+00  7.82253E+00  6.71576E+00  5.79413E+00  5.45295E+00  5.61530E+00  6.03862E+00  6.29675E+00
   6.63668E+00  7.64885E+00  8.90269E+00  9.11063E+00  8.43336E+00  8.11069E+00  7.90714E+00  7.53091E+00  7.09496E+00  6.71284E+00
   6.51632E+00  6.79942E+00  7.82777E+00  8.99803E+00  9.57563E+00  9.73621E+00  9.40792E+00  8.87115E+00  8.06948E+00  6.48290E+00
   4.07399E+00  2.19747E+00  2.38432E+00  3.52936E+00  4.19772E+00  4.77341E+00  5.98533E+00  7.76296E+00  8.50407E+00  7.79502E+00
   7.15475E+00  7.24342E+00  7.41069E+00  7.65996E+00  8.02930E+00  8.47280E+00  8.74863E+00  8.14593E+00  7.07574E+00  6.25374E+00
   5.37680E+00  4.34208E+00  3.79239E+00  4.39711E+00  5.64145E+00  6.61057E+00  7.17291E+00  7.63585E+00  8.12021E+00  7.68726E+00
   6.64898E+00  6.15589E+00  6.11410E+00  5.88352E+00  5.70540E+00  6.02436E+00  7.50800E+00  1.00898E+01  1.19137E+01  1.22821E+01
   1.20011E+01  1.16628E+01  1.19052E+01  1.27429E+01  1.16999E+01  8.18652E+00  6.00773E+00  6.31716E+00  6.22787E+00  5.91902E+00
   5.93915E+00  6.12159E+00  6.10743E+00  6.14743E+00  6.21934E+00  6.28358E+00  6.38235E+00  6.46965E+00  6.39576E+00  6.22826E+00
   6.10221E+00  6.01874E+00  5.95400E+00  5.89843E+00  5.85529E+00  5.85167E+00  5.86544E+00  5.84435E+00  5.81865E+00  5.79424E+00
   5.75741E+00  5.71294E+00  5.67554E+00  5.64581E+00  5.61278E+00  5.57636E+00  5.54569E+00  5.51590E+00  5.48289E+00  5.45261E+00
   5.42464E+00  5.39742E+00  5.36972E+00  5.34161E+00  5.31394E+00  5.28804E+00  5.26485E+00  5.24272E+00  5.21988E+00  5.19905E+00
   5.18370E+00  5.17364E+00  5.16933E+00  5.17204E+00  5.18423E+00  5.20940E+00  5.25276E+00  5.32200E+00  5.42895E+00  5.59389E+00
   5.85598E+00  6.30517E+00  7.23119E+00  8.86429E+00  9.52124E+00  8.14870E+00  6.05920E+00  4.29718E+00  2.94030E+00  1.73089E+00
  -1.05376E+00 -4.39873E+00 -4.06224E+00  1.51107E-01  2.98711E+00  4.09208E+00  4.79046E+00  6.48226E+00  9.20243E+00  9.68287E+00
   6.75856E+00  4.82107E+00  4.57902E+00  4.43630E+00  4.29661E+00  4.07281E+00  3.79105E+00  3.53226E+00  3.31196E+00  3.12500E+00
   2.90103E+00  2.62349E+00  2.46319E+00  2.54332E+00  2.65844E+00  2.65035E+00  2.60998E+00  2.62514E+00  2.70096E+00  2.65438E+00
   2.41358E+00  2.22541E+00  2.13814E+00  2.05463E+00  1.97201E+00  1.89161E+00  1.81323E+00  1.73655E+00  1.66120E+00  1.58685E+00
   1.51323E+00  1.44025E+00  1.36786E+00  1.29604E+00  1.22463E+00  1.15351E+00  1.08261E+00  1.01196E+00  9.41606E-01  8.71521E-01
   8.01608E-01  7.31783E-01  6.62054E-01  5.92488E-01  5.23124E-01  4.53918E-01  3.84782E-01  3.15680E-01  2.46661E-01  1.77796E-01
   1.09097E-01  4.04984E-02 -2.80662E-02 -9.65907E-02 -1.65005E-01 -2.33256E-01 -3.01365E-01 -3.69406E-01 -4.37413E-01 -5.05348E-01
  -5.73135E-01 -6.40753E-01 -7.08248E-01 -7.75682E-01 -8.43053E-01 -9.10297E-01 -9.77358E-01 -1.04425E+00 -1.11102E+00 -1.17773E+00
  -1.24435E+00 -1.31081E+00 -1.37710E+00 -1.44325E+00 -1.50931E+00 -1.57531E+00 -1.64120E+00 -1.70693E+00 -1.77250E+00 -1.83796E+00
  -1.90336E+00 -1.96869E+00 -2.03390E+00 -2.09894E+00 -2.16386E+00 -2.22869E+00 -2.29348E+00 -2.35817E+00 -2.42273E+00 -2.48715E+00
  -2.55146E+00 -2.61571E+00 -2.67991E+00 -2.74400E+00 -2.80796E+00 -2.87178E+00 -2.93553E+00 -2.99924E+00 -3.06288E+00 -3.12640E+00
  -3.18979E+00 -3.25308E+00 -3.31631E+00 -3.37950E+00 -3.44261E+00 -3.50560E+00 -3.56845E+00 -3.63124E+00 -3.69399E+00 -3.75669E+00
  -3.81929E+00 -3.88177E+00 -3.94416E+00 -4.00649E+00 -4.06878E+00 -4.13101E+00 -4.19313E+00 -4.25514E+00 -4.31708E+00 -4.37899E+00
  -4.44087E+00 -4.50268E+00 -4.56439E+00 -4.62602E+00 -4.68761E+00 -4.74919E+00 -4.81073E+00 -4.87220E+00 -4.93358E+00 -4.99491E+00
  -5.05622E+00 -5.11753E+00 -5.17880E+00 -5.23999E+00 -5.30111E+00 -5.36221E+00 -5.42331E+00 -5.48441E+00 -5.54546E+00 -5.60645E+00
  -5.66740E+00 -5.72836E+00 -5.78934E+00 -5.85032E+00 -5.91125E+00 -5.97214E+00 -6.03302E+00 -6.09394E+00 -6.15489E+00 -6.21584E+00
  -6.27676E+00 -6.33766E+00 -6.39860E+00 -6.45960E+00 -6.52065E+00 -6.58171E+00 -6.64278E+00 -6.70387E+00
 NY background values follow
     1.287E+01    1.283E+01    1.278E+01    1.274E+01    1.270E+01    1.266E+01    1.262E+01    1.257E+01    1.253E+01    1.249E+01
     1.245E+01    1.241E+01    1.236E+01    1.232E+01    1.228E+01    1.224E+01    1.220E+01    1.215E+01    1.211E+01    1.207E+01
     1.203E+01    1.199E+01    1.194E+01    1.190E+01    1.186E+01    1.182E+01    1.178E+01    1.173E+01    1.169E+01    1.165E+01
     1.161E+01    1.157E+01    1.153E+01    1.148E+01    1.144E+01    1.140E+01    1.136E+01    1.132E+01    1.128E+01    1.124E+01
     1.120E+01    1.115E+01    1.111E+01    1.107E+01    1.103E+01    1.099E+01    1.095E+01    1.091E+01    1.087E+01    1.083E+01
     1.079E+01    1.075E+01    1.071E+01    1.067E+01    1.063E+01    1.059E+01    1.055E+01    1.051E+01    1.047E+01    1.043E+01
     1.039E+01    1.035E+01    1.031E+01    1.028E+01    1.024E+01    1.020E+01    1.016E+01    1.012E+01    1.008E+01    1.005E+01
     1.001E+01    9.972E+00    9.935E+00    9.898E+00    9.861E+00    9.824E+00    9.787E+00    9.751E+00    9.715E+00    9.679E+00
     9.643E+00    9.607E+00    9.572E+00    9.536E+00    9.501E+00    9.467E+00    9.432E+00    9.398E+00    9.363E+00    9.329E+00
     9.296E+00    9.262E+00    9.229E+00    9.196E+00    9.163E+00    9.130E+00    9.098E+00    9.065E+00    9.033E+00    9.002E+00
     8.970E+00    8.939E+00    8.908E+00    8.877E+00    8.846E+00    8.816E+00    8.786E+00    8.756E+00    8.726E+00    8.696E+00
     8.667E+00    8.638E+00    8.609E+00    8.581E+00    8.552E+00    8.524E+00    8.496E+00    8.469E+00    8.441E+00    8.414E+00
     8.387E+00    8.360E+00    8.334E+00    8.307E+00    8.281E+00    8.255E+00    8.230E+00    8.204E+00    8.179E+00    8.154E+00
     8.130E+00    8.105E+00    8.081E+00    8.057E+00    8.033E+00    8.010E+00    7.986E+00    7.963E+00    7.941E+00    7.918E+00
     7.896E+00    7.873E+00    7.852E+00    7.830E+00    7.808E+00    7.787E+00    7.766E+00    7.745E+00    7.725E+00    7.704E+00
     7.684E+00    7.664E+00    7.645E+00    7.625E+00    7.606E+00    7.587E+00    7.568E+00    7.549E+00    7.531E+00    7.512E+00
     7.494E+00    7.476E+00    7.459E+00    7.441E+00    7.424E+00    7.407E+00    7.390E+00    7.373E+00    7.357E+00    7.340E+00
     7.324E+00    7.308E+00    7.292E+00    7.277E+00    7.261E+00    7.246E+00    7.231E+00    7.216E+00    7.202E+00    7.187E+00
     7.173E+00    7.158E+00    7.144E+00    7.131E+00    7.117E+00    7.103E+00    7.090E+00    7.077E+00    7.064E+00    7.051E+00
     7.038E+00    7.025E+00    7.013E+00    7.000E+00    6.988E+00    6.976E+00    6.964E+00    6.952E+00    6.940E+00    6.928E+00
     6.916E+00    6.905E+00    6.893E+00    6.882E+00    6.870E+00    6.859E+00    6.847E+00    6.836E+00    6.825E+00    6.814E+00
     6.803E+00    6.792E+00    6.781E+00    6.770E+00    6.759E+00    6.748E+00    6.737E+00    6.726E+00    6.715E+00    6.704E+00
     6.693E+00    6.682E+00    6.671E+00    6.660E+00    6.649E+00    6.638E+00    6.627E+00    6.616E+00    6.605E+00    6.594E+00
     6.583E+00    6.571E+00    6.560E+00    6.549E+00    6.537E+00    6.525E+00    6.514E+00    6.502E+00    6.490E+00    6.477E+00
     6.465E+00    6.453E+00    6.440E+00    6.427E+00    6.414E+00    6.401E+00    6.387E+00    6.374E+00    6.360E+00    6.345E+00
     6.331E+00    6.316E+00    6.302E+00    6.286E+00    6.271E+00    6.255E+00    6.239E+00    6.223E+00    6.206E+00    6.189E+00
     6.172E+00    6.154E+00    6.136E+00    6.118E+00    6.099E+00    6.080E+00    6.061E+00    6.041E+00    6.020E+00    6.000E+00
     5.978E+00    5.957E+00    5.935E+00    5.912E+00    5.889E+00    5.866E+00    5.842E+00    5.818E+00    5.793E+00    5.768E+00
     5.742E+00    5.716E+00    5.689E+00    5.662E+00    5.634E+00    5.606E+00    5.578E+00    5.548E+00    5.519E+00    5.488E+00
     5.458E+00    5.426E+00    5.394E+00    5.362E+00    5.329E+00    5.296E+00    5.262E+00    5.227E+00    5.192E+00    5.156E+00
     5.120E+00    5.083E+00    5.046E+00    5.008E+00    4.969E+00    4.930E+00    4.890E+00    4.850E+00    4.809E+00    4.767E+00
     4.725E+00    4.682E+00    4.638E+00    4.594E+00    4.550E+00    4.504E+00    4.458E+00    4.412E+00    4.364E+00    4.316E+00
     4.268E+00    4.218E+00    4.169E+00    4.118E+00    4.067E+00    4.016E+00    3.964E+00    3.911E+00    3.858E+00    3.804E+00
     3.750E+00    3.696E+00    3.641E+00    3.585E+00    3.529E+00    3.472E+00    3.415E+00    3.358E+00    3.300E+00    3.242E+00
     3.183E+00    3.124E+00    3.065E+00    3.005E+00    2.945E+00    2.884E+00    2.823E+00    2.762E+00    2.701E+00    2.639E+00
     2.577E+00    2.514E+00    2.452E+00    2.389E+00    2.326E+00    2.262E+00    2.199E+00    2.135E+00    2.071E+00    2.007E+00
     1.942E+00    1.878E+00    1.813E+00    1.748E+00    1.683E+00    1.618E+00    1.552E+00    1.487E+00    1.421E+00    1.356E+00
     1.290E+00    1.224E+00    1.158E+00    1.092E+00    1.026E+00    9.593E-01    8.930E-01    8.265E-01    7.600E-01    6.934E-01
     6.268E-01    5.601E-01    4.934E-01    4.266E-01    3.598E-01    2.930E-01    2.262E-01    1.593E-01    9.244E-02    2.556E-02
    -4.132E-02   -1.082E-01   -1.750E-01   -2.419E-01   -3.087E-01   -3.755E-01   -4.422E-01   -5.090E-01   -5.756E-01   -6.422E-01
    -7.088E-01   -7.753E-01   -8.417E-01   -9.081E-01   -9.743E-01   -1.041E+00   -1.107E+00   -1.173E+00   -1.238E+00   -1.304E+00
    -1.370E+00   -1.436E+00   -1.501E+00   -1.566E+00   -1.632E+00   -1.697E+00   -1.762E+00   -1.827E+00   -1.892E+00   -1.957E+00
    -2.022E+00   -2.086E+00   -2.151E+00   -2.215E+00   -2.280E+00   -2.344E+00   -2.408E+00   -2.472E+00   -2.536E+00   -2.600E+00
    -2.664E+00   -2.727E+00   -2.791E+00   -2.855E+00   -2.918E+00   -2.981E+00   -3.045E+00   -3.108E+00   -3.171E+00   -3.234E+00
    -3.297E+00   -3.360E+00   -3.423E+00   -3.485E+00   -3.548E+00   -3.611E+00   -3.673E+00   -3.735E+00   -3.798E+00   -3.860E+00
    -3.922E+00   -3.984E+00   -4.046E+00   -4.108E+00   -4.170E+00   -4.232E+00   -4.293E+00   -4.355E+00   -4.417E+00   -4.478E+00
    -4.539E+00   -4.601E+00   -4.662E+00   -4.723E+00   -4.785E+00   -4.846E+00   -4.907E+00   -4.968E+00   -5.029E+00   -5.090E+00
    -5.150E+00   -5.211E+00   -5.272E+00   -5.333E+00   -5.393E+00   -5.454E+00   -5.515E+00   -5.575E+00   -5.636E+00   -5.696E+00
    -5.757E+00   -5.817E+00   -5.877E+00   -5.938E+00   -5.998E+00   -6.058E+00   -6.119E+00   -6.179E+00   -6.239E+00   -6.299E+00
    -6.360E+00   -6.420E+00   -6.480E+00   -6.540E+00   -6.600E+00   -6.660E+00   -6.720E+00   -6.781E+00
 Ala      Conc. = 4.18E+02
