 LCModel (Version 6.3-1L) Copyright: S.W. Provencher.          Ref.: Magn. Reson. Med. 30:672-679 (1993).                
 Slice#2 Row#4 Col#3  PD_24_press_2_raw_act
 36 lines in following concentration table = NCONC+1
    Conc.  %SD /Cr+PCr  Metabolite                                         
  400.702 114%   0.155 Ala                                                 
    0.000 999%   0.000 Asp                                                 
 2.58E+03   6%   1.000 Cr                                                  
    0.000 999%   0.000 PCr                                                 
  389.859  80%   0.151 GABA                                                
  291.217 101%   0.113 Glc                                                 
 1.49E+03  84%   0.575 Gln                                                 
 3.88E+03  38%   1.504 Glu                                                 
 1.20E+03   5%   0.464 GPC                                                 
    0.000 999%   0.000 PCh                                                 
 1.18E+03  22%   0.457 GSH                                                 
 3.63E+03  24%   1.405 Ins                                                 
    0.000 999%   0.000 Lac                                                 
 3.41E+03   9%   1.321 NAA                                                 
  754.741  41%   0.292 NAAG                                                
  456.650  15%   0.177 Scyllo                                              
 1.24E+03  36%   0.479 Tau                                                 
  692.487  48%   0.268 -CrCH2                                              
 1.20E+03   5%   0.464 GPC+PCh                                             
 4.16E+03   4%   1.613 NAA+NAAG                                            
 2.58E+03   6%   1.000 Cr+PCr                                              
 5.37E+03  47%   2.079 Glu+Gln                                             
    0.000 999%   0.000 Lip13a                                              
    0.000 999%   0.000 Lip13b                                              
    0.000 999%   0.000 Lip09                                               
 1.75E+03  18%   0.679 MM09                                                
 3.58E-03 999% 1.4E-06 Lip20                                               
 3.32E+03  19%   1.287 MM20                                                
  290.413  66%   0.113 MM12                                                
 1.18E+03  36%   0.459 MM14                                                
 1.78E+03  17%   0.689 MM17                                                
    0.000 999%   0.000 Lip13a+Lip13b                                       
 1.47E+03  35%   0.571 MM14+Lip13a+Lip13b+MM12                             
 1.75E+03  18%   0.679 MM09+Lip09                                          
 3.32E+03  19%   1.287 MM20+Lip20                                          
   6 lines in following misc. output table
  FWHM = 0.092 ppm    S/N =   7                                            
  Data shift = 0.015 ppm                                                   
  Ph: -40 deg     -14.2 deg/ppm                                            
  alphaB,S = 7.5E-01,   1.3E+01                                            
   14 spline knots.   Ns =11(1)                                            
  (16)14 infls.   (15) 9 extrs.                                            
  498 points on ppm-axis = NY
      4.000000     3.992357     3.984714     3.977070     3.969427     3.961784     3.954141     3.946497     3.938854     3.931211
      3.923568     3.915925     3.908281     3.900638     3.892995     3.885352     3.877708     3.870065     3.862422     3.854779
      3.847136     3.839492     3.831849     3.824206     3.816563     3.808919     3.801276     3.793633     3.785990     3.778347
      3.770703     3.763060     3.755417     3.747774     3.740130     3.732487     3.724844     3.717201     3.709558     3.701914
      3.694271     3.686628     3.678985     3.671341     3.663698     3.656055     3.648412     3.640769     3.633125     3.625482
      3.617839     3.610196     3.602552     3.594909     3.587266     3.579623     3.571980     3.564336     3.556693     3.549050
      3.541407     3.533763     3.526120     3.518477     3.510834     3.503191     3.495547     3.487904     3.480261     3.472618
      3.464974     3.457331     3.449688     3.442045     3.434402     3.426758     3.419115     3.411472     3.403829     3.396185
      3.388542     3.380899     3.373256     3.365613     3.357969     3.350326     3.342683     3.335040     3.327396     3.319753
      3.312110     3.304467     3.296824     3.289180     3.281537     3.273894     3.266251     3.258607     3.250964     3.243321
      3.235678     3.228034     3.220391     3.212748     3.205105     3.197462     3.189818     3.182175     3.174532     3.166889
      3.159245     3.151602     3.143959     3.136316     3.128673     3.121029     3.113386     3.105743     3.098100     3.090456
      3.082813     3.075170     3.067527     3.059884     3.052240     3.044597     3.036954     3.029311     3.021667     3.014024
      3.006381     2.998738     2.991095     2.983451     2.975808     2.968165     2.960522     2.952878     2.945235     2.937592
      2.929949     2.922306     2.914662     2.907019     2.899376     2.891733     2.884089     2.876446     2.868803     2.861160
      2.853517     2.845873     2.838230     2.830587     2.822944     2.815300     2.807657     2.800014     2.792371     2.784728
      2.777084     2.769441     2.761798     2.754155     2.746511     2.738868     2.731225     2.723582     2.715939     2.708295
      2.700652     2.693009     2.685366     2.677722     2.670079     2.662436     2.654793     2.647150     2.639506     2.631863
      2.624220     2.616577     2.608933     2.601290     2.593647     2.586004     2.578361     2.570717     2.563074     2.555431
      2.547788     2.540144     2.532501     2.524858     2.517215     2.509572     2.501928     2.494285     2.486642     2.478999
      2.471355     2.463712     2.456069     2.448426     2.440783     2.433139     2.425496     2.417853     2.410210     2.402566
      2.394923     2.387280     2.379637     2.371994     2.364350     2.356707     2.349064     2.341421     2.333777     2.326134
      2.318491     2.310848     2.303205     2.295561     2.287918     2.280275     2.272632     2.264988     2.257345     2.249702
      2.242059     2.234416     2.226772     2.219129     2.211486     2.203843     2.196199     2.188556     2.180913     2.173270
      2.165627     2.157983     2.150340     2.142697     2.135054     2.127410     2.119767     2.112124     2.104481     2.096838
      2.089194     2.081551     2.073908     2.066265     2.058621     2.050978     2.043335     2.035692     2.028049     2.020405
      2.012762     2.005119     1.997476     1.989833     1.982190     1.974546     1.966903     1.959260     1.951617     1.943974
      1.936331     1.928688     1.921045     1.913402     1.905759     1.898115     1.890472     1.882829     1.875186     1.867543
      1.859900     1.852257     1.844614     1.836971     1.829327     1.821684     1.814041     1.806398     1.798755     1.791112
      1.783469     1.775826     1.768183     1.760540     1.752896     1.745253     1.737610     1.729967     1.722324     1.714681
      1.707038     1.699395     1.691752     1.684108     1.676465     1.668822     1.661179     1.653536     1.645893     1.638250
      1.630607     1.622964     1.615321     1.607677     1.600034     1.592391     1.584748     1.577105     1.569462     1.561819
      1.554176     1.546533     1.538890     1.531246     1.523603     1.515960     1.508317     1.500674     1.493031     1.485388
      1.477745     1.470102     1.462458     1.454815     1.447172     1.439529     1.431886     1.424243     1.416600     1.408957
      1.401314     1.393671     1.386027     1.378384     1.370741     1.363098     1.355455     1.347812     1.340169     1.332526
      1.324883     1.317240     1.309596     1.301953     1.294310     1.286667     1.279024     1.271381     1.263738     1.256095
      1.248452     1.240808     1.233165     1.225522     1.217879     1.210236     1.202593     1.194950     1.187307     1.179664
      1.172021     1.164377     1.156734     1.149091     1.141448     1.133805     1.126162     1.118519     1.110876     1.103233
      1.095590     1.087946     1.080303     1.072660     1.065017     1.057374     1.049731     1.042088     1.034445     1.026802
      1.019158     1.011515     1.003872     0.996229     0.988586     0.980943     0.973300     0.965657     0.958014     0.950371
      0.942727     0.935084     0.927441     0.919798     0.912155     0.904512     0.896869     0.889226     0.881583     0.873940
      0.866296     0.858653     0.851010     0.843367     0.835724     0.828081     0.820438     0.812795     0.805152     0.797508
      0.789865     0.782222     0.774579     0.766936     0.759293     0.751650     0.744007     0.736364     0.728721     0.721077
      0.713434     0.705791     0.698148     0.690505     0.682862     0.675219     0.667576     0.659933     0.652290     0.644646
      0.637003     0.629360     0.621717     0.614074     0.606431     0.598788     0.591145     0.583502     0.575858     0.568215
      0.560572     0.552929     0.545286     0.537643     0.530000     0.522357     0.514714     0.507071     0.499427     0.491784
      0.484141     0.476498     0.468855     0.461212     0.453569     0.445925     0.438282     0.430639     0.422996     0.415353
      0.407710     0.400067     0.392424     0.384780     0.377137     0.369494     0.361851     0.354208     0.346565     0.338922
      0.331278     0.323635     0.315992     0.308349     0.300706     0.293063     0.285420     0.277777     0.270133     0.262490
      0.254847     0.247204     0.239561     0.231918     0.224275     0.216631     0.208988     0.201345
 NY phased data points follow
  -1.62407E+02 -1.54861E+02 -1.54505E+02 -1.25932E+02 -1.40495E+02 -1.26513E+02 -1.18496E+02 -1.13367E+02 -1.21919E+02 -1.09666E+02
  -1.05198E+02 -1.08430E+02 -1.12247E+02 -1.11044E+02 -1.13526E+02 -1.12998E+02 -1.17634E+02 -1.07359E+02 -1.17042E+02 -1.22842E+02
  -1.29937E+02 -1.25344E+02 -1.19505E+02 -1.17359E+02 -1.16356E+02 -1.09887E+02 -1.08568E+02 -9.49338E+01 -9.94771E+01 -9.39496E+01
  -9.98106E+01 -9.89607E+01 -9.88072E+01 -1.01615E+02 -1.05830E+02 -9.64140E+01 -1.03163E+02 -9.25472E+01 -9.76247E+01 -9.34840E+01
  -9.18944E+01 -8.98163E+01 -9.17012E+01 -9.05720E+01 -8.64416E+01 -8.70893E+01 -9.16161E+01 -7.62937E+01 -8.21550E+01 -8.82430E+01
  -8.60822E+01 -7.61296E+01 -9.48647E+01 -8.37622E+01 -8.59414E+01 -8.58766E+01 -9.56378E+01 -8.38300E+01 -9.13031E+01 -8.88657E+01
  -8.80569E+01 -8.02274E+01 -9.59268E+01 -7.29925E+01 -7.91093E+01 -8.50772E+01 -8.63954E+01 -8.23746E+01 -7.51853E+01 -7.84951E+01
  -7.74652E+01 -7.70086E+01 -6.69234E+01 -6.37618E+01 -6.82408E+01 -6.35720E+01 -7.26655E+01 -7.49290E+01 -7.22951E+01 -6.07022E+01
  -6.79770E+01 -6.78771E+01 -5.88377E+01 -5.45899E+01 -6.29557E+01 -4.97700E+01 -6.18230E+01 -4.86308E+01 -6.06546E+01 -4.09542E+01
  -5.09327E+01 -4.37813E+01 -3.68386E+01 -5.01449E+01 -3.51445E+01 -3.30721E+01 -2.64631E+01 -7.75708E+00 -1.07253E+01 -1.08024E+01
  -3.22288E+00  5.24417E+00 -7.92607E+00  1.36834E+01  6.74615E+00 -2.74231E+00 -6.95124E+00 -1.37477E+01 -2.73573E+01 -2.63353E+01
  -2.93896E+01 -3.53809E+01 -4.77010E+01 -3.12163E+01 -4.56555E+01 -4.72775E+01 -4.42158E+01 -3.84152E+01 -4.00649E+01 -2.71320E+01
  -2.76699E+01 -1.78373E+01 -1.29009E+01 -3.24877E+00 -4.01699E+00  1.18286E+01  4.51211E+00  3.89721E-01  1.34836E+00 -2.85692E+00
  -7.42737E+00 -1.23706E+01 -1.59221E+01 -3.52941E+01 -3.03701E+01 -3.33327E+01 -3.04615E+01 -4.30131E+01 -3.05442E+01 -3.41519E+01
  -3.65302E+01 -4.93765E+01 -3.64546E+01 -4.04571E+01 -3.07022E+01 -4.59398E+01 -3.92400E+01 -4.01990E+01 -4.77050E+01 -3.78106E+01
  -3.71105E+01 -3.10708E+01 -3.32377E+01 -3.14110E+01 -3.26551E+01 -3.94856E+01 -3.38333E+01 -3.70362E+01 -4.15223E+01 -3.47717E+01
  -3.67872E+01 -3.83210E+01 -4.64217E+01 -3.68302E+01 -3.95151E+01 -3.87856E+01 -4.03455E+01 -4.07674E+01 -4.17611E+01 -3.52595E+01
  -4.70102E+01 -4.57809E+01 -5.13120E+01 -4.22955E+01 -3.56852E+01 -4.17578E+01 -4.46641E+01 -4.72153E+01 -4.47633E+01 -3.99023E+01
  -3.98565E+01 -4.03951E+01 -3.89716E+01 -2.48698E+01 -4.28003E+01 -3.09437E+01 -3.19972E+01 -2.48813E+01 -1.75974E+01 -2.52686E+01
  -2.15480E+01 -1.49336E+01 -1.42024E+01 -1.35076E+01 -1.45652E+01 -1.71109E+01 -1.09573E+01 -1.66026E+01 -1.55597E+01 -1.92981E+01
  -1.63817E+01 -1.65168E+01 -2.38414E+01 -2.32063E+01 -2.12989E+01 -2.46258E+01 -1.18251E+01 -8.23012E+00 -1.37257E+01 -1.18493E+01
  -2.00480E+01 -1.14250E+01 -1.12266E+01 -5.67437E+00 -1.01492E+01 -1.05937E+01 -1.53028E+01 -6.11860E+00 -7.34923E+00 -3.03701E+00
  -1.30978E+01 -7.78324E+00 -1.90619E+01 -1.05530E+01 -6.48132E+00 -1.08323E+01 -3.78663E+00 -6.41214E+00  1.67204E+00  1.12785E+01
   4.80191E+00 -2.54857E+00 -8.58995E-01  4.01238E+00 -2.93867E+00  4.67059E+00 -4.82985E+00  5.44412E+00  5.44142E+00  1.25524E+01
   6.40918E+00  6.86558E+00  9.65094E+00  1.56985E+01  9.92493E+00  1.09507E+01  1.17252E+01  1.36193E+01  2.48960E+01  2.37944E+01
   2.64545E+01  4.52579E+01  3.60073E+01  5.39661E+01  5.76785E+01  8.39428E+01  7.31939E+01  8.77174E+01  8.46676E+01  8.67170E+01
   8.24845E+01  8.44104E+01  8.59445E+01  7.66844E+01  6.82820E+01  5.65975E+01  4.86923E+01  3.89339E+01  2.88404E+01  2.95936E+01
   1.76500E+01  1.90086E+01  1.65094E+01  5.67980E+00  8.54244E+00  1.20606E+01 -1.14918E+00  4.57025E+00  8.78159E+00  1.51742E+01
   5.04685E+00  8.86047E+00  9.92386E+00  1.54018E+01  2.15675E+01  2.13254E+01  8.59449E+00  6.25848E+00  9.77927E+00  1.16523E+01
   8.30345E+00  2.30357E+01  7.65741E+00  9.30187E+00  9.43585E+00  8.94142E+00  8.33569E+00  1.62509E+01  8.54279E+00  1.91910E+01
   6.32953E+00  9.73372E+00  5.51787E+00  1.44981E+01  4.53147E+00  6.75151E+00  1.54941E+01  1.34871E+01  1.52479E+01  1.76105E+01
   2.84427E+01  2.63838E+01  2.81540E+01  2.27561E+01  1.47057E+01  1.10504E+01  1.37264E+01  1.85303E+01  1.69529E+01  1.25597E+01
   1.47998E+01  1.56834E+01  1.74831E+01  1.28363E+01  1.88626E+00  5.75571E+00  7.71506E+00  3.01724E+00  4.75773E+00  8.47221E+00
   1.24826E+01  1.13533E+01  6.42388E+00  3.39697E+00  9.83282E+00  4.10582E+00  7.67940E+00  7.65297E+00  1.11730E+01  4.06360E+00
   3.15464E+00  4.76599E-01 -9.93303E-01  7.02297E+00  5.51651E+00  3.49096E+00  7.92903E+00  2.23792E+00  1.20999E+01 -3.17704E+00
   4.26312E-01 -3.94422E+00 -3.03021E+00  3.49470E+00  4.71936E+00  2.34385E+00 -4.62103E+00  1.50668E+00 -1.14336E+01  2.57812E+00
  -5.92083E+00 -8.41413E+00 -2.16934E+00 -8.07086E+00 -7.99475E+00 -2.47924E+00 -1.82100E+00  5.06013E+00 -1.20491E+01 -2.10686E+00
  -3.26971E+00 -3.47456E+00 -5.00934E+00  4.54415E+00 -1.15990E+01 -5.77096E+00 -1.08450E+01  8.36333E+00 -2.67598E+00  1.28349E+01
  -1.28382E+00  2.18495E+00 -5.05387E+00 -3.99365E+00 -9.89610E+00  1.53873E+00  1.77548E+00  8.31285E+00  1.35713E+00 -1.34214E+01
   1.27852E-01  8.40904E-01  9.65972E-01  7.32355E+00  3.41140E+00  5.99519E+00  1.09524E-01  6.59501E+00  7.78654E+00  1.24388E+01
   1.35626E+01  1.10695E+01  1.34918E+01  7.24230E+00  1.32467E+01  8.74871E+00  2.21734E+01  1.12013E+01  1.94690E+01  1.79010E+01
   1.27026E+01  2.78955E+01  9.46576E+00  1.39300E+01  1.78613E+01  1.34984E+01  1.08912E+01  1.92380E+01  1.31494E+01  1.00500E+01
   1.18583E+01  5.94833E+00  1.24863E+01  1.44623E+01  2.50102E+01  1.55494E+01  1.96999E+01  9.10038E+00  2.05171E+01  2.94679E+01
   5.94306E+00  1.66057E+01  1.34047E+01  5.21945E+00  9.86056E+00  1.17888E+01  5.13594E+00  1.59680E+01  1.62037E+01  1.19764E+01
   1.87196E+01  1.88404E+01  1.79570E+01  2.80851E+01  2.20966E+01  1.75353E+01  1.72758E+01  2.53490E+01  1.06703E+01  1.93573E+01
   6.71020E+00  1.57252E+01  2.09458E+01  1.18586E+01  1.01477E+01  2.00281E+01  1.44039E+01  9.59725E+00  1.46218E+01  1.62301E+01
   1.21511E+01  9.13592E+00  7.68771E+00  1.07537E+01  1.10766E+01  1.77226E+01  1.14308E+01  1.08058E+01  1.05342E+01  9.16999E+00
   1.22239E+01  1.28826E+01  1.84550E+01  1.32218E+01  6.92361E+00  1.79697E+01  1.94568E+01  9.33707E+00  1.32292E+01  1.45614E+01
   1.99367E+01  1.54992E+01  1.48269E+01  1.75685E+01  1.72960E+01  2.22247E+01  1.31154E+01  1.64063E+01  2.09034E+01  2.16039E+01
   1.62341E+01  1.68698E+01  1.47299E+01  1.68384E+01  1.40777E+01  2.46904E+01  8.86356E+00  1.49405E+01
 NY points of the fit to the data follow
  -1.44065E+02 -1.43892E+02 -1.40968E+02 -1.35707E+02 -1.34190E+02 -1.27320E+02 -1.21764E+02 -1.21130E+02 -1.18403E+02 -1.13454E+02
  -1.13551E+02 -1.11631E+02 -1.08022E+02 -1.08493E+02 -1.10083E+02 -1.10425E+02 -1.13535E+02 -1.17239E+02 -1.17580E+02 -1.18503E+02
  -1.21202E+02 -1.18542E+02 -1.14835E+02 -1.15284E+02 -1.13347E+02 -1.09459E+02 -1.07557E+02 -1.05249E+02 -1.02389E+02 -1.01105E+02
  -1.00570E+02 -9.82249E+01 -9.70959E+01 -9.77215E+01 -9.73966E+01 -9.72642E+01 -9.86953E+01 -9.85345E+01 -9.77168E+01 -9.81925E+01
  -9.61260E+01 -9.21817E+01 -9.10012E+01 -9.08315E+01 -8.91383E+01 -8.79422E+01 -8.80114E+01 -8.71638E+01 -8.61316E+01 -8.66989E+01
  -8.68405E+01 -8.73054E+01 -8.85757E+01 -8.85473E+01 -8.84545E+01 -8.87578E+01 -8.83984E+01 -8.70772E+01 -8.61775E+01 -8.58346E+01
  -8.54193E+01 -8.41817E+01 -8.35400E+01 -8.24625E+01 -8.17140E+01 -8.07854E+01 -7.98545E+01 -7.83264E+01 -7.74869E+01 -7.62112E+01
  -7.44568E+01 -7.36215E+01 -7.34384E+01 -7.26860E+01 -7.19209E+01 -7.16578E+01 -6.96247E+01 -6.83481E+01 -6.76199E+01 -6.51383E+01
  -6.46946E+01 -6.23089E+01 -6.07158E+01 -6.02194E+01 -5.94972E+01 -5.73647E+01 -5.74430E+01 -5.65365E+01 -5.56032E+01 -5.64585E+01
  -5.64140E+01 -5.30057E+01 -4.91981E+01 -4.68628E+01 -3.78698E+01 -2.99874E+01 -2.56307E+01 -1.04069E+01 -6.17183E+00 -6.25345E+00
  -1.48007E-01  4.76742E+00  1.59521E+00  5.72290E+00  5.87755E+00 -1.36613E+00 -7.58680E+00 -1.34881E+01 -2.43172E+01 -3.18444E+01
  -3.45240E+01 -4.15161E+01 -4.63012E+01 -4.32854E+01 -4.52337E+01 -4.89985E+01 -4.61401E+01 -4.37762E+01 -3.89235E+01 -2.99140E+01
  -2.64604E+01 -1.60525E+01 -9.39826E+00 -7.88643E+00 -4.72247E+00  1.94931E+00  6.93835E-01  1.92110E+00  4.46313E+00  8.41655E-01
  -5.62215E+00 -9.60649E+00 -1.63976E+01 -2.44173E+01 -2.66083E+01 -3.02688E+01 -3.57302E+01 -3.46919E+01 -3.43877E+01 -3.88953E+01
  -4.07059E+01 -4.03566E+01 -3.98393E+01 -3.93297E+01 -3.86124E+01 -3.84976E+01 -3.87700E+01 -3.88335E+01 -3.89521E+01 -3.90142E+01
  -3.88470E+01 -3.87900E+01 -3.87169E+01 -3.87661E+01 -3.87622E+01 -3.89226E+01 -3.90620E+01 -3.86132E+01 -3.84223E+01 -3.83047E+01
  -3.79548E+01 -3.79810E+01 -3.82086E+01 -3.79888E+01 -3.79554E+01 -3.81143E+01 -3.78729E+01 -3.76789E+01 -3.79552E+01 -3.80685E+01
  -3.80497E+01 -3.85176E+01 -3.82888E+01 -3.79463E+01 -3.79233E+01 -3.77483E+01 -3.73808E+01 -3.74769E+01 -3.69943E+01 -3.63297E+01
  -3.55546E+01 -3.44701E+01 -3.32202E+01 -3.18131E+01 -3.02263E+01 -2.86993E+01 -2.74221E+01 -2.62709E+01 -2.53914E+01 -2.41827E+01
  -2.33042E+01 -2.21925E+01 -2.16344E+01 -2.05435E+01 -1.92409E+01 -1.82558E+01 -1.75989E+01 -1.66986E+01 -1.60030E+01 -1.57136E+01
  -1.47937E+01 -1.44373E+01 -1.50940E+01 -1.44606E+01 -1.48926E+01 -1.50691E+01 -1.41374E+01 -1.35424E+01 -1.31537E+01 -1.25600E+01
  -1.11172E+01 -1.11661E+01 -1.15057E+01 -1.10907E+01 -1.07512E+01 -1.11687E+01 -1.06084E+01 -1.06758E+01 -1.11052E+01 -1.02813E+01
  -1.13595E+01 -1.24442E+01 -1.18165E+01 -1.12090E+01 -1.07974E+01 -9.20791E+00 -6.60604E+00 -3.87808E+00 -2.05427E+00 -4.59413E-01
   4.60885E-01  1.86778E+00  2.66308E+00  2.54740E+00  2.68273E+00  3.79842E+00  4.73273E+00  4.28674E+00  4.64073E+00  5.19313E+00
   5.70830E+00  5.29339E+00  5.71910E+00  5.93949E+00  6.69210E+00  8.95044E+00  1.09498E+01  1.31695E+01  1.78043E+01  2.36492E+01
   3.15935E+01  3.68928E+01  4.59201E+01  5.55934E+01  6.25396E+01  7.63905E+01  8.15617E+01  8.28238E+01  8.70138E+01  9.02405E+01
   8.48182E+01  8.53908E+01  8.31990E+01  7.49842E+01  6.63253E+01  5.84160E+01  4.71317E+01  3.81361E+01  3.32604E+01  2.51323E+01
   1.89644E+01  2.09483E+01  1.84955E+01  1.21374E+01  9.84463E+00  9.30575E+00  8.72746E+00  8.38417E+00  8.23527E+00  7.86098E+00
   7.49991E+00  7.25814E+00  6.98939E+00  6.75682E+00  6.74143E+00  6.69927E+00  6.67448E+00  6.74505E+00  6.78438E+00  6.86005E+00
   7.06940E+00  7.26607E+00  7.49595E+00  7.84704E+00  8.25383E+00  8.67777E+00  9.17877E+00  9.73687E+00  1.03141E+01  1.09282E+01
   1.15853E+01  1.22455E+01  1.29117E+01  1.35726E+01  1.41870E+01  1.47379E+01  1.52088E+01  1.55943E+01  1.58841E+01  1.60507E+01
   1.61076E+01  1.60680E+01  1.59256E+01  1.56989E+01  1.54186E+01  1.51334E+01  1.48984E+01  1.44799E+01  1.40422E+01  1.37815E+01
   1.30924E+01  1.25879E+01  1.18979E+01  1.06843E+01  9.87214E+00  9.39142E+00  8.33455E+00  7.78368E+00  7.45919E+00  6.76541E+00
   6.58207E+00  6.37710E+00  5.91822E+00  5.85862E+00  6.18490E+00  6.14470E+00  6.33236E+00  6.85646E+00  6.94302E+00  6.58451E+00
   6.36362E+00  5.94771E+00  5.49560E+00  5.20167E+00  4.58093E+00  3.99837E+00  3.83509E+00  3.47823E+00  2.91006E+00  2.45815E+00
   2.09235E+00  1.77745E+00  1.50127E+00  1.25824E+00  1.04463E+00  8.57902E-01  6.95693E-01  5.56114E-01  4.36943E-01  3.36239E-01
   2.51785E-01  1.81914E-01  1.24884E-01  7.93749E-02  4.36504E-02  1.66106E-02 -2.95666E-03 -1.54049E-02 -2.11772E-02 -2.00177E-02
  -1.19791E-02  3.60817E-03  2.71562E-02  5.99141E-02  1.02756E-01  1.57139E-01  2.23983E-01  3.04923E-01  4.01155E-01  5.14659E-01
   6.46859E-01  7.99828E-01  9.75066E-01  1.17497E+00  1.40151E+00  1.65753E+00  1.94526E+00  2.26770E+00  2.62718E+00  3.02687E+00
   3.46908E+00  3.95662E+00  4.49088E+00  5.07334E+00  5.70371E+00  6.38143E+00  7.10362E+00  7.86653E+00  8.66361E+00  9.48722E+00
   1.03270E+01  1.11716E+01  1.20075E+01  1.28206E+01  1.35952E+01  1.43166E+01  1.49697E+01  1.55419E+01  1.60214E+01  1.63998E+01
   1.66708E+01  1.68324E+01  1.68852E+01  1.68342E+01  1.66864E+01  1.64525E+01  1.61444E+01  1.57765E+01  1.53633E+01  1.49203E+01
   1.44612E+01  1.40001E+01  1.35483E+01  1.31166E+01  1.27129E+01  1.23440E+01  1.20137E+01  1.17252E+01  1.14789E+01  1.12752E+01
   1.11122E+01  1.09883E+01  1.09002E+01  1.08454E+01  1.08201E+01  1.08219E+01  1.08468E+01  1.08926E+01  1.09557E+01  1.10342E+01
   1.11254E+01  1.12279E+01  1.13391E+01  1.14582E+01  1.15831E+01  1.17132E+01  1.18468E+01  1.19838E+01  1.21226E+01  1.22632E+01
   1.24041E+01  1.25456E+01  1.26866E+01  1.28273E+01  1.29667E+01  1.31054E+01  1.32426E+01  1.33791E+01  1.35139E+01  1.36478E+01
   1.37799E+01  1.39110E+01  1.40403E+01  1.41687E+01  1.42954E+01  1.44211E+01  1.45451E+01  1.46683E+01  1.47898E+01  1.49107E+01
   1.50301E+01  1.51488E+01  1.52661E+01  1.53829E+01  1.54985E+01  1.56138E+01  1.57280E+01  1.58419E+01  1.59549E+01  1.60679E+01
   1.61801E+01  1.62926E+01  1.64043E+01  1.65164E+01  1.66280E+01  1.67402E+01  1.68521E+01  1.69648E+01  1.70774E+01  1.71908E+01
   1.73044E+01  1.74191E+01  1.75342E+01  1.76506E+01  1.77675E+01  1.78860E+01  1.80053E+01  1.81265E+01
 NY background values follow
    -1.592E+02   -1.582E+02   -1.571E+02   -1.561E+02   -1.550E+02   -1.539E+02   -1.529E+02   -1.518E+02   -1.508E+02   -1.497E+02
    -1.487E+02   -1.476E+02   -1.466E+02   -1.455E+02   -1.445E+02   -1.434E+02   -1.424E+02   -1.413E+02   -1.403E+02   -1.392E+02
    -1.382E+02   -1.371E+02   -1.361E+02   -1.351E+02   -1.340E+02   -1.330E+02   -1.320E+02   -1.309E+02   -1.299E+02   -1.289E+02
    -1.279E+02   -1.269E+02   -1.258E+02   -1.248E+02   -1.238E+02   -1.228E+02   -1.218E+02   -1.208E+02   -1.198E+02   -1.188E+02
    -1.178E+02   -1.168E+02   -1.159E+02   -1.149E+02   -1.139E+02   -1.129E+02   -1.120E+02   -1.110E+02   -1.101E+02   -1.091E+02
    -1.081E+02   -1.072E+02   -1.063E+02   -1.053E+02   -1.044E+02   -1.035E+02   -1.026E+02   -1.016E+02   -1.007E+02   -9.982E+01
    -9.891E+01   -9.802E+01   -9.713E+01   -9.624E+01   -9.536E+01   -9.448E+01   -9.361E+01   -9.275E+01   -9.189E+01   -9.103E+01
    -9.019E+01   -8.934E+01   -8.851E+01   -8.768E+01   -8.685E+01   -8.603E+01   -8.522E+01   -8.441E+01   -8.361E+01   -8.282E+01
    -8.203E+01   -8.125E+01   -8.047E+01   -7.970E+01   -7.894E+01   -7.818E+01   -7.743E+01   -7.669E+01   -7.595E+01   -7.523E+01
    -7.450E+01   -7.379E+01   -7.308E+01   -7.238E+01   -7.168E+01   -7.099E+01   -7.031E+01   -6.964E+01   -6.897E+01   -6.831E+01
    -6.765E+01   -6.700E+01   -6.636E+01   -6.572E+01   -6.509E+01   -6.446E+01   -6.384E+01   -6.323E+01   -6.262E+01   -6.202E+01
    -6.142E+01   -6.083E+01   -6.024E+01   -5.966E+01   -5.909E+01   -5.852E+01   -5.795E+01   -5.739E+01   -5.684E+01   -5.629E+01
    -5.574E+01   -5.520E+01   -5.466E+01   -5.413E+01   -5.360E+01   -5.308E+01   -5.256E+01   -5.205E+01   -5.154E+01   -5.103E+01
    -5.053E+01   -5.003E+01   -4.953E+01   -4.904E+01   -4.856E+01   -4.807E+01   -4.759E+01   -4.712E+01   -4.664E+01   -4.617E+01
    -4.571E+01   -4.524E+01   -4.478E+01   -4.433E+01   -4.387E+01   -4.342E+01   -4.297E+01   -4.252E+01   -4.208E+01   -4.164E+01
    -4.120E+01   -4.076E+01   -4.032E+01   -3.989E+01   -3.946E+01   -3.903E+01   -3.860E+01   -3.817E+01   -3.775E+01   -3.732E+01
    -3.690E+01   -3.648E+01   -3.606E+01   -3.564E+01   -3.522E+01   -3.480E+01   -3.439E+01   -3.397E+01   -3.355E+01   -3.314E+01
    -3.272E+01   -3.231E+01   -3.189E+01   -3.148E+01   -3.107E+01   -3.065E+01   -3.024E+01   -2.982E+01   -2.941E+01   -2.899E+01
    -2.857E+01   -2.816E+01   -2.774E+01   -2.732E+01   -2.690E+01   -2.648E+01   -2.606E+01   -2.564E+01   -2.522E+01   -2.480E+01
    -2.438E+01   -2.396E+01   -2.355E+01   -2.313E+01   -2.271E+01   -2.229E+01   -2.187E+01   -2.146E+01   -2.104E+01   -2.063E+01
    -2.022E+01   -1.981E+01   -1.940E+01   -1.899E+01   -1.858E+01   -1.817E+01   -1.777E+01   -1.737E+01   -1.697E+01   -1.657E+01
    -1.618E+01   -1.578E+01   -1.539E+01   -1.500E+01   -1.462E+01   -1.424E+01   -1.386E+01   -1.348E+01   -1.311E+01   -1.274E+01
    -1.237E+01   -1.200E+01   -1.164E+01   -1.129E+01   -1.093E+01   -1.058E+01   -1.024E+01   -9.895E+00   -9.557E+00   -9.223E+00
    -8.893E+00   -8.568E+00   -8.247E+00   -7.930E+00   -7.617E+00   -7.309E+00   -7.005E+00   -6.705E+00   -6.410E+00   -6.119E+00
    -5.833E+00   -5.552E+00   -5.275E+00   -5.003E+00   -4.736E+00   -4.474E+00   -4.216E+00   -3.964E+00   -3.716E+00   -3.473E+00
    -3.236E+00   -3.003E+00   -2.776E+00   -2.554E+00   -2.337E+00   -2.125E+00   -1.919E+00   -1.718E+00   -1.522E+00   -1.332E+00
    -1.147E+00   -9.680E-01   -7.945E-01   -6.267E-01   -4.645E-01   -3.081E-01   -1.575E-01   -1.265E-02    1.263E-01    2.593E-01
     3.863E-01    5.073E-01    6.223E-01    7.312E-01    8.342E-01    9.313E-01    1.023E+00    1.108E+00    1.188E+00    1.262E+00
     1.331E+00    1.394E+00    1.452E+00    1.504E+00    1.551E+00    1.593E+00    1.630E+00    1.662E+00    1.688E+00    1.710E+00
     1.726E+00    1.738E+00    1.745E+00    1.748E+00    1.745E+00    1.738E+00    1.727E+00    1.711E+00    1.691E+00    1.666E+00
     1.637E+00    1.604E+00    1.567E+00    1.525E+00    1.480E+00    1.431E+00    1.377E+00    1.320E+00    1.260E+00    1.195E+00
     1.127E+00    1.056E+00    9.805E-01    9.020E-01    8.201E-01    7.349E-01    6.465E-01    5.549E-01    4.603E-01    3.630E-01
     2.631E-01    1.609E-01    5.657E-02   -4.961E-02   -1.574E-01   -2.667E-01   -3.771E-01   -4.886E-01   -6.008E-01   -7.135E-01
    -8.265E-01   -9.396E-01   -1.053E+00   -1.165E+00   -1.277E+00   -1.388E+00   -1.499E+00   -1.608E+00   -1.715E+00   -1.821E+00
    -1.924E+00   -2.026E+00   -2.125E+00   -2.222E+00   -2.316E+00   -2.407E+00   -2.494E+00   -2.578E+00   -2.659E+00   -2.735E+00
    -2.807E+00   -2.875E+00   -2.938E+00   -2.997E+00   -3.050E+00   -3.098E+00   -3.140E+00   -3.177E+00   -3.208E+00   -3.233E+00
    -3.251E+00   -3.263E+00   -3.267E+00   -3.265E+00   -3.256E+00   -3.241E+00   -3.219E+00   -3.190E+00   -3.155E+00   -3.114E+00
    -3.066E+00   -3.013E+00   -2.953E+00   -2.888E+00   -2.816E+00   -2.740E+00   -2.657E+00   -2.569E+00   -2.476E+00   -2.378E+00
    -2.274E+00   -2.165E+00   -2.052E+00   -1.933E+00   -1.810E+00   -1.682E+00   -1.550E+00   -1.413E+00   -1.271E+00   -1.126E+00
    -9.765E-01   -8.229E-01   -6.654E-01   -5.041E-01   -3.391E-01   -1.704E-01    1.770E-03    1.774E-01    3.563E-01    5.384E-01
     7.236E-01    9.118E-01    1.103E+00    1.297E+00    1.493E+00    1.693E+00    1.894E+00    2.098E+00    2.305E+00    2.513E+00
     2.724E+00    2.936E+00    3.150E+00    3.366E+00    3.583E+00    3.802E+00    4.022E+00    4.243E+00    4.465E+00    4.688E+00
     4.912E+00    5.136E+00    5.361E+00    5.586E+00    5.811E+00    6.037E+00    6.262E+00    6.487E+00    6.712E+00    6.937E+00
     7.161E+00    7.384E+00    7.607E+00    7.828E+00    8.049E+00    8.268E+00    8.486E+00    8.703E+00    8.918E+00    9.131E+00
     9.342E+00    9.552E+00    9.759E+00    9.965E+00    1.017E+01    1.037E+01    1.057E+01    1.076E+01    1.095E+01    1.114E+01
     1.133E+01    1.151E+01    1.169E+01    1.187E+01    1.204E+01    1.221E+01    1.238E+01    1.254E+01    1.270E+01    1.286E+01
     1.301E+01    1.316E+01    1.331E+01    1.346E+01    1.360E+01    1.375E+01    1.389E+01    1.403E+01    1.416E+01    1.430E+01
     1.443E+01    1.456E+01    1.469E+01    1.482E+01    1.495E+01    1.507E+01    1.520E+01    1.532E+01    1.544E+01    1.557E+01
     1.569E+01    1.581E+01    1.593E+01    1.605E+01    1.617E+01    1.629E+01    1.640E+01    1.652E+01    1.664E+01    1.676E+01
     1.688E+01    1.700E+01    1.712E+01    1.724E+01    1.737E+01    1.749E+01    1.761E+01    1.774E+01
 Ala      Conc. = 4.01E+02
