 LCModel (Version 6.3-1L) Copyright: S.W. Provencher.          Ref.: Magn. Reson. Med. 30:672-679 (1993).                
 Slice#1 Row#7 Col#4  PD_24_press_2_raw_act
 36 lines in following concentration table = NCONC+1
    Conc.  %SD /Cr+PCr  Metabolite                                         
    0.000 999%   0.000 Ala                                                 
  320.890 124%   0.138 Asp                                                 
 1.95E+03  21%   0.837 Cr                                                  
  378.428 111%   0.163 PCr                                                 
    0.000 999%   0.000 GABA                                                
  114.534 225% 4.9E-02 Glc                                                 
 1.20E+03  40%   0.515 Gln                                                 
 2.57E+03  21%   1.104 Glu                                                 
  623.584   7%   0.268 GPC                                                 
    0.000 999%   0.000 PCh                                                 
  394.192  39%   0.170 GSH                                                 
 1.41E+03  37%   0.605 Ins                                                 
   50.459 508% 2.2E-02 Lac                                                 
 3.83E+03   7%   1.649 NAA                                                 
  464.922  63%   0.200 NAAG                                                
  111.888  47% 4.8E-02 Scyllo                                              
  121.272 306% 5.2E-02 Tau                                                 
  113.463 195% 4.9E-02 -CrCH2                                              
  623.584   7%   0.268 GPC+PCh                                             
 4.30E+03   4%   1.849 NAA+NAAG                                            
 2.32E+03   5%   1.000 Cr+PCr                                              
 3.76E+03  21%   1.620 Glu+Gln                                             
 2.09E+03  30%   0.901 Lip13a                                              
    0.000 999%   0.000 Lip13b                                              
    0.000 999%   0.000 Lip09                                               
 3.54E+03  11%   1.524 MM09                                                
  445.100  52%   0.191 Lip20                                               
 9.23E+03   8%   3.971+MM20                                                
 1.19E+03  23%   0.510 MM12                                                
 4.87E+03   8%   2.093 MM14                                                
    0.000 999%   0.000 MM17                                                
 2.09E+03  30%   0.901 Lip13a+Lip13b                                       
 8.15E+03   8%   3.504 MM14+Lip13a+Lip13b+MM12                             
 3.54E+03  11%   1.524 MM09+Lip09                                          
 9.68E+03   8%   4.163 MM20+Lip20                                          
   6 lines in following misc. output table
  FWHM = 0.054 ppm    S/N =  11                                            
  Data shift = 0.000 ppm                                                   
  Ph: -25 deg      -1.3 deg/ppm                                            
  alphaB,S = 7.0E-01,   1.3E+02                                            
   14 spline knots.   Ns = 7(1)                                            
  ( 9) 2 infls.   ( 7) 1 extrs.                                            
  498 points on ppm-axis = NY
      4.000000     3.992357     3.984714     3.977070     3.969427     3.961784     3.954141     3.946497     3.938854     3.931211
      3.923568     3.915925     3.908281     3.900638     3.892995     3.885352     3.877708     3.870065     3.862422     3.854779
      3.847136     3.839492     3.831849     3.824206     3.816563     3.808919     3.801276     3.793633     3.785990     3.778347
      3.770703     3.763060     3.755417     3.747774     3.740130     3.732487     3.724844     3.717201     3.709558     3.701914
      3.694271     3.686628     3.678985     3.671341     3.663698     3.656055     3.648412     3.640769     3.633125     3.625482
      3.617839     3.610196     3.602552     3.594909     3.587266     3.579623     3.571980     3.564336     3.556693     3.549050
      3.541407     3.533763     3.526120     3.518477     3.510834     3.503191     3.495547     3.487904     3.480261     3.472618
      3.464974     3.457331     3.449688     3.442045     3.434402     3.426758     3.419115     3.411472     3.403829     3.396185
      3.388542     3.380899     3.373256     3.365613     3.357969     3.350326     3.342683     3.335040     3.327396     3.319753
      3.312110     3.304467     3.296824     3.289180     3.281537     3.273894     3.266251     3.258607     3.250964     3.243321
      3.235678     3.228034     3.220391     3.212748     3.205105     3.197462     3.189818     3.182175     3.174532     3.166889
      3.159245     3.151602     3.143959     3.136316     3.128673     3.121029     3.113386     3.105743     3.098100     3.090456
      3.082813     3.075170     3.067527     3.059884     3.052240     3.044597     3.036954     3.029311     3.021667     3.014024
      3.006381     2.998738     2.991095     2.983451     2.975808     2.968165     2.960522     2.952878     2.945235     2.937592
      2.929949     2.922306     2.914662     2.907019     2.899376     2.891733     2.884089     2.876446     2.868803     2.861160
      2.853517     2.845873     2.838230     2.830587     2.822944     2.815300     2.807657     2.800014     2.792371     2.784728
      2.777084     2.769441     2.761798     2.754155     2.746511     2.738868     2.731225     2.723582     2.715939     2.708295
      2.700652     2.693009     2.685366     2.677722     2.670079     2.662436     2.654793     2.647150     2.639506     2.631863
      2.624220     2.616577     2.608933     2.601290     2.593647     2.586004     2.578361     2.570717     2.563074     2.555431
      2.547788     2.540144     2.532501     2.524858     2.517215     2.509572     2.501928     2.494285     2.486642     2.478999
      2.471355     2.463712     2.456069     2.448426     2.440783     2.433139     2.425496     2.417853     2.410210     2.402566
      2.394923     2.387280     2.379637     2.371994     2.364350     2.356707     2.349064     2.341421     2.333777     2.326134
      2.318491     2.310848     2.303205     2.295561     2.287918     2.280275     2.272632     2.264988     2.257345     2.249702
      2.242059     2.234416     2.226772     2.219129     2.211486     2.203843     2.196199     2.188556     2.180913     2.173270
      2.165627     2.157983     2.150340     2.142697     2.135054     2.127410     2.119767     2.112124     2.104481     2.096838
      2.089194     2.081551     2.073908     2.066265     2.058621     2.050978     2.043335     2.035692     2.028049     2.020405
      2.012762     2.005119     1.997476     1.989833     1.982190     1.974546     1.966903     1.959260     1.951617     1.943974
      1.936331     1.928688     1.921045     1.913402     1.905759     1.898115     1.890472     1.882829     1.875186     1.867543
      1.859900     1.852257     1.844614     1.836971     1.829327     1.821684     1.814041     1.806398     1.798755     1.791112
      1.783469     1.775826     1.768183     1.760540     1.752896     1.745253     1.737610     1.729967     1.722324     1.714681
      1.707038     1.699395     1.691752     1.684108     1.676465     1.668822     1.661179     1.653536     1.645893     1.638250
      1.630607     1.622964     1.615321     1.607677     1.600034     1.592391     1.584748     1.577105     1.569462     1.561819
      1.554176     1.546533     1.538890     1.531246     1.523603     1.515960     1.508317     1.500674     1.493031     1.485388
      1.477745     1.470102     1.462458     1.454815     1.447172     1.439529     1.431886     1.424243     1.416600     1.408957
      1.401314     1.393671     1.386027     1.378384     1.370741     1.363098     1.355455     1.347812     1.340169     1.332526
      1.324883     1.317240     1.309596     1.301953     1.294310     1.286667     1.279024     1.271381     1.263738     1.256095
      1.248452     1.240808     1.233165     1.225522     1.217879     1.210236     1.202593     1.194950     1.187307     1.179664
      1.172021     1.164377     1.156734     1.149091     1.141448     1.133805     1.126162     1.118519     1.110876     1.103233
      1.095590     1.087946     1.080303     1.072660     1.065017     1.057374     1.049731     1.042088     1.034445     1.026802
      1.019158     1.011515     1.003872     0.996229     0.988586     0.980943     0.973300     0.965657     0.958014     0.950371
      0.942727     0.935084     0.927441     0.919798     0.912155     0.904512     0.896869     0.889226     0.881583     0.873940
      0.866296     0.858653     0.851010     0.843367     0.835724     0.828081     0.820438     0.812795     0.805152     0.797508
      0.789865     0.782222     0.774579     0.766936     0.759293     0.751650     0.744007     0.736364     0.728721     0.721077
      0.713434     0.705791     0.698148     0.690505     0.682862     0.675219     0.667576     0.659933     0.652290     0.644646
      0.637003     0.629360     0.621717     0.614074     0.606431     0.598788     0.591145     0.583502     0.575858     0.568215
      0.560572     0.552929     0.545286     0.537643     0.530000     0.522357     0.514714     0.507071     0.499427     0.491784
      0.484141     0.476498     0.468855     0.461212     0.453569     0.445925     0.438282     0.430639     0.422996     0.415353
      0.407710     0.400067     0.392424     0.384780     0.377137     0.369494     0.361851     0.354208     0.346565     0.338922
      0.331278     0.323635     0.315992     0.308349     0.300706     0.293063     0.285420     0.277777     0.270133     0.262490
      0.254847     0.247204     0.239561     0.231918     0.224275     0.216631     0.208988     0.201345
 NY phased data points follow
   1.52781E-01  6.24618E-02  1.06819E+01  8.69448E+00  1.49072E+01  1.21473E+01  3.33726E+01  2.99514E+01  2.80908E+01  4.49068E+01
   4.61975E+01  5.42382E+01  5.90290E+01  6.10181E+01  4.99850E+01  3.43668E+01  3.00236E+01  2.46476E+01  1.54893E+01  2.12055E+01
   1.33094E+01  2.03911E+01  1.43069E+01  1.39330E+01  2.03955E+01  9.78662E+00  9.96468E+00  1.53408E+01  9.36763E+00  1.72695E+01
   2.01297E+01  1.68021E+01  2.56696E+01  1.76810E+01  1.12192E+01  7.28489E+00  2.01811E+01  1.72981E+01  9.71618E+00  1.16171E+01
   1.43328E+01  1.14806E+01  8.64723E+00  1.54630E+01  1.31199E+01  1.10076E+01  2.47001E+01  2.35322E+01  1.49614E+01  3.29096E+01
   1.63533E+01  1.74208E+01  1.77558E+01  1.69024E+01  1.33105E+01  1.06308E+01  1.00170E+01  1.66338E+01  4.52625E+00  1.75391E+01
   9.15424E+00  4.06034E+00  7.91480E+00  1.13297E+01  7.56012E-01  5.95941E+00  9.15928E-01  5.01880E+00 -1.00764E-01  6.37538E+00
   4.00838E+00 -1.65225E-01  3.54549E+00  7.54504E+00 -1.03818E+00  7.60481E+00  1.03755E+01  3.74060E+00  3.46955E+00  1.24042E+01
  -1.33885E+00  9.19306E+00  8.23803E-01  4.50797E+00  6.94428E+00  1.52425E+01  5.37310E+00  4.74044E-01  9.87349E+00  1.69878E+00
   8.32896E+00  1.12446E+01  1.17768E+01  1.36730E+01  1.04979E+01  2.39582E+01  9.69934E+00  1.10830E+01  1.32284E+01  1.85076E+01
   2.95224E+01  4.09192E+01  5.19940E+01  6.15975E+01  6.34365E+01  4.84776E+01  5.39713E+01  3.66489E+01  2.81325E+01  1.51916E+01
   1.85510E+01  9.83998E+00  3.10215E+00  8.01433E+00  1.08369E+01  1.53622E+01 -1.22266E+00  9.77969E+00 -4.71438E+00  8.40412E+00
   7.62792E+00  1.36708E+01  1.91955E+01  3.18446E+01  4.07417E+01  4.91385E+01  7.05785E+01  8.85610E+01  8.65238E+01  7.55663E+01
   6.62604E+01  5.54849E+01  3.61018E+01  2.76388E+01  2.40894E+01  2.32450E+01  2.60972E+01  2.84194E+00  1.16114E+01  2.07342E+00
   1.63466E+01  5.79157E+00  6.21240E-01  1.10593E+01 -6.45177E+00  7.01173E+00  5.06600E+00  5.03142E+00  7.41463E+00  3.22083E+00
   1.48003E+00 -9.14249E-01  3.09892E+00  4.02577E+00 -6.09094E+00 -1.09503E+01 -9.98878E-02  3.42012E+00 -4.26159E+00 -1.70086E+00
   2.48632E+00  3.55978E+00 -1.75712E+00 -5.74822E+00 -3.51905E+00 -1.10211E+01 -1.74347E+01 -8.62440E+00 -1.29742E+01 -9.38926E+00
  -1.54470E+01  1.36294E+00 -1.64304E+01 -2.12105E+01 -1.45262E+01 -2.48526E+01 -1.54585E+01 -3.09851E+01 -2.42605E+01 -1.72545E+01
  -1.02056E+01 -1.21092E+01 -6.92884E+00 -1.14701E+01 -1.05723E+01 -1.26184E+01 -5.07523E+00 -3.57876E+00 -1.03158E+01  2.36355E+00
  -5.21585E+00  7.64628E-01 -8.07895E+00  2.60026E+00 -1.08376E+00 -5.72203E+00 -1.07842E+01  4.60513E-01 -3.82992E+00 -4.70603E+00
  -4.31348E-01 -1.44134E+00 -9.92266E-01  1.35867E+01  1.00414E+01  4.41129E+00  5.72761E+00  5.02744E-01 -3.64289E+00  5.65479E+00
  -3.10020E+00 -6.00165E+00  1.23054E+01  4.00388E+00  1.77893E+01  2.25584E+01  1.47740E+01  1.94509E+01  1.99233E+01  7.42168E+00
  -1.05982E+00 -1.32115E-01  6.02166E+00 -5.34350E+00  3.63046E+00  2.98128E+00  1.67901E+01  2.20846E+01  2.37735E+01  1.07149E+01
   1.91934E+01  1.13766E+01  2.66414E+01  1.96445E+01  2.93323E+01  2.27073E+01  2.03815E+01  1.50166E+01  1.93138E+01  2.19315E+01
   2.52172E+01  1.74185E+01  2.64449E+01  1.48331E+01  2.43333E+01  1.85456E+01  2.60785E+01  3.30009E+01  3.28790E+01  3.06246E+01
   2.85316E+01  2.60597E+01  4.79857E+01  5.55969E+01  6.05269E+01  7.80398E+01  8.62026E+01  9.96450E+01  1.21832E+02  1.40840E+02
   1.63568E+02  1.67782E+02  1.46636E+02  1.02864E+02  7.58873E+01  5.46962E+01  3.81003E+01  3.69730E+01  2.86206E+01  2.48275E+01
   7.14734E+00  2.15821E+01  2.35283E+01  2.05265E+01  1.27270E+01  5.09498E+00  6.43334E+00  1.51401E+01  5.60802E+00  1.31543E+01
   4.68334E+00  6.56357E-01  9.61995E+00  6.52109E+00  6.47604E+00  5.96205E+00  5.92139E+00 -5.64018E+00  2.38046E+00  2.35927E+00
   7.09418E+00  6.18031E+00 -1.07347E+01 -7.37652E+00  3.58895E+00  7.65598E-01  6.09738E+00 -2.45581E+00 -5.50490E+00  8.45452E+00
  -7.08695E+00 -1.38749E+00 -6.88106E+00 -1.00619E+01 -6.74867E+00 -8.75455E+00 -2.10247E+01 -1.14905E+01 -2.07080E+01 -2.40684E+01
  -2.45191E+01 -1.68998E+01 -1.43428E+01 -3.48308E+01 -2.58045E+01 -2.59271E+01 -2.23542E+01 -1.92975E+01 -1.82633E+01 -9.33714E+00
  -1.01918E+01 -2.01368E+00  2.22655E+00  9.05246E+00  5.09310E+00  7.12088E+00  7.69481E+00  1.58254E+01  1.61835E+01  1.21588E+01
   1.67358E+01  2.02580E+01  2.84449E+01  2.57183E+01  2.70864E+01  3.83675E+01  2.96673E+01  2.86739E+01  3.81339E+01  3.27147E+01
   3.35248E+01  3.75373E+01  2.74491E+01  2.30995E+01  1.97099E+01  1.53108E+01  1.75364E+01  2.30327E+01  2.53258E+01  1.43715E+01
   1.91374E+01  1.65222E+01  1.37960E+01  8.44218E+00  8.77761E+00 -1.69172E+00  6.33296E+00  1.00084E+01  4.22942E+00  1.15989E+01
   1.14794E+01  5.60881E+00  1.69547E+01  1.67464E+01  1.18835E+01  1.77648E+01  1.36381E+01  5.89409E+00  6.73417E+00  7.81765E+00
   9.61706E+00  7.39064E+00 -1.28542E+01 -6.20884E-01 -5.74096E+00  8.01372E-01 -1.03984E+01  4.22180E+00 -9.94891E+00  2.19175E+00
  -9.94674E+00 -1.03168E+01 -3.61434E+00 -1.77694E+00 -5.71447E+00 -1.12564E+00 -1.01876E+01 -2.13032E+00  2.43517E+00 -4.25999E+00
  -7.18490E+00  1.04364E+01 -3.53037E+00  1.46430E+00  4.74413E+00  2.23981E+00  2.19494E+00  1.33898E+01  1.76480E+01  8.78783E+00
   9.60782E+00  1.41719E+01  9.08811E+00  1.45597E+01  2.44661E+01  2.01567E+01  2.79335E+01  1.91337E+01  2.31714E+01  1.83233E+01
   2.79664E+01  1.24683E+01  1.17307E+01  2.48243E+00  5.85015E+00 -6.19960E+00 -9.82033E+00 -3.23668E+00 -4.11404E+00 -1.83649E+00
  -2.44084E+00 -4.70960E+00 -2.09378E-01 -7.68803E+00 -1.26787E+01 -8.82080E+00 -7.30505E+00 -1.15710E+01 -1.05775E+01 -7.16114E+00
  -1.22899E+01 -4.01225E+00 -9.78224E-01 -9.16259E+00 -8.56463E+00 -2.13143E+01 -7.67953E+00 -1.03097E+01 -1.35451E+01 -7.08007E+00
   7.33877E-01  3.03250E-01  4.94358E+00 -1.39999E+01 -1.08709E+01 -6.63777E+00 -1.20804E+01 -6.09585E+00 -1.12018E+01 -7.46812E+00
  -6.06479E+00 -9.93771E+00 -1.35255E+01  2.36731E-01  1.34879E+00 -5.64763E+00 -1.62975E+00 -9.83440E+00 -1.35660E+00 -1.03420E+01
   8.50681E-01 -4.81739E+00 -4.34747E+00 -2.64571E+00 -1.56595E+00 -5.08229E+00 -6.96779E+00 -3.46539E+00  1.24718E+00 -6.19809E+00
  -4.27714E+00 -9.96756E-02 -1.86550E+00 -1.23076E+00 -3.82360E+00 -1.03638E+01 -4.88942E+00 -3.50143E+00 -2.45388E-01  3.62324E+00
   6.12036E+00 -4.17039E+00 -2.73192E-01 -5.90313E+00 -7.20393E+00  1.81526E+00 -6.04851E+00 -1.20374E+01 -9.54655E+00 -3.88120E+00
  -5.83756E+00 -1.49686E+01  1.02110E+01 -4.84581E+00 -3.93102E+00 -5.05341E+00 -3.03859E+00 -1.95886E-01
 NY points of the fit to the data follow
   1.06105E+01  1.01543E+01  1.03277E+01  1.10831E+01  1.27553E+01  1.63532E+01  2.13050E+01  2.70921E+01  3.39427E+01  4.19224E+01
   5.00837E+01  5.64326E+01  5.87357E+01  5.58619E+01  4.87339E+01  3.98137E+01  3.15660E+01  2.52594E+01  2.08457E+01  1.73348E+01
   1.45101E+01  1.31377E+01  1.25654E+01  1.23435E+01  1.21400E+01  1.19245E+01  1.19596E+01  1.26066E+01  1.41768E+01  1.66566E+01
   1.96021E+01  2.21093E+01  2.32426E+01  2.25687E+01  2.02236E+01  1.68683E+01  1.34409E+01  1.06389E+01  8.96353E+00  8.67588E+00
   9.42619E+00  1.07898E+01  1.23194E+01  1.38274E+01  1.54169E+01  1.71127E+01  1.87198E+01  1.96935E+01  1.95331E+01  1.81833E+01
   1.58850E+01  1.32234E+01  1.09542E+01  9.46823E+00  8.59366E+00  8.12819E+00  8.08194E+00  8.44359E+00  8.99844E+00  9.50370E+00
   9.77118E+00  9.61707E+00  8.99369E+00  8.02867E+00  7.01950E+00  6.31787E+00  6.03751E+00  6.07615E+00  6.34426E+00  6.76724E+00
   7.22556E+00  7.63908E+00  7.91851E+00  8.00718E+00  7.88659E+00  7.58843E+00  7.18176E+00  6.72718E+00  6.31438E+00  6.10218E+00
   6.14999E+00  6.36909E+00  6.71752E+00  7.21997E+00  7.83271E+00  8.34062E+00  8.40236E+00  7.79049E+00  6.59125E+00  5.21358E+00
   4.12659E+00  3.56888E+00  3.47806E+00  3.58125E+00  3.70839E+00  4.19086E+00  6.25210E+00  1.03908E+01  1.56100E+01  2.20784E+01
   3.06670E+01  4.14152E+01  5.25270E+01  6.07032E+01  6.27140E+01  5.75457E+01  4.72213E+01  3.54737E+01  2.55115E+01  1.84502E+01
   1.34042E+01  9.20183E+00  6.46958E+00  5.66542E+00  5.49329E+00  5.50637E+00  5.61256E+00  5.81367E+00  6.16591E+00  6.96294E+00
   9.46690E+00  1.48557E+01  2.20203E+01  3.07434E+01  4.19100E+01  5.56809E+01  7.01326E+01  8.13620E+01  8.51719E+01  7.97917E+01
   6.73000E+01  5.22422E+01  3.88205E+01  2.87716E+01  2.12275E+01  1.46839E+01  9.69200E+00  7.46510E+00  6.68613E+00  6.54720E+00
   6.66959E+00  6.75056E+00  6.67169E+00  6.43142E+00  6.03433E+00  5.53458E+00  4.97513E+00  4.34220E+00  3.65662E+00  2.98133E+00
   2.37208E+00  1.85574E+00  1.40505E+00  9.70102E-01  4.71192E-01 -2.08154E-02 -4.71858E-01 -9.58156E-01 -1.54289E+00 -2.33495E+00
  -3.19998E+00 -3.79123E+00 -3.85962E+00 -3.49372E+00 -3.05706E+00 -2.95394E+00 -3.39381E+00 -4.24221E+00 -5.17557E+00 -6.04342E+00
  -6.83367E+00 -7.46953E+00 -8.07657E+00 -8.75963E+00 -9.46910E+00 -1.00544E+01 -1.02547E+01 -9.98011E+00 -9.48071E+00 -9.15481E+00
  -9.20781E+00 -9.36768E+00 -9.24352E+00 -8.69258E+00 -7.85377E+00 -6.97171E+00 -6.01212E+00 -4.69188E+00 -2.90474E+00 -9.19508E-01
   6.87429E-01  1.44938E+00  1.35588E+00  7.31438E-01 -2.13245E-02 -6.57098E-01 -1.06959E+00 -1.01399E+00 -3.30645E-01  1.01057E+00
   2.88629E+00  5.03284E+00  6.91262E+00  7.76043E+00  7.30119E+00  5.52580E+00  2.46920E+00 -1.42828E+00 -5.18953E+00 -7.61100E+00
  -8.09526E+00 -6.47687E+00 -2.87504E+00  2.09446E+00  7.23257E+00  1.10136E+01  1.22629E+01  1.08349E+01  7.23550E+00  2.21307E+00
  -2.70398E+00 -6.09690E+00 -7.23092E+00 -5.80981E+00 -2.20811E+00  2.75352E+00  7.63846E+00  1.13432E+01  1.35699E+01  1.45707E+01
   1.48949E+01  1.48531E+01  1.47028E+01  1.48710E+01  1.56015E+01  1.67214E+01  1.79456E+01  1.91981E+01  2.03820E+01  2.12610E+01
   2.15834E+01  2.14745E+01  2.13647E+01  2.16870E+01  2.26379E+01  2.40471E+01  2.57050E+01  2.73283E+01  2.88227E+01  3.05683E+01
   3.27519E+01  3.54514E+01  3.93840E+01  4.76127E+01  6.03296E+01  7.44789E+01  8.96992E+01  1.07362E+02  1.27346E+02  1.46171E+02
   1.57610E+02  1.55757E+02  1.39368E+02  1.13262E+02  8.55436E+01  6.28643E+01  4.67059E+01  3.44165E+01  2.37668E+01  1.68393E+01
   1.38210E+01  1.19758E+01  1.06117E+01  9.57007E+00  8.64749E+00  7.67650E+00  6.62936E+00  5.51215E+00  4.37988E+00  3.30328E+00
   2.32092E+00  1.43021E+00  6.35828E-01 -5.99925E-02 -6.85353E-01 -1.27627E+00 -1.85615E+00 -2.41808E+00 -2.94096E+00 -3.41483E+00
  -3.83882E+00 -4.20886E+00 -4.53093E+00 -4.81952E+00 -5.09486E+00 -5.36768E+00 -5.63939E+00 -5.90540E+00 -6.15716E+00 -6.38756E+00
  -6.59223E+00 -6.76588E+00 -6.91174E+00 -7.03761E+00 -7.14941E+00 -7.24839E+00 -7.33108E+00 -7.39330E+00 -7.43189E+00 -7.43846E+00
  -7.40369E+00 -7.31867E+00 -7.17231E+00 -6.95226E+00 -6.64462E+00 -6.23377E+00 -5.70337E+00 -5.03714E+00 -4.21922E+00 -3.23495E+00
  -2.07169E+00 -7.20389E-01  8.23043E-01  2.55645E+00  4.47100E+00  6.55045E+00  8.77051E+00  1.10984E+01  1.34933E+01  1.59074E+01
   1.82882E+01  2.05799E+01  2.27259E+01  2.46712E+01  2.63652E+01  2.77646E+01  2.88367E+01  2.95605E+01  2.99288E+01  2.99503E+01
   2.96520E+01  2.90535E+01  2.81738E+01  2.70623E+01  2.57709E+01  2.43336E+01  2.27673E+01  2.10924E+01  1.93732E+01  1.76974E+01
   1.61474E+01  1.47942E+01  1.36773E+01  1.27926E+01  1.20975E+01  1.15299E+01  1.10277E+01  1.05183E+01  9.95129E+00  9.33505E+00
   8.69525E+00  8.04606E+00  7.37768E+00  6.67314E+00  5.94590E+00  5.20678E+00  4.45134E+00  3.68207E+00  2.90605E+00  2.13267E+00
   1.37264E+00  6.37014E-01 -6.33788E-02 -7.18314E-01 -1.31811E+00 -1.85376E+00 -2.31693E+00 -2.70020E+00 -2.99686E+00 -3.20070E+00
  -3.30562E+00 -3.30562E+00 -3.19479E+00 -2.96759E+00 -2.61874E+00 -2.14349E+00 -1.53770E+00 -7.98603E-01  7.46206E-02  1.07995E+00
   2.21211E+00  3.46190E+00  4.81579E+00  6.25522E+00  7.75644E+00  9.29061E+00  1.08245E+01  1.23216E+01  1.37428E+01  1.50485E+01
   1.61998E+01  1.71606E+01  1.78997E+01  1.83924E+01  1.86219E+01  1.85799E+01  1.82675E+01  1.76948E+01  1.68807E+01  1.58513E+01
   1.46389E+01  1.32796E+01  1.18119E+01  1.02743E+01  8.70442E+00  7.13687E+00  5.60211E+00  4.12560E+00  2.72761E+00  1.42313E+00
   2.22171E-01 -8.69975E-01 -1.85211E+00 -2.72648E+00 -3.49772E+00 -4.17230E+00 -4.75773E+00 -5.26233E+00 -5.69463E+00 -6.06304E+00
  -6.37535E+00 -6.63873E+00 -6.85959E+00 -7.04382E+00 -7.19659E+00 -7.32241E+00 -7.42498E+00 -7.50745E+00 -7.57250E+00 -7.62255E+00
  -7.65963E+00 -7.68543E+00 -7.70123E+00 -7.70815E+00 -7.70719E+00 -7.69935E+00 -7.68542E+00 -7.66602E+00 -7.64156E+00 -7.61250E+00
  -7.57931E+00 -7.54249E+00 -7.50234E+00 -7.45911E+00 -7.41291E+00 -7.36401E+00 -7.31268E+00 -7.25919E+00 -7.20367E+00 -7.14618E+00
  -7.08678E+00 -7.02566E+00 -6.96301E+00 -6.89899E+00 -6.83359E+00 -6.76684E+00 -6.69877E+00 -6.62958E+00 -6.55940E+00 -6.48830E+00
  -6.41621E+00 -6.34315E+00 -6.26918E+00 -6.19448E+00 -6.11910E+00 -6.04307E+00 -5.96629E+00 -5.88881E+00 -5.81073E+00 -5.73219E+00
  -5.65319E+00 -5.57372E+00 -5.49368E+00 -5.41316E+00 -5.33226E+00 -5.25109E+00 -5.16959E+00 -5.08772E+00 -5.00543E+00 -4.92284E+00
  -4.84003E+00 -4.75706E+00 -4.67383E+00 -4.59030E+00 -4.50647E+00 -4.42245E+00 -4.33830E+00 -4.25402E+00
 NY background values follow
     6.490E+00    6.439E+00    6.389E+00    6.338E+00    6.287E+00    6.237E+00    6.186E+00    6.135E+00    6.084E+00    6.034E+00
     5.983E+00    5.932E+00    5.881E+00    5.830E+00    5.779E+00    5.728E+00    5.677E+00    5.626E+00    5.574E+00    5.523E+00
     5.472E+00    5.420E+00    5.369E+00    5.317E+00    5.265E+00    5.214E+00    5.162E+00    5.110E+00    5.058E+00    5.006E+00
     4.954E+00    4.901E+00    4.849E+00    4.796E+00    4.744E+00    4.691E+00    4.638E+00    4.585E+00    4.532E+00    4.479E+00
     4.426E+00    4.372E+00    4.319E+00    4.265E+00    4.211E+00    4.157E+00    4.103E+00    4.049E+00    3.995E+00    3.940E+00
     3.886E+00    3.831E+00    3.776E+00    3.721E+00    3.666E+00    3.610E+00    3.555E+00    3.499E+00    3.443E+00    3.387E+00
     3.331E+00    3.275E+00    3.219E+00    3.162E+00    3.106E+00    3.049E+00    2.992E+00    2.935E+00    2.878E+00    2.821E+00
     2.764E+00    2.706E+00    2.648E+00    2.591E+00    2.533E+00    2.475E+00    2.416E+00    2.358E+00    2.300E+00    2.241E+00
     2.182E+00    2.124E+00    2.065E+00    2.005E+00    1.946E+00    1.887E+00    1.827E+00    1.768E+00    1.708E+00    1.648E+00
     1.588E+00    1.528E+00    1.468E+00    1.407E+00    1.347E+00    1.286E+00    1.226E+00    1.165E+00    1.104E+00    1.043E+00
     9.821E-01    9.211E-01    8.600E-01    7.988E-01    7.376E-01    6.763E-01    6.150E-01    5.537E-01    4.924E-01    4.310E-01
     3.697E-01    3.083E-01    2.470E-01    1.857E-01    1.244E-01    6.307E-02    1.813E-03   -5.940E-02   -1.206E-01   -1.817E-01
    -2.428E-01   -3.037E-01   -3.647E-01   -4.255E-01   -4.863E-01   -5.469E-01   -6.075E-01   -6.680E-01   -7.284E-01   -7.886E-01
    -8.487E-01   -9.087E-01   -9.686E-01   -1.028E+00   -1.088E+00   -1.147E+00   -1.207E+00   -1.266E+00   -1.324E+00   -1.383E+00
    -1.442E+00   -1.500E+00   -1.558E+00   -1.616E+00   -1.674E+00   -1.731E+00   -1.789E+00   -1.846E+00   -1.903E+00   -1.959E+00
    -2.015E+00   -2.071E+00   -2.127E+00   -2.183E+00   -2.238E+00   -2.293E+00   -2.347E+00   -2.402E+00   -2.456E+00   -2.510E+00
    -2.563E+00   -2.616E+00   -2.669E+00   -2.721E+00   -2.773E+00   -2.825E+00   -2.876E+00   -2.927E+00   -2.978E+00   -3.028E+00
    -3.078E+00   -3.128E+00   -3.177E+00   -3.225E+00   -3.274E+00   -3.321E+00   -3.369E+00   -3.416E+00   -3.462E+00   -3.509E+00
    -3.554E+00   -3.599E+00   -3.644E+00   -3.688E+00   -3.732E+00   -3.776E+00   -3.819E+00   -3.862E+00   -3.905E+00   -3.947E+00
    -3.989E+00   -4.030E+00   -4.072E+00   -4.113E+00   -4.154E+00   -4.195E+00   -4.236E+00   -4.277E+00   -4.318E+00   -4.359E+00
    -4.399E+00   -4.440E+00   -4.481E+00   -4.521E+00   -4.562E+00   -4.603E+00   -4.644E+00   -4.685E+00   -4.726E+00   -4.768E+00
    -4.809E+00   -4.851E+00   -4.893E+00   -4.936E+00   -4.979E+00   -5.022E+00   -5.065E+00   -5.109E+00   -5.153E+00   -5.198E+00
    -5.243E+00   -5.289E+00   -5.335E+00   -5.381E+00   -5.428E+00   -5.476E+00   -5.524E+00   -5.573E+00   -5.623E+00   -5.673E+00
    -5.723E+00   -5.775E+00   -5.826E+00   -5.879E+00   -5.932E+00   -5.985E+00   -6.039E+00   -6.094E+00   -6.149E+00   -6.205E+00
    -6.261E+00   -6.317E+00   -6.374E+00   -6.432E+00   -6.490E+00   -6.549E+00   -6.608E+00   -6.667E+00   -6.727E+00   -6.787E+00
    -6.848E+00   -6.909E+00   -6.971E+00   -7.033E+00   -7.095E+00   -7.158E+00   -7.221E+00   -7.285E+00   -7.349E+00   -7.413E+00
    -7.478E+00   -7.543E+00   -7.608E+00   -7.674E+00   -7.739E+00   -7.806E+00   -7.872E+00   -7.939E+00   -8.006E+00   -8.074E+00
    -8.141E+00   -8.209E+00   -8.278E+00   -8.346E+00   -8.415E+00   -8.484E+00   -8.553E+00   -8.622E+00   -8.691E+00   -8.760E+00
    -8.829E+00   -8.899E+00   -8.968E+00   -9.037E+00   -9.107E+00   -9.176E+00   -9.245E+00   -9.314E+00   -9.382E+00   -9.451E+00
    -9.519E+00   -9.587E+00   -9.655E+00   -9.722E+00   -9.789E+00   -9.856E+00   -9.922E+00   -9.988E+00   -1.005E+01   -1.012E+01
    -1.018E+01   -1.025E+01   -1.031E+01   -1.037E+01   -1.043E+01   -1.050E+01   -1.056E+01   -1.062E+01   -1.068E+01   -1.074E+01
    -1.079E+01   -1.085E+01   -1.091E+01   -1.096E+01   -1.102E+01   -1.107E+01   -1.112E+01   -1.118E+01   -1.123E+01   -1.128E+01
    -1.133E+01   -1.137E+01   -1.142E+01   -1.147E+01   -1.151E+01   -1.156E+01   -1.160E+01   -1.164E+01   -1.168E+01   -1.172E+01
    -1.176E+01   -1.180E+01   -1.184E+01   -1.187E+01   -1.191E+01   -1.194E+01   -1.197E+01   -1.201E+01   -1.204E+01   -1.207E+01
    -1.210E+01   -1.213E+01   -1.215E+01   -1.218E+01   -1.220E+01   -1.223E+01   -1.225E+01   -1.227E+01   -1.230E+01   -1.232E+01
    -1.233E+01   -1.235E+01   -1.237E+01   -1.239E+01   -1.240E+01   -1.241E+01   -1.243E+01   -1.244E+01   -1.245E+01   -1.246E+01
    -1.247E+01   -1.248E+01   -1.248E+01   -1.249E+01   -1.250E+01   -1.250E+01   -1.250E+01   -1.250E+01   -1.250E+01   -1.250E+01
    -1.250E+01   -1.250E+01   -1.250E+01   -1.249E+01   -1.249E+01   -1.248E+01   -1.247E+01   -1.246E+01   -1.245E+01   -1.244E+01
    -1.243E+01   -1.241E+01   -1.240E+01   -1.238E+01   -1.237E+01   -1.235E+01   -1.233E+01   -1.231E+01   -1.228E+01   -1.226E+01
    -1.224E+01   -1.221E+01   -1.219E+01   -1.216E+01   -1.213E+01   -1.210E+01   -1.207E+01   -1.203E+01   -1.200E+01   -1.197E+01
    -1.193E+01   -1.189E+01   -1.185E+01   -1.181E+01   -1.177E+01   -1.173E+01   -1.168E+01   -1.164E+01   -1.159E+01   -1.154E+01
    -1.150E+01   -1.145E+01   -1.139E+01   -1.134E+01   -1.129E+01   -1.123E+01   -1.118E+01   -1.112E+01   -1.106E+01   -1.100E+01
    -1.094E+01   -1.088E+01   -1.082E+01   -1.075E+01   -1.069E+01   -1.062E+01   -1.056E+01   -1.049E+01   -1.042E+01   -1.035E+01
    -1.028E+01   -1.021E+01   -1.014E+01   -1.007E+01   -9.995E+00   -9.921E+00   -9.846E+00   -9.771E+00   -9.695E+00   -9.618E+00
    -9.541E+00   -9.463E+00   -9.385E+00   -9.305E+00   -9.226E+00   -9.145E+00   -9.064E+00   -8.983E+00   -8.901E+00   -8.819E+00
    -8.736E+00   -8.653E+00   -8.569E+00   -8.485E+00   -8.400E+00   -8.316E+00   -8.230E+00   -8.145E+00   -8.059E+00   -7.973E+00
    -7.886E+00   -7.799E+00   -7.712E+00   -7.624E+00   -7.537E+00   -7.449E+00   -7.360E+00   -7.272E+00   -7.183E+00   -7.094E+00
    -7.005E+00   -6.916E+00   -6.826E+00   -6.737E+00   -6.647E+00   -6.557E+00   -6.467E+00   -6.376E+00   -6.286E+00   -6.196E+00
    -6.105E+00   -6.014E+00   -5.924E+00   -5.833E+00   -5.742E+00   -5.652E+00   -5.561E+00   -5.470E+00   -5.379E+00   -5.289E+00
    -5.198E+00   -5.107E+00   -5.017E+00   -4.926E+00   -4.836E+00   -4.745E+00   -4.655E+00   -4.565E+00
 Asp      Conc. = 3.21E+02
