 LCModel (Version 6.3-1L) Copyright: S.W. Provencher.          Ref.: Magn. Reson. Med. 30:672-679 (1993).                
 Slice#3 Row#4 Col#5  PD_24_press_2_raw_act
 36 lines in following concentration table = NCONC+1
    Conc.  %SD /Cr+PCr  Metabolite                                         
    0.000 999%   0.000 Ala                                                 
  206.182 187% 8.5E-02 Asp                                                 
    0.000 999%   0.000 Cr                                                  
 2.44E+03   5%   1.000 PCr                                                 
  238.433 105% 9.8E-02 GABA                                                
  370.813  68%   0.152 Glc                                                 
  478.240  85%   0.196 Gln                                                 
 2.27E+03  21%   0.931 Glu                                                 
    0.000 999%   0.000 GPC                                                 
 1.06E+03   4%   0.437 PCh                                                 
  295.449  48%   0.121 GSH                                                 
 1.90E+03  26%   0.781 Ins                                                 
    0.000 999%   0.000 Lac                                                 
 3.27E+03   4%   1.342 NAA                                                 
    0.000 999%   0.000 NAAG                                                
  243.285  22%   0.100 Scyllo                                              
  672.633  55%   0.276 Tau                                                 
  775.491  26%   0.318 -CrCH2                                              
 1.06E+03   4%   0.437 GPC+PCh                                             
 3.27E+03   4%   1.342 NAA+NAAG                                            
 2.44E+03   5%   1.000 Cr+PCr                                              
 2.75E+03  23%   1.127 Glu+Gln                                             
    0.000 999%   0.000 Lip13a                                              
  907.742  42%   0.373 Lip13b                                              
    0.000 999%   0.000 Lip09                                               
 2.00E+03  17%   0.822 MM09                                                
  150.598  94% 6.2E-02 Lip20                                               
 3.32E+03  17%   1.362 MM20                                                
  623.907  24%   0.256 MM12                                                
 2.87E+03  11%   1.176 MM14                                                
 1.16E+03  26%   0.478 MM17                                                
  907.742  42%   0.373 Lip13a+Lip13b                                       
 4.40E+03  13%   1.805 MM14+Lip13a+Lip13b+MM12                             
 2.00E+03  17%   0.822 MM09+Lip09                                          
 3.47E+03  17%   1.423 MM20+Lip20                                          
   6 lines in following misc. output table
  FWHM = 0.046 ppm    S/N =   8                                            
  Data shift = 0.031 ppm                                                   
  Ph: -34 deg     -14.5 deg/ppm                                            
  alphaB,S = 2.3E+00,   4.1E+01                                            
   14 spline knots.   Ns = 6(1)                                            
  ( 4) 2 infls.   ( 1) 1 extrs.                                            
  498 points on ppm-axis = NY
      4.000000     3.992357     3.984714     3.977070     3.969427     3.961784     3.954141     3.946497     3.938854     3.931211
      3.923568     3.915925     3.908281     3.900638     3.892995     3.885352     3.877708     3.870065     3.862422     3.854779
      3.847136     3.839492     3.831849     3.824206     3.816563     3.808919     3.801276     3.793633     3.785990     3.778347
      3.770703     3.763060     3.755417     3.747774     3.740130     3.732487     3.724844     3.717201     3.709558     3.701914
      3.694271     3.686628     3.678985     3.671341     3.663698     3.656055     3.648412     3.640769     3.633125     3.625482
      3.617839     3.610196     3.602552     3.594909     3.587266     3.579623     3.571980     3.564336     3.556693     3.549050
      3.541407     3.533763     3.526120     3.518477     3.510834     3.503191     3.495547     3.487904     3.480261     3.472618
      3.464974     3.457331     3.449688     3.442045     3.434402     3.426758     3.419115     3.411472     3.403829     3.396185
      3.388542     3.380899     3.373256     3.365613     3.357969     3.350326     3.342683     3.335040     3.327396     3.319753
      3.312110     3.304467     3.296824     3.289180     3.281537     3.273894     3.266251     3.258607     3.250964     3.243321
      3.235678     3.228034     3.220391     3.212748     3.205105     3.197462     3.189818     3.182175     3.174532     3.166889
      3.159245     3.151602     3.143959     3.136316     3.128673     3.121029     3.113386     3.105743     3.098100     3.090456
      3.082813     3.075170     3.067527     3.059884     3.052240     3.044597     3.036954     3.029311     3.021667     3.014024
      3.006381     2.998738     2.991095     2.983451     2.975808     2.968165     2.960522     2.952878     2.945235     2.937592
      2.929949     2.922306     2.914662     2.907019     2.899376     2.891733     2.884089     2.876446     2.868803     2.861160
      2.853517     2.845873     2.838230     2.830587     2.822944     2.815300     2.807657     2.800014     2.792371     2.784728
      2.777084     2.769441     2.761798     2.754155     2.746511     2.738868     2.731225     2.723582     2.715939     2.708295
      2.700652     2.693009     2.685366     2.677722     2.670079     2.662436     2.654793     2.647150     2.639506     2.631863
      2.624220     2.616577     2.608933     2.601290     2.593647     2.586004     2.578361     2.570717     2.563074     2.555431
      2.547788     2.540144     2.532501     2.524858     2.517215     2.509572     2.501928     2.494285     2.486642     2.478999
      2.471355     2.463712     2.456069     2.448426     2.440783     2.433139     2.425496     2.417853     2.410210     2.402566
      2.394923     2.387280     2.379637     2.371994     2.364350     2.356707     2.349064     2.341421     2.333777     2.326134
      2.318491     2.310848     2.303205     2.295561     2.287918     2.280275     2.272632     2.264988     2.257345     2.249702
      2.242059     2.234416     2.226772     2.219129     2.211486     2.203843     2.196199     2.188556     2.180913     2.173270
      2.165627     2.157983     2.150340     2.142697     2.135054     2.127410     2.119767     2.112124     2.104481     2.096838
      2.089194     2.081551     2.073908     2.066265     2.058621     2.050978     2.043335     2.035692     2.028049     2.020405
      2.012762     2.005119     1.997476     1.989833     1.982190     1.974546     1.966903     1.959260     1.951617     1.943974
      1.936331     1.928688     1.921045     1.913402     1.905759     1.898115     1.890472     1.882829     1.875186     1.867543
      1.859900     1.852257     1.844614     1.836971     1.829327     1.821684     1.814041     1.806398     1.798755     1.791112
      1.783469     1.775826     1.768183     1.760540     1.752896     1.745253     1.737610     1.729967     1.722324     1.714681
      1.707038     1.699395     1.691752     1.684108     1.676465     1.668822     1.661179     1.653536     1.645893     1.638250
      1.630607     1.622964     1.615321     1.607677     1.600034     1.592391     1.584748     1.577105     1.569462     1.561819
      1.554176     1.546533     1.538890     1.531246     1.523603     1.515960     1.508317     1.500674     1.493031     1.485388
      1.477745     1.470102     1.462458     1.454815     1.447172     1.439529     1.431886     1.424243     1.416600     1.408957
      1.401314     1.393671     1.386027     1.378384     1.370741     1.363098     1.355455     1.347812     1.340169     1.332526
      1.324883     1.317240     1.309596     1.301953     1.294310     1.286667     1.279024     1.271381     1.263738     1.256095
      1.248452     1.240808     1.233165     1.225522     1.217879     1.210236     1.202593     1.194950     1.187307     1.179664
      1.172021     1.164377     1.156734     1.149091     1.141448     1.133805     1.126162     1.118519     1.110876     1.103233
      1.095590     1.087946     1.080303     1.072660     1.065017     1.057374     1.049731     1.042088     1.034445     1.026802
      1.019158     1.011515     1.003872     0.996229     0.988586     0.980943     0.973300     0.965657     0.958014     0.950371
      0.942727     0.935084     0.927441     0.919798     0.912155     0.904512     0.896869     0.889226     0.881583     0.873940
      0.866296     0.858653     0.851010     0.843367     0.835724     0.828081     0.820438     0.812795     0.805152     0.797508
      0.789865     0.782222     0.774579     0.766936     0.759293     0.751650     0.744007     0.736364     0.728721     0.721077
      0.713434     0.705791     0.698148     0.690505     0.682862     0.675219     0.667576     0.659933     0.652290     0.644646
      0.637003     0.629360     0.621717     0.614074     0.606431     0.598788     0.591145     0.583502     0.575858     0.568215
      0.560572     0.552929     0.545286     0.537643     0.530000     0.522357     0.514714     0.507071     0.499427     0.491784
      0.484141     0.476498     0.468855     0.461212     0.453569     0.445925     0.438282     0.430639     0.422996     0.415353
      0.407710     0.400067     0.392424     0.384780     0.377137     0.369494     0.361851     0.354208     0.346565     0.338922
      0.331278     0.323635     0.315992     0.308349     0.300706     0.293063     0.285420     0.277777     0.270133     0.262490
      0.254847     0.247204     0.239561     0.231918     0.224275     0.216631     0.208988     0.201345
 NY phased data points follow
  -6.63189E+01 -5.94583E+01 -5.64277E+01 -4.03100E+01 -4.49028E+01 -3.50522E+01 -2.60445E+01 -1.09310E+01 -8.82153E+00 -7.94585E+00
  -5.71904E-01 -9.77327E+00 -4.27365E+00 -2.42164E+01 -3.06572E+01 -4.79420E+01 -3.17500E+01 -4.68735E+01 -4.25314E+01 -4.48471E+01
  -4.38235E+01 -4.34903E+01 -4.14443E+01 -3.87038E+01 -3.42138E+01 -2.91942E+01 -3.21011E+01 -2.24055E+01 -1.61151E+01 -4.06102E+01
  -2.54347E+01 -1.63064E+01 -1.93766E+01 -2.37945E+01 -2.41841E+01 -2.74727E+01 -1.89424E+01 -2.74171E+01 -2.64100E+01 -2.45895E+01
  -2.83655E+01 -1.93217E+01 -2.77424E+01 -3.41052E+01 -1.34146E+01 -1.15182E+01 -1.64834E+01 -7.35082E+00 -9.22931E+00 -2.56140E+01
  -1.12269E+01 -1.68571E+01 -1.36903E+01 -3.59101E+01 -1.26039E+01 -1.73616E+01 -2.29937E+01 -2.10974E+01 -1.82056E+01 -2.06659E+01
  -1.34848E+01 -2.97068E+01 -2.27623E+01 -3.20014E+01 -2.80890E+01 -2.98533E+01 -1.81077E+01 -1.78171E+01 -1.57572E+01 -2.62267E+01
  -1.68534E+01 -1.34132E+00 -1.59870E+01 -2.46541E+01 -9.70060E+00 -1.26461E+01 -7.56194E+00 -1.34802E+01 -1.23904E+01 -1.95330E+01
  -1.55058E+01 -8.33216E-01 -1.37555E+01 -8.07553E+00 -1.45688E+00 -5.89315E+00  5.15678E-02  7.84769E-01 -1.46549E+01 -3.53230E+00
  -4.19904E+00 -3.45952E+00  1.78502E+00 -6.27872E+00 -9.59407E-01 -8.54092E+00 -1.00150E+01  1.11013E+01  1.72177E+01  4.57074E+01
   6.23309E+01  8.64103E+01  9.99602E+01  9.37902E+01  7.30153E+01  7.03237E+01  4.40428E+01  2.54891E+01  7.32921E+00 -7.41174E-02
  -1.55066E+00 -7.23358E+00  5.76485E+00  2.98016E+00  5.16526E+00 -4.01980E+00 -1.20723E+00 -1.92622E+01  8.12143E+00 -3.18789E+00
   9.42731E+00 -4.37706E-01  1.06523E+01  3.08912E+01  3.95928E+01  6.78824E+01  7.61879E+01  8.01643E+01  7.60245E+01  6.21995E+01
   5.57302E+01  3.36528E+01  2.05982E+01  1.35868E+01  3.89269E+00  9.50649E+00 -4.21791E+00 -9.44135E+00 -1.61038E-01 -4.02086E+00
   1.02775E+00 -6.61046E+00 -6.48978E+00 -1.21979E+01  2.61519E+00 -1.30617E+00 -2.06294E+00  2.04901E+00  9.44814E-01  1.07114E+00
  -4.56322E+00 -3.19377E+00  6.01880E+00 -6.45986E+00 -1.99399E+00  4.93310E-01 -1.08766E+01 -4.05687E+00  1.12830E+00 -6.68762E+00
   1.11654E+01 -8.67897E+00 -1.17558E+01 -3.56237E+00 -2.43296E-01  6.77622E+00  2.04129E+00  5.90008E+00  6.37266E+00 -5.83418E+00
   7.18721E+00 -9.07955E+00 -8.36545E+00 -8.28067E+00 -4.80165E+00 -1.42234E+01 -4.94269E+00 -4.22430E+00  1.27332E+00 -1.26969E+01
  -7.71658E+00 -1.15706E+01 -5.96927E+00 -2.17138E+00  3.49228E+00 -1.18407E+01 -3.76609E+00 -3.51550E+00 -4.20594E-01  2.45752E+00
   1.67031E+01  1.76638E+01  8.65150E+00  8.93750E+00  1.56023E+01  2.54451E+01  9.99460E+00  1.22903E+01  5.90365E+00 -5.46717E+00
   1.72629E+01  1.22952E+00  1.17280E+01  2.08014E+01  7.44787E+00  1.03914E+01 -5.26298E+00 -2.44238E+00  6.50546E+00 -1.23219E+01
  -7.38113E+00 -1.20055E+01  1.64536E+01 -9.69783E-01  1.23384E+01  1.90456E+01  3.50582E+01  1.29860E+01  3.69248E+00  3.29296E+00
   1.76985E+00  5.02720E+00  4.12039E+00 -2.37130E-01  8.54686E+00  1.57142E+01  1.94499E+01  1.74549E+01  2.50436E+01  1.78992E+01
   2.96891E+01  1.44221E+01  1.72284E+01  1.95018E+01  2.23407E+01  1.85922E+01  2.57119E+01  1.50068E+01  2.48351E+01  1.42073E+01
   2.35763E+01  1.49774E+01  2.17247E+01  1.60255E+01  2.80186E+01  2.94039E+01  3.29160E+01  3.22125E+01  3.06664E+01  2.96233E+01
   3.58032E+01  2.75748E+01  2.49069E+01  2.36500E+01  2.91390E+01  3.96035E+01  5.29614E+01  8.44371E+01  1.17894E+02  1.36534E+02
   1.44375E+02  1.40727E+02  1.08498E+02  1.07131E+02  7.49758E+01  6.04650E+01  5.95718E+01  3.58416E+01  2.14848E+01  3.42901E+01
   4.25427E+01  2.41554E+01  3.15829E+01  2.51538E+01  2.37451E+01  2.48653E+01  2.61915E+01  3.58432E+01  2.84365E+01  1.60565E+01
   2.49486E+01  2.58759E+01  1.75492E+01  1.88385E+01  9.30322E+00  1.54829E+01  1.80977E+01  1.76949E+01  2.56632E+01  1.31651E+01
   1.83639E+01  2.82473E+01  2.67260E+01  1.65715E+01  9.89341E+00  2.75155E+01  2.68638E+01  1.69053E+01  2.46415E+01  1.37633E+01
   2.48447E+01  2.81753E+01  2.68939E+01  3.30445E+01  2.04947E+01  3.44819E+01  3.22862E+01  2.63048E+01  3.08979E+01  2.12231E+01
   3.89397E+01  3.17334E+01  4.00344E+01  2.92256E+01  3.66688E+01  2.14106E+01  4.38210E+01  3.89684E+01  3.42753E+01  4.90723E+01
   3.34067E+01  4.41821E+01  3.59385E+01  4.21457E+01  4.34641E+01  5.36208E+01  4.80163E+01  6.04932E+01  4.41732E+01  4.73729E+01
   5.07138E+01  4.34315E+01  3.89593E+01  4.04494E+01  3.41647E+01  2.87294E+01  3.52439E+01  3.90158E+01  2.51018E+01  2.43314E+01
   2.38956E+01  1.27436E+01  2.76265E+01  2.41542E+01  3.41107E+01  2.74435E+01  2.45919E+01  2.87012E+01  3.06594E+01  3.05218E+01
   2.62257E+01  2.58614E+01  3.39771E+01  3.05036E+01  2.57044E+01  3.11768E+01  2.49132E+01  3.01559E+01  2.75220E+01  3.11455E+01
   2.78897E+01  4.24202E+01  2.10733E+01  3.43596E+01  3.02147E+01  3.31737E+01  3.03289E+01  2.70854E+01  3.77373E+01  2.77293E+01
   2.73874E+01  2.23653E+01  2.21212E+01  2.54529E+01  2.72392E+01  3.49662E+01  1.46933E+01  2.59863E+01  1.60736E+01  2.46653E+01
   2.85430E+01  2.15374E+01  2.44034E+01  2.02707E+01  2.68363E+01  2.07946E+01  2.49630E+01  1.12336E+01  2.98028E+01  3.56883E+01
   1.60165E+01  2.23666E+01  2.30378E+01  1.46294E+01  2.63911E+01  3.85697E+01  2.83457E+01  2.77686E+01  3.01241E+01  2.50707E+01
   2.79072E+01  4.19673E+01  2.15377E+01  3.56601E+01  3.21275E+01  2.75659E+01  3.69818E+01  3.86972E+01  3.56981E+01  3.08715E+01
   1.62734E+01  2.52452E+01  2.90757E+01  3.39006E+01  2.07424E+01  2.08434E+01  3.56510E+01  2.80541E+01  3.15487E+01  1.89225E+01
   2.69442E+01  3.11504E+01  1.29691E+01  1.49023E+01  2.33599E+01  2.35841E+01  2.27589E+01  1.69014E+01  1.56295E+01  9.20216E+00
   1.73195E+01  2.38920E+01  1.83188E+01  1.94060E+01  2.48328E+01  2.06455E+01  2.91717E+01  2.83771E+01  2.52152E+01  1.85056E+01
   2.42856E+01  1.38039E+01  2.60550E+01  1.44648E+01  2.36880E+01  1.76947E+01  2.39213E+01  1.14679E+01  1.66972E+01  2.41808E+01
   2.33911E+01  2.38061E+01  2.70840E+01  2.26094E+01  2.30728E+01  1.76532E+01  1.97734E+01  1.40386E+01  1.60752E+01  1.11452E+01
   1.90594E+01  1.69452E+01  3.52992E+01  2.14404E+01  2.17046E+01  1.86294E+01  2.56680E+01  2.10033E+01  2.10524E+01  1.97691E+01
   3.35429E+01  2.17834E+01  3.42218E+01  2.40511E+01  2.10171E+01  2.93374E+01  1.74129E+01  3.04953E+01  3.52552E+01  2.77484E+01
   2.23764E+01  2.64156E+01  3.62932E+01  2.00830E+01  2.52415E+01  2.92514E+01  2.72633E+01  2.51170E+01  3.25349E+01  3.47784E+01
   2.22342E+01  3.68416E+01  1.73712E+01  2.59934E+01  2.79853E+01  2.37051E+01  2.88301E+01  2.28387E+01
 NY points of the fit to the data follow
  -4.29680E+01 -4.32749E+01 -4.32478E+01 -4.22133E+01 -3.89942E+01 -3.30297E+01 -2.43796E+01 -1.46517E+01 -6.64158E+00 -2.96485E+00
  -4.55080E+00 -9.34370E+00 -1.49978E+01 -2.15486E+01 -2.76031E+01 -3.20350E+01 -3.55229E+01 -3.75982E+01 -3.78158E+01 -3.72973E+01
  -3.64369E+01 -3.54211E+01 -3.44803E+01 -3.37685E+01 -3.32691E+01 -3.28937E+01 -3.22959E+01 -3.10007E+01 -2.87968E+01 -2.59480E+01
  -2.32314E+01 -2.11795E+01 -2.00495E+01 -2.04251E+01 -2.21737E+01 -2.44997E+01 -2.69981E+01 -2.91587E+01 -3.05173E+01 -3.10935E+01
  -3.10240E+01 -3.02910E+01 -2.83970E+01 -2.51501E+01 -2.12207E+01 -1.74093E+01 -1.48386E+01 -1.45078E+01 -1.60891E+01 -1.85108E+01
  -2.10343E+01 -2.32239E+01 -2.48198E+01 -2.56580E+01 -2.56379E+01 -2.47489E+01 -2.31294E+01 -2.11434E+01 -1.93388E+01 -1.82034E+01
  -1.79175E+01 -1.82619E+01 -1.89522E+01 -1.96143E+01 -1.99283E+01 -1.98633E+01 -1.94809E+01 -1.88308E+01 -1.80122E+01 -1.70201E+01
  -1.59277E+01 -1.47442E+01 -1.35418E+01 -1.25050E+01 -1.17720E+01 -1.16444E+01 -1.22901E+01 -1.33017E+01 -1.42228E+01 -1.48412E+01
  -1.47142E+01 -1.34205E+01 -1.11121E+01 -8.10481E+00 -5.02384E+00 -2.92712E+00 -2.59008E+00 -3.90207E+00 -5.92136E+00 -7.82518E+00
  -9.71276E+00 -1.13499E+01 -1.24567E+01 -1.31562E+01 -1.31286E+01 -1.18044E+01 -7.88156E+00  1.53661E+00  1.80988E+01  4.14167E+01
   6.71963E+01  8.82701E+01  9.76496E+01  9.31037E+01  7.94035E+01  6.28650E+01  4.43754E+01  2.70836E+01  1.39714E+01  3.78679E+00
  -3.03501E+00 -5.54052E+00 -6.40913E+00 -6.81576E+00 -7.01016E+00 -7.12584E+00 -7.15650E+00 -7.11392E+00 -6.95543E+00 -6.52491E+00
  -5.21529E+00 -8.33144E-01  8.76887E+00  2.45223E+01  4.49479E+01  6.52143E+01  7.90617E+01  8.22045E+01  7.50651E+01  6.31532E+01
   4.94044E+01  3.45336E+01  2.16922E+01  1.17039E+01  3.69444E+00 -8.50000E-01 -2.37028E+00 -2.79931E+00 -2.62924E+00 -2.11389E+00
  -1.55367E+00 -1.06517E+00 -6.89160E-01 -5.03794E-01 -4.67584E-01 -5.61407E-01 -7.58142E-01 -9.75632E-01 -1.16479E+00 -1.31613E+00
  -1.41703E+00 -1.46306E+00 -1.44878E+00 -1.37448E+00 -1.24779E+00 -1.17911E+00 -1.30875E+00 -1.71616E+00 -2.35273E+00 -2.96073E+00
  -3.22393E+00 -2.93873E+00 -2.18645E+00 -1.38614E+00 -8.70100E-01 -7.27220E-01 -9.48445E-01 -1.30811E+00 -1.69260E+00 -2.17196E+00
  -2.69146E+00 -3.27716E+00 -3.93648E+00 -4.49983E+00 -4.79319E+00 -4.72814E+00 -4.30654E+00 -3.72862E+00 -3.29449E+00 -3.08595E+00
  -2.82829E+00 -2.50683E+00 -2.23368E+00 -2.02297E+00 -1.80789E+00 -1.26990E+00 -9.96285E-02  1.66917E+00  3.73340E+00  5.54666E+00
   6.84166E+00  7.72774E+00  8.16645E+00  8.25922E+00  8.16349E+00  7.86854E+00  7.48898E+00  7.31777E+00  7.58099E+00  8.44797E+00
   9.84359E+00  1.15341E+01  1.31649E+01  1.42191E+01  1.42002E+01  1.30107E+01  1.08614E+01  8.11621E+00  5.41469E+00  3.52749E+00
   3.22349E+00  4.94423E+00  8.40428E+00  1.29132E+01  1.72451E+01  1.96954E+01  1.94122E+01  1.65750E+01  1.19773E+01  6.71962E+00
   2.10359E+00 -3.60312E-01  1.80663E-02  2.82841E+00  7.05622E+00  1.13718E+01  1.49476E+01  1.74102E+01  1.85314E+01  1.87573E+01
   1.85904E+01  1.83590E+01  1.84856E+01  1.91054E+01  2.00129E+01  2.10727E+01  2.20008E+01  2.24385E+01  2.22893E+01  2.17171E+01
   2.10594E+01  2.06756E+01  2.09023E+01  2.18276E+01  2.32020E+01  2.45208E+01  2.55714E+01  2.62869E+01  2.65940E+01  2.67035E+01
   2.70579E+01  2.77737E+01  2.88159E+01  3.04208E+01  3.44362E+01  4.41855E+01  6.15194E+01  8.61912E+01  1.13380E+02  1.35021E+02
   1.43635E+02  1.37196E+02  1.21181E+02  1.02382E+02  8.14467E+01  6.19425E+01  4.70772E+01  3.53347E+01  2.72858E+01  2.40980E+01
   2.28167E+01  2.22256E+01  2.21070E+01  2.22635E+01  2.24335E+01  2.25012E+01  2.24165E+01  2.21340E+01  2.16784E+01  2.11514E+01
   2.06235E+01  2.01689E+01  1.98575E+01  1.96858E+01  1.96384E+01  1.96889E+01  1.97865E+01  1.99090E+01  2.00516E+01  2.01970E+01
   2.03454E+01  2.05097E+01  2.06994E+01  2.09205E+01  2.11835E+01  2.14968E+01  2.18544E+01  2.22518E+01  2.26894E+01  2.31607E+01
   2.36597E+01  2.41840E+01  2.47274E+01  2.52856E+01  2.58562E+01  2.64397E+01  2.70386E+01  2.76560E+01  2.82970E+01  2.89672E+01
   2.96728E+01  3.04201E+01  3.12151E+01  3.20611E+01  3.29586E+01  3.39049E+01  3.48929E+01  3.59111E+01  3.69433E+01  3.79683E+01
   3.89612E+01  3.98939E+01  4.07371E+01  4.14613E+01  4.20385E+01  4.24436E+01  4.26564E+01  4.26627E+01  4.24558E+01  4.20363E+01
   4.14127E+01  4.06007E+01  3.96226E+01  3.85063E+01  3.72842E+01  3.59909E+01  3.46625E+01  3.33347E+01  3.20419E+01  3.08163E+01
   2.96871E+01  2.86803E+01  2.78183E+01  2.71200E+01  2.66005E+01  2.62706E+01  2.61360E+01  2.61952E+01  2.64385E+01  2.68459E+01
   2.73864E+01  2.80183E+01  2.86900E+01  2.93443E+01  2.99231E+01  3.03737E+01  3.06549E+01  3.07419E+01  3.06287E+01  3.03283E+01
   2.98696E+01  2.92931E+01  2.86444E+01  2.79681E+01  2.73032E+01  2.66796E+01  2.61173E+01  2.56265E+01  2.52096E+01  2.48633E+01
   2.45809E+01  2.43544E+01  2.41762E+01  2.40400E+01  2.39411E+01  2.38764E+01  2.38445E+01  2.38452E+01  2.38796E+01  2.39492E+01
   2.40563E+01  2.42030E+01  2.43918E+01  2.46247E+01  2.49038E+01  2.52305E+01  2.56056E+01  2.60288E+01  2.64990E+01  2.70135E+01
   2.75687E+01  2.81588E+01  2.87768E+01  2.94136E+01  3.00588E+01  3.07003E+01  3.13252E+01  3.19195E+01  3.24689E+01  3.29594E+01
   3.33781E+01  3.37132E+01  3.39550E+01  3.40964E+01  3.41329E+01  3.40631E+01  3.38889E+01  3.36152E+01  3.32497E+01  3.28022E+01
   3.22846E+01  3.17103E+01  3.10931E+01  3.04471E+01  2.97860E+01  2.91224E+01  2.84676E+01  2.78316E+01  2.72225E+01  2.66466E+01
   2.61084E+01  2.56108E+01  2.51553E+01  2.47422E+01  2.43706E+01  2.40391E+01  2.37452E+01  2.34865E+01  2.32601E+01  2.30633E+01
   2.28931E+01  2.27469E+01  2.26219E+01  2.25159E+01  2.24266E+01  2.23523E+01  2.22910E+01  2.22414E+01  2.22019E+01  2.21715E+01
   2.21492E+01  2.21342E+01  2.21255E+01  2.21226E+01  2.21247E+01  2.21316E+01  2.21427E+01  2.21577E+01  2.21761E+01  2.21978E+01
   2.22223E+01  2.22496E+01  2.22794E+01  2.23116E+01  2.23458E+01  2.23821E+01  2.24203E+01  2.24602E+01  2.25017E+01  2.25448E+01
   2.25892E+01  2.26350E+01  2.26820E+01  2.27302E+01  2.27796E+01  2.28300E+01  2.28813E+01  2.29335E+01  2.29866E+01  2.30406E+01
   2.30954E+01  2.31509E+01  2.32070E+01  2.32639E+01  2.33213E+01  2.33795E+01  2.34381E+01  2.34972E+01  2.35568E+01  2.36170E+01
   2.36775E+01  2.37385E+01  2.37999E+01  2.38616E+01  2.39237E+01  2.39861E+01  2.40489E+01  2.41120E+01  2.41753E+01  2.42389E+01
   2.43027E+01  2.43668E+01  2.44312E+01  2.44958E+01  2.45606E+01  2.46256E+01  2.46909E+01  2.47565E+01
 NY background values follow
    -4.669E+01   -4.635E+01   -4.602E+01   -4.568E+01   -4.534E+01   -4.500E+01   -4.466E+01   -4.432E+01   -4.398E+01   -4.364E+01
    -4.330E+01   -4.296E+01   -4.262E+01   -4.228E+01   -4.194E+01   -4.160E+01   -4.126E+01   -4.093E+01   -4.059E+01   -4.025E+01
    -3.991E+01   -3.958E+01   -3.924E+01   -3.890E+01   -3.857E+01   -3.823E+01   -3.789E+01   -3.756E+01   -3.722E+01   -3.689E+01
    -3.655E+01   -3.622E+01   -3.589E+01   -3.555E+01   -3.522E+01   -3.489E+01   -3.456E+01   -3.423E+01   -3.390E+01   -3.357E+01
    -3.324E+01   -3.291E+01   -3.259E+01   -3.226E+01   -3.193E+01   -3.161E+01   -3.128E+01   -3.096E+01   -3.063E+01   -3.031E+01
    -2.999E+01   -2.967E+01   -2.935E+01   -2.903E+01   -2.871E+01   -2.839E+01   -2.808E+01   -2.776E+01   -2.745E+01   -2.713E+01
    -2.682E+01   -2.651E+01   -2.619E+01   -2.588E+01   -2.557E+01   -2.527E+01   -2.496E+01   -2.465E+01   -2.435E+01   -2.404E+01
    -2.374E+01   -2.344E+01   -2.314E+01   -2.284E+01   -2.254E+01   -2.224E+01   -2.194E+01   -2.165E+01   -2.135E+01   -2.106E+01
    -2.077E+01   -2.048E+01   -2.019E+01   -1.990E+01   -1.961E+01   -1.933E+01   -1.904E+01   -1.876E+01   -1.848E+01   -1.819E+01
    -1.792E+01   -1.764E+01   -1.736E+01   -1.709E+01   -1.681E+01   -1.654E+01   -1.627E+01   -1.600E+01   -1.573E+01   -1.546E+01
    -1.520E+01   -1.493E+01   -1.467E+01   -1.441E+01   -1.415E+01   -1.389E+01   -1.363E+01   -1.337E+01   -1.312E+01   -1.286E+01
    -1.261E+01   -1.236E+01   -1.211E+01   -1.186E+01   -1.161E+01   -1.137E+01   -1.112E+01   -1.088E+01   -1.064E+01   -1.039E+01
    -1.015E+01   -9.916E+00   -9.679E+00   -9.443E+00   -9.209E+00   -8.975E+00   -8.743E+00   -8.513E+00   -8.283E+00   -8.055E+00
    -7.828E+00   -7.602E+00   -7.378E+00   -7.155E+00   -6.933E+00   -6.712E+00   -6.493E+00   -6.275E+00   -6.058E+00   -5.842E+00
    -5.627E+00   -5.414E+00   -5.202E+00   -4.991E+00   -4.781E+00   -4.573E+00   -4.365E+00   -4.159E+00   -3.954E+00   -3.750E+00
    -3.547E+00   -3.345E+00   -3.144E+00   -2.945E+00   -2.746E+00   -2.548E+00   -2.352E+00   -2.156E+00   -1.962E+00   -1.768E+00
    -1.575E+00   -1.384E+00   -1.193E+00   -1.004E+00   -8.149E-01   -6.271E-01   -4.403E-01   -2.543E-01   -6.930E-02    1.148E-01
     2.981E-01    4.805E-01    6.620E-01    8.427E-01    1.023E+00    1.202E+00    1.380E+00    1.557E+00    1.734E+00    1.910E+00
     2.085E+00    2.259E+00    2.433E+00    2.605E+00    2.777E+00    2.949E+00    3.119E+00    3.289E+00    3.458E+00    3.626E+00
     3.794E+00    3.961E+00    4.127E+00    4.292E+00    4.456E+00    4.620E+00    4.783E+00    4.945E+00    5.106E+00    5.267E+00
     5.426E+00    5.585E+00    5.744E+00    5.901E+00    6.058E+00    6.213E+00    6.368E+00    6.523E+00    6.676E+00    6.829E+00
     6.981E+00    7.132E+00    7.282E+00    7.431E+00    7.580E+00    7.728E+00    7.875E+00    8.021E+00    8.166E+00    8.311E+00
     8.455E+00    8.598E+00    8.740E+00    8.881E+00    9.022E+00    9.161E+00    9.300E+00    9.438E+00    9.576E+00    9.712E+00
     9.847E+00    9.982E+00    1.012E+01    1.025E+01    1.038E+01    1.051E+01    1.064E+01    1.077E+01    1.090E+01    1.103E+01
     1.115E+01    1.128E+01    1.140E+01    1.153E+01    1.165E+01    1.177E+01    1.189E+01    1.201E+01    1.213E+01    1.225E+01
     1.237E+01    1.248E+01    1.260E+01    1.271E+01    1.282E+01    1.294E+01    1.305E+01    1.316E+01    1.326E+01    1.337E+01
     1.348E+01    1.358E+01    1.369E+01    1.379E+01    1.389E+01    1.399E+01    1.409E+01    1.419E+01    1.429E+01    1.438E+01
     1.448E+01    1.457E+01    1.467E+01    1.476E+01    1.485E+01    1.494E+01    1.503E+01    1.511E+01    1.520E+01    1.528E+01
     1.537E+01    1.545E+01    1.553E+01    1.561E+01    1.569E+01    1.577E+01    1.584E+01    1.592E+01    1.599E+01    1.607E+01
     1.614E+01    1.621E+01    1.628E+01    1.635E+01    1.642E+01    1.648E+01    1.655E+01    1.661E+01    1.668E+01    1.674E+01
     1.680E+01    1.686E+01    1.692E+01    1.698E+01    1.704E+01    1.709E+01    1.715E+01    1.720E+01    1.726E+01    1.731E+01
     1.736E+01    1.741E+01    1.746E+01    1.751E+01    1.756E+01    1.760E+01    1.765E+01    1.769E+01    1.774E+01    1.778E+01
     1.782E+01    1.786E+01    1.790E+01    1.794E+01    1.798E+01    1.802E+01    1.806E+01    1.809E+01    1.813E+01    1.816E+01
     1.819E+01    1.823E+01    1.826E+01    1.829E+01    1.832E+01    1.835E+01    1.838E+01    1.841E+01    1.844E+01    1.847E+01
     1.849E+01    1.852E+01    1.855E+01    1.857E+01    1.860E+01    1.862E+01    1.864E+01    1.867E+01    1.869E+01    1.871E+01
     1.874E+01    1.876E+01    1.878E+01    1.880E+01    1.882E+01    1.884E+01    1.886E+01    1.888E+01    1.890E+01    1.892E+01
     1.894E+01    1.896E+01    1.897E+01    1.899E+01    1.901E+01    1.903E+01    1.904E+01    1.906E+01    1.908E+01    1.910E+01
     1.911E+01    1.913E+01    1.915E+01    1.917E+01    1.918E+01    1.920E+01    1.922E+01    1.924E+01    1.925E+01    1.927E+01
     1.929E+01    1.931E+01    1.933E+01    1.934E+01    1.936E+01    1.938E+01    1.940E+01    1.942E+01    1.944E+01    1.946E+01
     1.948E+01    1.950E+01    1.952E+01    1.954E+01    1.957E+01    1.959E+01    1.961E+01    1.964E+01    1.966E+01    1.968E+01
     1.971E+01    1.974E+01    1.976E+01    1.979E+01    1.982E+01    1.984E+01    1.987E+01    1.990E+01    1.993E+01    1.997E+01
     2.000E+01    2.003E+01    2.006E+01    2.010E+01    2.013E+01    2.017E+01    2.020E+01    2.024E+01    2.028E+01    2.032E+01
     2.035E+01    2.039E+01    2.043E+01    2.047E+01    2.052E+01    2.056E+01    2.060E+01    2.064E+01    2.069E+01    2.073E+01
     2.078E+01    2.082E+01    2.087E+01    2.092E+01    2.096E+01    2.101E+01    2.106E+01    2.111E+01    2.116E+01    2.121E+01
     2.126E+01    2.131E+01    2.137E+01    2.142E+01    2.147E+01    2.153E+01    2.158E+01    2.163E+01    2.169E+01    2.175E+01
     2.180E+01    2.186E+01    2.192E+01    2.198E+01    2.203E+01    2.209E+01    2.215E+01    2.221E+01    2.227E+01    2.233E+01
     2.240E+01    2.246E+01    2.252E+01    2.258E+01    2.264E+01    2.271E+01    2.277E+01    2.283E+01    2.290E+01    2.296E+01
     2.303E+01    2.309E+01    2.316E+01    2.322E+01    2.329E+01    2.335E+01    2.342E+01    2.349E+01    2.355E+01    2.362E+01
     2.369E+01    2.375E+01    2.382E+01    2.389E+01    2.395E+01    2.402E+01    2.409E+01    2.415E+01    2.422E+01    2.429E+01
     2.435E+01    2.442E+01    2.449E+01    2.456E+01    2.462E+01    2.469E+01    2.476E+01    2.482E+01
 Asp      Conc. = 2.06E+02
