 LCModel (Version 6.3-1L) Copyright: S.W. Provencher.          Ref.: Magn. Reson. Med. 30:672-679 (1993).                
 Slice#1 Row#10 Col#1  PD_24_press_2_raw_act
 36 lines in following concentration table = NCONC+1
    Conc.  %SD /Cr+PCr  Metabolite                                         
 8.90E+03  58%   0.580 Ala                                                 
 6.31E+04   6%   4.111+Asp                                                 
 1.53E+04   5%   1.000 Cr                                                  
    0.000 999%   0.000 PCr                                                 
    0.000 999%   0.000 GABA                                                
 2.76E+03 105%   0.180 Glc                                                 
    0.000 999%   0.000 Gln                                                 
    0.000 999%   0.000 Glu                                                 
 6.21E+03   6%   0.405 GPC                                                 
    0.000 999%   0.000 PCh                                                 
 9.61E+03  16%   0.626 GSH                                                 
 4.45E+04  11%   2.903 Ins                                                 
 7.90E+03  82%   0.515 Lac                                                 
 6.32E+04  10%   4.122 NAA                                                 
 1.84E+04  35%   1.200 NAAG                                                
 5.33E+03   9%   0.347+Scyllo                                              
 3.62E+04   9%   2.359+Tau                                                 
 1.53E+03  12%   0.100 -CrCH2                                              
 6.21E+03   6%   0.405 GPC+PCh                                             
 8.16E+04   2%   5.322 NAA+NAAG                                            
 1.53E+04   5%   1.000 Cr+PCr                                              
    0.000 999%   0.000 Glu+Gln                                             
 2.33E+04  33%   1.522 Lip13a                                              
    0.000 999%   0.000 Lip13b                                              
 8.20E+03  28%   0.535 Lip09                                               
 1.08E+04  21%   0.702 MM09                                                
  407.146 413% 2.7E-02 Lip20                                               
 1.48E+04  23%   0.965 MM20                                                
 3.30E+03  23%   0.215 MM12                                                
 8.85E+03  24%   0.577 MM14                                                
 5.28E+03  21%   0.344 MM17                                                
 2.33E+04  33%   1.522 Lip13a+Lip13b                                       
 3.55E+04  23%   2.314 MM14+Lip13a+Lip13b+MM12                             
 1.90E+04  17%   1.237 MM09+Lip09                                          
 1.52E+04  24%   0.992 MM20+Lip20                                          
   6 lines in following misc. output table
  FWHM = 0.153 ppm    S/N =  33                                            
  Data shift = 0.436 ppm                                                   
  Ph: -86 deg     229.6 deg/ppm                                            
  alphaB,S = 3.1E-01,   3.6E-01                                            
   11 spline knots.   Ns = 9(2)                                            
   4 inflections.     1 extrema                                            
  498 points on ppm-axis = NY
      4.000000     3.992357     3.984714     3.977070     3.969427     3.961784     3.954141     3.946497     3.938854     3.931211
      3.923568     3.915925     3.908281     3.900638     3.892995     3.885352     3.877708     3.870065     3.862422     3.854779
      3.847136     3.839492     3.831849     3.824206     3.816563     3.808919     3.801276     3.793633     3.785990     3.778347
      3.770703     3.763060     3.755417     3.747774     3.740130     3.732487     3.724844     3.717201     3.709558     3.701914
      3.694271     3.686628     3.678985     3.671341     3.663698     3.656055     3.648412     3.640769     3.633125     3.625482
      3.617839     3.610196     3.602552     3.594909     3.587266     3.579623     3.571980     3.564336     3.556693     3.549050
      3.541407     3.533763     3.526120     3.518477     3.510834     3.503191     3.495547     3.487904     3.480261     3.472618
      3.464974     3.457331     3.449688     3.442045     3.434402     3.426758     3.419115     3.411472     3.403829     3.396185
      3.388542     3.380899     3.373256     3.365613     3.357969     3.350326     3.342683     3.335040     3.327396     3.319753
      3.312110     3.304467     3.296824     3.289180     3.281537     3.273894     3.266251     3.258607     3.250964     3.243321
      3.235678     3.228034     3.220391     3.212748     3.205105     3.197462     3.189818     3.182175     3.174532     3.166889
      3.159245     3.151602     3.143959     3.136316     3.128673     3.121029     3.113386     3.105743     3.098100     3.090456
      3.082813     3.075170     3.067527     3.059884     3.052240     3.044597     3.036954     3.029311     3.021667     3.014024
      3.006381     2.998738     2.991095     2.983451     2.975808     2.968165     2.960522     2.952878     2.945235     2.937592
      2.929949     2.922306     2.914662     2.907019     2.899376     2.891733     2.884089     2.876446     2.868803     2.861160
      2.853517     2.845873     2.838230     2.830587     2.822944     2.815300     2.807657     2.800014     2.792371     2.784728
      2.777084     2.769441     2.761798     2.754155     2.746511     2.738868     2.731225     2.723582     2.715939     2.708295
      2.700652     2.693009     2.685366     2.677722     2.670079     2.662436     2.654793     2.647150     2.639506     2.631863
      2.624220     2.616577     2.608933     2.601290     2.593647     2.586004     2.578361     2.570717     2.563074     2.555431
      2.547788     2.540144     2.532501     2.524858     2.517215     2.509572     2.501928     2.494285     2.486642     2.478999
      2.471355     2.463712     2.456069     2.448426     2.440783     2.433139     2.425496     2.417853     2.410210     2.402566
      2.394923     2.387280     2.379637     2.371994     2.364350     2.356707     2.349064     2.341421     2.333777     2.326134
      2.318491     2.310848     2.303205     2.295561     2.287918     2.280275     2.272632     2.264988     2.257345     2.249702
      2.242059     2.234416     2.226772     2.219129     2.211486     2.203843     2.196199     2.188556     2.180913     2.173270
      2.165627     2.157983     2.150340     2.142697     2.135054     2.127410     2.119767     2.112124     2.104481     2.096838
      2.089194     2.081551     2.073908     2.066265     2.058621     2.050978     2.043335     2.035692     2.028049     2.020405
      2.012762     2.005119     1.997476     1.989833     1.982190     1.974546     1.966903     1.959260     1.951617     1.943974
      1.936331     1.928688     1.921045     1.913402     1.905759     1.898115     1.890472     1.882829     1.875186     1.867543
      1.859900     1.852257     1.844614     1.836971     1.829327     1.821684     1.814041     1.806398     1.798755     1.791112
      1.783469     1.775826     1.768183     1.760540     1.752896     1.745253     1.737610     1.729967     1.722324     1.714681
      1.707038     1.699395     1.691752     1.684108     1.676465     1.668822     1.661179     1.653536     1.645893     1.638250
      1.630607     1.622964     1.615321     1.607677     1.600034     1.592391     1.584748     1.577105     1.569462     1.561819
      1.554176     1.546533     1.538890     1.531246     1.523603     1.515960     1.508317     1.500674     1.493031     1.485388
      1.477745     1.470102     1.462458     1.454815     1.447172     1.439529     1.431886     1.424243     1.416600     1.408957
      1.401314     1.393671     1.386027     1.378384     1.370741     1.363098     1.355455     1.347812     1.340169     1.332526
      1.324883     1.317240     1.309596     1.301953     1.294310     1.286667     1.279024     1.271381     1.263738     1.256095
      1.248452     1.240808     1.233165     1.225522     1.217879     1.210236     1.202593     1.194950     1.187307     1.179664
      1.172021     1.164377     1.156734     1.149091     1.141448     1.133805     1.126162     1.118519     1.110876     1.103233
      1.095590     1.087946     1.080303     1.072660     1.065017     1.057374     1.049731     1.042088     1.034445     1.026802
      1.019158     1.011515     1.003872     0.996229     0.988586     0.980943     0.973300     0.965657     0.958014     0.950371
      0.942727     0.935084     0.927441     0.919798     0.912155     0.904512     0.896869     0.889226     0.881583     0.873940
      0.866296     0.858653     0.851010     0.843367     0.835724     0.828081     0.820438     0.812795     0.805152     0.797508
      0.789865     0.782222     0.774579     0.766936     0.759293     0.751650     0.744007     0.736364     0.728721     0.721077
      0.713434     0.705791     0.698148     0.690505     0.682862     0.675219     0.667576     0.659933     0.652290     0.644646
      0.637003     0.629360     0.621717     0.614074     0.606431     0.598788     0.591145     0.583502     0.575858     0.568215
      0.560572     0.552929     0.545286     0.537643     0.530000     0.522357     0.514714     0.507071     0.499427     0.491784
      0.484141     0.476498     0.468855     0.461212     0.453569     0.445925     0.438282     0.430639     0.422996     0.415353
      0.407710     0.400067     0.392424     0.384780     0.377137     0.369494     0.361851     0.354208     0.346565     0.338922
      0.331278     0.323635     0.315992     0.308349     0.300706     0.293063     0.285420     0.277777     0.270133     0.262490
      0.254847     0.247204     0.239561     0.231918     0.224275     0.216631     0.208988     0.201345
 NY phased data points follow
  -4.01821E+01 -3.97921E+01 -3.90456E+01 -4.11179E+01 -3.93812E+01 -3.73429E+01 -4.07222E+01 -4.11698E+01 -4.44683E+01 -3.90547E+01
  -3.96572E+01 -4.20065E+01 -4.20568E+01 -3.95836E+01 -4.23016E+01 -4.15065E+01 -3.75576E+01 -3.84639E+01 -3.99672E+01 -3.97857E+01
  -3.53907E+01 -3.44223E+01 -3.57225E+01 -3.16591E+01 -3.40477E+01 -3.33617E+01 -3.46460E+01 -3.31127E+01 -3.26923E+01 -3.27527E+01
  -2.90874E+01 -2.65673E+01 -2.83508E+01 -2.63979E+01 -2.46133E+01 -2.16861E+01 -2.39671E+01 -1.61631E+01 -1.40030E+01 -1.53006E+01
  -1.37744E+01 -9.57951E+00 -1.07015E+01 -4.63086E+00 -5.15061E+00 -2.37189E+00 -2.82779E+00  7.13271E+00  7.48877E+00  1.34075E+01
   1.86014E+01  1.91487E+01  2.43739E+01  2.24299E+01  2.70800E+01  3.71036E+01  3.28348E+01  4.24514E+01  4.09795E+01  4.86532E+01
   5.50665E+01  5.36628E+01  5.90668E+01  6.19596E+01  6.54335E+01  6.40199E+01  6.77264E+01  7.13592E+01  7.12119E+01  7.64677E+01
   7.54393E+01  7.79331E+01  8.18215E+01  8.49553E+01  8.26825E+01  8.42048E+01  8.35810E+01  8.10098E+01  8.47276E+01  8.55222E+01
   8.87526E+01  8.72729E+01  9.04948E+01  9.05154E+01  9.10927E+01  9.06533E+01  9.16641E+01  9.27709E+01  9.60713E+01  9.52864E+01
   9.95837E+01  1.00502E+02  1.02989E+02  1.02372E+02  1.05568E+02  1.08074E+02  1.08703E+02  1.09697E+02  1.12582E+02  1.16885E+02
   1.17490E+02  1.19801E+02  1.21912E+02  1.22457E+02  1.25032E+02  1.26765E+02  1.29455E+02  1.31595E+02  1.28922E+02  1.34109E+02
   1.31878E+02  1.34323E+02  1.34409E+02  1.29219E+02  1.29526E+02  1.29056E+02  1.26667E+02  1.24238E+02  1.20964E+02  1.19084E+02
   1.11863E+02  1.09888E+02  1.03699E+02  9.71332E+01  8.92745E+01  7.80962E+01  7.31281E+01  6.50996E+01  5.99566E+01  4.54112E+01
   4.09341E+01  3.12316E+01  2.20601E+01  1.31940E+01  1.24507E+00 -1.06277E+01 -2.21448E+01 -3.27720E+01 -4.29363E+01 -5.57610E+01
  -6.22505E+01 -7.34874E+01 -8.51066E+01 -9.80205E+01 -1.08139E+02 -1.19103E+02 -1.31729E+02 -1.42881E+02 -1.52356E+02 -1.62906E+02
  -1.74402E+02 -1.87521E+02 -1.95111E+02 -2.10933E+02 -2.16900E+02 -2.23805E+02 -2.33057E+02 -2.44179E+02 -2.49995E+02 -2.57547E+02
  -2.61399E+02 -2.63939E+02 -2.69441E+02 -2.68074E+02 -2.63703E+02 -2.61726E+02 -2.57284E+02 -2.52411E+02 -2.47449E+02 -2.36747E+02
  -2.27475E+02 -2.16384E+02 -2.10231E+02 -2.01376E+02 -1.89288E+02 -1.77354E+02 -1.64377E+02 -1.54930E+02 -1.43585E+02 -1.33773E+02
  -1.22725E+02 -1.10253E+02 -1.02546E+02 -9.25359E+01 -8.35751E+01 -7.62971E+01 -6.78170E+01 -6.17109E+01 -5.24510E+01 -4.59114E+01
  -4.17019E+01 -3.79141E+01 -3.26503E+01 -3.11371E+01 -2.60339E+01 -2.16790E+01 -1.86475E+01 -1.80391E+01 -1.58514E+01 -1.56655E+01
  -1.73033E+01 -2.14526E+01 -2.12855E+01 -1.80108E+01 -2.24177E+01 -2.32085E+01 -2.66172E+01 -2.60714E+01 -2.25120E+01 -2.36814E+01
  -2.09803E+01 -2.51741E+01 -3.41036E+01 -3.65415E+01 -3.87769E+01 -3.90805E+01 -4.07217E+01 -4.59983E+01 -5.05050E+01 -5.13658E+01
  -5.91450E+01 -5.64163E+01 -6.18158E+01 -6.26442E+01 -6.95266E+01 -7.23882E+01 -7.71744E+01 -8.27969E+01 -8.37545E+01 -8.32405E+01
  -8.75847E+01 -9.06861E+01 -9.13010E+01 -8.78320E+01 -8.81836E+01 -8.09271E+01 -7.79702E+01 -7.00117E+01 -5.93529E+01 -4.43017E+01
  -2.69171E+01 -6.91413E+00  1.97297E+01  5.56552E+01  8.91655E+01  1.34761E+02  1.83411E+02  2.39079E+02  2.94928E+02  3.60366E+02
   4.22048E+02  4.93189E+02  5.58819E+02  6.19295E+02  6.83150E+02  7.33714E+02  7.73276E+02  8.05758E+02  8.25028E+02  8.33854E+02
   8.30113E+02  8.12195E+02  7.83821E+02  7.47901E+02  7.01347E+02  6.47497E+02  5.88764E+02  5.27986E+02  4.64412E+02  4.01897E+02
   3.31934E+02  2.67742E+02  2.05257E+02  1.47179E+02  8.93830E+01  4.25703E+01 -3.14297E+00 -4.53606E+01 -8.51098E+01 -1.20664E+02
  -1.45798E+02 -1.67449E+02 -1.92734E+02 -2.06465E+02 -2.25353E+02 -2.35331E+02 -2.45759E+02 -2.55798E+02 -2.58448E+02 -2.65752E+02
  -2.68161E+02 -2.71163E+02 -2.72119E+02 -2.71395E+02 -2.72374E+02 -2.67310E+02 -2.68084E+02 -2.64292E+02 -2.64198E+02 -2.55880E+02
  -2.51585E+02 -2.45011E+02 -2.40411E+02 -2.34021E+02 -2.28512E+02 -2.24107E+02 -2.13448E+02 -2.10751E+02 -2.02555E+02 -1.98252E+02
  -1.93938E+02 -1.86609E+02 -1.86359E+02 -1.80544E+02 -1.75293E+02 -1.70678E+02 -1.66988E+02 -1.64624E+02 -1.60818E+02 -1.61057E+02
  -1.60171E+02 -1.57139E+02 -1.53779E+02 -1.48586E+02 -1.48344E+02 -1.47883E+02 -1.45991E+02 -1.44775E+02 -1.40092E+02 -1.36100E+02
  -1.33477E+02 -1.33976E+02 -1.26347E+02 -1.26029E+02 -1.21379E+02 -1.18832E+02 -1.14560E+02 -1.10175E+02 -1.06606E+02 -1.00048E+02
  -9.82337E+01 -9.43568E+01 -8.87696E+01 -8.37304E+01 -7.92128E+01 -7.26160E+01 -6.88880E+01 -6.89687E+01 -6.00482E+01 -5.87177E+01
  -5.29601E+01 -4.95143E+01 -4.28684E+01 -3.93958E+01 -4.08777E+01 -3.27017E+01 -2.88876E+01 -2.36453E+01 -1.73105E+01 -1.41324E+01
  -1.06145E+01 -8.28539E+00 -7.91254E+00 -2.87599E-01  2.81147E+00  3.57444E+00  1.02089E+01  1.32277E+01  1.95694E+01  1.84881E+01
   2.34482E+01  2.57405E+01  2.74822E+01  3.12393E+01  3.48077E+01  3.75326E+01  3.99030E+01  4.19487E+01  4.50723E+01  4.77154E+01
   5.01589E+01  5.11525E+01  5.21520E+01  5.35250E+01  5.87475E+01  5.97087E+01  5.93175E+01  6.44858E+01  6.61119E+01  6.45299E+01
   6.78501E+01  6.69105E+01  6.97990E+01  7.15656E+01  7.18941E+01  7.46902E+01  7.54327E+01  7.90410E+01  7.73402E+01  7.75575E+01
   8.21840E+01  7.90851E+01  8.21856E+01  7.78197E+01  7.62157E+01  7.98348E+01  7.82470E+01  7.92055E+01  7.71998E+01  7.90477E+01
   8.01511E+01  7.69190E+01  7.53241E+01  7.74619E+01  7.63827E+01  7.56519E+01  7.52088E+01  7.74341E+01  7.71386E+01  7.53162E+01
   7.44064E+01  7.65672E+01  7.63075E+01  6.73165E+01  6.72981E+01  6.40364E+01  6.66905E+01  6.53085E+01  6.36581E+01  6.21879E+01
   6.28591E+01  6.08219E+01  6.03538E+01  5.54124E+01  5.68121E+01  5.72625E+01  5.37251E+01  5.06726E+01  4.75251E+01  4.68263E+01
   4.51474E+01  4.64815E+01  4.19810E+01  3.70366E+01  3.90708E+01  3.71876E+01  3.63892E+01  3.18600E+01  2.97798E+01  3.20034E+01
   2.45826E+01  2.61375E+01  2.40678E+01  2.19405E+01  1.97139E+01  2.02730E+01  1.61922E+01  1.11644E+01  1.20304E+01  1.58623E+01
   9.62756E+00  6.80543E+00  3.95407E+00  4.71887E+00  3.57003E+00  1.84178E+00 -1.76429E+00 -1.81375E+00 -5.27808E+00 -8.64580E+00
  -7.30303E+00 -1.15808E+01 -1.31896E+01 -1.26429E+01 -1.59060E+01 -1.40059E+01 -1.75708E+01 -2.13248E+01 -1.96614E+01 -2.32862E+01
  -2.56122E+01 -2.66529E+01 -2.75044E+01 -3.13057E+01 -3.14569E+01 -3.09211E+01 -3.00899E+01 -3.29285E+01 -3.27985E+01 -3.16648E+01
  -3.70711E+01 -3.58624E+01 -3.96515E+01 -3.81418E+01 -3.97269E+01 -3.79413E+01 -3.75890E+01 -4.00297E+01
 NY points of the fit to the data follow
  -4.71732E+01 -4.49575E+01 -4.00719E+01 -4.23560E+01 -3.80832E+01 -3.76471E+01 -3.47235E+01 -3.55107E+01 -3.55104E+01 -3.57752E+01
  -3.34848E+01 -3.61294E+01 -3.71753E+01 -4.01236E+01 -4.48607E+01 -4.53269E+01 -4.67035E+01 -4.67182E+01 -4.60844E+01 -4.44368E+01
  -4.32221E+01 -4.01365E+01 -3.90829E+01 -3.58540E+01 -3.50035E+01 -3.36946E+01 -3.17953E+01 -3.21909E+01 -2.93593E+01 -2.72753E+01
  -2.83790E+01 -2.72727E+01 -2.31100E+01 -2.53960E+01 -2.15856E+01 -1.89081E+01 -1.39952E+01 -1.48281E+01 -1.39125E+01 -1.10189E+01
  -8.19453E+00 -2.35153E+00  2.05110E+00  3.69194E+00  6.60280E+00  9.39361E+00  1.22678E+01  1.49402E+01  1.08918E+01  1.61354E+01
   1.72718E+01  2.06905E+01  2.07103E+01  2.41251E+01  2.45283E+01  2.78929E+01  3.18542E+01  3.56053E+01  3.69072E+01  3.75639E+01
   4.09929E+01  4.20537E+01  4.59037E+01  4.65855E+01  5.17924E+01  5.29069E+01  5.80969E+01  5.91333E+01  6.64494E+01  6.37033E+01
   6.86038E+01  7.31137E+01  8.07911E+01  8.58762E+01  9.06316E+01  9.39636E+01  9.42381E+01  9.71753E+01  9.61338E+01  1.03251E+02
   1.01306E+02  1.03409E+02  9.67112E+01  9.86809E+01  9.07391E+01  9.07402E+01  8.37994E+01  8.47964E+01  8.23391E+01  8.57790E+01
   8.36099E+01  8.42551E+01  8.68232E+01  8.63225E+01  8.86561E+01  8.79125E+01  9.93855E+01  1.03258E+02  1.17598E+02  1.21676E+02
   1.31838E+02  1.33438E+02  1.40260E+02  1.42872E+02  1.46052E+02  1.46713E+02  1.36852E+02  1.39590E+02  1.39115E+02  1.41001E+02
   1.31132E+02  1.28938E+02  1.20072E+02  1.22813E+02  1.16532E+02  1.15524E+02  1.09006E+02  1.02408E+02  9.55247E+01  9.51698E+01
   9.54530E+01  9.17441E+01  9.82045E+01  9.37791E+01  9.89794E+01  8.77961E+01  7.90850E+01  6.31579E+01  6.57380E+01  5.47087E+01
   5.52289E+01  4.09697E+01  3.69365E+01  2.19153E+01  1.50971E+01 -3.22537E-01 -9.66785E+00 -2.54805E+01 -3.60974E+01 -5.12310E+01
  -6.22615E+01 -7.62303E+01 -8.44379E+01 -1.01389E+02 -1.08611E+02 -1.26433E+02 -1.41605E+02 -1.57734E+02 -1.60514E+02 -1.76593E+02
  -1.77996E+02 -1.92841E+02 -1.95884E+02 -2.08505E+02 -2.10530E+02 -2.21289E+02 -2.23436E+02 -2.31522E+02 -2.35355E+02 -2.39415E+02
  -2.44804E+02 -2.44149E+02 -2.49647E+02 -2.40905E+02 -2.42992E+02 -2.33748E+02 -2.39487E+02 -2.29164E+02 -2.33312E+02 -2.16839E+02
  -2.17905E+02 -2.01916E+02 -2.00465E+02 -1.86332E+02 -1.81868E+02 -1.69752E+02 -1.64813E+02 -1.56962E+02 -1.46713E+02 -1.40765E+02
  -1.26392E+02 -1.19657E+02 -1.04265E+02 -1.04500E+02 -8.94926E+01 -8.92719E+01 -7.06659E+01 -7.10624E+01 -5.76664E+01 -6.12665E+01
  -4.76062E+01 -5.00608E+01 -3.96988E+01 -4.12092E+01 -3.31844E+01 -3.41237E+01 -2.59769E+01 -2.82069E+01 -2.36183E+01 -2.65058E+01
  -2.30750E+01 -2.54945E+01 -2.37305E+01 -2.74598E+01 -2.57627E+01 -3.20934E+01 -3.34040E+01 -3.96445E+01 -3.98767E+01 -4.73963E+01
  -4.74125E+01 -5.49419E+01 -5.37533E+01 -5.99134E+01 -5.42037E+01 -5.85872E+01 -5.73840E+01 -6.32117E+01 -6.05921E+01 -6.50376E+01
  -6.34905E+01 -6.69034E+01 -6.49546E+01 -6.87305E+01 -6.83890E+01 -7.03048E+01 -6.89419E+01 -7.01556E+01 -6.96387E+01 -7.07711E+01
  -7.05135E+01 -7.23130E+01 -7.16575E+01 -7.22411E+01 -7.28503E+01 -7.41200E+01 -7.39725E+01 -7.33073E+01 -6.26002E+01 -5.28057E+01
  -4.38778E+01 -1.90704E+01  2.63846E+01  5.97659E+01  9.97312E+01  1.40272E+02  1.92957E+02  2.43675E+02  3.08539E+02  3.66691E+02
   4.35129E+02  4.95692E+02  5.63355E+02  6.19945E+02  6.81938E+02  7.25575E+02  7.67339E+02  7.97023E+02  8.17160E+02  8.26989E+02
   8.28517E+02  8.14834E+02  7.83160E+02  7.49666E+02  6.99669E+02  6.53326E+02  5.91275E+02  5.36767E+02  4.68211E+02  4.09239E+02
   3.37380E+02  2.77200E+02  2.10170E+02  1.54057E+02  9.04890E+01  4.39775E+01 -1.12559E+01 -5.41049E+01 -8.26450E+01 -1.24789E+02
  -1.84353E+02 -2.08378E+02 -2.15989E+02 -2.23879E+02 -2.26807E+02 -2.32378E+02 -2.34236E+02 -2.38725E+02 -2.39867E+02 -2.43309E+02
  -2.44092E+02 -2.46673E+02 -2.47276E+02 -2.49090E+02 -2.49270E+02 -2.50197E+02 -2.49905E+02 -2.49420E+02 -2.48300E+02 -2.46916E+02
  -2.45101E+02 -2.42554E+02 -2.39756E+02 -2.36148E+02 -2.32564E+02 -2.27713E+02 -2.22988E+02 -2.17039E+02 -2.10729E+02 -2.02857E+02
  -1.97954E+02 -1.91326E+02 -1.86833E+02 -1.80331E+02 -1.77111E+02 -1.71634E+02 -1.70729E+02 -1.64349E+02 -1.63171E+02 -1.57951E+02
  -1.58564E+02 -1.54083E+02 -1.55730E+02 -1.51927E+02 -1.53191E+02 -1.49554E+02 -1.49945E+02 -1.46013E+02 -1.44713E+02 -1.39890E+02
  -1.37113E+02 -1.34031E+02 -1.29536E+02 -1.26406E+02 -1.20643E+02 -1.18085E+02 -1.11484E+02 -1.08483E+02 -1.01355E+02 -9.95919E+01
  -9.31115E+01 -9.15741E+01 -8.52588E+01 -8.31632E+01 -7.75564E+01 -7.55505E+01 -7.15926E+01 -7.04073E+01 -6.41589E+01 -5.95709E+01
  -5.45902E+01 -4.93772E+01 -4.43307E+01 -3.79843E+01 -3.23416E+01 -2.82865E+01 -2.58147E+01 -2.06781E+01 -1.71806E+01 -1.22323E+01
  -8.74904E+00 -4.48105E+00 -9.75284E-01  3.24709E+00  6.01146E+00  8.87838E+00  1.01985E+01  1.05325E+01  1.34758E+01  1.65282E+01
   1.85338E+01  2.10390E+01  2.31488E+01  2.60937E+01  2.85187E+01  2.82313E+01  2.95278E+01  3.18448E+01  3.46529E+01  3.78700E+01
   4.12994E+01  4.49463E+01  4.86407E+01  5.23964E+01  5.60466E+01  5.96083E+01  6.29222E+01  6.60188E+01  6.87583E+01  7.11952E+01
   7.32163E+01  7.49042E+01  7.61757E+01  7.71433E+01  7.77510E+01  7.81335E+01  7.82513E+01  7.82495E+01  7.80935E+01  7.79270E+01
   7.77079E+01  7.75662E+01  7.74419E+01  7.74445E+01  7.74929E+01  7.76757E+01  7.78909E+01  7.82082E+01  7.85101E+01  7.88549E+01
   7.91187E+01  7.93574E+01  7.94481E+01  7.94509E+01  7.92511E+01  7.89199E+01  7.83558E+01  7.76434E+01  7.66939E+01  7.56044E+01
   7.42977E+01  7.28814E+01  7.12865E+01  6.96256E+01  6.78321E+01  6.60193E+01  6.41200E+01  6.22451E+01  6.03233E+01  5.84597E+01
   5.65768E+01  5.47735E+01  5.29670E+01  5.12508E+01  4.95367E+01  4.79128E+01  4.62874E+01  4.47474E+01  4.32008E+01  4.17331E+01
   4.02503E+01  3.88370E+01  3.73990E+01  3.60212E+01  3.46102E+01  3.32513E+01  3.18513E+01  3.04957E+01  2.90926E+01  2.77287E+01
   2.63129E+01  2.49324E+01  2.34963E+01  2.20923E+01  2.06305E+01  1.91997E+01  1.77104E+01  1.62512E+01  1.47326E+01  1.32439E+01
   1.16966E+01  1.01802E+01  8.60610E+00  7.06364E+00  5.46446E+00  3.89830E+00  2.27749E+00  6.91812E-01 -9.46718E-01 -2.54858E+00
  -4.20143E+00 -5.81521E+00 -7.47720E+00 -9.09763E+00 -1.07641E+01 -1.23870E+01 -1.40533E+01 -1.56731E+01 -1.73334E+01 -1.89444E+01
  -2.05935E+01 -2.21908E+01 -2.38232E+01 -2.54005E+01 -2.70098E+01 -2.85612E+01 -3.01419E+01 -3.16619E+01 -3.32076E+01 -3.46890E+01
  -3.61928E+01 -3.76293E+01 -3.90849E+01 -4.04694E+01 -4.18688E+01 -4.31925E+01 -4.45266E+01 -4.57799E+01
 NY background values follow
    -2.600E+02   -2.587E+02   -2.573E+02   -2.559E+02   -2.544E+02   -2.530E+02   -2.515E+02   -2.500E+02   -2.484E+02   -2.469E+02
    -2.453E+02   -2.438E+02   -2.422E+02   -2.406E+02   -2.389E+02   -2.373E+02   -2.357E+02   -2.340E+02   -2.324E+02   -2.307E+02
    -2.291E+02   -2.274E+02   -2.258E+02   -2.241E+02   -2.224E+02   -2.208E+02   -2.192E+02   -2.175E+02   -2.159E+02   -2.143E+02
    -2.127E+02   -2.111E+02   -2.095E+02   -2.079E+02   -2.064E+02   -2.048E+02   -2.033E+02   -2.018E+02   -2.003E+02   -1.989E+02
    -1.975E+02   -1.961E+02   -1.947E+02   -1.933E+02   -1.920E+02   -1.907E+02   -1.895E+02   -1.883E+02   -1.871E+02   -1.860E+02
    -1.849E+02   -1.838E+02   -1.828E+02   -1.818E+02   -1.809E+02   -1.800E+02   -1.791E+02   -1.783E+02   -1.776E+02   -1.769E+02
    -1.763E+02   -1.757E+02   -1.751E+02   -1.747E+02   -1.742E+02   -1.739E+02   -1.735E+02   -1.733E+02   -1.731E+02   -1.729E+02
    -1.727E+02   -1.726E+02   -1.726E+02   -1.726E+02   -1.726E+02   -1.726E+02   -1.727E+02   -1.728E+02   -1.729E+02   -1.731E+02
    -1.732E+02   -1.734E+02   -1.737E+02   -1.739E+02   -1.741E+02   -1.744E+02   -1.746E+02   -1.749E+02   -1.752E+02   -1.754E+02
    -1.757E+02   -1.760E+02   -1.763E+02   -1.765E+02   -1.768E+02   -1.770E+02   -1.773E+02   -1.775E+02   -1.777E+02   -1.779E+02
    -1.780E+02   -1.782E+02   -1.783E+02   -1.784E+02   -1.785E+02   -1.785E+02   -1.785E+02   -1.785E+02   -1.784E+02   -1.783E+02
    -1.782E+02   -1.780E+02   -1.778E+02   -1.775E+02   -1.772E+02   -1.768E+02   -1.763E+02   -1.759E+02   -1.753E+02   -1.747E+02
    -1.740E+02   -1.733E+02   -1.725E+02   -1.716E+02   -1.707E+02   -1.697E+02   -1.686E+02   -1.675E+02   -1.663E+02   -1.650E+02
    -1.637E+02   -1.623E+02   -1.609E+02   -1.594E+02   -1.578E+02   -1.562E+02   -1.546E+02   -1.529E+02   -1.512E+02   -1.495E+02
    -1.477E+02   -1.459E+02   -1.440E+02   -1.422E+02   -1.403E+02   -1.384E+02   -1.364E+02   -1.345E+02   -1.325E+02   -1.306E+02
    -1.286E+02   -1.266E+02   -1.247E+02   -1.227E+02   -1.207E+02   -1.188E+02   -1.168E+02   -1.149E+02   -1.129E+02   -1.110E+02
    -1.091E+02   -1.073E+02   -1.054E+02   -1.036E+02   -1.018E+02   -1.001E+02   -9.834E+01   -9.666E+01   -9.502E+01   -9.342E+01
    -9.188E+01   -9.037E+01   -8.893E+01   -8.753E+01   -8.619E+01   -8.491E+01   -8.370E+01   -8.255E+01   -8.146E+01   -8.045E+01
    -7.951E+01   -7.864E+01   -7.785E+01   -7.714E+01   -7.652E+01   -7.598E+01   -7.553E+01   -7.517E+01   -7.491E+01   -7.473E+01
    -7.464E+01   -7.464E+01   -7.472E+01   -7.489E+01   -7.515E+01   -7.548E+01   -7.590E+01   -7.640E+01   -7.697E+01   -7.762E+01
    -7.835E+01   -7.915E+01   -8.003E+01   -8.097E+01   -8.199E+01   -8.308E+01   -8.423E+01   -8.545E+01   -8.674E+01   -8.809E+01
    -8.950E+01   -9.097E+01   -9.251E+01   -9.410E+01   -9.575E+01   -9.746E+01   -9.922E+01   -1.010E+02   -1.029E+02   -1.048E+02
    -1.068E+02   -1.088E+02   -1.109E+02   -1.130E+02   -1.151E+02   -1.173E+02   -1.196E+02   -1.218E+02   -1.241E+02   -1.265E+02
    -1.289E+02   -1.313E+02   -1.338E+02   -1.363E+02   -1.388E+02   -1.413E+02   -1.439E+02   -1.465E+02   -1.492E+02   -1.518E+02
    -1.545E+02   -1.572E+02   -1.599E+02   -1.627E+02   -1.655E+02   -1.682E+02   -1.710E+02   -1.738E+02   -1.767E+02   -1.795E+02
    -1.823E+02   -1.852E+02   -1.881E+02   -1.909E+02   -1.938E+02   -1.966E+02   -1.995E+02   -2.023E+02   -2.052E+02   -2.080E+02
    -2.108E+02   -2.136E+02   -2.164E+02   -2.192E+02   -2.219E+02   -2.247E+02   -2.274E+02   -2.300E+02   -2.327E+02   -2.353E+02
    -2.378E+02   -2.404E+02   -2.429E+02   -2.453E+02   -2.477E+02   -2.501E+02   -2.524E+02   -2.547E+02   -2.569E+02   -2.590E+02
    -2.611E+02   -2.631E+02   -2.651E+02   -2.670E+02   -2.689E+02   -2.706E+02   -2.723E+02   -2.740E+02   -2.755E+02   -2.770E+02
    -2.784E+02   -2.797E+02   -2.809E+02   -2.821E+02   -2.831E+02   -2.841E+02   -2.850E+02   -2.857E+02   -2.864E+02   -2.870E+02
    -2.874E+02   -2.878E+02   -2.881E+02   -2.882E+02   -2.882E+02   -2.882E+02   -2.880E+02   -2.877E+02   -2.872E+02   -2.867E+02
    -2.860E+02   -2.852E+02   -2.843E+02   -2.832E+02   -2.820E+02   -2.807E+02   -2.793E+02   -2.778E+02   -2.761E+02   -2.744E+02
    -2.725E+02   -2.706E+02   -2.685E+02   -2.664E+02   -2.641E+02   -2.618E+02   -2.593E+02   -2.568E+02   -2.542E+02   -2.515E+02
    -2.488E+02   -2.460E+02   -2.431E+02   -2.401E+02   -2.370E+02   -2.339E+02   -2.308E+02   -2.275E+02   -2.243E+02   -2.209E+02
    -2.175E+02   -2.141E+02   -2.106E+02   -2.071E+02   -2.036E+02   -2.000E+02   -1.963E+02   -1.927E+02   -1.890E+02   -1.853E+02
    -1.816E+02   -1.778E+02   -1.740E+02   -1.703E+02   -1.665E+02   -1.627E+02   -1.588E+02   -1.550E+02   -1.512E+02   -1.474E+02
    -1.436E+02   -1.398E+02   -1.360E+02   -1.323E+02   -1.285E+02   -1.248E+02   -1.210E+02   -1.174E+02   -1.137E+02   -1.101E+02
    -1.065E+02   -1.029E+02   -9.937E+01   -9.589E+01   -9.245E+01   -8.905E+01   -8.570E+01   -8.239E+01   -7.913E+01   -7.591E+01
    -7.274E+01   -6.962E+01   -6.654E+01   -6.351E+01   -6.052E+01   -5.759E+01   -5.470E+01   -5.186E+01   -4.907E+01   -4.633E+01
    -4.365E+01   -4.101E+01   -3.842E+01   -3.588E+01   -3.340E+01   -3.096E+01   -2.858E+01   -2.626E+01   -2.398E+01   -2.176E+01
    -1.960E+01   -1.749E+01   -1.543E+01   -1.343E+01   -1.148E+01   -9.596E+00   -7.764E+00   -5.989E+00   -4.272E+00   -2.612E+00
    -1.011E+00    5.312E-01    2.015E+00    3.438E+00    4.802E+00    6.105E+00    7.348E+00    8.529E+00    9.649E+00    1.071E+01
     1.170E+01    1.263E+01    1.350E+01    1.431E+01    1.505E+01    1.573E+01    1.634E+01    1.689E+01    1.737E+01    1.778E+01
     1.813E+01    1.841E+01    1.862E+01    1.877E+01    1.885E+01    1.886E+01    1.880E+01    1.867E+01    1.848E+01    1.822E+01
     1.790E+01    1.752E+01    1.708E+01    1.659E+01    1.603E+01    1.543E+01    1.477E+01    1.406E+01    1.330E+01    1.249E+01
     1.163E+01    1.073E+01    9.790E+00    8.806E+00    7.781E+00    6.718E+00    5.619E+00    4.484E+00    3.316E+00    2.115E+00
     8.846E-01   -3.749E-01   -1.662E+00   -2.974E+00   -4.310E+00   -5.669E+00   -7.048E+00   -8.447E+00   -9.863E+00   -1.129E+01
    -1.274E+01   -1.420E+01   -1.567E+01   -1.715E+01   -1.864E+01   -2.013E+01   -2.163E+01   -2.313E+01   -2.464E+01   -2.614E+01
    -2.764E+01   -2.914E+01   -3.064E+01   -3.213E+01   -3.360E+01   -3.507E+01   -3.653E+01   -3.798E+01   -3.941E+01   -4.083E+01
    -4.222E+01   -4.360E+01   -4.496E+01   -4.629E+01   -4.761E+01   -4.889E+01   -5.015E+01   -5.138E+01
 Ala      Conc. = 8.90E+03
