 LCModel (Version 6.3-1L) Copyright: S.W. Provencher.          Ref.: Magn. Reson. Med. 30:672-679 (1993).                
 Slice#1 Row#8 Col#12  PD_24_press_2_raw_act
 36 lines in following concentration table = NCONC+1
    Conc.  %SD /Cr+PCr  Metabolite                                         
  296.525 261%   0.000 Ala                                                 
  209.818 148%   0.000 Asp                                                 
    0.000 999%   0.000 Cr                                                  
    0.000 999%   0.000 PCr                                                 
  101.814 204%   0.000 GABA                                                
  199.912 101%   0.000 Glc                                                 
 9.64E+03  12%   0.000 Gln                                                 
    0.000 999%   0.000 Glu                                                 
   43.915 105%   0.000 GPC                                                 
    0.000 999%   0.000 PCh                                                 
    0.000 999%   0.000 GSH                                                 
 1.27E+03  41%   0.000 Ins                                                 
    0.000 999%   0.000 Lac                                                 
 4.64E+03   5%   0.000 NAA                                                 
    0.000 999%   0.000 NAAG                                                
  165.120  29%   0.000 Scyllo                                              
  992.836  31%   0.000 Tau                                                 
    0.000 999%   0.000 -CrCH2                                              
   43.915 105%   0.000 GPC+PCh                                             
 4.64E+03   5%   0.000 NAA+NAAG                                            
    0.000 999%   0.000 Cr+PCr                                              
 9.64E+03  12%   0.000 Glu+Gln                                             
    0.000 999%   0.000 Lip13a                                              
    0.000 999%   0.000 Lip13b                                              
    0.000 999%   0.000 Lip09                                               
 5.38E+03  13%   0.000 MM09                                                
   16.355 399%   0.000 Lip20                                               
 1.32E+04   8%   0.000 MM20                                                
 1.76E+03  33%   0.000 MM12                                                
 1.09E+03  41%   0.000 MM14                                                
 2.48E+03   8%   0.000 MM17                                                
    0.000 999%   0.000 Lip13a+Lip13b                                       
 2.85E+03  33%   0.000 MM14+Lip13a+Lip13b+MM12                             
 5.38E+03  13%   0.000 MM09+Lip09                                          
 1.32E+04   8%   0.000 MM20+Lip20                                          
   6 lines in following misc. output table
  FWHM = 0.183 ppm    S/N =  12                                            
  Data shift = 0.199 ppm                                                   
  Ph: -43 deg     154.9 deg/ppm                                            
  alphaB,S = 2.7E-01,   4.5E+02                                            
   10 spline knots.   Ns = 9(2)                                            
  (13) 3 infls.   ( 3) 1 extrs.                                            
  498 points on ppm-axis = NY
      4.000000     3.992357     3.984714     3.977070     3.969427     3.961784     3.954141     3.946497     3.938854     3.931211
      3.923568     3.915925     3.908281     3.900638     3.892995     3.885352     3.877708     3.870065     3.862422     3.854779
      3.847136     3.839492     3.831849     3.824206     3.816563     3.808919     3.801276     3.793633     3.785990     3.778347
      3.770703     3.763060     3.755417     3.747774     3.740130     3.732487     3.724844     3.717201     3.709558     3.701914
      3.694271     3.686628     3.678985     3.671341     3.663698     3.656055     3.648412     3.640769     3.633125     3.625482
      3.617839     3.610196     3.602552     3.594909     3.587266     3.579623     3.571980     3.564336     3.556693     3.549050
      3.541407     3.533763     3.526120     3.518477     3.510834     3.503191     3.495547     3.487904     3.480261     3.472618
      3.464974     3.457331     3.449688     3.442045     3.434402     3.426758     3.419115     3.411472     3.403829     3.396185
      3.388542     3.380899     3.373256     3.365613     3.357969     3.350326     3.342683     3.335040     3.327396     3.319753
      3.312110     3.304467     3.296824     3.289180     3.281537     3.273894     3.266251     3.258607     3.250964     3.243321
      3.235678     3.228034     3.220391     3.212748     3.205105     3.197462     3.189818     3.182175     3.174532     3.166889
      3.159245     3.151602     3.143959     3.136316     3.128673     3.121029     3.113386     3.105743     3.098100     3.090456
      3.082813     3.075170     3.067527     3.059884     3.052240     3.044597     3.036954     3.029311     3.021667     3.014024
      3.006381     2.998738     2.991095     2.983451     2.975808     2.968165     2.960522     2.952878     2.945235     2.937592
      2.929949     2.922306     2.914662     2.907019     2.899376     2.891733     2.884089     2.876446     2.868803     2.861160
      2.853517     2.845873     2.838230     2.830587     2.822944     2.815300     2.807657     2.800014     2.792371     2.784728
      2.777084     2.769441     2.761798     2.754155     2.746511     2.738868     2.731225     2.723582     2.715939     2.708295
      2.700652     2.693009     2.685366     2.677722     2.670079     2.662436     2.654793     2.647150     2.639506     2.631863
      2.624220     2.616577     2.608933     2.601290     2.593647     2.586004     2.578361     2.570717     2.563074     2.555431
      2.547788     2.540144     2.532501     2.524858     2.517215     2.509572     2.501928     2.494285     2.486642     2.478999
      2.471355     2.463712     2.456069     2.448426     2.440783     2.433139     2.425496     2.417853     2.410210     2.402566
      2.394923     2.387280     2.379637     2.371994     2.364350     2.356707     2.349064     2.341421     2.333777     2.326134
      2.318491     2.310848     2.303205     2.295561     2.287918     2.280275     2.272632     2.264988     2.257345     2.249702
      2.242059     2.234416     2.226772     2.219129     2.211486     2.203843     2.196199     2.188556     2.180913     2.173270
      2.165627     2.157983     2.150340     2.142697     2.135054     2.127410     2.119767     2.112124     2.104481     2.096838
      2.089194     2.081551     2.073908     2.066265     2.058621     2.050978     2.043335     2.035692     2.028049     2.020405
      2.012762     2.005119     1.997476     1.989833     1.982190     1.974546     1.966903     1.959260     1.951617     1.943974
      1.936331     1.928688     1.921045     1.913402     1.905759     1.898115     1.890472     1.882829     1.875186     1.867543
      1.859900     1.852257     1.844614     1.836971     1.829327     1.821684     1.814041     1.806398     1.798755     1.791112
      1.783469     1.775826     1.768183     1.760540     1.752896     1.745253     1.737610     1.729967     1.722324     1.714681
      1.707038     1.699395     1.691752     1.684108     1.676465     1.668822     1.661179     1.653536     1.645893     1.638250
      1.630607     1.622964     1.615321     1.607677     1.600034     1.592391     1.584748     1.577105     1.569462     1.561819
      1.554176     1.546533     1.538890     1.531246     1.523603     1.515960     1.508317     1.500674     1.493031     1.485388
      1.477745     1.470102     1.462458     1.454815     1.447172     1.439529     1.431886     1.424243     1.416600     1.408957
      1.401314     1.393671     1.386027     1.378384     1.370741     1.363098     1.355455     1.347812     1.340169     1.332526
      1.324883     1.317240     1.309596     1.301953     1.294310     1.286667     1.279024     1.271381     1.263738     1.256095
      1.248452     1.240808     1.233165     1.225522     1.217879     1.210236     1.202593     1.194950     1.187307     1.179664
      1.172021     1.164377     1.156734     1.149091     1.141448     1.133805     1.126162     1.118519     1.110876     1.103233
      1.095590     1.087946     1.080303     1.072660     1.065017     1.057374     1.049731     1.042088     1.034445     1.026802
      1.019158     1.011515     1.003872     0.996229     0.988586     0.980943     0.973300     0.965657     0.958014     0.950371
      0.942727     0.935084     0.927441     0.919798     0.912155     0.904512     0.896869     0.889226     0.881583     0.873940
      0.866296     0.858653     0.851010     0.843367     0.835724     0.828081     0.820438     0.812795     0.805152     0.797508
      0.789865     0.782222     0.774579     0.766936     0.759293     0.751650     0.744007     0.736364     0.728721     0.721077
      0.713434     0.705791     0.698148     0.690505     0.682862     0.675219     0.667576     0.659933     0.652290     0.644646
      0.637003     0.629360     0.621717     0.614074     0.606431     0.598788     0.591145     0.583502     0.575858     0.568215
      0.560572     0.552929     0.545286     0.537643     0.530000     0.522357     0.514714     0.507071     0.499427     0.491784
      0.484141     0.476498     0.468855     0.461212     0.453569     0.445925     0.438282     0.430639     0.422996     0.415353
      0.407710     0.400067     0.392424     0.384780     0.377137     0.369494     0.361851     0.354208     0.346565     0.338922
      0.331278     0.323635     0.315992     0.308349     0.300706     0.293063     0.285420     0.277777     0.270133     0.262490
      0.254847     0.247204     0.239561     0.231918     0.224275     0.216631     0.208988     0.201345
 NY phased data points follow
  -1.50184E+01 -1.41855E+01 -1.51935E+01 -1.50021E+01 -1.25001E+01 -8.20271E+00 -1.22793E+01 -1.17353E+01 -1.29094E+01 -1.34938E+01
  -1.17355E+01 -1.06746E+01 -1.15430E+01 -1.16541E+01 -1.28373E+01 -1.39515E+01 -1.27939E+01 -1.11705E+01 -8.64524E+00 -1.05867E+01
  -1.40006E+01 -1.18298E+01 -1.32454E+01 -1.37702E+01 -1.27732E+01 -1.40402E+01 -1.55702E+01 -9.47802E+00 -1.44555E+01 -1.49793E+01
  -1.43029E+01 -1.28284E+01 -1.51626E+01 -1.50059E+01 -1.20970E+01 -1.33956E+01 -1.71548E+01 -1.51407E+01 -1.15474E+01 -1.09114E+01
  -1.46542E+01 -1.47573E+01 -1.35034E+01 -1.49377E+01 -1.38343E+01 -1.39893E+01 -1.24262E+01 -1.17845E+01 -1.30318E+01 -1.09751E+01
  -1.09055E+01 -1.29057E+01 -1.10261E+01 -1.14818E+01 -1.08077E+01 -8.23773E+00 -1.35004E+01 -1.10208E+01 -1.46204E+01 -1.06607E+01
  -8.18687E+00 -1.02840E+01 -9.87026E+00 -1.05123E+01 -9.05379E+00 -1.16767E+01 -1.44137E+01 -7.99963E+00 -1.32167E+01 -1.08017E+01
  -1.33965E+01 -1.00573E+01 -1.14654E+01 -7.65239E+00 -8.50238E+00 -6.64833E+00 -4.99526E+00 -1.12106E+01 -1.17295E+01 -1.61230E+01
  -1.14730E+01 -1.25066E+01 -1.57682E+01 -8.90372E+00 -4.12997E+00 -4.59202E+00 -1.09114E+01 -8.98030E+00 -1.17619E+01 -1.12765E+01
  -1.00909E+01 -5.87701E+00 -3.45360E+00 -7.17808E+00 -4.87055E+00 -7.75387E+00 -4.50838E+00 -2.31878E+00 -4.15025E+00 -6.51837E+00
  -1.83154E+00 -6.82894E+00 -8.26509E+00 -8.53335E+00 -9.93733E+00 -6.94628E+00 -5.13927E+00 -5.86528E+00 -4.04324E+00 -1.61318E+00
  -5.57701E+00 -4.11356E+00 -7.99117E-01 -2.89414E+00 -3.97364E-01 -3.79762E+00  6.40151E-01  9.02085E-01 -8.83192E-02  8.53947E-01
   1.74954E+00  9.37614E-01  3.36565E+00  2.93819E+00 -1.44240E-03  1.84838E+00  4.54457E+00  3.20266E+00  3.22444E+00  6.56726E+00
   6.50556E+00  2.11495E+00  5.62288E+00  1.36254E+00  5.93155E+00  4.97884E+00  4.18396E+00  6.03113E+00  1.18713E+01  5.60091E+00
   6.74050E+00  5.95347E+00  3.80110E+00  3.86368E+00  6.04778E+00  3.40319E+00  8.16959E+00  1.16920E+01  9.27430E+00  1.30964E+01
   1.04830E+01  1.08279E+01  1.15790E+01  1.18901E+01  1.04114E+01  1.27464E+01  1.11318E+01  1.18263E+01  1.17385E+01  1.49821E+01
   1.46196E+01  1.12226E+01  1.45135E+01  1.56894E+01  1.48316E+01  1.26595E+01  1.36326E+01  1.36944E+01  1.58993E+01  1.89325E+01
   2.02333E+01  1.94337E+01  2.02815E+01  2.18188E+01  2.15690E+01  2.36623E+01  2.10329E+01  1.93580E+01  2.11690E+01  2.19307E+01
   2.70324E+01  2.62734E+01  2.60519E+01  2.20530E+01  2.64958E+01  2.55232E+01  2.42594E+01  2.53244E+01  2.57591E+01  2.37579E+01
   2.34009E+01  2.51948E+01  2.98060E+01  2.72189E+01  2.81057E+01  3.06755E+01  3.04882E+01  3.26802E+01  3.59973E+01  3.20287E+01
   3.22316E+01  3.40069E+01  3.76259E+01  3.80064E+01  3.66692E+01  3.29666E+01  4.01195E+01  3.52247E+01  3.76141E+01  3.62428E+01
   3.85141E+01  4.03348E+01  3.79697E+01  3.79065E+01  4.05781E+01  4.17520E+01  4.18394E+01  3.99632E+01  3.92335E+01  4.24341E+01
   4.50812E+01  4.47468E+01  4.41147E+01  4.72598E+01  4.81770E+01  4.82219E+01  5.00733E+01  4.87972E+01  4.75653E+01  4.32181E+01
   4.28907E+01  3.66119E+01  3.52343E+01  3.38234E+01  3.25593E+01  3.16719E+01  3.69732E+01  3.96695E+01  4.20226E+01  3.97588E+01
   4.07014E+01  3.58919E+01  3.52663E+01  3.88146E+01  3.91461E+01  3.48584E+01  3.90569E+01  3.68799E+01  4.25497E+01  4.11471E+01
   4.06112E+01  4.24033E+01  4.18628E+01  3.87619E+01  4.18435E+01  3.96219E+01  4.36032E+01  3.98349E+01  4.51625E+01  4.06002E+01
   4.04452E+01  3.40642E+01  3.12262E+01  3.17704E+01  2.76982E+01  2.15619E+01  1.73182E+01  1.38778E+01  1.18401E+01  8.45729E+00
  -1.17412E+00  7.84428E-01 -8.21360E+00 -1.65581E+01 -1.65660E+01 -2.29160E+01 -2.78748E+01 -3.04630E+01 -3.82670E+01 -4.85277E+01
  -5.14734E+01 -6.02999E+01 -6.15795E+01 -6.74138E+01 -7.00539E+01 -7.20790E+01 -7.15983E+01 -8.12723E+01 -7.92497E+01 -7.96021E+01
  -8.06506E+01 -8.02153E+01 -8.04450E+01 -7.97719E+01 -7.79913E+01 -7.87738E+01 -7.98906E+01 -7.42394E+01 -7.52446E+01 -7.29230E+01
  -6.93140E+01 -6.82915E+01 -6.54609E+01 -6.62956E+01 -6.32041E+01 -6.31158E+01 -6.21206E+01 -6.13640E+01 -6.14127E+01 -5.60769E+01
  -5.58429E+01 -5.98826E+01 -5.83557E+01 -5.77105E+01 -5.59500E+01 -5.82162E+01 -5.61954E+01 -6.07174E+01 -5.99885E+01 -5.72142E+01
  -5.52772E+01 -5.97618E+01 -5.62253E+01 -6.00173E+01 -5.97649E+01 -5.66144E+01 -6.02952E+01 -6.06661E+01 -6.27725E+01 -5.94846E+01
  -6.15876E+01 -6.33311E+01 -6.76285E+01 -5.98190E+01 -6.00169E+01 -5.90616E+01 -6.00467E+01 -5.81992E+01 -5.92811E+01 -5.81702E+01
  -5.63340E+01 -5.64884E+01 -5.67880E+01 -5.48335E+01 -5.29529E+01 -5.46470E+01 -5.17345E+01 -5.12096E+01 -5.08815E+01 -4.90201E+01
  -4.53308E+01 -4.57453E+01 -4.39094E+01 -4.34613E+01 -3.82942E+01 -3.77279E+01 -3.60053E+01 -3.52145E+01 -3.63991E+01 -3.35944E+01
  -3.54267E+01 -2.72331E+01 -2.89102E+01 -2.54767E+01 -2.63272E+01 -2.43857E+01 -2.17959E+01 -2.06846E+01 -1.89881E+01 -1.63035E+01
  -1.33756E+01 -1.40825E+01 -1.51712E+01 -1.63629E+01 -9.99490E+00 -5.30662E+00 -8.54056E+00 -5.77694E+00 -1.42255E+00  4.51990E-01
   1.84553E+00  4.11269E+00  5.65170E+00  1.12567E+01  1.08342E+01  1.22602E+01  1.19266E+01  1.25316E+01  1.57318E+01  1.76533E+01
   1.77903E+01  2.59609E+01  2.10019E+01  2.93774E+01  2.44767E+01  2.86236E+01  2.62930E+01  2.91179E+01  2.97843E+01  2.93892E+01
   3.45235E+01  4.03707E+01  3.89513E+01  3.95417E+01  3.98199E+01  4.28575E+01  4.57223E+01  4.47162E+01  4.77318E+01  4.34795E+01
   4.88206E+01  4.61409E+01  4.90232E+01  5.16287E+01  4.71848E+01  4.99402E+01  5.33840E+01  5.11846E+01  4.99705E+01  5.40446E+01
   5.02711E+01  4.87814E+01  5.17709E+01  5.14710E+01  4.86466E+01  4.98197E+01  5.13759E+01  4.93088E+01  5.13417E+01  5.27200E+01
   5.25632E+01  5.16392E+01  5.17163E+01  5.10199E+01  5.25553E+01  4.93082E+01  4.98512E+01  4.76299E+01  4.98028E+01  4.91751E+01
   5.02867E+01  4.44870E+01  4.80136E+01  4.69384E+01  4.57420E+01  4.50061E+01  4.50160E+01  4.40478E+01  4.04851E+01  4.41793E+01
   4.33505E+01  4.36513E+01  4.31797E+01  3.92565E+01  3.90900E+01  4.02909E+01  3.77896E+01  3.75550E+01  3.24504E+01  3.78279E+01
   3.22098E+01  3.59313E+01  3.32772E+01  3.43340E+01  3.30184E+01  3.06403E+01  2.81862E+01  3.03817E+01  2.86962E+01  2.59109E+01
   2.53456E+01  2.48814E+01  2.45538E+01  2.37220E+01  2.00236E+01  2.35072E+01  2.08460E+01  1.95879E+01  1.78206E+01  1.66681E+01
   1.66721E+01  1.63642E+01  1.67136E+01  9.82469E+00  1.22263E+01  1.22124E+01  1.10006E+01  8.89582E+00  9.47234E+00  9.70058E+00
   6.82295E+00  7.67612E+00  5.68540E+00  4.70027E+00  5.98769E+00  5.39070E+00  4.43265E+00  5.52529E+00
 NY points of the fit to the data follow
  -1.22004E+01 -1.23841E+01 -1.25553E+01 -1.27083E+01 -1.28387E+01 -1.29491E+01 -1.30286E+01 -1.31676E+01 -1.35018E+01 -1.36128E+01
  -1.39177E+01 -1.38418E+01 -1.39148E+01 -1.34330E+01 -1.29478E+01 -1.26037E+01 -1.22246E+01 -1.21310E+01 -1.19715E+01 -1.22059E+01
  -1.22014E+01 -1.23430E+01 -1.23733E+01 -1.23664E+01 -1.22421E+01 -1.20947E+01 -1.17197E+01 -1.16495E+01 -1.12027E+01 -1.13624E+01
  -1.11101E+01 -1.15424E+01 -1.16253E+01 -1.20156E+01 -1.22531E+01 -1.24088E+01 -1.26619E+01 -1.25331E+01 -1.27335E+01 -1.25244E+01
  -1.27631E+01 -1.24941E+01 -1.27791E+01 -1.24393E+01 -1.27951E+01 -1.23914E+01 -1.30223E+01 -1.27453E+01 -1.41848E+01 -1.39164E+01
  -1.52442E+01 -1.44804E+01 -1.51949E+01 -1.37737E+01 -1.35408E+01 -1.27774E+01 -1.28773E+01 -1.27289E+01 -1.29995E+01 -1.32550E+01
  -1.33807E+01 -1.33339E+01 -1.33732E+01 -1.32291E+01 -1.31950E+01 -1.29257E+01 -1.27860E+01 -1.22830E+01 -1.19311E+01 -1.13553E+01
  -1.10118E+01 -1.06666E+01 -1.04701E+01 -1.02997E+01 -1.01622E+01 -1.01302E+01 -9.96761E+00 -9.99067E+00 -9.69793E+00 -9.74518E+00
  -9.24166E+00 -9.34664E+00 -8.75254E+00 -9.01339E+00 -8.39037E+00 -8.86087E+00 -8.23405E+00 -8.78142E+00 -8.09759E+00 -8.64437E+00
  -7.92638E+00 -8.39331E+00 -7.68203E+00 -8.02571E+00 -7.26051E+00 -7.48055E+00 -6.75053E+00 -6.73722E+00 -6.22980E+00 -6.14779E+00
  -5.87842E+00 -5.65225E+00 -5.56373E+00 -5.04692E+00 -5.00581E+00 -4.21388E+00 -4.16104E+00 -3.11873E+00 -2.94990E+00 -2.01065E+00
  -1.94313E+00 -1.04553E+00 -9.88508E-01 -1.28779E-01 -9.45192E-02  6.21007E-01  6.51027E-01  1.28156E+00  1.42528E+00  1.98924E+00
   2.30782E+00  2.75419E+00  3.08353E+00  3.44185E+00  3.84289E+00  4.08640E+00  4.42616E+00  4.64656E+00  4.91183E+00  5.12068E+00
   5.34259E+00  5.49603E+00  5.67796E+00  5.79250E+00  5.94991E+00  6.04359E+00  6.18915E+00  6.27874E+00  6.42461E+00  6.52515E+00
   6.68194E+00  6.80071E+00  6.97327E+00  7.09835E+00  7.26115E+00  7.45477E+00  7.65601E+00  7.97443E+00  8.23217E+00  8.60167E+00
   8.89313E+00  9.29091E+00  9.60477E+00  1.00137E+01  1.03254E+01  1.07470E+01  1.10418E+01  1.14872E+01  1.17624E+01  1.22164E+01
   1.25555E+01  1.30530E+01  1.34368E+01  1.39005E+01  1.42632E+01  1.47385E+01  1.51094E+01  1.56026E+01  1.59647E+01  1.64534E+01
   1.68108E+01  1.73920E+01  1.77965E+01  1.84670E+01  1.89009E+01  1.96175E+01  1.99509E+01  2.07203E+01  2.08888E+01  2.16975E+01
   2.18613E+01  2.26867E+01  2.29384E+01  2.40036E+01  2.45123E+01  2.58856E+01  2.65495E+01  2.82166E+01  2.87295E+01  3.01014E+01
   3.01344E+01  3.08796E+01  3.01635E+01  3.09156E+01  3.05860E+01  3.15117E+01  3.16804E+01  3.27872E+01  3.32982E+01  3.42862E+01
   3.47741E+01  3.54463E+01  3.55045E+01  3.56626E+01  3.52995E+01  3.52636E+01  3.50637E+01  3.51500E+01  3.54994E+01  3.58360E+01
   3.67610E+01  3.73394E+01  3.85279E+01  3.90331E+01  4.00476E+01  4.02130E+01  4.06334E+01  4.03201E+01  3.99766E+01  3.94888E+01
   3.94001E+01  3.91541E+01  3.98492E+01  4.04662E+01  4.20754E+01  4.26951E+01  4.44992E+01  4.47823E+01  4.59908E+01  4.50419E+01
   4.49114E+01  4.27240E+01  4.12037E+01  3.93736E+01  3.90966E+01  3.75815E+01  3.80663E+01  3.64768E+01  3.74223E+01  3.52684E+01
   3.65292E+01  3.39092E+01  3.60763E+01  3.50038E+01  3.78643E+01  3.71110E+01  4.01912E+01  3.92876E+01  4.21975E+01  4.07128E+01
   4.32552E+01  4.12949E+01  4.35500E+01  4.15034E+01  4.35416E+01  4.17344E+01  4.31776E+01  4.11194E+01  4.10397E+01  3.86317E+01
   3.79998E+01  3.52220E+01  3.41347E+01  3.10982E+01  2.92748E+01  2.46767E+01  2.21210E+01  1.65159E+01  1.31715E+01  6.65634E+00
   2.78712E+00 -4.49443E+00 -8.70156E+00 -1.61798E+01 -2.04985E+01 -2.80673E+01 -3.26226E+01 -4.04202E+01 -4.51981E+01 -5.29175E+01
  -5.71640E+01 -6.30710E+01 -6.54732E+01 -6.67709E+01 -6.78674E+01 -6.88625E+01 -6.97794E+01 -7.06083E+01 -7.13622E+01 -7.20254E+01
  -7.26008E+01 -7.30785E+01 -7.34533E+01 -7.37083E+01 -7.38423E+01 -7.38338E+01 -7.36845E+01 -7.33725E+01 -7.28994E+01 -7.22508E+01
  -7.14423E+01 -7.04637E+01 -6.93405E+01 -6.80795E+01 -6.67172E+01 -6.52738E+01 -6.37955E+01 -6.23102E+01 -6.08620E+01 -5.94926E+01
  -5.83267E+01 -5.72819E+01 -5.65514E+01 -5.59561E+01 -5.57431E+01 -5.56398E+01 -5.59276E+01 -5.61822E+01 -5.68280E+01 -5.73189E+01
  -5.81786E+01 -5.87490E+01 -5.96781E+01 -6.01898E+01 -6.10592E+01 -6.14003E+01 -6.20968E+01 -6.21898E+01 -6.26287E+01 -6.24271E+01
  -6.25789E+01 -6.21018E+01 -6.19861E+01 -6.13019E+01 -6.09850E+01 -6.01879E+01 -5.97348E+01 -5.88842E+01 -5.83230E+01 -5.74450E+01
  -5.67782E+01 -5.58645E+01 -5.50770E+01 -5.41225E+01 -5.31847E+01 -5.21701E+01 -5.10460E+01 -4.99260E+01 -4.86123E+01 -4.73491E+01
  -4.59964E+01 -4.47113E+01 -4.33138E+01 -4.20047E+01 -4.05818E+01 -3.92260E+01 -3.77732E+01 -3.62475E+01 -3.46745E+01 -3.30678E+01
  -3.14375E+01 -2.97921E+01 -2.81393E+01 -2.64858E+01 -2.48376E+01 -2.31997E+01 -2.15760E+01 -1.99694E+01 -1.83814E+01 -1.68125E+01
  -1.52618E+01 -1.37274E+01 -1.22063E+01 -1.06946E+01 -9.18776E+00 -7.68062E+00 -6.16777E+00 -4.64364E+00 -3.10281E+00 -1.54012E+00
   4.91148E-02  1.66898E+00  3.32285E+00  5.01321E+00  6.74162E+00  8.50861E+00  1.03136E+01  1.21551E+01  1.40303E+01  1.59354E+01
   1.78655E+01  1.98145E+01  2.17754E+01  2.37403E+01  2.57004E+01  2.76462E+01  2.95678E+01  3.14548E+01  3.32967E+01  3.50831E+01
   3.68041E+01  3.84500E+01  4.00122E+01  4.14831E+01  4.28561E+01  4.41262E+01  4.52896E+01  4.63443E+01  4.72896E+01  4.81265E+01
   4.88571E+01  4.94852E+01  5.00152E+01  5.04528E+01  5.08041E+01  5.10760E+01  5.12752E+01  5.14089E+01  5.14838E+01  5.15065E+01
   5.14830E+01  5.14189E+01  5.13192E+01  5.11881E+01  5.10290E+01  5.08450E+01  5.06382E+01  5.04104E+01  5.01638E+01  4.99002E+01
   4.96211E+01  4.93274E+01  4.90199E+01  4.86989E+01  4.83647E+01  4.80172E+01  4.76565E+01  4.72822E+01  4.68942E+01  4.64922E+01
   4.60759E+01  4.56450E+01  4.51992E+01  4.47383E+01  4.42622E+01  4.37706E+01  4.32635E+01  4.27407E+01  4.22022E+01  4.16480E+01
   4.10782E+01  4.04928E+01  3.98920E+01  3.92759E+01  3.86447E+01  3.79986E+01  3.73380E+01  3.66629E+01  3.59739E+01  3.52710E+01
   3.45548E+01  3.38256E+01  3.30838E+01  3.23296E+01  3.15637E+01  3.07863E+01  2.99979E+01  2.91990E+01  2.83900E+01  2.75713E+01
   2.67435E+01  2.59069E+01  2.50622E+01  2.42097E+01  2.33500E+01  2.24835E+01  2.16107E+01  2.07321E+01  1.98482E+01  1.89596E+01
   1.80666E+01  1.71698E+01  1.62697E+01  1.53667E+01  1.44614E+01  1.35542E+01  1.26455E+01  1.17359E+01  1.08258E+01  9.91569E+00
   9.00591E+00  8.09691E+00  7.18910E+00  6.28285E+00  5.37851E+00  4.47639E+00  3.57675E+00  2.67979E+00
 NY background values follow
    -2.614E+01   -2.622E+01   -2.631E+01   -2.639E+01   -2.646E+01   -2.654E+01   -2.661E+01   -2.667E+01   -2.674E+01   -2.680E+01
    -2.686E+01   -2.691E+01   -2.697E+01   -2.702E+01   -2.706E+01   -2.711E+01   -2.715E+01   -2.719E+01   -2.722E+01   -2.725E+01
    -2.728E+01   -2.731E+01   -2.733E+01   -2.735E+01   -2.737E+01   -2.738E+01   -2.739E+01   -2.740E+01   -2.740E+01   -2.740E+01
    -2.740E+01   -2.740E+01   -2.739E+01   -2.738E+01   -2.736E+01   -2.735E+01   -2.732E+01   -2.730E+01   -2.727E+01   -2.724E+01
    -2.721E+01   -2.717E+01   -2.713E+01   -2.709E+01   -2.704E+01   -2.699E+01   -2.694E+01   -2.688E+01   -2.682E+01   -2.675E+01
    -2.669E+01   -2.661E+01   -2.654E+01   -2.646E+01   -2.638E+01   -2.629E+01   -2.620E+01   -2.611E+01   -2.601E+01   -2.591E+01
    -2.580E+01   -2.569E+01   -2.558E+01   -2.546E+01   -2.534E+01   -2.522E+01   -2.509E+01   -2.496E+01   -2.482E+01   -2.468E+01
    -2.453E+01   -2.438E+01   -2.422E+01   -2.407E+01   -2.390E+01   -2.373E+01   -2.356E+01   -2.339E+01   -2.320E+01   -2.302E+01
    -2.283E+01   -2.263E+01   -2.244E+01   -2.223E+01   -2.202E+01   -2.181E+01   -2.159E+01   -2.137E+01   -2.114E+01   -2.091E+01
    -2.068E+01   -2.043E+01   -2.019E+01   -1.994E+01   -1.968E+01   -1.942E+01   -1.916E+01   -1.889E+01   -1.861E+01   -1.833E+01
    -1.805E+01   -1.776E+01   -1.746E+01   -1.716E+01   -1.686E+01   -1.655E+01   -1.623E+01   -1.591E+01   -1.559E+01   -1.526E+01
    -1.492E+01   -1.458E+01   -1.424E+01   -1.389E+01   -1.353E+01   -1.317E+01   -1.280E+01   -1.243E+01   -1.205E+01   -1.167E+01
    -1.128E+01   -1.089E+01   -1.049E+01   -1.008E+01   -9.674E+00   -9.259E+00   -8.837E+00   -8.411E+00   -7.979E+00   -7.541E+00
    -7.097E+00   -6.648E+00   -6.194E+00   -5.733E+00   -5.267E+00   -4.795E+00   -4.318E+00   -3.834E+00   -3.345E+00   -2.850E+00
    -2.349E+00   -1.843E+00   -1.330E+00   -8.119E-01   -2.881E-01    2.405E-01    7.736E-01    1.310E+00    1.851E+00    2.394E+00
     2.939E+00    3.486E+00    4.035E+00    4.584E+00    5.133E+00    5.681E+00    6.229E+00    6.774E+00    7.318E+00    7.859E+00
     8.396E+00    8.930E+00    9.459E+00    9.982E+00    1.050E+01    1.101E+01    1.152E+01    1.201E+01    1.250E+01    1.298E+01
     1.345E+01    1.391E+01    1.436E+01    1.479E+01    1.522E+01    1.563E+01    1.603E+01    1.641E+01    1.678E+01    1.714E+01
     1.747E+01    1.779E+01    1.810E+01    1.838E+01    1.865E+01    1.889E+01    1.912E+01    1.932E+01    1.950E+01    1.966E+01
     1.980E+01    1.991E+01    1.999E+01    2.006E+01    2.009E+01    2.010E+01    2.008E+01    2.003E+01    1.995E+01    1.984E+01
     1.971E+01    1.954E+01    1.933E+01    1.910E+01    1.883E+01    1.853E+01    1.819E+01    1.781E+01    1.740E+01    1.695E+01
     1.647E+01    1.594E+01    1.537E+01    1.477E+01    1.412E+01    1.343E+01    1.270E+01    1.193E+01    1.113E+01    1.029E+01
     9.409E+00    8.496E+00    7.549E+00    6.569E+00    5.557E+00    4.513E+00    3.440E+00    2.337E+00    1.206E+00    4.779E-02
    -1.136E+00   -2.346E+00   -3.579E+00   -4.835E+00   -6.114E+00   -7.413E+00   -8.732E+00   -1.007E+01   -1.142E+01   -1.280E+01
    -1.418E+01   -1.559E+01   -1.700E+01   -1.843E+01   -1.986E+01   -2.131E+01   -2.277E+01   -2.423E+01   -2.570E+01   -2.718E+01
    -2.865E+01   -3.014E+01   -3.162E+01   -3.310E+01   -3.459E+01   -3.607E+01   -3.755E+01   -3.902E+01   -4.049E+01   -4.195E+01
    -4.340E+01   -4.485E+01   -4.628E+01   -4.770E+01   -4.911E+01   -5.051E+01   -5.189E+01   -5.325E+01   -5.459E+01   -5.592E+01
    -5.722E+01   -5.851E+01   -5.977E+01   -6.101E+01   -6.222E+01   -6.340E+01   -6.456E+01   -6.569E+01   -6.678E+01   -6.785E+01
    -6.888E+01   -6.988E+01   -7.084E+01   -7.177E+01   -7.265E+01   -7.350E+01   -7.431E+01   -7.508E+01   -7.581E+01   -7.650E+01
    -7.716E+01   -7.777E+01   -7.835E+01   -7.889E+01   -7.939E+01   -7.986E+01   -8.029E+01   -8.068E+01   -8.103E+01   -8.135E+01
    -8.163E+01   -8.188E+01   -8.209E+01   -8.226E+01   -8.240E+01   -8.251E+01   -8.258E+01   -8.262E+01   -8.262E+01   -8.259E+01
    -8.252E+01   -8.242E+01   -8.229E+01   -8.213E+01   -8.193E+01   -8.170E+01   -8.144E+01   -8.115E+01   -8.083E+01   -8.048E+01
    -8.009E+01   -7.968E+01   -7.924E+01   -7.876E+01   -7.826E+01   -7.773E+01   -7.717E+01   -7.658E+01   -7.596E+01   -7.532E+01
    -7.464E+01   -7.395E+01   -7.322E+01   -7.247E+01   -7.169E+01   -7.089E+01   -7.006E+01   -6.920E+01   -6.833E+01   -6.742E+01
    -6.650E+01   -6.555E+01   -6.457E+01   -6.358E+01   -6.256E+01   -6.152E+01   -6.046E+01   -5.937E+01   -5.827E+01   -5.714E+01
    -5.600E+01   -5.483E+01   -5.365E+01   -5.244E+01   -5.122E+01   -4.998E+01   -4.872E+01   -4.744E+01   -4.615E+01   -4.484E+01
    -4.352E+01   -4.218E+01   -4.083E+01   -3.947E+01   -3.810E+01   -3.672E+01   -3.532E+01   -3.393E+01   -3.252E+01   -3.111E+01
    -2.969E+01   -2.826E+01   -2.684E+01   -2.540E+01   -2.397E+01   -2.254E+01   -2.110E+01   -1.967E+01   -1.824E+01   -1.681E+01
    -1.538E+01   -1.396E+01   -1.254E+01   -1.113E+01   -9.727E+00   -8.329E+00   -6.940E+00   -5.561E+00   -4.191E+00   -2.832E+00
    -1.485E+00   -1.510E-01    1.170E+00    2.476E+00    3.767E+00    5.043E+00    6.301E+00    7.542E+00    8.764E+00    9.967E+00
     1.115E+01    1.231E+01    1.345E+01    1.457E+01    1.566E+01    1.673E+01    1.778E+01    1.880E+01    1.979E+01    2.076E+01
     2.169E+01    2.260E+01    2.348E+01    2.433E+01    2.515E+01    2.593E+01    2.669E+01    2.741E+01    2.809E+01    2.875E+01
     2.936E+01    2.994E+01    3.048E+01    3.099E+01    3.146E+01    3.189E+01    3.227E+01    3.262E+01    3.293E+01    3.320E+01
     3.343E+01    3.363E+01    3.378E+01    3.391E+01    3.399E+01    3.404E+01    3.406E+01    3.404E+01    3.399E+01    3.391E+01
     3.380E+01    3.365E+01    3.348E+01    3.328E+01    3.304E+01    3.278E+01    3.249E+01    3.218E+01    3.184E+01    3.147E+01
     3.108E+01    3.067E+01    3.023E+01    2.977E+01    2.929E+01    2.878E+01    2.826E+01    2.771E+01    2.715E+01    2.657E+01
     2.596E+01    2.535E+01    2.471E+01    2.406E+01    2.339E+01    2.271E+01    2.201E+01    2.130E+01    2.058E+01    1.984E+01
     1.910E+01    1.834E+01    1.757E+01    1.679E+01    1.601E+01    1.521E+01    1.441E+01    1.359E+01    1.278E+01    1.195E+01
     1.112E+01    1.029E+01    9.447E+00    8.604E+00    7.757E+00    6.908E+00    6.057E+00    5.204E+00    4.351E+00    3.497E+00
     2.643E+00    1.790E+00    9.386E-01    8.874E-02   -7.587E-01   -1.603E+00   -2.444E+00   -3.281E+00
 Ala      Conc. = 2.97E+02
