 LCModel (Version 6.3-1L) Copyright: S.W. Provencher.          Ref.: Magn. Reson. Med. 30:672-679 (1993).                
 Slice#2 Row#12 Col#9  PD_24_press_2_raw_act
 36 lines in following concentration table = NCONC+1
    Conc.  %SD /Cr+PCr  Metabolite                                         
  966.024  25%  14.464 Ala                                                 
    6.190  57% 9.3E-02 Asp                                                 
    0.000 999%   0.000 Cr                                                  
   66.786  47%   1.000 PCr                                                 
    3.737  56% 5.6E-02 GABA                                                
    3.726  57% 5.6E-02 Glc                                                 
    0.000 999%   0.000 Gln                                                 
    0.000 999%   0.000 Glu                                                 
    0.000 999%   0.000 GPC                                                 
   19.390  61%   0.290 PCh                                                 
  179.089  26%   2.682 GSH                                                 
  102.400 111%   1.533 Ins                                                 
  866.717  23%  12.977 Lac                                                 
    0.000 999%   0.000 NAA                                                 
    0.000 999%   0.000 NAAG                                                
    1.232  57% 1.8E-02 Scyllo                                              
    6.172  57% 9.2E-02 Tau                                                 
    6.394  76% 9.6E-02 -CrCH2                                              
   19.390  61%   0.290 GPC+PCh                                             
    0.000 999%   0.000 NAA+NAAG                                            
   66.786  47%   1.000 Cr+PCr                                              
    0.000 999%   0.000 Glu+Gln                                             
    0.000 999%   0.000 Lip13a                                              
    0.000 999%   0.000 Lip13b                                              
    0.000 999%   0.000 Lip09                                               
  167.846  23%   2.513 MM09                                                
    0.000 999%   0.000 Lip20                                               
  251.744  23%   3.769 MM20                                                
   50.355  23%   0.754 MM12                                                
  125.944  23%   1.886 MM14                                                
   62.965  23%   0.943 MM17                                                
    0.000 999%   0.000 Lip13a+Lip13b                                       
  176.299  23%   2.640 MM14+Lip13a+Lip13b+MM12                             
  167.846  23%   2.513 MM09+Lip09                                          
  251.744  23%   3.769 MM20+Lip20                                          
   6 lines in following misc. output table
  FWHM = 0.183 ppm    S/N =   1                                            
  Data shift = 0.161 ppm                                                   
  Ph: 159 deg     -12.8 deg/ppm                                            
  alphaB,S = 8.5E+01,   2.0E+02                                            
    9 spline knots.   Ns = 9(2)                                            
   2 inflections.     1 extrema                                            
  498 points on ppm-axis = NY
      4.000000     3.992357     3.984714     3.977070     3.969427     3.961784     3.954141     3.946497     3.938854     3.931211
      3.923568     3.915925     3.908281     3.900638     3.892995     3.885352     3.877708     3.870065     3.862422     3.854779
      3.847136     3.839492     3.831849     3.824206     3.816563     3.808919     3.801276     3.793633     3.785990     3.778347
      3.770703     3.763060     3.755417     3.747774     3.740130     3.732487     3.724844     3.717201     3.709558     3.701914
      3.694271     3.686628     3.678985     3.671341     3.663698     3.656055     3.648412     3.640769     3.633125     3.625482
      3.617839     3.610196     3.602552     3.594909     3.587266     3.579623     3.571980     3.564336     3.556693     3.549050
      3.541407     3.533763     3.526120     3.518477     3.510834     3.503191     3.495547     3.487904     3.480261     3.472618
      3.464974     3.457331     3.449688     3.442045     3.434402     3.426758     3.419115     3.411472     3.403829     3.396185
      3.388542     3.380899     3.373256     3.365613     3.357969     3.350326     3.342683     3.335040     3.327396     3.319753
      3.312110     3.304467     3.296824     3.289180     3.281537     3.273894     3.266251     3.258607     3.250964     3.243321
      3.235678     3.228034     3.220391     3.212748     3.205105     3.197462     3.189818     3.182175     3.174532     3.166889
      3.159245     3.151602     3.143959     3.136316     3.128673     3.121029     3.113386     3.105743     3.098100     3.090456
      3.082813     3.075170     3.067527     3.059884     3.052240     3.044597     3.036954     3.029311     3.021667     3.014024
      3.006381     2.998738     2.991095     2.983451     2.975808     2.968165     2.960522     2.952878     2.945235     2.937592
      2.929949     2.922306     2.914662     2.907019     2.899376     2.891733     2.884089     2.876446     2.868803     2.861160
      2.853517     2.845873     2.838230     2.830587     2.822944     2.815300     2.807657     2.800014     2.792371     2.784728
      2.777084     2.769441     2.761798     2.754155     2.746511     2.738868     2.731225     2.723582     2.715939     2.708295
      2.700652     2.693009     2.685366     2.677722     2.670079     2.662436     2.654793     2.647150     2.639506     2.631863
      2.624220     2.616577     2.608933     2.601290     2.593647     2.586004     2.578361     2.570717     2.563074     2.555431
      2.547788     2.540144     2.532501     2.524858     2.517215     2.509572     2.501928     2.494285     2.486642     2.478999
      2.471355     2.463712     2.456069     2.448426     2.440783     2.433139     2.425496     2.417853     2.410210     2.402566
      2.394923     2.387280     2.379637     2.371994     2.364350     2.356707     2.349064     2.341421     2.333777     2.326134
      2.318491     2.310848     2.303205     2.295561     2.287918     2.280275     2.272632     2.264988     2.257345     2.249702
      2.242059     2.234416     2.226772     2.219129     2.211486     2.203843     2.196199     2.188556     2.180913     2.173270
      2.165627     2.157983     2.150340     2.142697     2.135054     2.127410     2.119767     2.112124     2.104481     2.096838
      2.089194     2.081551     2.073908     2.066265     2.058621     2.050978     2.043335     2.035692     2.028049     2.020405
      2.012762     2.005119     1.997476     1.989833     1.982190     1.974546     1.966903     1.959260     1.951617     1.943974
      1.936331     1.928688     1.921045     1.913402     1.905759     1.898115     1.890472     1.882829     1.875186     1.867543
      1.859900     1.852257     1.844614     1.836971     1.829327     1.821684     1.814041     1.806398     1.798755     1.791112
      1.783469     1.775826     1.768183     1.760540     1.752896     1.745253     1.737610     1.729967     1.722324     1.714681
      1.707038     1.699395     1.691752     1.684108     1.676465     1.668822     1.661179     1.653536     1.645893     1.638250
      1.630607     1.622964     1.615321     1.607677     1.600034     1.592391     1.584748     1.577105     1.569462     1.561819
      1.554176     1.546533     1.538890     1.531246     1.523603     1.515960     1.508317     1.500674     1.493031     1.485388
      1.477745     1.470102     1.462458     1.454815     1.447172     1.439529     1.431886     1.424243     1.416600     1.408957
      1.401314     1.393671     1.386027     1.378384     1.370741     1.363098     1.355455     1.347812     1.340169     1.332526
      1.324883     1.317240     1.309596     1.301953     1.294310     1.286667     1.279024     1.271381     1.263738     1.256095
      1.248452     1.240808     1.233165     1.225522     1.217879     1.210236     1.202593     1.194950     1.187307     1.179664
      1.172021     1.164377     1.156734     1.149091     1.141448     1.133805     1.126162     1.118519     1.110876     1.103233
      1.095590     1.087946     1.080303     1.072660     1.065017     1.057374     1.049731     1.042088     1.034445     1.026802
      1.019158     1.011515     1.003872     0.996229     0.988586     0.980943     0.973300     0.965657     0.958014     0.950371
      0.942727     0.935084     0.927441     0.919798     0.912155     0.904512     0.896869     0.889226     0.881583     0.873940
      0.866296     0.858653     0.851010     0.843367     0.835724     0.828081     0.820438     0.812795     0.805152     0.797508
      0.789865     0.782222     0.774579     0.766936     0.759293     0.751650     0.744007     0.736364     0.728721     0.721077
      0.713434     0.705791     0.698148     0.690505     0.682862     0.675219     0.667576     0.659933     0.652290     0.644646
      0.637003     0.629360     0.621717     0.614074     0.606431     0.598788     0.591145     0.583502     0.575858     0.568215
      0.560572     0.552929     0.545286     0.537643     0.530000     0.522357     0.514714     0.507071     0.499427     0.491784
      0.484141     0.476498     0.468855     0.461212     0.453569     0.445925     0.438282     0.430639     0.422996     0.415353
      0.407710     0.400067     0.392424     0.384780     0.377137     0.369494     0.361851     0.354208     0.346565     0.338922
      0.331278     0.323635     0.315992     0.308349     0.300706     0.293063     0.285420     0.277777     0.270133     0.262490
      0.254847     0.247204     0.239561     0.231918     0.224275     0.216631     0.208988     0.201345
 NY phased data points follow
   1.45957E+00  1.74141E+00  1.19437E+00  5.50394E-02  1.61583E+00  3.40327E+00  6.44157E-01 -4.92396E-01  5.93497E-01  1.84295E+00
   1.23880E+00  5.38951E-01  8.98945E-01  4.27667E+00  1.77643E+00  2.64715E+00 -8.74858E-01  1.90619E+00  2.22355E+00  6.80442E-01
   2.39875E+00  4.89957E+00  1.47233E+00  4.47054E-02  9.11564E-01  1.82760E-01  7.29610E-01  1.53144E+00  1.59068E+00  2.65371E+00
   1.26045E+00  2.15528E+00  1.53535E+00  2.38459E+00  8.12059E-01  1.55248E+00  3.26617E+00  2.05894E+00  1.63075E+00  9.68580E-01
   2.11442E+00  2.26092E+00 -1.38680E-01  1.42620E+00  7.49530E-01  2.22640E+00  5.47469E-01  1.35482E+00  1.21946E+00 -5.13740E-01
   1.55671E-01  1.87897E+00  4.55719E-01  1.11973E+00  2.02312E+00 -7.59661E-01  2.47318E+00  1.27459E+00 -5.49720E-01  1.46114E+00
   1.70430E+00  8.22993E-01  1.10627E+00 -3.95303E-02  3.67025E-01  1.16228E+00  4.50310E-01 -8.73807E-01  6.40515E-01 -3.77625E-01
  -1.79829E-02  1.47772E+00  3.39745E-01  2.37490E-01  1.15221E+00 -8.88784E-01  2.12983E+00  1.10212E+00 -1.03101E-03  2.09294E+00
  -1.99191E+00 -2.09584E+00  1.78485E-01 -1.70030E-01  4.50410E-01 -5.53264E-01  8.96049E-02 -1.62439E+00  9.62298E-01 -1.22319E+00
   4.11272E-01  3.40101E-01  1.74004E-01  1.36741E+00  1.79838E+00  8.01836E-01  4.24313E+00  3.12660E-01  1.47586E+00  2.52353E+00
   6.54111E-01 -7.57466E-01  1.26364E-01  9.19924E-01  3.16293E+00  5.43991E-01  5.89851E-01  1.46519E-01  3.57757E-01  1.10878E+00
   1.70700E+00  1.83818E+00  2.97993E-01 -1.37435E-01 -6.84776E-02  1.52724E+00  1.97420E+00  2.00493E+00  2.70512E+00  2.09320E-01
   9.48120E-01  9.82607E-01  2.53875E+00  1.74853E+00 -9.03259E-01  1.48087E+00  2.78230E+00  1.63506E+00  2.40090E+00 -7.51120E-01
   1.84479E+00  1.61901E+00  1.45036E+00  2.21172E+00  2.23157E+00  9.74300E-02  1.07529E+00 -4.11522E-01  3.79935E+00  8.71913E-01
   2.46865E+00  1.05605E+00  6.73650E-01  1.42274E+00 -1.04352E+00  1.13481E+00  1.23618E+00  7.32932E-01  1.00845E+00  3.34782E+00
   9.78348E-01  7.26643E-01  1.42707E+00  2.49124E+00  2.86504E+00 -2.07070E-01  1.73548E+00  3.40918E-01  6.02834E-01  6.79816E-01
   6.04138E-01  2.34548E-01  1.13670E+00 -2.80784E-01  1.20625E+00  1.27572E+00  2.73346E+00 -1.24704E-01  3.87625E-01 -1.10145E-01
   2.32940E+00  1.91175E+00  1.37475E-01  3.29718E-01  1.63061E-01  1.86546E+00 -1.97683E+00  1.40810E+00 -3.17039E-01 -3.86782E-01
   7.07906E-01  1.44942E+00 -3.65667E-02  8.26306E-02  1.29982E+00  1.39744E+00  2.49117E-01  7.01708E-01 -9.28493E-01 -4.56291E-01
   1.04605E+00  2.12995E+00 -2.15942E-01  5.12124E+00  6.12802E-01  3.02821E-01 -3.71375E-01  1.16297E+00 -1.05304E-02  1.72475E+00
   7.55112E-01 -4.37750E-01  1.33689E+00  1.51344E+00  1.40123E+00  4.86277E-01  6.10294E-01  1.24827E-02  1.77427E+00 -3.28897E-01
   1.42463E+00  3.16247E-01  1.04710E+00  1.67419E+00 -6.53329E-01  1.51283E+00  5.50777E-01  6.47970E-01  1.11128E+00  4.80755E-02
   1.52125E+00  4.49677E-01  1.74173E+00 -5.86283E-01  5.02940E-01 -6.74361E-01  1.86817E+00  1.40135E-01  1.25352E+00  2.26611E+00
  -4.24997E-02 -1.33887E+00 -1.88856E+00  4.97979E-01  1.00258E+00 -8.85016E-01 -8.16768E-01 -3.68145E-01 -1.13931E-01  1.02884E+00
   1.05896E+00  2.31138E+00 -1.07685E+00  2.50356E+00 -1.87631E+00  1.14146E-01 -1.69953E+00  5.13662E-01  1.07484E+00  2.75170E+00
   3.02713E+00 -3.59196E-02  2.17536E+00  2.51093E+00 -1.66949E-01  1.02117E+00  1.65701E+00  1.44664E+00 -1.22534E+00 -1.84763E-01
   2.00670E+00  1.91445E+00  5.77332E-01  6.98470E-01  1.52074E+00 -1.14306E+00  1.06115E+00  1.02410E+00  7.51275E-01  1.88844E+00
   7.46506E-01  5.17582E-01  1.88607E+00  5.98963E-01  1.56158E+00  1.48827E-01  4.01181E-01  1.92333E-01 -9.72561E-01 -1.57647E+00
   5.39715E-01  5.30688E-01 -2.86446E-01 -5.13208E-01 -9.31881E-01 -1.87994E-01  1.55208E+00 -1.10214E+00 -1.54384E+00 -2.25785E+00
  -6.44612E-01  1.89495E+00 -2.13432E-01  2.19645E-01  1.96148E-01  2.13407E-01  5.87004E-01 -4.00529E-01  6.38638E-01  7.79015E-01
  -2.43151E-01  7.90401E-01  2.28382E+00  6.17997E-03  2.72715E+00  2.32684E+00  1.84314E+00  1.58814E+00  1.06929E+00  2.43413E+00
   1.03747E+00  4.24788E+00  3.46274E+00  2.04481E+00  2.56605E+00  2.45665E+00  5.07868E+00  4.74792E+00  5.03326E+00  5.71901E+00
   5.51537E+00  3.48589E+00  3.97592E+00  6.38792E+00  4.78656E+00  3.13682E+00  4.33147E+00  6.02295E+00  4.17550E+00  4.50196E+00
   4.43775E+00  1.08059E+00  5.74021E+00  4.19605E+00  5.70491E+00  4.37906E+00  2.74095E+00  4.42717E+00  4.77710E+00  2.08865E+00
   2.66152E+00  3.49897E+00  2.32293E+00  2.43555E+00  1.28597E+00  1.67989E+00  2.55751E+00  2.00826E+00  1.60796E+00  2.42226E+00
  -2.85932E-01  2.09042E+00  3.25510E+00  4.36571E+00  1.48806E+00  9.47309E-01  3.14596E+00  3.59715E+00  2.85851E+00  3.04755E+00
   2.81768E+00  1.27578E+00  2.77844E+00  1.29552E+00  3.47651E+00  3.13466E+00  2.42520E+00  4.06420E+00  4.38128E+00  1.39081E+00
   2.11286E+00  2.76091E+00  1.90742E+00  5.10293E+00  5.53379E+00  2.81510E+00  1.67492E+00  3.23014E+00  2.40459E+00  5.01632E-01
   2.53784E+00  9.40655E-01 -2.12662E-01  3.43135E+00  1.65343E+00  2.38723E+00  2.11829E+00  4.22135E-01  1.98017E+00  1.83970E+00
   5.70914E-01  7.30919E-01  3.36624E+00  1.24004E+00 -1.18503E+00  1.05444E+00  1.67885E+00  1.10137E+00  1.56631E+00  1.35241E+00
   9.27574E-01  2.47227E+00  2.73994E+00  1.92761E+00  6.61603E-01  3.11332E+00 -3.59375E-01  1.80711E+00 -1.71967E+00  1.47396E+00
  -1.47952E-01  9.31174E-01  2.15843E+00  1.93484E-01  1.00739E-01 -1.04291E+00 -1.98344E-01  1.50364E+00  6.90093E-01  2.19822E+00
  -3.88013E-01 -6.68915E-01  2.43396E-01 -6.16018E-01  8.98184E-01 -6.74712E-01 -7.16719E-01 -6.40100E-01  1.92359E+00  6.94460E-01
  -1.47646E-01 -1.05580E+00  1.75774E+00  3.17481E-01 -1.30340E-01 -5.36312E-01  1.03660E-01 -5.49053E-02  2.71687E-01 -1.40425E-01
  -8.96726E-01  1.41112E+00  9.33864E-02  3.13823E-01  5.59276E-01 -3.68142E-01  7.55114E-02  5.37733E-01 -4.34615E-03  9.46631E-01
   1.70510E+00  1.49157E-01 -1.74427E+00 -5.39843E-01 -1.65268E+00  7.15104E-01 -1.32320E-01  6.29254E-01 -2.16458E+00 -2.40613E+00
  -7.46347E-02  2.36104E+00 -2.41949E-01 -7.47760E-01  1.92971E+00  1.45551E+00  1.19840E+00  1.42805E+00  6.00520E-01  5.73157E-01
  -1.12607E+00  2.66186E-02  1.31481E+00  5.89995E-01  9.51166E-01 -1.14017E+00  6.52892E-01 -5.49943E-01  7.92198E-02 -1.08090E+00
  -3.11749E-01  1.19054E+00  3.81792E+00  4.29018E-01 -6.69068E-01  2.08348E+00 -6.09476E-01 -5.04016E-01 -5.46899E-01  1.01908E+00
   1.20607E+00  7.50081E-01  1.03538E+00 -4.93664E-01  5.11437E-02 -7.21571E-02  7.60116E-01  1.97485E+00
 NY points of the fit to the data follow
   8.07721E-01  1.07855E+00  8.88260E-01  1.13362E+00  9.91304E-01  1.21030E+00  1.06565E+00  1.21188E+00  1.10095E+00  1.14884E+00
   1.07208E+00  1.05334E+00  1.08104E+00  1.07740E+00  1.17003E+00  1.12821E+00  1.30116E+00  1.23664E+00  1.44800E+00  1.36890E+00
   1.58954E+00  1.51174E+00  1.71784E+00  1.61518E+00  1.79527E+00  1.70407E+00  1.85236E+00  1.77702E+00  1.86842E+00  1.82235E+00
   1.88191E+00  1.88421E+00  1.87855E+00  1.89917E+00  1.83950E+00  1.87531E+00  1.76134E+00  1.79313E+00  1.61977E+00  1.65604E+00
   1.44608E+00  1.49265E+00  1.27015E+00  1.33752E+00  1.12571E+00  1.21014E+00  1.01483E+00  1.10115E+00  9.37352E-01  9.61348E-01
   8.12100E-01  8.12196E-01  7.35030E-01  7.40417E-01  6.62045E-01  6.52607E-01  6.27800E-01  6.43839E-01  6.37925E-01  6.58536E-01
   6.67764E-01  6.78153E-01  6.89158E-01  6.73839E-01  6.75060E-01  6.56472E-01  6.58989E-01  6.42184E-01  6.50348E-01  6.40110E-01
   6.53718E-01  6.38971E-01  6.47678E-01  6.25315E-01  6.29636E-01  6.02531E-01  6.04593E-01  5.74543E-01  5.77090E-01  5.46582E-01
   5.50055E-01  5.22448E-01  5.29278E-01  5.03112E-01  5.13592E-01  5.03347E-01  5.31021E-01  5.23370E-01  5.66282E-01  5.62554E-01
   6.26265E-01  6.22746E-01  7.09144E-01  6.98227E-01  8.06668E-01  7.75063E-01  8.96022E-01  8.45980E-01  9.78013E-01  9.11811E-01
   1.05210E+00  9.63016E-01  1.09912E+00  9.91136E-01  1.11722E+00  9.96665E-01  1.10936E+00  9.91998E-01  1.10651E+00  1.01889E+00
   1.11942E+00  1.05760E+00  1.14219E+00  1.12073E+00  1.18769E+00  1.21214E+00  1.25754E+00  1.31937E+00  1.31907E+00  1.40768E+00
   1.36356E+00  1.47852E+00  1.40384E+00  1.54578E+00  1.45175E+00  1.60888E+00  1.51308E+00  1.64193E+00  1.54619E+00  1.63854E+00
   1.55878E+00  1.61362E+00  1.54731E+00  1.56428E+00  1.50961E+00  1.48967E+00  1.45385E+00  1.40386E+00  1.38445E+00  1.29981E+00
   1.28992E+00  1.17047E+00  1.16553E+00  1.02224E+00  1.02584E+00  8.69637E-01  8.86989E-01  7.39873E-01  7.82628E-01  6.76534E-01
   7.15357E-01  6.27722E-01  6.58177E-01  5.91277E-01  6.12729E-01  5.69625E-01  5.85257E-01  5.48032E-01  5.35403E-01  5.02534E-01
   4.70386E-01  4.47213E-01  4.18138E-01  4.06592E-01  3.90067E-01  3.82867E-01  3.70201E-01  3.61909E-01  3.48812E-01  3.39219E-01
   3.25178E-01  3.15337E-01  3.04340E-01  2.98520E-01  2.93142E-01  2.91639E-01  2.87834E-01  2.91154E-01  2.89414E-01  2.95787E-01
   2.86567E-01  2.99983E-01  2.87070E-01  3.05896E-01  2.85731E-01  3.09654E-01  2.85161E-01  3.16024E-01  2.89443E-01  3.26389E-01
   3.00708E-01  3.40190E-01  3.13456E-01  3.54341E-01  3.30258E-01  3.76996E-01  3.63442E-01  4.13344E-01  4.08097E-01  4.57605E-01
   4.59098E-01  5.02768E-01  5.05459E-01  5.39857E-01  5.42295E-01  5.67166E-01  5.72881E-01  5.87944E-01  5.94234E-01  6.06651E-01
   6.21181E-01  6.34426E-01  6.62300E-01  6.77347E-01  7.06529E-01  7.19059E-01  7.41234E-01  7.47127E-01  7.57736E-01  7.60294E-01
   7.61332E-01  7.67138E-01  7.69144E-01  7.78334E-01  7.82933E-01  7.91018E-01  7.93513E-01  7.98348E-01  8.04354E-01  8.06455E-01
   8.16463E-01  8.19472E-01  8.40523E-01  8.45763E-01  8.78165E-01  8.79852E-01  9.16939E-01  9.14732E-01  9.55948E-01  9.54163E-01
   1.00193E+00  1.00481E+00  1.06171E+00  1.06906E+00  1.13034E+00  1.13698E+00  1.19471E+00  1.19609E+00  1.24301E+00  1.23452E+00
   1.26635E+00  1.24874E+00  1.26535E+00  1.23847E+00  1.23594E+00  1.20914E+00  1.20230E+00  1.18081E+00  1.17241E+00  1.15755E+00
   1.14899E+00  1.12511E+00  1.09866E+00  1.06585E+00  1.02865E+00  9.93093E-01  9.52348E-01  9.21457E-01  8.92452E-01  8.68670E-01
   8.45947E-01  8.25792E-01  8.06836E-01  7.88577E-01  7.70279E-01  7.52418E-01  7.35147E-01  7.19644E-01  7.05123E-01  6.92715E-01
   6.81489E-01  6.72689E-01  6.65236E-01  6.60491E-01  6.57341E-01  6.57121E-01  6.58715E-01  6.63377E-01  6.70060E-01  6.80021E-01
   6.92317E-01  7.08115E-01  7.26596E-01  7.49101E-01  7.74692E-01  8.04792E-01  8.38472E-01  8.77097E-01  9.19866E-01  9.68030E-01
   1.02086E+00  1.07972E+00  1.14423E+00  1.21598E+00  1.29536E+00  1.38496E+00  1.48712E+00  1.60810E+00  1.75900E+00  1.97122E+00
   2.25281E+00  2.39977E+00  2.70316E+00  2.76569E+00  3.09334E+00  3.00815E+00  3.30413E+00  2.99083E+00  3.37695E+00  2.90959E+00
   3.30056E+00  2.72720E+00  3.18037E+00  2.55790E+00  3.09288E+00  2.44024E+00  3.02249E+00  2.46074E+00  3.08086E+00  2.71510E+00
   3.29276E+00  3.04755E+00  3.63159E+00  3.52030E+00  3.98409E+00  3.85948E+00  4.09804E+00  4.05832E+00  4.08453E+00  3.97471E+00
   3.81267E+00  3.77257E+00  3.51163E+00  3.63866E+00  3.30241E+00  3.55398E+00  3.23669E+00  3.61476E+00  3.32381E+00  3.80893E+00
   3.60297E+00  3.97986E+00  3.67288E+00  3.90706E+00  3.50043E+00  3.54252E+00  3.09024E+00  2.97010E+00  2.68401E+00  2.60125E+00
   2.38626E+00  2.32152E+00  2.18418E+00  2.14811E+00  2.08014E+00  2.10657E+00  2.13039E+00  2.20934E+00  2.30495E+00  2.44076E+00
   2.42595E+00  2.35536E+00  2.25710E+00  2.03694E+00  1.87588E+00  1.58040E+00  1.40383E+00  1.29392E+00  1.21810E+00  1.16480E+00
   1.12788E+00  1.10449E+00  1.09229E+00  1.09034E+00  1.09730E+00  1.11271E+00  1.13541E+00  1.16497E+00  1.20013E+00  1.24026E+00
   1.28386E+00  1.33002E+00  1.37695E+00  1.42350E+00  1.46773E+00  1.50844E+00  1.54372E+00  1.57251E+00  1.59320E+00  1.60513E+00
   1.60721E+00  1.59939E+00  1.58125E+00  1.55339E+00  1.51602E+00  1.47037E+00  1.41718E+00  1.35808E+00  1.29409E+00  1.22697E+00
   1.15777E+00  1.08818E+00  1.01905E+00  9.51769E-01  8.86853E-01  8.25333E-01  7.67344E-01  7.13569E-01  6.63813E-01  6.18457E-01
   5.77053E-01  5.39787E-01  5.06071E-01  4.75993E-01  4.48901E-01  4.24848E-01  4.03175E-01  3.83957E-01  3.66574E-01  3.51145E-01
   3.37094E-01  3.24580E-01  3.13072E-01  3.02782E-01  2.93225E-01  2.84648E-01  2.76594E-01  2.69335E-01  2.62441E-01  2.56211E-01
   2.50237E-01  2.44830E-01  2.39590E-01  2.34837E-01  2.30185E-01  2.25969E-01  2.21807E-01  2.18038E-01  2.14280E-01  2.10876E-01
   2.07454E-01  2.04365E-01  2.01236E-01  1.98415E-01  1.95530E-01  1.92934E-01  1.90261E-01  1.87866E-01  1.85382E-01  1.83160E-01
   1.80834E-01  1.78761E-01  1.76579E-01  1.74644E-01  1.72591E-01  1.70772E-01  1.68828E-01  1.67114E-01  1.65274E-01  1.63659E-01
   1.61910E-01  1.60378E-01  1.58708E-01  1.57255E-01  1.55663E-01  1.54283E-01  1.52758E-01  1.51441E-01  1.49978E-01  1.48724E-01
   1.47322E-01  1.46125E-01  1.44777E-01  1.43631E-01  1.42335E-01  1.41245E-01  1.40002E-01  1.38961E-01  1.37767E-01  1.36776E-01
   1.35635E-01  1.34702E-01  1.33618E-01  1.32742E-01  1.31721E-01  1.30916E-01  1.29978E-01  1.29269E-01
 NY background values follow
     3.483E-01    3.478E-01    3.473E-01    3.468E-01    3.463E-01    3.458E-01    3.453E-01    3.447E-01    3.442E-01    3.437E-01
     3.432E-01    3.427E-01    3.422E-01    3.417E-01    3.412E-01    3.407E-01    3.402E-01    3.397E-01    3.392E-01    3.387E-01
     3.382E-01    3.376E-01    3.371E-01    3.366E-01    3.361E-01    3.356E-01    3.351E-01    3.346E-01    3.341E-01    3.336E-01
     3.331E-01    3.326E-01    3.321E-01    3.316E-01    3.311E-01    3.305E-01    3.300E-01    3.295E-01    3.290E-01    3.285E-01
     3.280E-01    3.275E-01    3.270E-01    3.265E-01    3.260E-01    3.255E-01    3.250E-01    3.245E-01    3.240E-01    3.234E-01
     3.229E-01    3.224E-01    3.219E-01    3.214E-01    3.209E-01    3.204E-01    3.199E-01    3.194E-01    3.189E-01    3.184E-01
     3.179E-01    3.174E-01    3.169E-01    3.163E-01    3.158E-01    3.153E-01    3.148E-01    3.143E-01    3.138E-01    3.133E-01
     3.128E-01    3.123E-01    3.118E-01    3.113E-01    3.108E-01    3.103E-01    3.098E-01    3.093E-01    3.087E-01    3.082E-01
     3.077E-01    3.072E-01    3.067E-01    3.062E-01    3.057E-01    3.052E-01    3.047E-01    3.042E-01    3.037E-01    3.032E-01
     3.027E-01    3.022E-01    3.016E-01    3.011E-01    3.006E-01    3.001E-01    2.996E-01    2.991E-01    2.986E-01    2.981E-01
     2.976E-01    2.971E-01    2.966E-01    2.961E-01    2.956E-01    2.951E-01    2.946E-01    2.940E-01    2.935E-01    2.930E-01
     2.925E-01    2.920E-01    2.915E-01    2.910E-01    2.905E-01    2.900E-01    2.895E-01    2.890E-01    2.885E-01    2.880E-01
     2.875E-01    2.869E-01    2.864E-01    2.859E-01    2.854E-01    2.849E-01    2.844E-01    2.839E-01    2.834E-01    2.829E-01
     2.824E-01    2.819E-01    2.814E-01    2.809E-01    2.804E-01    2.799E-01    2.793E-01    2.788E-01    2.783E-01    2.778E-01
     2.773E-01    2.768E-01    2.763E-01    2.758E-01    2.753E-01    2.748E-01    2.743E-01    2.738E-01    2.733E-01    2.728E-01
     2.723E-01    2.717E-01    2.712E-01    2.707E-01    2.702E-01    2.697E-01    2.692E-01    2.687E-01    2.682E-01    2.677E-01
     2.672E-01    2.667E-01    2.662E-01    2.657E-01    2.652E-01    2.647E-01    2.641E-01    2.636E-01    2.631E-01    2.626E-01
     2.621E-01    2.616E-01    2.611E-01    2.606E-01    2.601E-01    2.596E-01    2.591E-01    2.586E-01    2.581E-01    2.576E-01
     2.570E-01    2.565E-01    2.560E-01    2.555E-01    2.550E-01    2.545E-01    2.540E-01    2.535E-01    2.530E-01    2.525E-01
     2.520E-01    2.515E-01    2.510E-01    2.505E-01    2.500E-01    2.494E-01    2.489E-01    2.484E-01    2.479E-01    2.474E-01
     2.469E-01    2.464E-01    2.459E-01    2.454E-01    2.449E-01    2.444E-01    2.439E-01    2.434E-01    2.429E-01    2.424E-01
     2.418E-01    2.413E-01    2.408E-01    2.403E-01    2.398E-01    2.393E-01    2.388E-01    2.383E-01    2.378E-01    2.373E-01
     2.368E-01    2.363E-01    2.358E-01    2.353E-01    2.348E-01    2.342E-01    2.337E-01    2.332E-01    2.327E-01    2.322E-01
     2.317E-01    2.312E-01    2.307E-01    2.302E-01    2.297E-01    2.292E-01    2.287E-01    2.282E-01    2.277E-01    2.272E-01
     2.267E-01    2.261E-01    2.256E-01    2.251E-01    2.246E-01    2.241E-01    2.236E-01    2.231E-01    2.226E-01    2.221E-01
     2.216E-01    2.211E-01    2.206E-01    2.201E-01    2.196E-01    2.191E-01    2.186E-01    2.180E-01    2.175E-01    2.170E-01
     2.165E-01    2.160E-01    2.155E-01    2.150E-01    2.145E-01    2.140E-01    2.135E-01    2.130E-01    2.125E-01    2.120E-01
     2.115E-01    2.110E-01    2.105E-01    2.100E-01    2.094E-01    2.089E-01    2.084E-01    2.079E-01    2.074E-01    2.069E-01
     2.064E-01    2.059E-01    2.054E-01    2.049E-01    2.044E-01    2.039E-01    2.034E-01    2.029E-01    2.024E-01    2.019E-01
     2.014E-01    2.009E-01    2.003E-01    1.998E-01    1.993E-01    1.988E-01    1.983E-01    1.978E-01    1.973E-01    1.968E-01
     1.963E-01    1.958E-01    1.953E-01    1.948E-01    1.943E-01    1.938E-01    1.933E-01    1.928E-01    1.923E-01    1.918E-01
     1.912E-01    1.907E-01    1.902E-01    1.897E-01    1.892E-01    1.887E-01    1.882E-01    1.877E-01    1.872E-01    1.867E-01
     1.862E-01    1.857E-01    1.852E-01    1.847E-01    1.842E-01    1.837E-01    1.832E-01    1.827E-01    1.822E-01    1.816E-01
     1.811E-01    1.806E-01    1.801E-01    1.796E-01    1.791E-01    1.786E-01    1.781E-01    1.776E-01    1.771E-01    1.766E-01
     1.761E-01    1.756E-01    1.751E-01    1.746E-01    1.741E-01    1.736E-01    1.731E-01    1.726E-01    1.721E-01    1.715E-01
     1.710E-01    1.705E-01    1.700E-01    1.695E-01    1.690E-01    1.685E-01    1.680E-01    1.675E-01    1.670E-01    1.665E-01
     1.660E-01    1.655E-01    1.650E-01    1.645E-01    1.640E-01    1.635E-01    1.630E-01    1.625E-01    1.620E-01    1.614E-01
     1.609E-01    1.604E-01    1.599E-01    1.594E-01    1.589E-01    1.584E-01    1.579E-01    1.574E-01    1.569E-01    1.564E-01
     1.559E-01    1.554E-01    1.549E-01    1.544E-01    1.539E-01    1.534E-01    1.529E-01    1.524E-01    1.519E-01    1.514E-01
     1.508E-01    1.503E-01    1.498E-01    1.493E-01    1.488E-01    1.483E-01    1.478E-01    1.473E-01    1.468E-01    1.463E-01
     1.458E-01    1.453E-01    1.448E-01    1.443E-01    1.438E-01    1.433E-01    1.428E-01    1.423E-01    1.418E-01    1.413E-01
     1.408E-01    1.402E-01    1.397E-01    1.392E-01    1.387E-01    1.382E-01    1.377E-01    1.372E-01    1.367E-01    1.362E-01
     1.357E-01    1.352E-01    1.347E-01    1.342E-01    1.337E-01    1.332E-01    1.327E-01    1.322E-01    1.317E-01    1.312E-01
     1.307E-01    1.302E-01    1.297E-01    1.291E-01    1.286E-01    1.281E-01    1.276E-01    1.271E-01    1.266E-01    1.261E-01
     1.256E-01    1.251E-01    1.246E-01    1.241E-01    1.236E-01    1.231E-01    1.226E-01    1.221E-01    1.216E-01    1.211E-01
     1.206E-01    1.201E-01    1.196E-01    1.191E-01    1.186E-01    1.180E-01    1.175E-01    1.170E-01    1.165E-01    1.160E-01
     1.155E-01    1.150E-01    1.145E-01    1.140E-01    1.135E-01    1.130E-01    1.125E-01    1.120E-01    1.115E-01    1.110E-01
     1.105E-01    1.100E-01    1.095E-01    1.090E-01    1.085E-01    1.080E-01    1.075E-01    1.070E-01    1.064E-01    1.059E-01
     1.054E-01    1.049E-01    1.044E-01    1.039E-01    1.034E-01    1.029E-01    1.024E-01    1.019E-01    1.014E-01    1.009E-01
     1.004E-01    9.989E-02    9.939E-02    9.888E-02    9.838E-02    9.787E-02    9.737E-02    9.687E-02
 Ala      Conc. = 9.66E+02
