 LCModel (Version 6.3-1L) Copyright: S.W. Provencher.          Ref.: Magn. Reson. Med. 30:672-679 (1993).                
 Slice#2 Row#6 Col#11  PD_24_press_2_raw_act
 36 lines in following concentration table = NCONC+1
    Conc.  %SD /Cr+PCr  Metabolite                                         
  436.597  59%   0.597 Ala                                                 
  111.152 230%   0.152 Asp                                                 
  306.725 127%   0.419 Cr                                                  
  425.122  92%   0.581 PCr                                                 
   16.926 977% 2.3E-02 GABA                                                
  180.838  89%   0.247 Glc                                                 
 1.59E+03  38%   2.168 Gln                                                 
 1.54E+03  44%   2.108 Glu                                                 
  115.046 232%   0.157 GPC                                                 
   80.318 335%   0.110 PCh                                                 
   44.274 314% 6.0E-02 GSH                                                 
  738.438  60%   1.009 Ins                                                 
    0.000 999%   0.000 Lac                                                 
 3.61E+03   4%   4.933 NAA                                                 
    0.000 999%   0.000 NAAG                                                
   97.506  38%   0.133 Scyllo                                              
  423.141  58%   0.578 Tau                                                 
  632.204  25%   0.864 -CrCH2                                              
  195.364  17%   0.267 GPC+PCh                                             
 3.61E+03   4%   4.933 NAA+NAAG                                            
  731.846  12%   1.000 Cr+PCr                                              
 3.13E+03  35%   4.277 Glu+Gln                                             
 5.00E+03  20%   6.832 Lip13a                                              
    0.000 999%   0.000 Lip13b                                              
  767.354  63%   1.049 Lip09                                               
 1.81E+03  27%   2.471 MM09                                                
 1.23E+03  29%   1.679 Lip20                                               
 3.66E+03  16%   5.007 MM20                                                
  640.144  45%   0.875 MM12                                                
 2.29E+03  26%   3.128 MM14                                                
    0.000 999%   0.000 MM17                                                
 5.00E+03  20%   6.832 Lip13a+Lip13b                                       
 7.93E+03   8%  10.835 MM14+Lip13a+Lip13b+MM12                             
 2.58E+03  11%   3.519 MM09+Lip09                                          
 4.89E+03  11%   6.686 MM20+Lip20                                          
   6 lines in following misc. output table
  FWHM = 0.076 ppm    S/N =  10                                            
  Data shift = 0.000 ppm                                                   
  Ph: -39 deg     -12.6 deg/ppm                                            
  alphaB,S = 8.5E+01,   4.1E+02                                            
   14 spline knots.   Ns =10(1)                                            
   2 inflections.     1 extrema                                            
  498 points on ppm-axis = NY
      4.000000     3.992357     3.984714     3.977070     3.969427     3.961784     3.954141     3.946497     3.938854     3.931211
      3.923568     3.915925     3.908281     3.900638     3.892995     3.885352     3.877708     3.870065     3.862422     3.854779
      3.847136     3.839492     3.831849     3.824206     3.816563     3.808919     3.801276     3.793633     3.785990     3.778347
      3.770703     3.763060     3.755417     3.747774     3.740130     3.732487     3.724844     3.717201     3.709558     3.701914
      3.694271     3.686628     3.678985     3.671341     3.663698     3.656055     3.648412     3.640769     3.633125     3.625482
      3.617839     3.610196     3.602552     3.594909     3.587266     3.579623     3.571980     3.564336     3.556693     3.549050
      3.541407     3.533763     3.526120     3.518477     3.510834     3.503191     3.495547     3.487904     3.480261     3.472618
      3.464974     3.457331     3.449688     3.442045     3.434402     3.426758     3.419115     3.411472     3.403829     3.396185
      3.388542     3.380899     3.373256     3.365613     3.357969     3.350326     3.342683     3.335040     3.327396     3.319753
      3.312110     3.304467     3.296824     3.289180     3.281537     3.273894     3.266251     3.258607     3.250964     3.243321
      3.235678     3.228034     3.220391     3.212748     3.205105     3.197462     3.189818     3.182175     3.174532     3.166889
      3.159245     3.151602     3.143959     3.136316     3.128673     3.121029     3.113386     3.105743     3.098100     3.090456
      3.082813     3.075170     3.067527     3.059884     3.052240     3.044597     3.036954     3.029311     3.021667     3.014024
      3.006381     2.998738     2.991095     2.983451     2.975808     2.968165     2.960522     2.952878     2.945235     2.937592
      2.929949     2.922306     2.914662     2.907019     2.899376     2.891733     2.884089     2.876446     2.868803     2.861160
      2.853517     2.845873     2.838230     2.830587     2.822944     2.815300     2.807657     2.800014     2.792371     2.784728
      2.777084     2.769441     2.761798     2.754155     2.746511     2.738868     2.731225     2.723582     2.715939     2.708295
      2.700652     2.693009     2.685366     2.677722     2.670079     2.662436     2.654793     2.647150     2.639506     2.631863
      2.624220     2.616577     2.608933     2.601290     2.593647     2.586004     2.578361     2.570717     2.563074     2.555431
      2.547788     2.540144     2.532501     2.524858     2.517215     2.509572     2.501928     2.494285     2.486642     2.478999
      2.471355     2.463712     2.456069     2.448426     2.440783     2.433139     2.425496     2.417853     2.410210     2.402566
      2.394923     2.387280     2.379637     2.371994     2.364350     2.356707     2.349064     2.341421     2.333777     2.326134
      2.318491     2.310848     2.303205     2.295561     2.287918     2.280275     2.272632     2.264988     2.257345     2.249702
      2.242059     2.234416     2.226772     2.219129     2.211486     2.203843     2.196199     2.188556     2.180913     2.173270
      2.165627     2.157983     2.150340     2.142697     2.135054     2.127410     2.119767     2.112124     2.104481     2.096838
      2.089194     2.081551     2.073908     2.066265     2.058621     2.050978     2.043335     2.035692     2.028049     2.020405
      2.012762     2.005119     1.997476     1.989833     1.982190     1.974546     1.966903     1.959260     1.951617     1.943974
      1.936331     1.928688     1.921045     1.913402     1.905759     1.898115     1.890472     1.882829     1.875186     1.867543
      1.859900     1.852257     1.844614     1.836971     1.829327     1.821684     1.814041     1.806398     1.798755     1.791112
      1.783469     1.775826     1.768183     1.760540     1.752896     1.745253     1.737610     1.729967     1.722324     1.714681
      1.707038     1.699395     1.691752     1.684108     1.676465     1.668822     1.661179     1.653536     1.645893     1.638250
      1.630607     1.622964     1.615321     1.607677     1.600034     1.592391     1.584748     1.577105     1.569462     1.561819
      1.554176     1.546533     1.538890     1.531246     1.523603     1.515960     1.508317     1.500674     1.493031     1.485388
      1.477745     1.470102     1.462458     1.454815     1.447172     1.439529     1.431886     1.424243     1.416600     1.408957
      1.401314     1.393671     1.386027     1.378384     1.370741     1.363098     1.355455     1.347812     1.340169     1.332526
      1.324883     1.317240     1.309596     1.301953     1.294310     1.286667     1.279024     1.271381     1.263738     1.256095
      1.248452     1.240808     1.233165     1.225522     1.217879     1.210236     1.202593     1.194950     1.187307     1.179664
      1.172021     1.164377     1.156734     1.149091     1.141448     1.133805     1.126162     1.118519     1.110876     1.103233
      1.095590     1.087946     1.080303     1.072660     1.065017     1.057374     1.049731     1.042088     1.034445     1.026802
      1.019158     1.011515     1.003872     0.996229     0.988586     0.980943     0.973300     0.965657     0.958014     0.950371
      0.942727     0.935084     0.927441     0.919798     0.912155     0.904512     0.896869     0.889226     0.881583     0.873940
      0.866296     0.858653     0.851010     0.843367     0.835724     0.828081     0.820438     0.812795     0.805152     0.797508
      0.789865     0.782222     0.774579     0.766936     0.759293     0.751650     0.744007     0.736364     0.728721     0.721077
      0.713434     0.705791     0.698148     0.690505     0.682862     0.675219     0.667576     0.659933     0.652290     0.644646
      0.637003     0.629360     0.621717     0.614074     0.606431     0.598788     0.591145     0.583502     0.575858     0.568215
      0.560572     0.552929     0.545286     0.537643     0.530000     0.522357     0.514714     0.507071     0.499427     0.491784
      0.484141     0.476498     0.468855     0.461212     0.453569     0.445925     0.438282     0.430639     0.422996     0.415353
      0.407710     0.400067     0.392424     0.384780     0.377137     0.369494     0.361851     0.354208     0.346565     0.338922
      0.331278     0.323635     0.315992     0.308349     0.300706     0.293063     0.285420     0.277777     0.270133     0.262490
      0.254847     0.247204     0.239561     0.231918     0.224275     0.216631     0.208988     0.201345
 NY phased data points follow
  -2.34553E+00  1.71883E-01  6.13402E+00 -3.82239E+00  8.36591E+00 -4.49414E+00  3.69707E+00 -2.67709E+00 -4.71131E+00  1.93883E+00
  -6.02963E+00 -2.74755E+00 -5.56651E+00 -9.14170E+00  6.15614E+00  6.65300E+00 -4.73104E+00  1.28288E+00  5.55860E+00  8.00730E+00
  -1.31504E+00 -5.67912E+00  5.62461E-01  6.27249E+00 -1.59007E+00 -1.93018E+00 -1.26685E+00  4.82324E+00  3.36815E+00 -9.13494E+00
  -3.49227E+00 -3.06611E+00  7.16570E-02 -5.06520E+00  3.88323E+00  1.57726E+00  7.73918E+00 -1.13316E+00  6.03678E+00  7.23251E+00
   4.91095E+00  2.29269E+00  3.99687E+00  4.92314E+00  7.68805E-01 -3.47475E+00 -1.40165E+00  2.91022E-02  1.08949E+00  9.27952E-01
   7.76530E+00  4.73170E+00  2.98245E+00 -4.99524E+00  1.05989E+01  3.85693E+00  1.21429E+00  3.06282E+00  3.05060E+00 -5.73241E-01
   3.71004E+00  1.62321E+00 -5.43300E+00 -1.32129E+00 -3.08066E-01  1.22553E+00  3.70910E+00  7.20676E+00  1.38597E+00  4.67683E+00
   1.55542E+00  1.25709E+00  2.22520E+00 -3.93719E+00 -6.14156E+00  2.06474E+00 -2.15448E+00  1.03679E+00  1.69275E+00  5.08406E+00
   1.33962E+01  1.05176E+01  7.17254E+00  2.58404E-01  6.97288E+00 -6.39713E-01  1.40647E+00  3.13514E+00  5.37309E+00  5.58222E+00
  -6.23083E-01 -2.84369E-01  2.46889E-01  4.02231E+00  3.52808E+00  1.00927E+00  2.98726E+00 -7.53603E-01  3.45398E+00  1.27421E+01
   6.51489E+00  1.17519E+01  1.37847E+01  1.04681E+01  1.42155E+01  1.24914E+01  1.45534E+01  1.08110E+01  4.10548E+00  4.96455E+00
   6.93757E+00  2.76239E+00  4.78368E+00  4.14574E+00  1.05750E+01  5.43149E-01  3.42835E+00  2.43981E+00 -3.31594E+00  3.66057E+00
   5.81342E+00  3.10910E+00  2.35761E+00  1.56387E+01  1.63494E+01  1.67438E+01  1.72243E+01  1.31088E+01  2.12525E+01  1.98789E+01
   2.49446E+01  1.97201E+01  1.55003E+01  9.77782E+00  5.56113E+00  2.69196E+00  7.49289E+00  5.20691E+00 -1.32439E+00  8.69208E+00
   8.06028E+00  6.68904E+00  4.72144E+00  2.91129E+00  1.03317E+01  4.62461E+00 -3.09876E+00  1.47529E+00  5.99629E+00  2.60281E+00
   3.34841E+00  1.84783E+00  5.85540E+00  7.10669E-03  3.63849E+00  4.25672E+00 -4.74381E+00 -7.28303E-01 -1.27866E+00  5.19313E+00
   8.02917E+00  1.13170E+01 -2.79227E-02  1.77078E-01  1.05796E-01 -1.99503E+00 -1.34426E+00 -2.26451E+00  4.89746E-03  4.04961E+00
  -2.49738E+00 -1.41698E+01 -9.06574E+00 -9.68062E+00 -1.59133E+01 -7.12158E+00 -8.00477E+00 -5.86482E+00 -1.28721E+01 -1.36942E+01
  -1.08297E+01 -6.07015E+00 -2.22022E+00 -9.73077E+00 -1.04659E+00 -7.45804E+00 -2.75929E+00 -2.57123E+00 -3.58974E+00 -5.40355E-01
   2.47595E+00 -3.85338E+00 -5.49796E+00 -7.63267E+00 -1.09815E+01 -8.56983E-01 -9.95840E+00 -8.89117E+00 -4.63913E+00 -9.60353E+00
  -5.05589E+00 -1.09634E+01 -6.32691E+00 -9.14454E+00  7.30509E+00  4.04775E+00  4.88704E+00  2.68232E+00  4.37898E+00 -2.55179E-01
  -4.65416E-01  3.39225E+00  4.57647E+00  6.98673E+00  1.12068E+01  1.09278E+01  1.30177E+01  1.64310E+01  1.85249E+01  8.32005E+00
   1.75654E+00  9.82480E+00  7.31714E+00 -1.42862E+00  9.97410E+00  7.09550E+00  5.60935E+00  1.36281E+01  9.29334E+00  1.64666E+01
   1.82780E+01  1.33297E+01  1.45990E+01  9.48136E+00  1.61402E+01  9.44934E+00  1.07532E+01  1.62539E+01  1.39509E+01  1.07515E+01
   9.47780E+00  8.84026E+00  9.50572E+00  1.42208E+01  6.92021E+00  9.07262E+00  1.58382E+01  1.18996E+01  1.78640E+01  1.56923E+01
   2.26224E+01  2.09044E+01  3.32092E+01  3.03988E+01  3.72265E+01  4.79662E+01  5.93668E+01  6.53814E+01  8.29764E+01  9.16468E+01
   9.71215E+01  1.05183E+02  1.12357E+02  1.01569E+02  8.99232E+01  6.87305E+01  5.71054E+01  3.42550E+01  3.44914E+01  2.72939E+01
   3.11024E+01  1.57835E+01  1.59794E+01  1.36251E+01  1.04704E+01  1.68084E+01  7.03912E+00  7.12750E+00  7.10884E+00  2.25732E+00
   6.11244E+00 -4.37438E+00  9.46452E-01  2.24896E+00  8.44057E+00  1.60282E+00  1.10744E+00  2.06017E+00 -1.33490E+00 -9.16375E+00
  -1.95203E+00 -2.16118E+00 -4.84564E+00 -3.64050E+00 -6.44533E-01 -7.34813E+00 -2.59449E+00 -4.81816E+00  9.02992E-01 -1.78660E+00
  -4.75269E+00 -8.88002E+00 -3.91017E+00 -1.85721E+00  9.90581E+00 -4.03961E+00  4.09570E+00  2.30050E+00  1.51717E+00  7.88063E+00
   4.03796E+00  3.65182E+00  9.31996E+00  1.19398E+01  1.92985E+01  4.95096E+00  8.81935E+00  1.01942E+01  1.18702E+01  1.60319E+01
   1.06049E+01  1.85777E+01  7.68342E+00  5.79704E+00  1.50789E+01  8.45911E+00  8.62368E+00  1.27597E+01  1.71003E+01  2.09758E+01
   1.15245E+01  1.37546E+01  1.57475E+01  1.84844E+01  1.79588E+01  2.17339E+01  1.76288E+01  2.14148E+01  2.39202E+01  2.41011E+01
   1.83379E+01  2.53355E+01  2.83441E+01  1.82042E+01  2.62955E+01  2.46710E+01  2.34675E+01  2.38359E+01  1.78868E+01  2.57541E+01
   2.47780E+01  2.54944E+01  2.60970E+01  2.07496E+01  1.84921E+01  2.18146E+01  2.34046E+01  1.91794E+01  1.78552E+01  2.00988E+01
   1.94454E+01  1.77453E+01  2.19350E+01  2.23172E+01  1.91731E+01  1.94674E+01  2.21017E+01  2.38508E+01  1.80918E+01  1.58641E+01
   2.37867E+01  1.19565E+01  1.76472E+01  1.61579E+01  1.72214E+01  1.55407E+01  5.40299E+00  1.25917E+01  1.25127E+01  1.20583E+01
   1.17947E+01  7.92355E+00  3.42609E+00  1.44427E+01  1.84738E+00  1.07183E+01  1.32710E+01  9.14569E+00  8.99427E+00  1.45708E+00
   1.32722E+01  1.10615E+01  1.71118E+01  1.48474E+01  6.89266E+00  2.10843E+01  7.82025E+00  1.94549E+01  1.77710E+01  1.79664E+01
   1.85843E+01  1.29631E+01  1.64842E+01  1.74563E+01  1.16015E+01  1.49010E+01  1.50568E+01  1.98567E+01  1.37079E+01  1.51163E+01
   1.50157E+01  1.92654E+01  1.95678E+01  1.54594E+01  1.84394E+01  1.33599E+01  1.35546E+01  4.98162E+00  9.52710E+00  3.78297E+00
  -2.10609E+00  5.10480E+00 -3.98651E-01 -8.36618E-01 -1.18148E+00 -7.83300E-02  6.01768E+00 -4.00086E+00 -5.30400E-01 -4.51681E+00
   4.04987E+00  3.39084E+00  3.44390E+00 -4.35940E-01 -2.36896E+00 -4.71284E+00  2.84945E+00  3.43921E-01  5.95298E+00  3.94207E+00
  -5.33406E+00 -1.27680E+00 -5.20035E+00 -4.56582E-02 -3.12731E+00 -1.83204E+00 -1.53788E+00 -1.07015E-01 -2.43569E+00  3.26222E+00
  -2.92342E+00 -1.04161E+00 -5.31336E+00  2.06154E+00 -5.67386E-01 -1.09799E+01  8.62813E-01 -2.11302E+00  7.63420E-01 -1.45700E-03
  -3.92230E+00  1.86987E+00  3.18567E+00 -9.81961E-01 -3.39151E+00 -7.15201E+00 -7.92141E+00  1.18849E+00 -3.01781E+00  4.30980E-01
  -4.99533E+00  6.07782E-01 -2.97860E+00  3.24002E+00  6.61334E+00  1.19944E+00  4.50574E+00 -4.69290E+00  1.62070E+00  7.62898E-01
   1.64238E-01 -5.24713E+00 -2.07461E-01 -3.97867E+00 -1.28039E+00  3.31656E+00 -4.46563E+00  9.37257E-01 -2.77599E+00  3.85826E+00
   7.87774E-01 -7.96184E+00 -1.74880E+00  8.71030E-01 -4.55472E+00  1.45374E-01 -4.14289E+00  2.52682E+00
 NY points of the fit to the data follow
   1.22346E-01 -2.97288E-01 -6.37497E-01 -9.06357E-01 -1.11279E+00 -1.23319E+00 -1.26585E+00 -1.20819E+00 -1.04679E+00 -7.89618E-01
  -4.51268E-01 -4.07895E-02  4.11844E-01  8.33425E-01  1.14230E+00  1.30203E+00  1.31542E+00  1.23091E+00  1.12125E+00  1.03911E+00
   9.80676E-01  8.63212E-01  7.11529E-01  6.24647E-01  5.87226E-01  5.19142E-01  4.06229E-01  3.01236E-01  2.89536E-01  4.75532E-01
   9.18245E-01  1.58984E+00  2.36072E+00  3.03359E+00  3.40010E+00  3.33459E+00  2.86748E+00  2.17452E+00  1.46141E+00  9.17157E-01
   6.36736E-01  6.32963E-01  8.53249E-01  1.23293E+00  1.74839E+00  2.33198E+00  2.89170E+00  3.34783E+00  3.60904E+00  3.61348E+00
   3.35065E+00  2.87981E+00  2.29451E+00  1.69253E+00  1.17152E+00  7.96506E-01  5.76802E-01  4.85400E-01  4.87229E-01  5.73417E-01
   7.27786E-01  8.90069E-01  1.00364E+00  1.04332E+00  1.01166E+00  9.44961E-01  8.98197E-01  9.04449E-01  9.72316E-01  1.09275E+00
   1.24285E+00  1.41294E+00  1.60326E+00  1.79688E+00  1.96205E+00  2.06934E+00  2.13664E+00  2.16874E+00  2.15300E+00  2.11183E+00
   2.09756E+00  2.17551E+00  2.37042E+00  2.65958E+00  2.98431E+00  3.25039E+00  3.37204E+00  3.31215E+00  3.05210E+00  2.59421E+00
   1.98964E+00  1.33635E+00  7.76401E-01  5.16557E-01  6.45335E-01  1.10949E+00  1.87659E+00  2.98307E+00  4.48054E+00  6.27288E+00
   8.18019E+00  1.00244E+01  1.16321E+01  1.28404E+01  1.34849E+01  1.34163E+01  1.25899E+01  1.11340E+01  9.31466E+00  7.43445E+00
   5.73117E+00  4.30749E+00  3.11773E+00  2.11431E+00  1.35902E+00  9.68756E-01  8.98883E-01  1.18094E+00  1.83713E+00  2.81024E+00
   4.10107E+00  5.73785E+00  7.72728E+00  1.00148E+01  1.24724E+01  1.49009E+01  1.70587E+01  1.86891E+01  1.95317E+01  1.93854E+01
   1.82211E+01  1.62401E+01  1.38144E+01  1.13429E+01  9.11588E+00  7.24022E+00  5.67603E+00  4.37107E+00  3.40381E+00  2.90675E+00
   2.70172E+00  2.59011E+00  2.51665E+00  2.46086E+00  2.41229E+00  2.36762E+00  2.32539E+00  2.28257E+00  2.23800E+00  2.19296E+00
   2.14627E+00  2.07706E+00  1.96884E+00  1.82843E+00  1.66257E+00  1.48426E+00  1.28712E+00  1.04853E+00  7.69539E-01  4.68337E-01
   1.67646E-01 -1.11478E-01 -3.51043E-01 -5.38265E-01 -6.79877E-01 -8.16344E-01 -1.02953E+00 -1.40239E+00 -1.93621E+00 -2.58257E+00
  -3.27170E+00 -3.95056E+00 -4.59598E+00 -5.20253E+00 -5.74605E+00 -6.18217E+00 -6.48304E+00 -6.63519E+00 -6.66097E+00 -6.57184E+00
  -6.38680E+00 -6.15053E+00 -5.89143E+00 -5.59763E+00 -5.23429E+00 -4.76108E+00 -4.17479E+00 -3.50214E+00 -2.80390E+00 -2.11374E+00
  -1.40748E+00 -7.17553E-01 -1.11468E-01  3.46541E-01  6.92234E-01  1.04070E+00  1.47600E+00  2.03335E+00  2.69122E+00  3.37414E+00
   3.98327E+00  4.49740E+00  4.85680E+00  4.91842E+00  4.54793E+00  3.69944E+00  2.44850E+00  9.43393E-01 -6.05454E-01 -1.89584E+00
  -2.66312E+00 -2.72795E+00 -2.04912E+00 -7.52475E-01  9.06394E-01  2.60859E+00  4.04878E+00  4.98831E+00  5.31127E+00  5.07495E+00
   4.48151E+00  3.76453E+00  3.15243E+00  2.97264E+00  3.37392E+00  4.24131E+00  5.38838E+00  6.66609E+00  7.92720E+00  8.97121E+00
   9.69788E+00  1.01689E+01  1.04789E+01  1.06694E+01  1.07948E+01  1.09574E+01  1.12709E+01  1.17682E+01  1.23978E+01  1.30764E+01
   1.36869E+01  1.41267E+01  1.43409E+01  1.43483E+01  1.42665E+01  1.42769E+01  1.45168E+01  1.50201E+01  1.57670E+01  1.68578E+01
   1.88612E+01  2.25612E+01  2.77438E+01  3.41349E+01  4.17208E+01  5.05494E+01  6.05342E+01  7.12451E+01  8.19097E+01  9.15035E+01
   9.89038E+01  1.02922E+02  1.02439E+02  9.68974E+01  8.68235E+01  7.38221E+01  5.99903E+01  4.71370E+01  3.62401E+01  2.73318E+01
   1.99668E+01  1.40481E+01  1.02617E+01  8.66915E+00  7.83950E+00  7.22700E+00  6.72041E+00  6.26146E+00  5.81759E+00  5.38990E+00
   4.98051E+00  4.59584E+00  4.24270E+00  3.92421E+00  3.63986E+00  3.39359E+00  3.18706E+00  3.01458E+00  2.86931E+00  2.74726E+00
   2.64599E+00  2.56358E+00  2.49723E+00  2.44534E+00  2.40916E+00  2.38910E+00  2.38485E+00  2.39644E+00  2.42402E+00  2.46780E+00
   2.52769E+00  2.60423E+00  2.69829E+00  2.81077E+00  2.94285E+00  3.09642E+00  3.27330E+00  3.47581E+00  3.70656E+00  3.96886E+00
   4.26640E+00  4.60348E+00  4.98466E+00  5.41543E+00  5.90274E+00  6.45734E+00  7.09944E+00  7.85716E+00  8.70080E+00  9.58409E+00
   1.04880E+01  1.13952E+01  1.22685E+01  1.30491E+01  1.36712E+01  1.41209E+01  1.44114E+01  1.45368E+01  1.45128E+01  1.44090E+01
   1.43538E+01  1.44997E+01  1.49676E+01  1.57994E+01  1.69460E+01  1.82894E+01  1.96788E+01  2.09704E+01  2.20641E+01  2.28939E+01
   2.33873E+01  2.35832E+01  2.36032E+01  2.35441E+01  2.34508E+01  2.33282E+01  2.31942E+01  2.31261E+01  2.31460E+01  2.32059E+01
   2.32782E+01  2.33465E+01  2.33975E+01  2.34196E+01  2.34025E+01  2.33366E+01  2.32140E+01  2.30278E+01  2.27731E+01  2.24470E+01
   2.20484E+01  2.15788E+01  2.10411E+01  2.04405E+01  1.97836E+01  1.90789E+01  1.83355E+01  1.75638E+01  1.67744E+01  1.59780E+01
   1.51855E+01  1.44073E+01  1.36532E+01  1.29325E+01  1.22534E+01  1.16234E+01  1.10492E+01  1.05367E+01  1.00909E+01  9.71621E+00
   9.41621E+00  9.19412E+00  9.05254E+00  8.99369E+00  9.01908E+00  9.12965E+00  9.32544E+00  9.60563E+00  9.96812E+00  1.04094E+01
   1.09242E+01  1.15052E+01  1.21428E+01  1.28253E+01  1.35385E+01  1.42662E+01  1.49901E+01  1.56906E+01  1.63469E+01  1.69385E+01
   1.74453E+01  1.78489E+01  1.81331E+01  1.82850E+01  1.82955E+01  1.81599E+01  1.78780E+01  1.74542E+01  1.68972E+01  1.62195E+01
   1.54369E+01  1.45675E+01  1.36311E+01  1.26479E+01  1.16379E+01  1.06201E+01  9.61189E+00  8.62838E+00  7.68221E+00  6.78342E+00
   5.93932E+00  5.15488E+00  4.43266E+00  3.77335E+00  3.17585E+00  2.63787E+00  2.15610E+00  1.72668E+00  1.34527E+00  1.00749E+00
   7.08815E-01  4.45027E-01  2.12066E-01  6.31314E-03 -1.75634E-01 -3.36741E-01 -4.79749E-01 -6.06948E-01 -7.20410E-01 -8.21824E-01
  -9.12770E-01 -9.94530E-01 -1.06831E+00 -1.13501E+00 -1.19551E+00 -1.25046E+00 -1.30054E+00 -1.34627E+00 -1.38816E+00 -1.42657E+00
  -1.46186E+00 -1.49429E+00 -1.52421E+00 -1.55182E+00 -1.57737E+00 -1.60099E+00 -1.62287E+00 -1.64311E+00 -1.66192E+00 -1.67938E+00
  -1.69562E+00 -1.71068E+00 -1.72468E+00 -1.73767E+00 -1.74977E+00 -1.76101E+00 -1.77148E+00 -1.78115E+00 -1.79014E+00 -1.79845E+00
  -1.80618E+00 -1.81331E+00 -1.81991E+00 -1.82594E+00 -1.83149E+00 -1.83655E+00 -1.84120E+00 -1.84540E+00 -1.84918E+00 -1.85252E+00
  -1.85550E+00 -1.85809E+00 -1.86035E+00 -1.86222E+00 -1.86374E+00 -1.86487E+00 -1.86569E+00 -1.86614E+00 -1.86628E+00 -1.86602E+00
  -1.86540E+00 -1.86438E+00 -1.86301E+00 -1.86122E+00 -1.85903E+00 -1.85634E+00 -1.85317E+00 -1.84946E+00
 NY background values follow
    -1.244E+00   -1.244E+00   -1.243E+00   -1.243E+00   -1.243E+00   -1.243E+00   -1.242E+00   -1.242E+00   -1.242E+00   -1.241E+00
    -1.241E+00   -1.241E+00   -1.240E+00   -1.240E+00   -1.240E+00   -1.239E+00   -1.239E+00   -1.239E+00   -1.238E+00   -1.238E+00
    -1.238E+00   -1.237E+00   -1.237E+00   -1.237E+00   -1.236E+00   -1.236E+00   -1.236E+00   -1.235E+00   -1.235E+00   -1.235E+00
    -1.234E+00   -1.234E+00   -1.234E+00   -1.233E+00   -1.233E+00   -1.233E+00   -1.232E+00   -1.232E+00   -1.232E+00   -1.231E+00
    -1.231E+00   -1.231E+00   -1.230E+00   -1.230E+00   -1.230E+00   -1.229E+00   -1.229E+00   -1.229E+00   -1.228E+00   -1.228E+00
    -1.228E+00   -1.227E+00   -1.227E+00   -1.227E+00   -1.226E+00   -1.226E+00   -1.225E+00   -1.225E+00   -1.225E+00   -1.224E+00
    -1.224E+00   -1.224E+00   -1.223E+00   -1.223E+00   -1.223E+00   -1.222E+00   -1.222E+00   -1.221E+00   -1.221E+00   -1.221E+00
    -1.220E+00   -1.220E+00   -1.220E+00   -1.219E+00   -1.219E+00   -1.218E+00   -1.218E+00   -1.218E+00   -1.217E+00   -1.217E+00
    -1.217E+00   -1.216E+00   -1.216E+00   -1.215E+00   -1.215E+00   -1.215E+00   -1.214E+00   -1.214E+00   -1.213E+00   -1.213E+00
    -1.213E+00   -1.212E+00   -1.212E+00   -1.211E+00   -1.211E+00   -1.211E+00   -1.210E+00   -1.210E+00   -1.209E+00   -1.209E+00
    -1.209E+00   -1.208E+00   -1.208E+00   -1.207E+00   -1.207E+00   -1.207E+00   -1.206E+00   -1.206E+00   -1.205E+00   -1.205E+00
    -1.205E+00   -1.204E+00   -1.204E+00   -1.203E+00   -1.203E+00   -1.203E+00   -1.202E+00   -1.202E+00   -1.201E+00   -1.201E+00
    -1.200E+00   -1.200E+00   -1.200E+00   -1.199E+00   -1.199E+00   -1.198E+00   -1.198E+00   -1.198E+00   -1.197E+00   -1.197E+00
    -1.196E+00   -1.196E+00   -1.195E+00   -1.195E+00   -1.195E+00   -1.194E+00   -1.194E+00   -1.193E+00   -1.193E+00   -1.192E+00
    -1.192E+00   -1.191E+00   -1.191E+00   -1.191E+00   -1.190E+00   -1.190E+00   -1.189E+00   -1.189E+00   -1.188E+00   -1.188E+00
    -1.188E+00   -1.187E+00   -1.187E+00   -1.186E+00   -1.186E+00   -1.185E+00   -1.185E+00   -1.184E+00   -1.184E+00   -1.183E+00
    -1.183E+00   -1.183E+00   -1.182E+00   -1.182E+00   -1.181E+00   -1.181E+00   -1.180E+00   -1.180E+00   -1.179E+00   -1.179E+00
    -1.178E+00   -1.178E+00   -1.177E+00   -1.177E+00   -1.177E+00   -1.176E+00   -1.176E+00   -1.175E+00   -1.175E+00   -1.174E+00
    -1.174E+00   -1.173E+00   -1.173E+00   -1.172E+00   -1.172E+00   -1.171E+00   -1.171E+00   -1.170E+00   -1.170E+00   -1.169E+00
    -1.169E+00   -1.168E+00   -1.168E+00   -1.168E+00   -1.167E+00   -1.167E+00   -1.166E+00   -1.166E+00   -1.165E+00   -1.165E+00
    -1.164E+00   -1.164E+00   -1.163E+00   -1.163E+00   -1.162E+00   -1.162E+00   -1.161E+00   -1.161E+00   -1.160E+00   -1.160E+00
    -1.159E+00   -1.159E+00   -1.158E+00   -1.158E+00   -1.157E+00   -1.157E+00   -1.156E+00   -1.156E+00   -1.155E+00   -1.155E+00
    -1.154E+00   -1.154E+00   -1.153E+00   -1.153E+00   -1.152E+00   -1.152E+00   -1.151E+00   -1.151E+00   -1.150E+00   -1.150E+00
    -1.149E+00   -1.149E+00   -1.148E+00   -1.147E+00   -1.147E+00   -1.146E+00   -1.146E+00   -1.145E+00   -1.145E+00   -1.144E+00
    -1.144E+00   -1.143E+00   -1.143E+00   -1.142E+00   -1.142E+00   -1.141E+00   -1.141E+00   -1.140E+00   -1.140E+00   -1.139E+00
    -1.139E+00   -1.138E+00   -1.138E+00   -1.137E+00   -1.136E+00   -1.136E+00   -1.135E+00   -1.135E+00   -1.134E+00   -1.134E+00
    -1.133E+00   -1.133E+00   -1.132E+00   -1.132E+00   -1.131E+00   -1.131E+00   -1.130E+00   -1.129E+00   -1.129E+00   -1.128E+00
    -1.128E+00   -1.127E+00   -1.127E+00   -1.126E+00   -1.126E+00   -1.125E+00   -1.125E+00   -1.124E+00   -1.123E+00   -1.123E+00
    -1.122E+00   -1.122E+00   -1.121E+00   -1.121E+00   -1.120E+00   -1.120E+00   -1.119E+00   -1.118E+00   -1.118E+00   -1.117E+00
    -1.117E+00   -1.116E+00   -1.116E+00   -1.115E+00   -1.114E+00   -1.114E+00   -1.113E+00   -1.113E+00   -1.112E+00   -1.112E+00
    -1.111E+00   -1.110E+00   -1.110E+00   -1.109E+00   -1.109E+00   -1.108E+00   -1.108E+00   -1.107E+00   -1.106E+00   -1.106E+00
    -1.105E+00   -1.105E+00   -1.104E+00   -1.104E+00   -1.103E+00   -1.102E+00   -1.102E+00   -1.101E+00   -1.101E+00   -1.100E+00
    -1.100E+00   -1.099E+00   -1.098E+00   -1.098E+00   -1.097E+00   -1.097E+00   -1.096E+00   -1.095E+00   -1.095E+00   -1.094E+00
    -1.094E+00   -1.093E+00   -1.092E+00   -1.092E+00   -1.091E+00   -1.091E+00   -1.090E+00   -1.089E+00   -1.089E+00   -1.088E+00
    -1.088E+00   -1.087E+00   -1.086E+00   -1.086E+00   -1.085E+00   -1.085E+00   -1.084E+00   -1.083E+00   -1.083E+00   -1.082E+00
    -1.082E+00   -1.081E+00   -1.080E+00   -1.080E+00   -1.079E+00   -1.079E+00   -1.078E+00   -1.077E+00   -1.077E+00   -1.076E+00
    -1.076E+00   -1.075E+00   -1.074E+00   -1.074E+00   -1.073E+00   -1.072E+00   -1.072E+00   -1.071E+00   -1.071E+00   -1.070E+00
    -1.069E+00   -1.069E+00   -1.068E+00   -1.068E+00   -1.067E+00   -1.066E+00   -1.066E+00   -1.065E+00   -1.064E+00   -1.064E+00
    -1.063E+00   -1.063E+00   -1.062E+00   -1.061E+00   -1.061E+00   -1.060E+00   -1.059E+00   -1.059E+00   -1.058E+00   -1.057E+00
    -1.057E+00   -1.056E+00   -1.056E+00   -1.055E+00   -1.054E+00   -1.054E+00   -1.053E+00   -1.052E+00   -1.052E+00   -1.051E+00
    -1.050E+00   -1.050E+00   -1.049E+00   -1.049E+00   -1.048E+00   -1.047E+00   -1.047E+00   -1.046E+00   -1.045E+00   -1.045E+00
    -1.044E+00   -1.043E+00   -1.043E+00   -1.042E+00   -1.041E+00   -1.041E+00   -1.040E+00   -1.040E+00   -1.039E+00   -1.038E+00
    -1.038E+00   -1.037E+00   -1.036E+00   -1.036E+00   -1.035E+00   -1.034E+00   -1.034E+00   -1.033E+00   -1.032E+00   -1.032E+00
    -1.031E+00   -1.030E+00   -1.030E+00   -1.029E+00   -1.028E+00   -1.028E+00   -1.027E+00   -1.026E+00   -1.026E+00   -1.025E+00
    -1.024E+00   -1.024E+00   -1.023E+00   -1.022E+00   -1.022E+00   -1.021E+00   -1.020E+00   -1.020E+00   -1.019E+00   -1.018E+00
    -1.018E+00   -1.017E+00   -1.016E+00   -1.016E+00   -1.015E+00   -1.014E+00   -1.014E+00   -1.013E+00   -1.012E+00   -1.012E+00
    -1.011E+00   -1.010E+00   -1.010E+00   -1.009E+00   -1.008E+00   -1.008E+00   -1.007E+00   -1.006E+00   -1.006E+00   -1.005E+00
    -1.004E+00   -1.004E+00   -1.003E+00   -1.002E+00   -1.002E+00   -1.001E+00   -1.000E+00   -9.995E-01   -9.989E-01   -9.982E-01
    -9.975E-01   -9.968E-01   -9.961E-01   -9.954E-01   -9.947E-01   -9.941E-01   -9.934E-01   -9.927E-01   -9.920E-01   -9.913E-01
    -9.906E-01   -9.899E-01   -9.892E-01   -9.886E-01   -9.879E-01   -9.872E-01   -9.865E-01   -9.858E-01
 Ala      Conc. = 4.37E+02
