 LCModel (Version 6.3-1L) Copyright: S.W. Provencher.          Ref.: Magn. Reson. Med. 30:672-679 (1993).                
 Slice#1 Row#3 Col#9  PD_24_press_2_raw_act
 36 lines in following concentration table = NCONC+1
    Conc.  %SD /Cr+PCr  Metabolite                                         
  221.751 113%   1.310 Ala                                                 
  144.169  83%   0.851 Asp                                                 
  169.317  58%   1.000 Cr                                                  
    0.000 999%   0.000 PCr                                                 
   74.685  97%   0.441 GABA                                                
   72.328 100%   0.427 Glc                                                 
  287.384 181%   1.697 Gln                                                 
    0.000 999%   0.000 Glu                                                 
    0.000 999%   0.000 GPC                                                 
  317.661  12%   1.876 PCh                                                 
    0.000 999%   0.000 GSH                                                 
    0.000 999%   0.000 Ins                                                 
    0.000 999%   0.000 Lac                                                 
 1.05E+03  17%   6.184 NAA                                                 
  306.289  63%   1.809 NAAG                                                
   34.839  64%   0.206 Scyllo                                              
  161.708  73%   0.955 Tau                                                 
  144.516  53%   0.854 -CrCH2                                              
  317.661  12%   1.876 GPC+PCh                                             
 1.35E+03  10%   7.993 NAA+NAAG                                            
  169.317  58%   1.000 Cr+PCr                                              
  287.384 181%   1.697 Glu+Gln                                             
    0.000 999%   0.000 Lip13a                                              
  962.130  23%   5.682 Lip13b                                              
    0.000 999%   0.000 Lip09                                               
 1.16E+03  19%   6.839 MM09                                                
  156.135 123%   0.922 Lip20                                               
 2.03E+03  20%  12.003 MM20                                                
  371.629  29%   2.195 MM12                                                
    0.000 999%   0.000 MM14                                                
 1.13E+03  17%   6.678 MM17                                                
  962.130  23%   5.682 Lip13a+Lip13b                                       
 1.33E+03  18%   7.877 MM14+Lip13a+Lip13b+MM12                             
 1.16E+03  19%   6.839 MM09+Lip09                                          
 2.19E+03  19%  12.925 MM20+Lip20                                          
   6 lines in following misc. output table
  FWHM = 0.061 ppm    S/N =   3                                            
  Data shift =-0.061 ppm                                                   
  Ph: -84 deg      -6.5 deg/ppm                                            
  alphaB,S = 8.5E+01,   1.0E+02                                            
   14 spline knots.   Ns = 7(1)                                            
   2 inflections.     1 extrema                                            
  498 points on ppm-axis = NY
      4.000000     3.992357     3.984714     3.977070     3.969427     3.961784     3.954141     3.946497     3.938854     3.931211
      3.923568     3.915925     3.908281     3.900638     3.892995     3.885352     3.877708     3.870065     3.862422     3.854779
      3.847136     3.839492     3.831849     3.824206     3.816563     3.808919     3.801276     3.793633     3.785990     3.778347
      3.770703     3.763060     3.755417     3.747774     3.740130     3.732487     3.724844     3.717201     3.709558     3.701914
      3.694271     3.686628     3.678985     3.671341     3.663698     3.656055     3.648412     3.640769     3.633125     3.625482
      3.617839     3.610196     3.602552     3.594909     3.587266     3.579623     3.571980     3.564336     3.556693     3.549050
      3.541407     3.533763     3.526120     3.518477     3.510834     3.503191     3.495547     3.487904     3.480261     3.472618
      3.464974     3.457331     3.449688     3.442045     3.434402     3.426758     3.419115     3.411472     3.403829     3.396185
      3.388542     3.380899     3.373256     3.365613     3.357969     3.350326     3.342683     3.335040     3.327396     3.319753
      3.312110     3.304467     3.296824     3.289180     3.281537     3.273894     3.266251     3.258607     3.250964     3.243321
      3.235678     3.228034     3.220391     3.212748     3.205105     3.197462     3.189818     3.182175     3.174532     3.166889
      3.159245     3.151602     3.143959     3.136316     3.128673     3.121029     3.113386     3.105743     3.098100     3.090456
      3.082813     3.075170     3.067527     3.059884     3.052240     3.044597     3.036954     3.029311     3.021667     3.014024
      3.006381     2.998738     2.991095     2.983451     2.975808     2.968165     2.960522     2.952878     2.945235     2.937592
      2.929949     2.922306     2.914662     2.907019     2.899376     2.891733     2.884089     2.876446     2.868803     2.861160
      2.853517     2.845873     2.838230     2.830587     2.822944     2.815300     2.807657     2.800014     2.792371     2.784728
      2.777084     2.769441     2.761798     2.754155     2.746511     2.738868     2.731225     2.723582     2.715939     2.708295
      2.700652     2.693009     2.685366     2.677722     2.670079     2.662436     2.654793     2.647150     2.639506     2.631863
      2.624220     2.616577     2.608933     2.601290     2.593647     2.586004     2.578361     2.570717     2.563074     2.555431
      2.547788     2.540144     2.532501     2.524858     2.517215     2.509572     2.501928     2.494285     2.486642     2.478999
      2.471355     2.463712     2.456069     2.448426     2.440783     2.433139     2.425496     2.417853     2.410210     2.402566
      2.394923     2.387280     2.379637     2.371994     2.364350     2.356707     2.349064     2.341421     2.333777     2.326134
      2.318491     2.310848     2.303205     2.295561     2.287918     2.280275     2.272632     2.264988     2.257345     2.249702
      2.242059     2.234416     2.226772     2.219129     2.211486     2.203843     2.196199     2.188556     2.180913     2.173270
      2.165627     2.157983     2.150340     2.142697     2.135054     2.127410     2.119767     2.112124     2.104481     2.096838
      2.089194     2.081551     2.073908     2.066265     2.058621     2.050978     2.043335     2.035692     2.028049     2.020405
      2.012762     2.005119     1.997476     1.989833     1.982190     1.974546     1.966903     1.959260     1.951617     1.943974
      1.936331     1.928688     1.921045     1.913402     1.905759     1.898115     1.890472     1.882829     1.875186     1.867543
      1.859900     1.852257     1.844614     1.836971     1.829327     1.821684     1.814041     1.806398     1.798755     1.791112
      1.783469     1.775826     1.768183     1.760540     1.752896     1.745253     1.737610     1.729967     1.722324     1.714681
      1.707038     1.699395     1.691752     1.684108     1.676465     1.668822     1.661179     1.653536     1.645893     1.638250
      1.630607     1.622964     1.615321     1.607677     1.600034     1.592391     1.584748     1.577105     1.569462     1.561819
      1.554176     1.546533     1.538890     1.531246     1.523603     1.515960     1.508317     1.500674     1.493031     1.485388
      1.477745     1.470102     1.462458     1.454815     1.447172     1.439529     1.431886     1.424243     1.416600     1.408957
      1.401314     1.393671     1.386027     1.378384     1.370741     1.363098     1.355455     1.347812     1.340169     1.332526
      1.324883     1.317240     1.309596     1.301953     1.294310     1.286667     1.279024     1.271381     1.263738     1.256095
      1.248452     1.240808     1.233165     1.225522     1.217879     1.210236     1.202593     1.194950     1.187307     1.179664
      1.172021     1.164377     1.156734     1.149091     1.141448     1.133805     1.126162     1.118519     1.110876     1.103233
      1.095590     1.087946     1.080303     1.072660     1.065017     1.057374     1.049731     1.042088     1.034445     1.026802
      1.019158     1.011515     1.003872     0.996229     0.988586     0.980943     0.973300     0.965657     0.958014     0.950371
      0.942727     0.935084     0.927441     0.919798     0.912155     0.904512     0.896869     0.889226     0.881583     0.873940
      0.866296     0.858653     0.851010     0.843367     0.835724     0.828081     0.820438     0.812795     0.805152     0.797508
      0.789865     0.782222     0.774579     0.766936     0.759293     0.751650     0.744007     0.736364     0.728721     0.721077
      0.713434     0.705791     0.698148     0.690505     0.682862     0.675219     0.667576     0.659933     0.652290     0.644646
      0.637003     0.629360     0.621717     0.614074     0.606431     0.598788     0.591145     0.583502     0.575858     0.568215
      0.560572     0.552929     0.545286     0.537643     0.530000     0.522357     0.514714     0.507071     0.499427     0.491784
      0.484141     0.476498     0.468855     0.461212     0.453569     0.445925     0.438282     0.430639     0.422996     0.415353
      0.407710     0.400067     0.392424     0.384780     0.377137     0.369494     0.361851     0.354208     0.346565     0.338922
      0.331278     0.323635     0.315992     0.308349     0.300706     0.293063     0.285420     0.277777     0.270133     0.262490
      0.254847     0.247204     0.239561     0.231918     0.224275     0.216631     0.208988     0.201345
 NY phased data points follow
  -2.14017E+01 -8.77061E+00 -5.33364E+00 -1.81046E+01 -2.34713E+01 -2.69930E+01 -1.17601E+01 -7.87322E+00 -2.48739E+00 -1.09856E+01
  -1.86596E+01 -2.80424E+01 -1.23704E+01 -4.03895E+00  1.40865E+01 -4.59471E-01  4.50238E+00 -1.44297E+01 -1.39027E+01 -6.18216E+00
   8.19657E-01 -1.63329E+00  7.88625E-02 -5.42848E+00  5.76059E+00  1.94607E+00 -2.12841E+00  6.45065E+00 -1.23828E+01 -6.91448E+00
  -1.27265E+01 -7.74441E+00 -6.74121E+00 -1.53787E+00 -1.09840E+01 -8.29372E+00 -4.11588E+00 -3.51416E+00  9.69879E+00 -4.55678E+00
  -4.05375E+00 -1.07247E-01 -9.80424E+00 -1.28311E+01 -3.40607E+00 -6.18747E+00  5.52436E+00 -6.94012E+00 -5.59710E+00  3.09411E+00
  -5.76825E+00 -7.43779E+00 -1.19154E+00 -1.76529E+00 -5.89081E+00  7.31699E+00  4.85079E+00  2.65520E+00 -4.50983E+00 -9.08290E+00
  -3.78976E+00 -5.35974E+00 -4.71907E+00 -9.00983E+00 -7.50839E-01 -4.71153E+00 -4.16568E+00 -5.27452E+00 -2.20144E+00 -8.14362E+00
  -1.38157E+01 -3.44316E+00  3.68355E+00 -7.18715E+00 -1.42562E+00 -4.83167E+00 -8.58915E-01 -1.01021E+01 -7.32270E+00  1.81007E-01
   1.65585E-01 -5.67887E+00 -7.60748E+00 -4.23249E+00 -3.56985E-01  2.13511E+00 -6.73976E+00  1.75066E+00 -1.19273E+00  1.68027E+00
  -5.03412E+00  6.87445E+00  2.86708E+00  6.91274E-01 -7.19706E+00  5.18917E+00 -3.88247E-01 -3.87178E+00  7.64860E+00  1.94602E+01
   9.47909E+00  1.37727E+01  1.85753E+01  2.70870E+01  2.29307E+01  2.15438E+01  2.28227E+01  1.08282E+01  4.50354E+00 -2.52307E+00
   8.03518E-02  9.94996E-01  4.48071E+00  3.72162E+00  6.98646E+00  6.22374E-01  6.49434E+00  6.88366E+00  5.17810E+00  1.68482E+00
   6.87081E+00 -6.64576E+00 -1.03556E+01 -2.82503E+00 -2.24784E+00 -3.52334E+00  5.03639E+00  1.59623E+00  1.59580E+01  9.42321E+00
   3.36730E+00 -5.17338E+00  2.73191E+00  1.65534E-01 -2.82021E+00 -1.56974E+01 -5.98783E-01 -1.77101E+00 -1.05128E+00  4.74649E+00
  -5.62825E-01  1.84890E+00 -4.42393E+00 -3.39705E+00  1.84119E+00 -1.02562E+01 -1.44844E+01 -6.93459E+00 -1.19779E+01 -6.71104E+00
  -8.65153E+00 -6.56923E+00 -6.14217E+00 -7.82849E+00 -9.37005E-01 -1.15388E+01 -1.05333E+01 -9.31172E+00 -7.30768E+00 -8.32060E+00
  -8.88748E+00 -1.53167E+00  2.61770E+00 -3.79630E+00 -1.29743E+01 -7.95641E+00 -9.80439E+00 -1.17616E+01 -1.31033E+01 -1.88585E+01
   2.47715E+00 -4.12119E+00 -9.09091E+00 -1.61021E+01 -8.53367E+00 -2.75940E+00 -1.68863E+01 -1.02059E+01 -1.38161E+01 -7.37928E+00
  -1.88843E+01 -8.59594E+00  7.93491E-01  4.74542E+00 -6.35126E+00 -3.90842E+00  1.96994E+00 -1.56937E+01 -7.05916E+00 -1.12115E+01
  -2.20061E+01 -4.24272E+00 -1.31708E+01 -1.22078E+01 -7.55171E-01 -1.02832E+01 -6.85552E+00 -1.53872E+00 -1.42226E+01 -3.32352E+00
  -9.06011E+00 -8.13438E+00 -3.09818E+00 -1.34114E+00 -7.63619E+00 -6.72174E+00  2.41104E+00  9.35527E+00 -4.13000E+00 -4.34934E+00
  -4.24993E+00 -1.30912E+01 -2.93602E+00 -1.09282E+01  2.10263E+00 -3.02087E-01 -5.67122E+00 -5.19103E+00  5.05287E+00 -2.60585E+00
  -3.43603E+00 -1.07273E-01  4.10508E+00 -7.05569E+00  1.38715E+00 -5.06994E+00  1.00690E+00  8.47813E+00  4.04163E+00 -3.08162E-02
  -3.60165E+00  1.39693E-01  4.29632E+00 -1.44214E+01 -7.36209E+00 -4.22063E+00 -5.54170E-01 -8.59278E+00 -4.98167E+00  2.44269E+00
   7.56990E+00  6.46900E+00  7.12784E+00  1.02742E+01  4.90725E+00  3.33167E+00  5.46701E-01  3.66461E+00  8.73308E+00  1.17773E+01
   6.92863E+00  2.00998E+01  5.95727E+00  1.39132E+01  8.74048E+00  3.05745E+01  2.17061E+01  3.93611E+01  2.63893E+01  3.23212E+01
   3.75625E+01  4.30961E+01  3.25021E+01  3.05629E+01  1.44824E+01  1.77379E+01  6.68635E-01 -1.11133E+01 -2.58028E+00  2.66094E+00
   1.59094E+01  2.00197E+01  1.92936E+01  1.18774E+01  2.59944E+00  1.02886E+01 -7.31507E+00 -1.00324E+01 -2.65910E+00 -1.48232E+01
  -1.66599E+01 -5.11276E+00 -1.34338E+01 -1.36339E+01 -5.53734E+00 -6.89602E+00 -6.57078E+00 -2.29770E+01 -9.58636E+00 -6.99491E+00
  -5.95475E+00 -9.84031E+00 -6.51750E+00 -1.44552E+00 -3.52826E+00 -8.87855E+00 -6.24702E+00 -5.16011E+00 -9.23337E-01  5.12706E+00
   8.53379E+00  2.37958E+00  8.39904E+00  1.27445E+01  1.23979E+01  9.98771E+00  7.97291E+00  8.66399E+00  9.89028E+00  1.41050E+01
   9.38920E+00  1.56026E+01  8.38612E+00  1.17679E+01  9.79081E+00  1.52200E+01  1.14218E+01 -1.73637E+00 -1.80761E+00  2.53732E+00
  -1.04429E+01 -1.29478E+01 -2.36196E+01 -1.05569E+01 -1.57005E+01 -6.83100E+00 -1.91469E+01 -1.13880E+01 -1.35143E+01 -2.65490E+01
  -2.68501E+01 -1.64122E+01 -1.61260E+01 -2.27813E+01 -2.23467E+01 -9.99745E+00 -1.00772E+01 -1.16871E+01 -8.51727E+00 -1.16666E+01
  -2.16970E+01 -6.98782E+00 -4.10035E+00 -1.74375E+01 -7.31058E+00 -3.14083E+00  7.10816E+00  5.78109E+00  8.04853E+00  1.93033E+00
  -3.49428E-01  8.50087E+00  1.04815E+01  4.78178E+00  6.17144E+00  5.88331E-02  4.25904E+00  3.13416E+00  1.96569E+01  6.65901E-01
   1.46996E+00  5.47378E+00 -1.62796E+00  1.39388E+01 -3.83091E+00  6.84603E+00 -5.50651E+00  7.21961E+00 -4.82423E+00  4.21039E+00
   5.19107E+00  9.35927E-01 -6.09384E+00  1.73045E-01  6.99092E+00  8.16387E+00  6.97023E+00 -5.24860E-01  3.06632E+00 -1.56674E+00
   6.27038E+00  1.84937E+00  3.55893E+00  6.30244E+00  1.86101E+00 -1.93162E+00 -1.16478E+01 -8.25236E+00 -1.26786E+01 -5.59284E+00
   3.20045E-01 -4.04234E+00  5.99282E+00 -8.40557E+00 -3.68287E+00 -2.79005E+00  3.78864E+00 -5.02681E+00 -1.36127E-02  5.06555E-01
   2.84342E+00  7.15517E+00 -9.08387E+00 -6.45389E-01  5.32026E+00  1.24588E+00 -9.57381E+00  5.76767E+00 -1.65696E+01 -2.02385E+00
   3.21354E+00 -1.27806E+00 -1.09553E+01 -1.02788E+00 -8.93239E+00 -1.07461E+01 -4.52456E+00  8.99981E+00 -3.53517E+00 -6.55026E+00
  -8.25275E+00  7.30982E-01 -4.51130E+00 -5.05925E-01 -2.02534E+00 -7.76453E-01  3.52911E+00 -2.78420E-01  3.41409E-01 -2.88529E+00
  -7.12742E+00 -2.01755E+00 -1.11617E+01 -2.64894E+00  2.44695E+00  1.27847E+00 -2.00067E+01 -5.94960E+00 -4.06252E+00 -1.03260E+01
  -4.48742E+00 -5.93916E+00 -1.17084E+01 -1.36834E+01  1.50935E+00 -5.08843E+00 -7.62898E+00 -4.06326E+00 -7.83131E+00 -5.86970E+00
  -1.19562E+01  3.93902E+00 -6.66707E+00 -7.93847E+00  1.74403E+00 -1.18187E+01 -1.46990E+01 -8.70848E+00 -1.41951E+01 -1.04949E+01
  -2.54668E+00 -8.78319E-01 -1.04970E+00 -6.16739E+00 -1.17479E+00 -2.53012E+00 -4.84506E+00 -4.49175E+00 -1.88952E-02 -1.96712E+01
  -1.24963E+01 -1.38621E+01 -1.55794E+01 -5.07797E+00 -2.00648E+01 -4.39454E+00 -1.42888E+00 -4.16871E+00  4.76585E+00  2.33511E+00
  -6.37487E+00 -2.71034E+00 -3.28539E+00  6.52663E+00 -6.23884E+00 -1.12382E+01 -1.26228E+01 -1.51202E+01 -3.81142E+00  1.28223E+00
  -4.25377E+00 -4.24452E+00 -1.77588E+00 -4.61644E+00 -9.66452E+00 -1.37662E+01 -3.31997E+00 -1.28198E+01
 NY points of the fit to the data follow
  -4.65048E+00 -4.68642E+00 -4.87963E+00 -5.22602E+00 -5.58972E+00 -5.78765E+00 -5.81134E+00 -5.74139E+00 -5.62523E+00 -5.41150E+00
  -5.01774E+00 -4.45080E+00 -3.83376E+00 -3.34594E+00 -3.12467E+00 -3.21728E+00 -3.57077E+00 -4.03012E+00 -4.39241E+00 -4.55267E+00
  -4.55083E+00 -4.47656E+00 -4.40105E+00 -4.35807E+00 -4.37647E+00 -4.46367E+00 -4.59914E+00 -4.74425E+00 -4.85462E+00 -4.88946E+00
  -4.82505E+00 -4.66195E+00 -4.42199E+00 -4.16698E+00 -3.97718E+00 -3.91106E+00 -3.98117E+00 -4.14320E+00 -4.33959E+00 -4.51225E+00
  -4.62664E+00 -4.69900E+00 -4.76396E+00 -4.84216E+00 -4.93919E+00 -5.02409E+00 -5.05881E+00 -5.03170E+00 -4.95809E+00 -4.86534E+00
  -4.77387E+00 -4.68938E+00 -4.61020E+00 -4.53767E+00 -4.47945E+00 -4.44784E+00 -4.45252E+00 -4.49164E+00 -4.54976E+00 -4.60104E+00
  -4.62309E+00 -4.61710E+00 -4.58907E+00 -4.55406E+00 -4.52748E+00 -4.51380E+00 -4.51253E+00 -4.52577E+00 -4.53449E+00 -4.50960E+00
  -4.45365E+00 -4.38227E+00 -4.30886E+00 -4.24165E+00 -4.18328E+00 -4.13601E+00 -4.11681E+00 -4.14987E+00 -4.23457E+00 -4.29714E+00
  -4.25674E+00 -4.10102E+00 -3.84890E+00 -3.53376E+00 -3.19274E+00 -2.86986E+00 -2.63394E+00 -2.56475E+00 -2.70497E+00 -3.03446E+00
  -3.48201E+00 -3.94282E+00 -4.30675E+00 -4.51093E+00 -4.51087E+00 -4.08465E+00 -2.39919E+00  8.57772E-01  5.10498E+00  9.61990E+00
   1.39186E+01  1.78468E+01  2.12310E+01  2.35461E+01  2.40716E+01  2.23711E+01  1.85882E+01  1.34302E+01  7.93461E+00  3.15239E+00
  -1.90438E-01 -2.00492E+00 -2.77037E+00 -3.08572E+00 -3.26042E+00 -3.36721E+00 -3.43190E+00 -3.46905E+00 -3.48321E+00 -3.45291E+00
  -3.25913E+00 -2.76439E+00 -2.03396E+00 -1.19497E+00 -3.48077E-01  4.62152E-01  1.20707E+00  1.80062E+00  2.09654E+00  1.97680E+00
   1.41816E+00  5.10079E-01 -5.65458E-01 -1.59554E+00 -2.40367E+00 -2.92136E+00 -3.20293E+00 -3.35359E+00 -3.44723E+00 -3.50449E+00
  -3.54234E+00 -3.58211E+00 -3.63374E+00 -3.69405E+00 -3.75476E+00 -3.81188E+00 -3.87019E+00 -3.94461E+00 -4.04734E+00 -4.17485E+00
  -4.31159E+00 -4.43512E+00 -4.52894E+00 -4.60910E+00 -4.71901E+00 -4.87318E+00 -5.05052E+00 -5.21807E+00 -5.34610E+00 -5.45600E+00
  -5.57730E+00 -5.70835E+00 -5.82192E+00 -5.89125E+00 -5.90433E+00 -5.87947E+00 -5.86319E+00 -5.90465E+00 -6.03859E+00 -6.27276E+00
  -6.55553E+00 -6.79142E+00 -6.93256E+00 -6.99853E+00 -7.06007E+00 -7.15648E+00 -7.25772E+00 -7.29634E+00 -7.23210E+00 -7.09078E+00
  -6.94354E+00 -6.81589E+00 -6.67510E+00 -6.48407E+00 -6.22171E+00 -5.89120E+00 -5.52803E+00 -5.17792E+00 -4.86802E+00 -4.60345E+00
  -4.37365E+00 -4.19796E+00 -4.11032E+00 -4.12195E+00 -4.20536E+00 -4.29525E+00 -4.31950E+00 -4.23226E+00 -4.04184E+00 -3.78580E+00
  -3.51141E+00 -3.26529E+00 -3.10383E+00 -3.09891E+00 -3.27833E+00 -3.62457E+00 -4.13241E+00 -4.75539E+00 -5.39542E+00 -5.93451E+00
  -6.26022E+00 -6.30578E+00 -6.07295E+00 -5.62149E+00 -5.04321E+00 -4.43576E+00 -3.87649E+00 -3.40523E+00 -3.02259E+00 -2.70864E+00
  -2.44510E+00 -2.22404E+00 -2.03450E+00 -1.87258E+00 -1.75631E+00 -1.69612E+00 -1.68367E+00 -1.69857E+00 -1.71903E+00 -1.74445E+00
  -1.75601E+00 -1.71164E+00 -1.57150E+00 -1.31714E+00 -9.55526E-01 -5.31391E-01 -1.05671E-01  3.03717E-01  6.97005E-01  1.07067E+00
   1.41120E+00  1.69154E+00  1.88463E+00  1.99643E+00  2.07772E+00  2.20228E+00  2.43437E+00  2.81531E+00  3.44659E+00  4.57797E+00
   6.17607E+00  8.02801E+00  1.00814E+01  1.30255E+01  1.74244E+01  2.26445E+01  2.77071E+01  3.18550E+01  3.48429E+01  3.66732E+01
   3.71288E+01  3.57506E+01  3.22705E+01  2.69150E+01  2.03702E+01  1.36039E+01  7.64360E+00  3.30178E+00  7.74306E-01 -4.22584E-01
  -9.98521E-01 -1.38600E+00 -1.69706E+00 -1.96471E+00 -2.21089E+00 -2.45338E+00 -2.70111E+00 -2.95352E+00 -3.20174E+00 -3.43026E+00
  -3.62625E+00 -3.78290E+00 -3.89796E+00 -3.97447E+00 -4.01816E+00 -4.02967E+00 -4.00638E+00 -3.94508E+00 -3.84188E+00 -3.69115E+00
  -3.48492E+00 -3.21584E+00 -2.88173E+00 -2.48316E+00 -2.02284E+00 -1.50593E+00 -9.39696E-01 -3.32886E-01  3.04610E-01  9.61507E-01
   1.62312E+00  2.26961E+00  2.87701E+00  3.42010E+00  3.87462E+00  4.21911E+00  4.43694E+00  4.51813E+00  4.45990E+00  4.26593E+00
   3.94535E+00  3.51236E+00  2.98557E+00  2.38698E+00  1.74094E+00  1.07308E+00  4.09525E-01 -2.23037E-01 -7.95113E-01 -1.26476E+00
  -1.57581E+00 -1.78246E+00 -2.00594E+00 -2.31436E+00 -2.72259E+00 -3.22519E+00 -3.84583E+00 -4.63723E+00 -5.54067E+00 -6.38206E+00
  -7.02062E+00 -7.36086E+00 -7.35226E+00 -6.97788E+00 -6.27072E+00 -5.35436E+00 -4.42325E+00 -3.65660E+00 -3.15330E+00 -2.93181E+00
  -2.94250E+00 -3.07629E+00 -3.19145E+00 -3.16629E+00 -2.94447E+00 -2.52776E+00 -1.92974E+00 -1.15282E+00 -2.03124E-01  8.98425E-01
   2.11008E+00  3.36744E+00  4.58639E+00  5.67114E+00  6.52633E+00  7.07110E+00  7.25235E+00  7.05386E+00  6.49923E+00  5.64780E+00
   4.58437E+00  3.40545E+00  2.20491E+00  1.06221E+00  3.49891E-02 -8.43393E-01 -1.56192E+00 -2.12707E+00 -2.55663E+00 -2.87382E+00
  -3.10249E+00 -3.26404E+00 -3.37579E+00 -3.45058E+00 -3.49716E+00 -3.52081E+00 -3.52426E+00 -3.50840E+00 -3.47299E+00 -3.41708E+00
  -3.33935E+00 -3.23836E+00 -3.11269E+00 -2.96115E+00 -2.78290E+00 -2.57754E+00 -2.34524E+00 -2.08681E+00 -1.80384E+00 -1.49880E+00
  -1.17512E+00 -8.37220E-01 -4.90467E-01 -1.41127E-01  2.03739E-01  5.36425E-01  8.48835E-01  1.13278E+00  1.38031E+00  1.58405E+00
   1.73752E+00  1.83545E+00  1.87401E+00  1.85112E+00  1.76646E+00  1.62155E+00  1.41964E+00  1.16552E+00  8.65323E-01  5.26240E-01
   1.56154E-01 -2.36726E-01 -6.44212E-01 -1.05846E+00 -1.47220E+00 -1.87895E+00 -2.27319E+00 -2.65044E+00 -3.00728E+00 -3.34132E+00
  -3.65109E+00 -3.93594E+00 -4.19594E+00 -4.43176E+00 -4.64449E+00 -4.83555E+00 -5.00654E+00 -5.15915E+00 -5.29511E+00 -5.41614E+00
  -5.52388E+00 -5.61985E+00 -5.70543E+00 -5.78186E+00 -5.85026E+00 -5.91166E+00 -5.96694E+00 -6.01685E+00 -6.06204E+00 -6.10309E+00
  -6.14050E+00 -6.17473E+00 -6.20614E+00 -6.23504E+00 -6.26171E+00 -6.28638E+00 -6.30929E+00 -6.33062E+00 -6.35053E+00 -6.36916E+00
  -6.38661E+00 -6.40300E+00 -6.41845E+00 -6.43305E+00 -6.44685E+00 -6.45992E+00 -6.47232E+00 -6.48411E+00 -6.49535E+00 -6.50609E+00
  -6.51635E+00 -6.52615E+00 -6.53554E+00 -6.54456E+00 -6.55324E+00 -6.56160E+00 -6.56964E+00 -6.57739E+00 -6.58487E+00 -6.59211E+00
  -6.59913E+00 -6.60593E+00 -6.61251E+00 -6.61889E+00 -6.62508E+00 -6.63112E+00 -6.63700E+00 -6.64271E+00 -6.64826E+00 -6.65366E+00
  -6.65894E+00 -6.66410E+00 -6.66913E+00 -6.67403E+00 -6.67879E+00 -6.68345E+00 -6.68801E+00 -6.69246E+00 -6.69679E+00 -6.70101E+00
  -6.70511E+00 -6.70911E+00 -6.71301E+00 -6.71680E+00 -6.72046E+00 -6.72398E+00 -6.72739E+00 -6.73066E+00
 NY background values follow
    -4.597E+00   -4.602E+00   -4.606E+00   -4.610E+00   -4.614E+00   -4.618E+00   -4.622E+00   -4.626E+00   -4.631E+00   -4.635E+00
    -4.639E+00   -4.643E+00   -4.647E+00   -4.651E+00   -4.655E+00   -4.660E+00   -4.664E+00   -4.668E+00   -4.672E+00   -4.676E+00
    -4.680E+00   -4.684E+00   -4.689E+00   -4.693E+00   -4.697E+00   -4.701E+00   -4.705E+00   -4.709E+00   -4.713E+00   -4.718E+00
    -4.722E+00   -4.726E+00   -4.730E+00   -4.734E+00   -4.738E+00   -4.742E+00   -4.746E+00   -4.751E+00   -4.755E+00   -4.759E+00
    -4.763E+00   -4.767E+00   -4.771E+00   -4.775E+00   -4.779E+00   -4.784E+00   -4.788E+00   -4.792E+00   -4.796E+00   -4.800E+00
    -4.804E+00   -4.808E+00   -4.812E+00   -4.816E+00   -4.821E+00   -4.825E+00   -4.829E+00   -4.833E+00   -4.837E+00   -4.841E+00
    -4.845E+00   -4.849E+00   -4.853E+00   -4.858E+00   -4.862E+00   -4.866E+00   -4.870E+00   -4.874E+00   -4.878E+00   -4.882E+00
    -4.886E+00   -4.890E+00   -4.894E+00   -4.899E+00   -4.903E+00   -4.907E+00   -4.911E+00   -4.915E+00   -4.919E+00   -4.923E+00
    -4.927E+00   -4.931E+00   -4.935E+00   -4.939E+00   -4.944E+00   -4.948E+00   -4.952E+00   -4.956E+00   -4.960E+00   -4.964E+00
    -4.968E+00   -4.972E+00   -4.976E+00   -4.980E+00   -4.984E+00   -4.988E+00   -4.993E+00   -4.997E+00   -5.001E+00   -5.005E+00
    -5.009E+00   -5.013E+00   -5.017E+00   -5.021E+00   -5.025E+00   -5.029E+00   -5.033E+00   -5.037E+00   -5.041E+00   -5.045E+00
    -5.050E+00   -5.054E+00   -5.058E+00   -5.062E+00   -5.066E+00   -5.070E+00   -5.074E+00   -5.078E+00   -5.082E+00   -5.086E+00
    -5.090E+00   -5.094E+00   -5.098E+00   -5.102E+00   -5.106E+00   -5.110E+00   -5.114E+00   -5.118E+00   -5.122E+00   -5.127E+00
    -5.131E+00   -5.135E+00   -5.139E+00   -5.143E+00   -5.147E+00   -5.151E+00   -5.155E+00   -5.159E+00   -5.163E+00   -5.167E+00
    -5.171E+00   -5.175E+00   -5.179E+00   -5.183E+00   -5.187E+00   -5.191E+00   -5.195E+00   -5.199E+00   -5.203E+00   -5.207E+00
    -5.211E+00   -5.215E+00   -5.219E+00   -5.223E+00   -5.227E+00   -5.231E+00   -5.235E+00   -5.239E+00   -5.243E+00   -5.247E+00
    -5.251E+00   -5.255E+00   -5.259E+00   -5.263E+00   -5.267E+00   -5.271E+00   -5.275E+00   -5.279E+00   -5.283E+00   -5.287E+00
    -5.291E+00   -5.295E+00   -5.299E+00   -5.303E+00   -5.307E+00   -5.311E+00   -5.315E+00   -5.319E+00   -5.323E+00   -5.327E+00
    -5.331E+00   -5.335E+00   -5.339E+00   -5.343E+00   -5.347E+00   -5.351E+00   -5.355E+00   -5.359E+00   -5.363E+00   -5.367E+00
    -5.371E+00   -5.375E+00   -5.379E+00   -5.383E+00   -5.387E+00   -5.391E+00   -5.395E+00   -5.399E+00   -5.403E+00   -5.407E+00
    -5.411E+00   -5.415E+00   -5.419E+00   -5.423E+00   -5.427E+00   -5.431E+00   -5.435E+00   -5.438E+00   -5.442E+00   -5.446E+00
    -5.450E+00   -5.454E+00   -5.458E+00   -5.462E+00   -5.466E+00   -5.470E+00   -5.474E+00   -5.478E+00   -5.482E+00   -5.486E+00
    -5.490E+00   -5.494E+00   -5.498E+00   -5.502E+00   -5.505E+00   -5.509E+00   -5.513E+00   -5.517E+00   -5.521E+00   -5.525E+00
    -5.529E+00   -5.533E+00   -5.537E+00   -5.541E+00   -5.545E+00   -5.549E+00   -5.553E+00   -5.556E+00   -5.560E+00   -5.564E+00
    -5.568E+00   -5.572E+00   -5.576E+00   -5.580E+00   -5.584E+00   -5.588E+00   -5.592E+00   -5.596E+00   -5.599E+00   -5.603E+00
    -5.607E+00   -5.611E+00   -5.615E+00   -5.619E+00   -5.623E+00   -5.627E+00   -5.631E+00   -5.635E+00   -5.638E+00   -5.642E+00
    -5.646E+00   -5.650E+00   -5.654E+00   -5.658E+00   -5.662E+00   -5.666E+00   -5.669E+00   -5.673E+00   -5.677E+00   -5.681E+00
    -5.685E+00   -5.689E+00   -5.693E+00   -5.697E+00   -5.700E+00   -5.704E+00   -5.708E+00   -5.712E+00   -5.716E+00   -5.720E+00
    -5.724E+00   -5.727E+00   -5.731E+00   -5.735E+00   -5.739E+00   -5.743E+00   -5.747E+00   -5.750E+00   -5.754E+00   -5.758E+00
    -5.762E+00   -5.766E+00   -5.770E+00   -5.774E+00   -5.777E+00   -5.781E+00   -5.785E+00   -5.789E+00   -5.793E+00   -5.796E+00
    -5.800E+00   -5.804E+00   -5.808E+00   -5.812E+00   -5.816E+00   -5.819E+00   -5.823E+00   -5.827E+00   -5.831E+00   -5.835E+00
    -5.838E+00   -5.842E+00   -5.846E+00   -5.850E+00   -5.854E+00   -5.857E+00   -5.861E+00   -5.865E+00   -5.869E+00   -5.873E+00
    -5.876E+00   -5.880E+00   -5.884E+00   -5.888E+00   -5.892E+00   -5.895E+00   -5.899E+00   -5.903E+00   -5.907E+00   -5.911E+00
    -5.914E+00   -5.918E+00   -5.922E+00   -5.926E+00   -5.929E+00   -5.933E+00   -5.937E+00   -5.941E+00   -5.944E+00   -5.948E+00
    -5.952E+00   -5.956E+00   -5.960E+00   -5.963E+00   -5.967E+00   -5.971E+00   -5.975E+00   -5.978E+00   -5.982E+00   -5.986E+00
    -5.990E+00   -5.993E+00   -5.997E+00   -6.001E+00   -6.005E+00   -6.008E+00   -6.012E+00   -6.016E+00   -6.019E+00   -6.023E+00
    -6.027E+00   -6.031E+00   -6.034E+00   -6.038E+00   -6.042E+00   -6.046E+00   -6.049E+00   -6.053E+00   -6.057E+00   -6.060E+00
    -6.064E+00   -6.068E+00   -6.072E+00   -6.075E+00   -6.079E+00   -6.083E+00   -6.086E+00   -6.090E+00   -6.094E+00   -6.097E+00
    -6.101E+00   -6.105E+00   -6.109E+00   -6.112E+00   -6.116E+00   -6.120E+00   -6.123E+00   -6.127E+00   -6.131E+00   -6.134E+00
    -6.138E+00   -6.142E+00   -6.145E+00   -6.149E+00   -6.153E+00   -6.156E+00   -6.160E+00   -6.164E+00   -6.167E+00   -6.171E+00
    -6.175E+00   -6.178E+00   -6.182E+00   -6.186E+00   -6.189E+00   -6.193E+00   -6.197E+00   -6.200E+00   -6.204E+00   -6.207E+00
    -6.211E+00   -6.215E+00   -6.218E+00   -6.222E+00   -6.226E+00   -6.229E+00   -6.233E+00   -6.237E+00   -6.240E+00   -6.244E+00
    -6.247E+00   -6.251E+00   -6.255E+00   -6.258E+00   -6.262E+00   -6.266E+00   -6.269E+00   -6.273E+00   -6.276E+00   -6.280E+00
    -6.284E+00   -6.287E+00   -6.291E+00   -6.294E+00   -6.298E+00   -6.302E+00   -6.305E+00   -6.309E+00   -6.312E+00   -6.316E+00
    -6.320E+00   -6.323E+00   -6.327E+00   -6.330E+00   -6.334E+00   -6.337E+00   -6.341E+00   -6.345E+00   -6.348E+00   -6.352E+00
    -6.355E+00   -6.359E+00   -6.362E+00   -6.366E+00   -6.369E+00   -6.373E+00   -6.377E+00   -6.380E+00   -6.384E+00   -6.387E+00
    -6.391E+00   -6.394E+00   -6.398E+00   -6.401E+00   -6.405E+00   -6.409E+00   -6.412E+00   -6.416E+00   -6.419E+00   -6.423E+00
    -6.426E+00   -6.430E+00   -6.433E+00   -6.437E+00   -6.440E+00   -6.444E+00   -6.447E+00   -6.451E+00   -6.454E+00   -6.458E+00
    -6.461E+00   -6.465E+00   -6.468E+00   -6.472E+00   -6.475E+00   -6.479E+00   -6.482E+00   -6.486E+00   -6.489E+00   -6.493E+00
    -6.496E+00   -6.500E+00   -6.503E+00   -6.507E+00   -6.510E+00   -6.514E+00   -6.517E+00   -6.521E+00
 Ala      Conc. = 2.22E+02
