 LCModel (Version 6.3-1L) Copyright: S.W. Provencher.          Ref.: Magn. Reson. Med. 30:672-679 (1993).                
 Slice#1 Row#2 Col#1  PD_24_press_2_raw_act
 36 lines in following concentration table = NCONC+1
    Conc.  %SD /Cr+PCr  Metabolite                                         
    0.000 999%   0.000 Ala                                                 
    6.038 199%   0.228 Asp                                                 
    0.000 999%   0.000 Cr                                                  
   26.510 105%   1.000 PCr                                                 
    3.636 198%   0.137 GABA                                                
    3.817 190%   0.144 Glc                                                 
    0.000 999%   0.000 Gln                                                 
   54.944 122%   2.073 Glu                                                 
    9.048 372%   0.341 GPC                                                 
   11.136 317%   0.420 PCh                                                 
   29.410 109%   1.109 GSH                                                 
    0.000 999%   0.000 Ins                                                 
    8.810 244%   0.332 Lac                                                 
   38.194 101%   1.441 NAA                                                 
    0.000 999%   0.000 NAAG                                                
    1.445 164% 5.4E-02 Scyllo                                              
    5.349 224%   0.202 Tau                                                 
    3.966 278%   0.150 -CrCH2                                              
   20.184  97%   0.761 GPC+PCh                                             
   38.194 101%   1.441 NAA+NAAG                                            
   26.510 105%   1.000 Cr+PCr                                              
   54.944 122%   2.073 Glu+Gln                                             
 4.41E+03  13% 166.235 Lip13a                                              
    0.000 999%   0.000 Lip13b                                              
 1.19E+03  13%  44.877 Lip09                                               
 2.06E-02 999% 7.8E-04 MM09                                                
  612.207  17%  23.094 Lip20                                               
    0.000 999%   0.000 MM20                                                
 4.88E-03 999% 1.8E-04 MM12                                                
    0.107 999% 4.0E-03 MM14                                                
    0.000 999%   0.000 MM17                                                
 4.41E+03  13% 166.235 Lip13a+Lip13b                                       
 4.41E+03  13% 166.240 MM14+Lip13a+Lip13b+MM12                             
 1.19E+03  13%  44.878 MM09+Lip09                                          
  612.207  17%  23.094 MM20+Lip20                                          
   6 lines in following misc. output table
  FWHM = 0.054 ppm    S/N =   2                                            
  Data shift =-0.023 ppm                                                   
  Ph: 176 deg     -51.9 deg/ppm                                            
  alphaB,S = 6.7E-01,   1.5E+00                                            
   14 spline knots.   Ns = 6(1)                                            
  ( 6) 2 infls.   ( 4) 2 extrs.                                            
  498 points on ppm-axis = NY
      4.000000     3.992357     3.984714     3.977070     3.969427     3.961784     3.954141     3.946497     3.938854     3.931211
      3.923568     3.915925     3.908281     3.900638     3.892995     3.885352     3.877708     3.870065     3.862422     3.854779
      3.847136     3.839492     3.831849     3.824206     3.816563     3.808919     3.801276     3.793633     3.785990     3.778347
      3.770703     3.763060     3.755417     3.747774     3.740130     3.732487     3.724844     3.717201     3.709558     3.701914
      3.694271     3.686628     3.678985     3.671341     3.663698     3.656055     3.648412     3.640769     3.633125     3.625482
      3.617839     3.610196     3.602552     3.594909     3.587266     3.579623     3.571980     3.564336     3.556693     3.549050
      3.541407     3.533763     3.526120     3.518477     3.510834     3.503191     3.495547     3.487904     3.480261     3.472618
      3.464974     3.457331     3.449688     3.442045     3.434402     3.426758     3.419115     3.411472     3.403829     3.396185
      3.388542     3.380899     3.373256     3.365613     3.357969     3.350326     3.342683     3.335040     3.327396     3.319753
      3.312110     3.304467     3.296824     3.289180     3.281537     3.273894     3.266251     3.258607     3.250964     3.243321
      3.235678     3.228034     3.220391     3.212748     3.205105     3.197462     3.189818     3.182175     3.174532     3.166889
      3.159245     3.151602     3.143959     3.136316     3.128673     3.121029     3.113386     3.105743     3.098100     3.090456
      3.082813     3.075170     3.067527     3.059884     3.052240     3.044597     3.036954     3.029311     3.021667     3.014024
      3.006381     2.998738     2.991095     2.983451     2.975808     2.968165     2.960522     2.952878     2.945235     2.937592
      2.929949     2.922306     2.914662     2.907019     2.899376     2.891733     2.884089     2.876446     2.868803     2.861160
      2.853517     2.845873     2.838230     2.830587     2.822944     2.815300     2.807657     2.800014     2.792371     2.784728
      2.777084     2.769441     2.761798     2.754155     2.746511     2.738868     2.731225     2.723582     2.715939     2.708295
      2.700652     2.693009     2.685366     2.677722     2.670079     2.662436     2.654793     2.647150     2.639506     2.631863
      2.624220     2.616577     2.608933     2.601290     2.593647     2.586004     2.578361     2.570717     2.563074     2.555431
      2.547788     2.540144     2.532501     2.524858     2.517215     2.509572     2.501928     2.494285     2.486642     2.478999
      2.471355     2.463712     2.456069     2.448426     2.440783     2.433139     2.425496     2.417853     2.410210     2.402566
      2.394923     2.387280     2.379637     2.371994     2.364350     2.356707     2.349064     2.341421     2.333777     2.326134
      2.318491     2.310848     2.303205     2.295561     2.287918     2.280275     2.272632     2.264988     2.257345     2.249702
      2.242059     2.234416     2.226772     2.219129     2.211486     2.203843     2.196199     2.188556     2.180913     2.173270
      2.165627     2.157983     2.150340     2.142697     2.135054     2.127410     2.119767     2.112124     2.104481     2.096838
      2.089194     2.081551     2.073908     2.066265     2.058621     2.050978     2.043335     2.035692     2.028049     2.020405
      2.012762     2.005119     1.997476     1.989833     1.982190     1.974546     1.966903     1.959260     1.951617     1.943974
      1.936331     1.928688     1.921045     1.913402     1.905759     1.898115     1.890472     1.882829     1.875186     1.867543
      1.859900     1.852257     1.844614     1.836971     1.829327     1.821684     1.814041     1.806398     1.798755     1.791112
      1.783469     1.775826     1.768183     1.760540     1.752896     1.745253     1.737610     1.729967     1.722324     1.714681
      1.707038     1.699395     1.691752     1.684108     1.676465     1.668822     1.661179     1.653536     1.645893     1.638250
      1.630607     1.622964     1.615321     1.607677     1.600034     1.592391     1.584748     1.577105     1.569462     1.561819
      1.554176     1.546533     1.538890     1.531246     1.523603     1.515960     1.508317     1.500674     1.493031     1.485388
      1.477745     1.470102     1.462458     1.454815     1.447172     1.439529     1.431886     1.424243     1.416600     1.408957
      1.401314     1.393671     1.386027     1.378384     1.370741     1.363098     1.355455     1.347812     1.340169     1.332526
      1.324883     1.317240     1.309596     1.301953     1.294310     1.286667     1.279024     1.271381     1.263738     1.256095
      1.248452     1.240808     1.233165     1.225522     1.217879     1.210236     1.202593     1.194950     1.187307     1.179664
      1.172021     1.164377     1.156734     1.149091     1.141448     1.133805     1.126162     1.118519     1.110876     1.103233
      1.095590     1.087946     1.080303     1.072660     1.065017     1.057374     1.049731     1.042088     1.034445     1.026802
      1.019158     1.011515     1.003872     0.996229     0.988586     0.980943     0.973300     0.965657     0.958014     0.950371
      0.942727     0.935084     0.927441     0.919798     0.912155     0.904512     0.896869     0.889226     0.881583     0.873940
      0.866296     0.858653     0.851010     0.843367     0.835724     0.828081     0.820438     0.812795     0.805152     0.797508
      0.789865     0.782222     0.774579     0.766936     0.759293     0.751650     0.744007     0.736364     0.728721     0.721077
      0.713434     0.705791     0.698148     0.690505     0.682862     0.675219     0.667576     0.659933     0.652290     0.644646
      0.637003     0.629360     0.621717     0.614074     0.606431     0.598788     0.591145     0.583502     0.575858     0.568215
      0.560572     0.552929     0.545286     0.537643     0.530000     0.522357     0.514714     0.507071     0.499427     0.491784
      0.484141     0.476498     0.468855     0.461212     0.453569     0.445925     0.438282     0.430639     0.422996     0.415353
      0.407710     0.400067     0.392424     0.384780     0.377137     0.369494     0.361851     0.354208     0.346565     0.338922
      0.331278     0.323635     0.315992     0.308349     0.300706     0.293063     0.285420     0.277777     0.270133     0.262490
      0.254847     0.247204     0.239561     0.231918     0.224275     0.216631     0.208988     0.201345
 NY phased data points follow
  -3.58399E+00 -1.46640E+00  8.99408E+00  3.87468E+00  9.46651E+00  5.81777E+00 -7.01937E+00 -3.69700E+00 -1.82049E+00 -1.68683E+00
   1.32571E+00  1.91469E+00 -1.51186E+01  3.06251E-01 -9.58361E-01  8.97498E-01 -1.06520E+01  8.58785E+00  3.36814E-01 -4.37985E+00
  -2.63255E+00 -2.80059E+00 -5.20953E+00  6.46649E+00 -1.75682E+00  2.19707E+00 -1.97432E+00  5.65661E+00 -8.36270E-01  5.56691E+00
  -1.00971E+00 -1.44980E+00 -5.85326E+00  3.78035E+00 -9.76933E+00 -5.80228E-01 -3.29692E+00  2.08321E+00 -4.58920E-02  5.25016E+00
   3.24030E+00  3.98758E+00  1.76155E-01  2.30356E+00 -4.26502E+00  3.58905E+00 -8.65203E+00 -8.22066E+00  4.38227E-01 -2.24422E+00
  -1.40727E+00 -5.15302E+00 -5.10174E+00  2.04238E-01  7.93468E-01 -3.55111E+00  1.67092E-01  2.95089E+00 -4.61455E+00  1.00445E-01
  -5.07527E+00 -3.59135E+00  8.48187E+00 -1.30823E+00 -1.84236E+00 -3.76601E+00  7.88688E+00  1.12943E+01 -5.86161E+00  1.13201E+00
   1.12946E+00  2.63673E+00 -7.14996E+00  4.42530E+00  3.57740E+00  3.75043E+00 -1.48671E+00 -4.93945E-01  5.36829E+00  2.80821E-01
   2.32429E+00  2.91183E+00  3.36799E+00 -1.08315E+00  1.53883E+00 -3.52437E+00 -2.42991E+00  4.06703E+00  1.15228E+00  2.16088E+00
  -5.17382E+00  1.26548E+00  7.89681E-01 -6.14991E+00 -9.60074E-02  1.37691E+01  1.71411E+00  6.67814E-01  9.29378E+00  1.34962E+00
   4.65144E+00  9.30710E+00  8.26426E+00  7.14156E+00 -3.71372E+00  1.21583E+00 -5.27089E+00 -1.41518E+01 -6.87216E+00 -6.50157E+00
  -7.76183E+00 -5.18771E-01  4.77669E+00  7.23350E+00 -4.01115E+00  8.74367E+00 -2.64756E+00 -6.01590E+00  7.48837E-01 -5.58776E+00
   5.26171E-01  3.42984E+00  6.48239E-01  2.61005E+00 -3.51772E-01  1.73193E+00  4.46065E+00  2.10893E+00 -1.49512E+00  1.93721E+00
  -3.42643E+00 -2.29057E+00 -9.64320E+00 -4.42554E+00 -8.75648E+00 -6.60278E+00  3.05202E+00  3.54920E-01 -1.14524E+00  2.73976E+00
   4.35067E+00  2.97001E+00 -3.33690E+00  4.64740E+00  5.67631E+00 -2.77403E+00  2.21674E+00  3.57994E+00 -1.21963E+00  3.04489E+00
   4.80938E+00  1.53730E+00  1.57256E+00  5.03894E+00  4.31950E+00 -2.52024E+00  1.51330E+00  2.23513E+00  7.36042E+00 -1.50789E+00
   3.51381E+00  6.11945E+00  6.45585E+00  5.27376E+00  2.40551E+00  3.89996E+00  2.29360E+00  6.51906E-01  7.49522E+00  3.65586E+00
   4.52850E+00  9.66312E+00  1.48615E+00  2.79106E+00 -9.72692E-01  3.42478E-01 -1.19481E+00  1.13656E+00 -3.45751E+00  4.12033E+00
  -1.52000E+00 -5.32834E+00 -5.48428E-01 -1.15215E-01 -2.11996E+00 -4.56862E+00 -3.48343E+00  6.19736E+00 -3.65000E+00  3.48321E+00
  -1.22015E+00 -7.93853E+00 -4.39762E+00 -5.25380E+00 -3.97090E+00 -4.59119E+00 -1.18815E+00  2.42029E+00 -1.05303E+01 -1.04054E+01
   5.38494E-01  7.71227E-01  1.21920E-01 -5.96693E+00  2.71187E+00  4.04217E+00 -4.37581E+00 -1.55193E+00 -7.02334E+00 -1.03169E+01
  -8.41012E+00 -1.01399E+01 -4.92243E+00 -9.15684E+00 -4.10935E+00 -1.35725E+01 -9.80340E+00 -1.30117E+01 -6.43288E+00 -2.04700E+01
  -1.41244E+01 -1.27814E+01 -1.39763E+01 -1.57643E+01 -1.44085E+01 -1.28655E+01 -6.56691E+00 -7.37964E+00 -1.06027E+01 -1.51646E+01
  -1.47291E+01 -8.70578E+00 -1.19883E+01 -9.84890E+00 -1.00252E+01 -1.34841E+01 -1.46572E+01 -1.36397E+01 -1.09365E+01 -9.23013E+00
  -1.01199E+01 -1.46532E+01 -1.73154E+01 -9.69026E+00 -1.71013E+01 -5.98956E+00 -4.07803E+00 -1.15207E+01 -6.56310E+00 -7.41663E+00
  -8.26620E+00 -5.42956E+00 -1.56983E+01  9.71413E-01 -7.06847E+00 -4.69749E+00  3.46380E+00 -8.78354E-01  2.32489E+00 -2.98110E+00
  -5.44774E+00 -2.14741E+00 -8.36187E+00 -1.14755E+01 -1.16119E+01 -1.18112E+01 -1.43793E+01 -1.13929E+01 -9.63634E+00 -9.97762E+00
  -9.97974E+00 -6.81494E+00 -3.84606E+00 -1.21472E+01  6.86635E-01 -7.86409E+00 -4.30846E+00 -3.90295E+00 -1.06014E+01 -1.53788E+01
  -1.09974E+01 -5.55588E+00 -5.71592E+00 -2.51891E+00 -1.21055E+01 -1.11073E+01 -5.06717E+00 -7.73537E+00 -5.27306E+00 -1.18390E+01
  -8.06710E+00 -7.46342E+00 -9.39584E+00 -1.96507E+00 -3.72677E+00 -9.19242E+00 -2.53068E+00 -4.45766E+00 -2.66252E+00  1.59166E+00
  -9.11622E+00 -4.23889E+00 -1.11114E+00 -6.51880E+00 -6.33472E+00  3.38967E-01 -2.11027E+00 -4.21180E+00  9.24838E-02 -3.27354E+00
  -4.78697E+00 -7.97811E+00 -4.94491E+00 -7.72992E+00 -5.36909E-01 -1.77001E+00 -4.86464E+00 -9.31404E+00 -1.06546E+01 -9.57513E+00
  -2.72416E+00 -7.79620E+00 -3.75242E+00 -4.39729E+00 -6.11223E+00  3.27553E+00  3.24235E+00  3.25949E+00  1.13132E+01  3.36463E+00
   1.00766E+01  1.17409E+01  1.83947E+01  3.40001E+00  1.23169E+01  1.56082E+01  1.34995E+01  1.69817E+01  1.55775E+01  1.43423E+01
   1.21984E+01  1.12483E+01  1.68471E+01  8.28666E+00  1.69404E+01  1.76588E+01  8.82955E+00  7.88714E+00  9.98866E+00  9.90705E+00
   1.47407E+01  1.17398E+01  4.80326E+00  3.66096E+00  7.45307E+00  2.87995E+00  1.40402E+01  6.81842E+00  5.02772E+00  3.25217E+00
   3.20046E+00  3.96377E+00  2.74745E+00  4.93671E+00  6.89934E-01  6.15796E+00  4.04578E+00  3.05167E+00 -6.99474E-01 -6.68268E-02
   1.38441E+00  4.33594E+00  4.77836E-01  8.57801E+00  1.66390E+00  9.56867E-01  1.02916E+00 -6.29947E-01 -2.37427E+00  1.99647E+00
   4.53181E+00  9.05735E+00 -2.28132E+00  3.91683E+00 -2.16062E+00  3.59249E+00  1.23562E-01  4.85038E+00 -2.76363E+00 -1.55956E+00
   3.75534E+00  3.04321E+00 -7.36588E-01 -1.30605E+00  9.46040E+00  6.10400E+00  8.19971E+00  7.79014E+00  7.95774E+00  3.88151E+00
   5.86031E+00  5.94455E+00  7.62079E+00  6.19294E+00  6.53280E+00  4.74531E+00  8.48573E+00  5.76285E+00  1.55129E+00  6.85605E+00
   3.24376E+00  1.39302E+00 -4.49598E+00  6.35884E+00 -1.73922E+00  1.51884E+00 -2.11111E+00  3.10917E+00 -2.20009E+00 -1.86100E+00
  -5.69827E+00  1.29234E+00 -5.20753E+00  5.93499E-01  4.41454E+00 -2.40206E+00  1.66739E+00 -2.44099E+00  7.18732E+00 -1.28913E+00
   4.97488E-01  2.85516E-02 -2.19199E+00  4.68873E+00  1.47207E+00 -7.11989E+00  1.37093E+00  1.02117E+00  6.09251E+00  2.38747E+00
  -2.44442E-01 -6.07541E-01  2.50611E+00 -2.85132E+00  6.81481E-01 -2.49396E+00  2.28791E+00  2.50999E+00 -7.31943E-01  9.16149E-01
   3.80441E+00  2.86596E+00 -8.76631E+00  2.20183E+00 -3.62245E+00 -4.29352E-01 -4.43955E+00 -4.33069E+00  7.99848E-01 -5.61056E-01
   2.62386E+00 -1.44797E+00 -5.34100E+00  3.27556E+00  2.85983E+00  2.90422E+00  5.88328E+00  2.72624E+00  3.16674E+00  5.22081E+00
  -3.16577E+00 -3.03547E+00 -6.38057E-01 -4.27726E+00 -1.09557E+00 -4.63669E+00 -7.65577E+00 -3.49647E+00 -7.64436E+00 -3.91724E+00
   8.89612E+00  9.00209E+00  1.81628E-01  2.26085E+00 -9.91313E-01 -5.81564E+00  1.45325E+00 -1.85296E+00 -1.37167E+00 -8.55699E-01
  -3.29221E+00  4.23214E+00 -3.66442E+00  4.03392E-01  4.07834E+00 -2.04267E+00  5.27643E-01  2.32887E+00
 NY points of the fit to the data follow
   1.11831E+00  1.23408E+00  1.47336E+00  2.11223E+00  2.75382E+00  3.00359E+00  3.07214E+00  3.02166E+00  2.67682E+00  2.04470E+00
   1.25395E+00  3.28604E-01 -6.54463E-01 -1.28781E+00 -1.29361E+00 -7.41398E-01  1.02917E-01  5.57938E-01  5.84694E-01  5.27756E-01
   5.09192E-01  5.22218E-01  4.75262E-01  6.54158E-01  1.57914E+00  2.48322E+00  2.88182E+00  3.22595E+00  3.52457E+00  3.32536E+00
   2.50563E+00  1.35237E+00 -7.04488E-02 -1.70919E+00 -2.84869E+00 -3.06988E+00 -2.36897E+00 -1.13795E+00 -3.73921E-01  5.39407E-02
   4.32360E-01  6.52657E-01  5.86481E-01  2.79497E-01  1.51180E-02 -1.89993E-01 -3.07574E-01 -2.53505E-01 -1.59810E-01 -1.02916E-01
  -8.53444E-02 -9.89216E-02 -1.44413E-01 -1.99911E-01 -2.74877E-01 -3.73361E-01 -4.50225E-01 -4.78588E-01 -5.02675E-01 -5.05643E-01
  -4.82165E-01 -4.56158E-01 -4.45666E-01 -4.50314E-01 -4.74380E-01 -5.16489E-01 -5.55660E-01 -5.88123E-01 -6.22550E-01 -6.33933E-01
  -6.06047E-01 -5.81072E-01 -5.75938E-01 -5.76580E-01 -6.01340E-01 -6.67877E-01 -7.42825E-01 -8.27996E-01 -9.19604E-01 -9.71348E-01
  -8.93698E-01 -7.32398E-01 -5.99660E-01 -5.24298E-01 -5.22840E-01 -6.02708E-01 -7.48304E-01 -9.36406E-01 -1.15626E+00 -1.38153E+00
  -1.54638E+00 -1.58882E+00 -1.48947E+00 -1.27311E+00 -1.08290E+00 -8.89048E-01 -2.22783E-01  1.99958E+00  4.87046E+00  6.41676E+00
   6.91497E+00  6.93049E+00  6.00372E+00  3.89124E+00  9.28810E-01 -2.70392E+00 -6.72180E+00 -9.71877E+00 -1.02510E+01 -8.32199E+00
  -4.98043E+00 -2.64888E+00 -2.03070E+00 -1.88298E+00 -1.84979E+00 -1.84700E+00 -1.85236E+00 -1.86321E+00 -1.85196E+00 -1.74777E+00
  -1.28975E+00 -4.21256E-02  1.12308E+00  1.64874E+00  1.89672E+00  1.90797E+00  1.40436E+00  4.51468E-01 -8.02264E-01 -2.53903E+00
  -4.49235E+00 -5.74133E+00 -5.88300E+00 -5.07003E+00 -3.81435E+00 -3.24527E+00 -3.04883E+00 -2.77082E+00 -2.27596E+00 -1.62592E+00
  -1.03244E+00 -7.84539E-01 -1.02754E+00 -1.51425E+00 -2.04333E+00 -2.47984E+00 -2.65927E+00 -2.62827E+00 -2.51623E+00 -2.40985E+00
  -2.37414E+00 -2.34458E+00 -2.31883E+00 -2.29107E+00 -2.27391E+00 -2.29240E+00 -2.32426E+00 -2.35700E+00 -2.39205E+00 -2.42214E+00
  -2.46782E+00 -2.51987E+00 -2.54090E+00 -2.52153E+00 -2.50364E+00 -2.53060E+00 -2.61936E+00 -2.76326E+00 -2.93223E+00 -3.06363E+00
  -3.16487E+00 -3.25123E+00 -3.28893E+00 -3.33966E+00 -3.41401E+00 -3.50302E+00 -3.57851E+00 -3.60939E+00 -3.60420E+00 -3.62222E+00
  -3.69145E+00 -3.82014E+00 -3.94945E+00 -3.97678E+00 -3.83547E+00 -3.55895E+00 -3.28621E+00 -3.10746E+00 -3.03138E+00 -3.02126E+00
  -3.13239E+00 -3.48564E+00 -4.11294E+00 -4.70658E+00 -5.10002E+00 -5.26129E+00 -5.13468E+00 -4.73713E+00 -4.20246E+00 -3.72752E+00
  -3.39660E+00 -3.25296E+00 -3.36586E+00 -3.67443E+00 -4.14030E+00 -4.60370E+00 -4.86612E+00 -5.05812E+00 -5.15178E+00 -5.01701E+00
  -4.50551E+00 -3.88492E+00 -3.49852E+00 -3.26997E+00 -3.22440E+00 -3.50902E+00 -4.22570E+00 -5.28738E+00 -6.23872E+00 -6.82927E+00
  -6.96572E+00 -6.45299E+00 -5.36903E+00 -4.04751E+00 -3.01967E+00 -2.46249E+00 -2.33821E+00 -2.64001E+00 -3.30331E+00 -4.08980E+00
  -4.57156E+00 -4.47435E+00 -4.03713E+00 -3.70093E+00 -3.50944E+00 -3.49457E+00 -3.75817E+00 -4.36758E+00 -5.12899E+00 -5.63484E+00
  -5.69469E+00 -5.43766E+00 -4.83348E+00 -3.95692E+00 -3.13784E+00 -2.71590E+00 -2.77237E+00 -3.11551E+00 -3.61963E+00 -4.13125E+00
  -4.50165E+00 -4.55258E+00 -4.30809E+00 -3.75660E+00 -2.31202E+00 -1.36624E-01  1.15770E+00  1.52515E+00  1.60837E+00  1.20624E+00
   3.64000E-02 -1.70121E+00 -3.91030E+00 -6.59994E+00 -8.98912E+00 -9.94269E+00 -9.21007E+00 -7.26200E+00 -5.52185E+00 -4.98763E+00
  -4.81628E+00 -4.70657E+00 -4.64503E+00 -4.62593E+00 -4.61159E+00 -4.64646E+00 -4.73861E+00 -4.87119E+00 -5.01111E+00 -5.12736E+00
  -5.18468E+00 -5.18664E+00 -5.16496E+00 -5.13160E+00 -5.09183E+00 -5.06085E+00 -5.04405E+00 -5.03849E+00 -5.04172E+00 -5.04276E+00
  -5.03910E+00 -5.02875E+00 -5.00953E+00 -4.98333E+00 -4.95331E+00 -4.92013E+00 -4.88270E+00 -4.84052E+00 -4.79524E+00 -4.74707E+00
  -4.69510E+00 -4.63997E+00 -4.58078E+00 -4.51708E+00 -4.44846E+00 -4.37455E+00 -4.29506E+00 -4.20944E+00 -4.11675E+00 -4.01599E+00
  -3.90623E+00 -3.78712E+00 -3.65827E+00 -3.51862E+00 -3.36682E+00 -3.20140E+00 -3.02088E+00 -2.82376E+00 -2.60839E+00 -2.37295E+00
  -2.11540E+00 -1.83357E+00 -1.52527E+00 -1.18836E+00 -8.20703E-01 -4.20265E-01  1.48941E-02  4.86377E-01  9.95289E-01  1.54211E+00
   2.12668E+00  2.74804E+00  3.40433E+00  4.09258E+00  4.80861E+00  5.54710E+00  6.30184E+00  7.06604E+00  7.83316E+00  8.59908E+00
   9.37046E+00  1.01697E+01  1.08780E+01  1.13589E+01  1.16947E+01  1.19333E+01  1.20247E+01  1.19633E+01  1.18075E+01  1.17118E+01
   1.17167E+01  1.17736E+01  1.18975E+01  1.20250E+01  1.19989E+01  1.16457E+01  1.10080E+01  1.02326E+01  9.30524E+00  8.29655E+00
   7.34951E+00  6.56165E+00  5.97898E+00  5.45444E+00  4.88805E+00  4.32197E+00  3.77840E+00  3.26675E+00  2.79199E+00  2.35685E+00
   1.96267E+00  1.60992E+00  1.29844E+00  1.02771E+00  7.96980E-01  6.05366E-01  4.52010E-01  3.36127E-01  2.57084E-01  2.14397E-01
   2.07753E-01  2.36952E-01  3.01887E-01  4.02435E-01  5.38390E-01  7.09305E-01  9.14402E-01  1.15239E+00  1.42137E+00  1.71865E+00
   2.04067E+00  2.38293E+00  2.73997E+00  3.10539E+00  3.47192E+00  3.83160E+00  4.17602E+00  4.49656E+00  4.78475E+00  5.03258E+00
   5.23291E+00  5.37971E+00  5.46843E+00  5.49620E+00  5.46197E+00  5.36654E+00  5.21251E+00  5.00414E+00  4.74715E+00  4.44837E+00
   4.11549E+00  3.75660E+00  3.37992E+00  2.99339E+00  2.60449E+00  2.21995E+00  1.84560E+00  1.48623E+00  1.14564E+00  8.26559E-01
   5.30810E-01  2.59344E-01  1.23816E-02 -2.10488E-01 -4.10139E-01 -5.87801E-01 -7.44915E-01 -8.83073E-01 -1.00392E+00 -1.10911E+00
  -1.20024E+00 -1.27880E+00 -1.34616E+00 -1.40358E+00 -1.45221E+00 -1.49308E+00 -1.52709E+00 -1.55504E+00 -1.57759E+00 -1.59537E+00
  -1.60890E+00 -1.61866E+00 -1.62506E+00 -1.62843E+00 -1.62907E+00 -1.62727E+00 -1.62325E+00 -1.61725E+00 -1.60943E+00 -1.59995E+00
  -1.58894E+00 -1.57655E+00 -1.56289E+00 -1.54809E+00 -1.53220E+00 -1.51531E+00 -1.49748E+00 -1.47882E+00 -1.45937E+00 -1.43919E+00
  -1.41832E+00 -1.39679E+00 -1.37467E+00 -1.35199E+00 -1.32879E+00 -1.30510E+00 -1.28093E+00 -1.25631E+00 -1.23129E+00 -1.20589E+00
  -1.18012E+00 -1.15401E+00 -1.12755E+00 -1.10078E+00 -1.07371E+00 -1.04638E+00 -1.01878E+00 -9.90931E-01 -9.62822E-01 -9.34490E-01
  -9.05950E-01 -8.77215E-01 -8.48275E-01 -8.19135E-01 -7.89804E-01 -7.60311E-01 -7.30664E-01 -7.00868E-01 -6.70908E-01 -6.40793E-01
  -6.10534E-01 -5.80159E-01 -5.49665E-01 -5.19050E-01 -4.88298E-01 -4.57424E-01 -4.26441E-01 -3.95373E-01
 NY background values follow
     8.998E-01    8.770E-01    8.542E-01    8.315E-01    8.087E-01    7.860E-01    7.632E-01    7.405E-01    7.177E-01    6.950E-01
     6.722E-01    6.495E-01    6.267E-01    6.040E-01    5.812E-01    5.585E-01    5.357E-01    5.129E-01    4.901E-01    4.674E-01
     4.446E-01    4.217E-01    3.989E-01    3.761E-01    3.532E-01    3.303E-01    3.074E-01    2.845E-01    2.616E-01    2.386E-01
     2.156E-01    1.926E-01    1.696E-01    1.465E-01    1.234E-01    1.003E-01    7.715E-02    5.397E-02    3.076E-02    7.512E-03
    -1.577E-02   -3.909E-02   -6.245E-02   -8.584E-02   -1.093E-01   -1.328E-01   -1.563E-01   -1.798E-01   -2.034E-01   -2.271E-01
    -2.508E-01   -2.746E-01   -2.984E-01   -3.222E-01   -3.461E-01   -3.701E-01   -3.942E-01   -4.182E-01   -4.424E-01   -4.666E-01
    -4.909E-01   -5.153E-01   -5.397E-01   -5.642E-01   -5.888E-01   -6.134E-01   -6.381E-01   -6.629E-01   -6.878E-01   -7.128E-01
    -7.378E-01   -7.629E-01   -7.882E-01   -8.135E-01   -8.388E-01   -8.643E-01   -8.899E-01   -9.156E-01   -9.413E-01   -9.672E-01
    -9.932E-01   -1.019E+00   -1.045E+00   -1.072E+00   -1.098E+00   -1.125E+00   -1.151E+00   -1.178E+00   -1.205E+00   -1.232E+00
    -1.259E+00   -1.286E+00   -1.313E+00   -1.341E+00   -1.368E+00   -1.396E+00   -1.424E+00   -1.452E+00   -1.480E+00   -1.508E+00
    -1.536E+00   -1.564E+00   -1.593E+00   -1.621E+00   -1.650E+00   -1.679E+00   -1.708E+00   -1.737E+00   -1.766E+00   -1.796E+00
    -1.825E+00   -1.855E+00   -1.885E+00   -1.914E+00   -1.944E+00   -1.974E+00   -2.005E+00   -2.035E+00   -2.065E+00   -2.096E+00
    -2.127E+00   -2.158E+00   -2.189E+00   -2.220E+00   -2.251E+00   -2.282E+00   -2.314E+00   -2.345E+00   -2.377E+00   -2.409E+00
    -2.440E+00   -2.473E+00   -2.505E+00   -2.537E+00   -2.569E+00   -2.602E+00   -2.635E+00   -2.667E+00   -2.700E+00   -2.733E+00
    -2.767E+00   -2.800E+00   -2.833E+00   -2.867E+00   -2.900E+00   -2.934E+00   -2.968E+00   -3.001E+00   -3.035E+00   -3.069E+00
    -3.103E+00   -3.138E+00   -3.172E+00   -3.206E+00   -3.240E+00   -3.275E+00   -3.309E+00   -3.344E+00   -3.378E+00   -3.413E+00
    -3.447E+00   -3.482E+00   -3.517E+00   -3.551E+00   -3.586E+00   -3.621E+00   -3.656E+00   -3.690E+00   -3.725E+00   -3.760E+00
    -3.795E+00   -3.829E+00   -3.864E+00   -3.899E+00   -3.934E+00   -3.969E+00   -4.003E+00   -4.038E+00   -4.073E+00   -4.107E+00
    -4.142E+00   -4.176E+00   -4.211E+00   -4.245E+00   -4.280E+00   -4.314E+00   -4.348E+00   -4.383E+00   -4.417E+00   -4.451E+00
    -4.484E+00   -4.518E+00   -4.552E+00   -4.585E+00   -4.619E+00   -4.652E+00   -4.685E+00   -4.717E+00   -4.750E+00   -4.783E+00
    -4.815E+00   -4.847E+00   -4.879E+00   -4.910E+00   -4.942E+00   -4.973E+00   -5.004E+00   -5.034E+00   -5.065E+00   -5.095E+00
    -5.124E+00   -5.154E+00   -5.183E+00   -5.212E+00   -5.240E+00   -5.269E+00   -5.297E+00   -5.324E+00   -5.351E+00   -5.378E+00
    -5.405E+00   -5.431E+00   -5.456E+00   -5.482E+00   -5.506E+00   -5.531E+00   -5.555E+00   -5.579E+00   -5.602E+00   -5.624E+00
    -5.647E+00   -5.669E+00   -5.690E+00   -5.711E+00   -5.732E+00   -5.752E+00   -5.771E+00   -5.791E+00   -5.809E+00   -5.828E+00
    -5.846E+00   -5.863E+00   -5.880E+00   -5.897E+00   -5.913E+00   -5.929E+00   -5.944E+00   -5.959E+00   -5.973E+00   -5.987E+00
    -6.000E+00   -6.013E+00   -6.026E+00   -6.038E+00   -6.050E+00   -6.061E+00   -6.072E+00   -6.082E+00   -6.092E+00   -6.101E+00
    -6.110E+00   -6.119E+00   -6.127E+00   -6.134E+00   -6.141E+00   -6.148E+00   -6.154E+00   -6.160E+00   -6.165E+00   -6.170E+00
    -6.174E+00   -6.178E+00   -6.181E+00   -6.184E+00   -6.187E+00   -6.189E+00   -6.190E+00   -6.191E+00   -6.192E+00   -6.192E+00
    -6.192E+00   -6.191E+00   -6.190E+00   -6.188E+00   -6.186E+00   -6.184E+00   -6.181E+00   -6.178E+00   -6.174E+00   -6.170E+00
    -6.166E+00   -6.161E+00   -6.156E+00   -6.150E+00   -6.144E+00   -6.138E+00   -6.131E+00   -6.124E+00   -6.116E+00   -6.108E+00
    -6.100E+00   -6.092E+00   -6.083E+00   -6.073E+00   -6.064E+00   -6.053E+00   -6.043E+00   -6.032E+00   -6.021E+00   -6.010E+00
    -5.998E+00   -5.986E+00   -5.974E+00   -5.961E+00   -5.948E+00   -5.935E+00   -5.921E+00   -5.907E+00   -5.893E+00   -5.878E+00
    -5.863E+00   -5.848E+00   -5.833E+00   -5.817E+00   -5.801E+00   -5.784E+00   -5.768E+00   -5.751E+00   -5.734E+00   -5.716E+00
    -5.699E+00   -5.681E+00   -5.662E+00   -5.644E+00   -5.625E+00   -5.606E+00   -5.587E+00   -5.567E+00   -5.547E+00   -5.527E+00
    -5.507E+00   -5.486E+00   -5.465E+00   -5.444E+00   -5.423E+00   -5.401E+00   -5.380E+00   -5.357E+00   -5.335E+00   -5.313E+00
    -5.290E+00   -5.267E+00   -5.244E+00   -5.220E+00   -5.197E+00   -5.173E+00   -5.149E+00   -5.125E+00   -5.100E+00   -5.076E+00
    -5.051E+00   -5.026E+00   -5.000E+00   -4.975E+00   -4.949E+00   -4.923E+00   -4.897E+00   -4.871E+00   -4.845E+00   -4.818E+00
    -4.791E+00   -4.764E+00   -4.737E+00   -4.710E+00   -4.682E+00   -4.655E+00   -4.627E+00   -4.599E+00   -4.571E+00   -4.542E+00
    -4.514E+00   -4.485E+00   -4.457E+00   -4.428E+00   -4.399E+00   -4.369E+00   -4.340E+00   -4.310E+00   -4.281E+00   -4.251E+00
    -4.221E+00   -4.191E+00   -4.161E+00   -4.130E+00   -4.100E+00   -4.069E+00   -4.038E+00   -4.008E+00   -3.977E+00   -3.946E+00
    -3.914E+00   -3.883E+00   -3.852E+00   -3.820E+00   -3.788E+00   -3.757E+00   -3.725E+00   -3.693E+00   -3.661E+00   -3.628E+00
    -3.596E+00   -3.564E+00   -3.531E+00   -3.499E+00   -3.466E+00   -3.433E+00   -3.401E+00   -3.368E+00   -3.335E+00   -3.302E+00
    -3.269E+00   -3.235E+00   -3.202E+00   -3.169E+00   -3.135E+00   -3.102E+00   -3.068E+00   -3.035E+00   -3.001E+00   -2.968E+00
    -2.934E+00   -2.900E+00   -2.866E+00   -2.832E+00   -2.798E+00   -2.764E+00   -2.730E+00   -2.696E+00   -2.662E+00   -2.628E+00
    -2.593E+00   -2.559E+00   -2.525E+00   -2.490E+00   -2.456E+00   -2.422E+00   -2.387E+00   -2.353E+00   -2.318E+00   -2.284E+00
    -2.249E+00   -2.215E+00   -2.180E+00   -2.146E+00   -2.111E+00   -2.077E+00   -2.042E+00   -2.008E+00   -1.973E+00   -1.938E+00
    -1.904E+00   -1.869E+00   -1.835E+00   -1.800E+00   -1.765E+00   -1.731E+00   -1.696E+00   -1.661E+00   -1.627E+00   -1.592E+00
    -1.557E+00   -1.522E+00   -1.488E+00   -1.453E+00   -1.418E+00   -1.384E+00   -1.349E+00   -1.314E+00   -1.279E+00   -1.245E+00
    -1.210E+00   -1.175E+00   -1.140E+00   -1.106E+00   -1.071E+00   -1.036E+00   -1.001E+00   -9.665E-01   -9.317E-01   -8.970E-01
    -8.622E-01   -8.274E-01   -7.926E-01   -7.579E-01   -7.231E-01   -6.883E-01   -6.535E-01   -6.188E-01
 Asp      Conc. = 6.04E+00
