 LCModel (Version 6.3-1L) Copyright: S.W. Provencher.          Ref.: Magn. Reson. Med. 30:672-679 (1993).                
 Slice#2 Row#12 Col#2  PD_24_press_2_raw_act
 36 lines in following concentration table = NCONC+1
    Conc.  %SD /Cr+PCr  Metabolite                                         
 4.61E+03   9%   0.000 Ala                                                 
    0.865 283%   0.000 Asp                                                 
    0.000 999%   0.000 Cr                                                  
    0.000 999%   0.000 PCr                                                 
    0.519 283%   0.000 GABA                                                
    0.519 283%   0.000 Glc                                                 
 1.39E+03  34%   0.000 Gln                                                 
    0.000 999%   0.000 Glu                                                 
    0.000 999%   0.000 GPC                                                 
    5.769 278%   0.000 PCh                                                 
   77.137  98%   0.000 GSH                                                 
    0.000 999%   0.000 Ins                                                 
 2.50E+03  15%   0.000 Lac                                                 
    0.000 999%   0.000 NAA                                                 
    0.000 999%   0.000 NAAG                                                
    0.174 282%   0.000 Scyllo                                              
    0.866 282%   0.000 Tau                                                 
 4.83E-02 999%   0.000 -CrCH2                                              
    5.769 278%   0.000 GPC+PCh                                             
    0.000 999%   0.000 NAA+NAAG                                            
    0.000 999%   0.000 Cr+PCr                                              
 1.39E+03  34%   0.000 Glu+Gln                                             
    0.000 999%   0.000 Lip13a                                              
    0.000 999%   0.000 Lip13b                                              
    0.000 999%   0.000 Lip09                                               
 1.81E+03   6%   0.000 MM09                                                
    0.000 999%   0.000 Lip20                                               
 2.71E+03   6%   0.000 MM20                                                
  543.057   6%   0.000 MM12                                                
 1.36E+03   6%   0.000 MM14                                                
  683.221   6%   0.000 MM17                                                
    0.000 999%   0.000 Lip13a+Lip13b                                       
 1.90E+03   6%   0.000 MM14+Lip13a+Lip13b+MM12                             
 1.81E+03   6%   0.000 MM09+Lip09                                          
 2.71E+03   6%   0.000 MM20+Lip20                                          
   6 lines in following misc. output table
  FWHM = 0.168 ppm    S/N =   6                                            
  Data shift = 0.138 ppm                                                   
  Ph: 158 deg      71.3 deg/ppm                                            
  alphaB,S = 4.9E-01,   2.0E+02                                            
   13 spline knots.   Ns = 9(2)                                            
  (10) 2 infls.   ( 3) 1 extrs.                                            
  498 points on ppm-axis = NY
      4.000000     3.992357     3.984714     3.977070     3.969427     3.961784     3.954141     3.946497     3.938854     3.931211
      3.923568     3.915925     3.908281     3.900638     3.892995     3.885352     3.877708     3.870065     3.862422     3.854779
      3.847136     3.839492     3.831849     3.824206     3.816563     3.808919     3.801276     3.793633     3.785990     3.778347
      3.770703     3.763060     3.755417     3.747774     3.740130     3.732487     3.724844     3.717201     3.709558     3.701914
      3.694271     3.686628     3.678985     3.671341     3.663698     3.656055     3.648412     3.640769     3.633125     3.625482
      3.617839     3.610196     3.602552     3.594909     3.587266     3.579623     3.571980     3.564336     3.556693     3.549050
      3.541407     3.533763     3.526120     3.518477     3.510834     3.503191     3.495547     3.487904     3.480261     3.472618
      3.464974     3.457331     3.449688     3.442045     3.434402     3.426758     3.419115     3.411472     3.403829     3.396185
      3.388542     3.380899     3.373256     3.365613     3.357969     3.350326     3.342683     3.335040     3.327396     3.319753
      3.312110     3.304467     3.296824     3.289180     3.281537     3.273894     3.266251     3.258607     3.250964     3.243321
      3.235678     3.228034     3.220391     3.212748     3.205105     3.197462     3.189818     3.182175     3.174532     3.166889
      3.159245     3.151602     3.143959     3.136316     3.128673     3.121029     3.113386     3.105743     3.098100     3.090456
      3.082813     3.075170     3.067527     3.059884     3.052240     3.044597     3.036954     3.029311     3.021667     3.014024
      3.006381     2.998738     2.991095     2.983451     2.975808     2.968165     2.960522     2.952878     2.945235     2.937592
      2.929949     2.922306     2.914662     2.907019     2.899376     2.891733     2.884089     2.876446     2.868803     2.861160
      2.853517     2.845873     2.838230     2.830587     2.822944     2.815300     2.807657     2.800014     2.792371     2.784728
      2.777084     2.769441     2.761798     2.754155     2.746511     2.738868     2.731225     2.723582     2.715939     2.708295
      2.700652     2.693009     2.685366     2.677722     2.670079     2.662436     2.654793     2.647150     2.639506     2.631863
      2.624220     2.616577     2.608933     2.601290     2.593647     2.586004     2.578361     2.570717     2.563074     2.555431
      2.547788     2.540144     2.532501     2.524858     2.517215     2.509572     2.501928     2.494285     2.486642     2.478999
      2.471355     2.463712     2.456069     2.448426     2.440783     2.433139     2.425496     2.417853     2.410210     2.402566
      2.394923     2.387280     2.379637     2.371994     2.364350     2.356707     2.349064     2.341421     2.333777     2.326134
      2.318491     2.310848     2.303205     2.295561     2.287918     2.280275     2.272632     2.264988     2.257345     2.249702
      2.242059     2.234416     2.226772     2.219129     2.211486     2.203843     2.196199     2.188556     2.180913     2.173270
      2.165627     2.157983     2.150340     2.142697     2.135054     2.127410     2.119767     2.112124     2.104481     2.096838
      2.089194     2.081551     2.073908     2.066265     2.058621     2.050978     2.043335     2.035692     2.028049     2.020405
      2.012762     2.005119     1.997476     1.989833     1.982190     1.974546     1.966903     1.959260     1.951617     1.943974
      1.936331     1.928688     1.921045     1.913402     1.905759     1.898115     1.890472     1.882829     1.875186     1.867543
      1.859900     1.852257     1.844614     1.836971     1.829327     1.821684     1.814041     1.806398     1.798755     1.791112
      1.783469     1.775826     1.768183     1.760540     1.752896     1.745253     1.737610     1.729967     1.722324     1.714681
      1.707038     1.699395     1.691752     1.684108     1.676465     1.668822     1.661179     1.653536     1.645893     1.638250
      1.630607     1.622964     1.615321     1.607677     1.600034     1.592391     1.584748     1.577105     1.569462     1.561819
      1.554176     1.546533     1.538890     1.531246     1.523603     1.515960     1.508317     1.500674     1.493031     1.485388
      1.477745     1.470102     1.462458     1.454815     1.447172     1.439529     1.431886     1.424243     1.416600     1.408957
      1.401314     1.393671     1.386027     1.378384     1.370741     1.363098     1.355455     1.347812     1.340169     1.332526
      1.324883     1.317240     1.309596     1.301953     1.294310     1.286667     1.279024     1.271381     1.263738     1.256095
      1.248452     1.240808     1.233165     1.225522     1.217879     1.210236     1.202593     1.194950     1.187307     1.179664
      1.172021     1.164377     1.156734     1.149091     1.141448     1.133805     1.126162     1.118519     1.110876     1.103233
      1.095590     1.087946     1.080303     1.072660     1.065017     1.057374     1.049731     1.042088     1.034445     1.026802
      1.019158     1.011515     1.003872     0.996229     0.988586     0.980943     0.973300     0.965657     0.958014     0.950371
      0.942727     0.935084     0.927441     0.919798     0.912155     0.904512     0.896869     0.889226     0.881583     0.873940
      0.866296     0.858653     0.851010     0.843367     0.835724     0.828081     0.820438     0.812795     0.805152     0.797508
      0.789865     0.782222     0.774579     0.766936     0.759293     0.751650     0.744007     0.736364     0.728721     0.721077
      0.713434     0.705791     0.698148     0.690505     0.682862     0.675219     0.667576     0.659933     0.652290     0.644646
      0.637003     0.629360     0.621717     0.614074     0.606431     0.598788     0.591145     0.583502     0.575858     0.568215
      0.560572     0.552929     0.545286     0.537643     0.530000     0.522357     0.514714     0.507071     0.499427     0.491784
      0.484141     0.476498     0.468855     0.461212     0.453569     0.445925     0.438282     0.430639     0.422996     0.415353
      0.407710     0.400067     0.392424     0.384780     0.377137     0.369494     0.361851     0.354208     0.346565     0.338922
      0.331278     0.323635     0.315992     0.308349     0.300706     0.293063     0.285420     0.277777     0.270133     0.262490
      0.254847     0.247204     0.239561     0.231918     0.224275     0.216631     0.208988     0.201345
 NY phased data points follow
  -4.70636E-01 -1.78149E+00 -2.75659E+00 -2.07284E+00 -2.96958E-01 -3.67120E+00 -1.20734E+00 -6.95536E-01 -7.82487E-01 -2.46216E+00
  -5.05848E-02 -1.68752E+00  7.11042E-01 -2.56672E+00 -2.37011E+00 -3.33441E+00 -4.54265E-01 -2.68194E+00 -3.51079E+00 -2.52341E+00
  -1.61602E+00 -1.68617E+00 -3.06142E-01 -1.33552E+00 -1.81549E+00 -2.26009E+00 -1.13359E+00 -3.98488E+00 -1.32689E+00 -3.10889E+00
  -2.67886E+00 -3.04581E+00 -4.43932E+00 -2.39724E+00 -3.06323E+00 -2.05187E+00 -2.65601E+00 -4.19749E+00 -3.15421E+00 -4.76582E+00
  -4.10557E+00 -4.50763E+00 -5.42628E+00 -3.57975E+00 -4.25584E+00 -3.48638E+00 -3.17825E+00 -3.91261E+00 -4.73009E+00 -5.18156E+00
  -4.01208E+00 -2.40184E+00 -2.89124E+00 -4.41481E+00 -2.24447E+00 -2.88739E+00 -4.40462E+00 -3.71305E+00 -4.12969E+00 -5.15944E+00
  -2.76998E+00 -3.60217E+00 -3.48315E+00 -5.96846E+00 -4.60081E+00 -3.56926E+00 -4.00947E+00 -1.97070E+00 -3.85400E+00 -2.95649E+00
  -4.96840E+00 -4.44092E+00 -3.44300E+00 -5.42729E+00 -6.83069E+00 -4.86603E+00 -5.10999E+00 -5.42120E+00 -2.94579E+00 -5.11393E+00
  -3.59070E+00 -3.52630E+00 -4.06163E+00 -3.45554E+00 -2.57015E+00 -3.36153E+00 -3.57510E+00 -2.65559E+00 -3.56770E+00 -5.31798E+00
  -4.96178E+00 -4.84155E+00 -3.74720E+00 -8.17793E+00 -4.55607E+00 -9.12910E+00 -5.55251E+00 -5.57388E+00 -5.70537E+00 -6.63709E+00
  -3.89490E+00 -6.64113E+00 -6.39454E+00 -4.32111E+00 -4.20899E+00 -2.38413E+00 -3.49034E+00 -3.32195E+00 -2.50749E+00 -3.24161E+00
  -3.94230E+00 -4.71452E+00 -4.30364E+00 -7.42972E+00 -8.58129E+00 -6.06723E+00 -5.01114E+00 -6.23995E+00 -5.36305E+00 -7.29765E+00
  -5.44938E+00 -5.13774E+00 -6.75631E+00 -5.10716E+00 -6.49389E+00 -4.99393E+00 -5.24499E+00 -5.76202E+00 -6.51292E+00 -4.76199E+00
  -5.30607E+00 -6.37610E+00 -6.04559E+00 -6.34204E+00 -5.53698E+00 -6.78933E+00 -5.55033E+00 -6.88635E+00 -7.38381E+00 -5.24362E+00
  -8.17365E+00 -6.36510E+00 -7.04252E+00 -7.00079E+00 -6.07291E+00 -5.31764E+00 -4.98583E+00 -6.40504E+00 -9.57879E+00 -6.48469E+00
  -6.32820E+00 -7.23598E+00 -8.00745E+00 -6.61006E+00 -7.29055E+00 -8.63708E+00 -4.93475E+00 -7.34061E+00 -7.82514E+00 -8.04107E+00
  -6.66724E+00 -7.60665E+00 -7.70508E+00 -6.42487E+00 -7.18838E+00 -9.78713E+00 -6.25123E+00 -6.72519E+00 -7.40874E+00 -5.97802E+00
  -6.51429E+00 -7.73787E+00 -7.02855E+00 -6.97687E+00 -6.64203E+00 -5.71090E+00 -4.55079E+00 -6.76994E+00 -5.96804E+00 -6.35263E+00
  -6.57349E+00 -6.46960E+00 -6.41808E+00 -6.29899E+00 -5.81797E+00 -6.26958E+00 -6.41099E+00 -5.06899E+00 -6.54575E+00 -5.36368E+00
  -5.61309E+00 -5.76508E+00 -6.11210E+00 -6.98460E+00 -4.87395E+00 -4.96857E+00 -1.92717E+00 -6.68710E+00 -3.25286E+00 -4.75526E+00
  -4.88466E+00 -3.61280E+00 -2.62753E+00 -4.96476E+00 -1.42409E+00 -3.85160E+00 -3.84715E+00 -2.02848E+00 -1.55745E+00  5.08299E-02
   3.83503E-02 -1.68274E+00 -6.49356E-01 -1.38915E+00 -3.72133E-01 -3.39627E+00 -8.22117E-01 -3.12754E+00 -5.33080E-01 -6.63724E-01
  -1.68182E+00 -1.18674E+00 -1.38237E+00 -7.70515E-01 -5.98480E-01  5.35597E-01 -2.23245E+00 -7.15466E-01 -2.02464E+00 -2.22862E-01
  -2.05542E+00 -2.71280E+00  7.62854E-01 -6.57207E-01 -2.17883E+00  1.50420E+00  8.86240E-01  1.37868E-01  7.15998E-01 -7.55050E-01
  -1.80553E-01 -9.41739E-01 -1.24200E+00 -4.42147E+00 -5.78497E+00 -3.59361E+00 -5.26572E+00 -6.20604E+00 -4.89887E+00 -6.86843E+00
  -5.59776E+00 -4.91293E+00 -5.13011E+00 -3.62107E+00 -5.00919E+00 -4.20883E+00 -4.57910E+00 -6.20157E+00 -5.66675E+00 -6.72661E+00
  -3.96275E+00 -6.42823E+00 -4.37578E+00 -3.63842E+00 -5.63823E+00 -5.43500E+00 -4.01734E+00 -4.32828E+00 -6.64944E+00 -6.51845E+00
  -4.87061E+00 -5.58213E+00 -5.92650E+00 -5.82934E+00 -4.86058E+00 -5.37417E+00 -5.75088E+00 -4.90856E+00 -5.87200E+00 -5.38699E+00
  -7.04669E+00 -4.42952E+00 -5.28218E+00 -6.46662E+00 -4.98476E+00 -5.52703E+00 -5.01816E+00 -6.97360E+00 -4.88866E+00 -4.23344E+00
  -3.83862E+00 -1.47952E+00 -2.32565E+00 -1.73933E+00 -5.70080E-03 -1.41140E+00  1.07320E+00  4.06817E+00  5.85926E+00  7.78554E+00
   9.86034E+00  1.02884E+01  1.24804E+01  1.26473E+01  1.27207E+01  1.35991E+01  1.42888E+01  1.33973E+01  1.59266E+01  1.34313E+01
   1.29461E+01  1.27951E+01  1.08046E+01  1.21186E+01  1.05843E+01  1.15926E+01  1.02515E+01  1.03177E+01  8.81229E+00  8.86524E+00
   8.34840E+00  7.77687E+00  8.01115E+00  8.22792E+00  1.00071E+01  8.14646E+00  6.25560E+00  7.73162E+00  7.59196E+00  7.17244E+00
   6.25520E+00  5.54047E+00  6.86254E+00  6.58712E+00  4.14468E+00  4.56902E+00  5.41515E+00  3.76944E+00  4.92895E+00  3.71974E+00
   2.13860E+00  3.86510E+00  4.44034E+00  1.80970E+00  2.20849E+00  1.86494E+00  4.25625E-01  5.84897E-01  2.13876E+00  3.36953E-01
   4.33040E-03  7.09261E-01 -1.94040E-01 -1.97660E-02 -1.51790E+00 -1.73114E+00 -2.17576E-01 -1.18335E+00  4.80448E-01  2.21121E+00
   8.23903E-01 -3.15684E+00  1.76437E-01 -4.64164E-01 -1.49957E+00 -5.19385E-01 -7.48189E-01 -2.07680E-01  3.33593E-01 -7.87109E-01
   9.98869E-01  1.49277E+00  2.31971E-01  1.12488E+00 -1.88675E+00 -1.51291E-01 -9.66311E-01  1.01793E-01  3.54838E-01 -5.30977E-01
   9.30984E-01 -4.83893E-01  6.73521E-01 -1.23121E-01  9.35814E-01  2.61384E-01 -2.39051E+00  4.19262E-01 -2.06779E-01 -5.93663E-01
  -5.68339E-01 -1.53680E+00 -6.48749E-01 -7.12702E-01  4.93802E-01 -1.54576E+00 -6.37149E-01 -4.67551E-01 -1.62740E+00 -8.63471E-01
  -1.63306E+00 -1.12423E+00  1.47063E-01 -2.39783E+00  3.80649E-01 -1.14335E+00 -9.27888E-01 -8.97683E-01 -1.13876E+00 -4.64797E-01
  -3.19382E-01 -1.79201E+00 -1.22383E+00 -6.46756E-02 -1.86271E-01 -6.36227E-01 -8.51174E-01 -2.29474E+00  3.03207E-01 -2.68881E-01
  -1.11950E+00 -5.18738E-01 -1.86742E+00  3.81242E-01 -7.47272E-01  1.97157E+00  9.33649E-01 -1.16017E+00 -1.97914E+00 -5.98553E-01
  -8.75734E-02 -1.98596E+00  1.36905E-01 -1.63738E+00 -2.23932E-01 -9.84076E-01 -1.77759E+00 -1.29456E+00 -1.34905E+00 -9.24470E-01
   1.84225E-01 -2.85695E-01 -5.22413E-01 -1.58278E+00 -9.78534E-01 -6.60585E-01 -3.05956E-01 -1.71808E+00 -9.42947E-01 -1.76405E+00
  -1.54938E+00 -1.24060E+00 -4.66750E-01 -1.98992E+00  6.84191E-01 -1.32332E+00 -2.27686E+00 -3.53270E-01 -9.01930E-01  3.32875E-01
  -9.78526E-02 -2.45054E+00 -1.00736E+00  9.54938E-02 -2.95225E-01 -8.08920E-01  7.40867E-02 -1.24559E-02  3.82994E-02 -1.03022E+00
  -2.78629E-01 -4.06446E-02 -2.05639E+00 -1.45377E+00 -1.48421E+00 -2.31021E+00 -2.64553E-01  3.69746E-01 -1.18126E+00 -1.02393E+00
  -5.95731E-01  5.59532E-01 -1.34966E+00 -3.34237E-01 -2.11523E+00  1.85489E-01 -1.74940E+00 -5.84127E-01 -7.01909E-01  8.24290E-01
  -1.28454E+00 -1.21243E+00 -1.75045E+00 -2.12035E-01 -1.47899E+00 -1.67956E+00 -1.83875E+00  2.06974E+00
 NY points of the fit to the data follow
  -1.08411E+00 -4.28266E-01 -8.38106E-01 -1.93144E-01 -5.13644E-01  3.49378E-02 -2.87396E-01 -2.93815E-02 -9.16537E-01 -7.47776E-01
  -1.59629E+00 -1.26620E+00 -2.01600E+00 -1.53773E+00 -2.07001E+00 -1.18811E+00 -1.90623E+00 -1.04383E+00 -1.91019E+00 -1.06605E+00
  -1.99479E+00 -1.11534E+00 -2.36447E+00 -1.49687E+00 -2.77853E+00 -1.89139E+00 -3.11468E+00 -2.20939E+00 -3.25740E+00 -2.29200E+00
  -3.19594E+00 -2.28331E+00 -3.13399E+00 -2.37266E+00 -3.15020E+00 -2.58000E+00 -3.36151E+00 -2.99523E+00 -3.71833E+00 -3.43832E+00
  -3.94707E+00 -3.69296E+00 -3.97421E+00 -3.72278E+00 -3.79732E+00 -3.59186E+00 -3.67064E+00 -3.66097E+00 -3.84671E+00 -3.92422E+00
  -4.09677E+00 -4.19141E+00 -4.27820E+00 -4.32997E+00 -4.26377E+00 -4.22805E+00 -4.17502E+00 -4.18305E+00 -4.15601E+00 -4.19784E+00
  -4.20670E+00 -4.25544E+00 -4.30663E+00 -4.34917E+00 -4.38742E+00 -4.42010E+00 -4.45154E+00 -4.47853E+00 -4.50568E+00 -4.52929E+00
  -4.55366E+00 -4.57466E+00 -4.59656E+00 -4.61527E+00 -4.63468E+00 -4.65129E+00 -4.66802E+00 -4.68217E+00 -4.69577E+00 -4.70702E+00
  -4.71689E+00 -4.72456E+00 -4.72949E+00 -4.73114E+00 -4.72583E+00 -4.71402E+00 -4.71803E+00 -4.70988E+00 -4.71759E+00 -4.70841E+00
  -4.71747E+00 -4.70568E+00 -4.71807E+00 -4.70627E+00 -4.72084E+00 -4.70913E+00 -4.72450E+00 -4.71242E+00 -4.72715E+00 -4.71404E+00
  -4.73106E+00 -4.72180E+00 -4.74152E+00 -4.73583E+00 -4.75642E+00 -4.75452E+00 -4.77350E+00 -4.77533E+00 -4.79471E+00 -4.80002E+00
  -4.82087E+00 -4.83073E+00 -4.85230E+00 -4.86496E+00 -4.88895E+00 -4.90615E+00 -4.95214E+00 -4.99704E+00 -5.05620E+00 -5.11507E+00
  -5.18034E+00 -5.24062E+00 -5.31154E+00 -5.37446E+00 -5.45554E+00 -5.52894E+00 -5.62169E+00 -5.70397E+00 -5.80287E+00 -5.88994E+00
  -5.99387E+00 -6.08806E+00 -6.19495E+00 -6.29140E+00 -6.39428E+00 -6.48558E+00 -6.57973E+00 -6.66078E+00 -6.74291E+00 -6.81499E+00
  -6.88656E+00 -6.95158E+00 -7.01122E+00 -7.06660E+00 -7.11407E+00 -7.16033E+00 -7.19756E+00 -7.23673E+00 -7.26241E+00 -7.28953E+00
  -7.30334E+00 -7.31745E+00 -7.32012E+00 -7.32363E+00 -7.31746E+00 -7.31365E+00 -7.30544E+00 -7.30126E+00 -7.28987E+00 -7.28150E+00
  -7.26568E+00 -7.24957E+00 -7.22890E+00 -7.20680E+00 -7.18355E+00 -7.15918E+00 -7.13431E+00 -7.11100E+00 -7.08143E+00 -7.05560E+00
  -7.02001E+00 -6.99309E+00 -6.95109E+00 -6.92635E+00 -6.88916E+00 -6.88705E+00 -6.88897E+00 -6.90415E+00 -6.92852E+00 -6.97491E+00
  -6.93579E+00 -6.95860E+00 -6.84363E+00 -6.78797E+00 -6.54838E+00 -6.50156E+00 -6.25306E+00 -6.20367E+00 -5.97018E+00 -6.02644E+00
  -5.86371E+00 -6.07791E+00 -6.08509E+00 -6.21354E+00 -5.94820E+00 -6.07332E+00 -5.69396E+00 -5.82455E+00 -5.35643E+00 -5.48121E+00
  -4.91594E+00 -5.05519E+00 -4.44708E+00 -4.63843E+00 -4.03688E+00 -4.27907E+00 -3.70551E+00 -3.94486E+00 -3.31147E+00 -3.51904E+00
  -2.83419E+00 -2.99361E+00 -2.29573E+00 -2.45090E+00 -1.82700E+00 -1.99616E+00 -1.50895E+00 -1.73308E+00 -1.45967E+00 -1.64859E+00
  -1.37247E+00 -1.47592E+00 -1.15068E+00 -1.13201E+00 -8.07156E-01 -9.60598E-01 -6.56299E-01 -8.92897E-01 -5.97071E-01 -9.25582E-01
  -6.36527E-01 -1.06639E+00 -7.65294E-01 -1.13390E+00 -6.78729E-01 -1.04035E+00 -5.07758E-01 -8.89148E-01 -3.55890E-01 -8.29356E-01
  -3.28958E-01 -9.09325E-01 -4.78842E-01 -1.09720E+00 -7.28535E-01 -1.34987E+00 -1.06355E+00 -1.64158E+00 -1.43316E+00 -1.95564E+00
  -1.79496E+00 -2.26421E+00 -2.19473E+00 -2.64817E+00 -2.65681E+00 -3.11839E+00 -3.19418E+00 -3.60337E+00 -3.73119E+00 -4.05383E+00
  -4.14449E+00 -4.35196E+00 -4.41668E+00 -4.53971E+00 -4.60358E+00 -4.73460E+00 -4.80337E+00 -4.91627E+00 -4.97958E+00 -5.06782E+00
  -5.09759E+00 -5.13813E+00 -5.12566E+00 -5.09870E+00 -5.04380E+00 -4.97102E+00 -4.88510E+00 -4.77526E+00 -4.66179E+00 -4.52429E+00
  -4.37521E+00 -4.20586E+00 -4.01472E+00 -3.79971E+00 -3.56015E+00 -3.29345E+00 -2.99812E+00 -2.67057E+00 -2.30958E+00 -1.91144E+00
  -1.47488E+00 -9.96726E-01 -4.76266E-01  8.82909E-02  6.96082E-01  1.34684E+00  2.03787E+00  2.76668E+00  3.52905E+00  4.32115E+00
   5.13851E+00  5.97845E+00  6.84012E+00  7.72654E+00  8.64695E+00  9.62084E+00  1.06857E+01  1.19133E+01  1.34225E+01  1.48568E+01
   1.44721E+01  1.47193E+01  1.34982E+01  1.32588E+01  1.14706E+01  1.08484E+01  8.65179E+00  9.51260E+00  8.18651E+00  8.95256E+00
   7.78993E+00  8.40277E+00  7.51841E+00  8.23409E+00  7.45049E+00  7.77469E+00  7.12602E+00  7.11010E+00  6.99452E+00  7.08469E+00
   6.51793E+00  5.95881E+00  5.89500E+00  5.04751E+00  5.30990E+00  4.00497E+00  4.60805E+00  4.13518E+00  4.82900E+00  3.96610E+00
   4.19583E+00  3.07652E+00  3.30252E+00  2.40002E+00  2.36347E+00  1.62210E+00  1.72949E+00  1.35485E+00  1.61830E+00  1.17749E+00
   9.89857E-01  5.91370E-01  3.77841E-01  2.91070E-02 -2.99787E-01 -5.32744E-01 -6.98385E-01 -4.13682E-01 -3.15755E-01 -1.47283E-01
  -1.88173E-01 -2.92902E-01 -3.10242E-01 -5.68211E-01 -5.95619E-01 -7.89997E-01 -6.48676E-01 -5.41291E-01 -3.13676E-01 -2.23493E-01
  -2.81139E-01 -4.66082E-01 -6.20771E-01 -1.00483E+00 -1.19210E+00 -1.54793E+00 -1.63416E+00 -1.60217E+00 -1.51936E+00 -1.40600E+00
  -1.27131E+00 -1.12073E+00 -9.58207E-01 -7.87003E-01 -6.10229E-01 -4.30951E-01 -2.52285E-01 -7.72889E-02  9.10304E-02  2.49777E-01
   3.96149E-01  5.27519E-01  6.41521E-01  7.36142E-01  8.09770E-01  8.61186E-01  8.89588E-01  8.94601E-01  8.76328E-01  8.35346E-01
   7.72674E-01  6.89696E-01  5.88115E-01  4.69915E-01  3.37331E-01  1.92778E-01  3.87643E-02 -1.22203E-01 -2.87666E-01 -4.55249E-01
  -6.22691E-01 -7.87903E-01 -9.49021E-01 -1.10443E+00 -1.25277E+00 -1.39290E+00 -1.52392E+00 -1.64516E+00 -1.75616E+00 -1.85671E+00
  -1.94673E+00 -2.02630E+00 -2.09561E+00 -2.15495E+00 -2.20471E+00 -2.24538E+00 -2.27743E+00 -2.30138E+00 -2.31774E+00 -2.32705E+00
  -2.32985E+00 -2.32666E+00 -2.31798E+00 -2.30426E+00 -2.28593E+00 -2.26343E+00 -2.23716E+00 -2.20749E+00 -2.17474E+00 -2.13921E+00
  -2.10120E+00 -2.06096E+00 -2.01875E+00 -1.97480E+00 -1.92928E+00 -1.88238E+00 -1.83426E+00 -1.78510E+00 -1.73503E+00 -1.68417E+00
  -1.63260E+00 -1.58042E+00 -1.52771E+00 -1.47457E+00 -1.42105E+00 -1.36720E+00 -1.31307E+00 -1.25872E+00 -1.20418E+00 -1.14951E+00
  -1.09473E+00 -1.03987E+00 -9.84930E-01 -9.29958E-01 -8.74974E-01 -8.19999E-01 -7.65033E-01 -7.10085E-01 -6.55162E-01 -6.00283E-01
  -5.45456E-01 -4.90684E-01 -4.35955E-01 -3.81271E-01 -3.26632E-01 -2.72048E-01 -2.17510E-01 -1.63012E-01 -1.08535E-01 -5.40744E-02
   3.74228E-04  5.48142E-02  1.09264E-01  1.63743E-01  2.18274E-01  2.72869E-01  3.27546E-01  3.82324E-01  4.37238E-01  4.92325E-01
   5.47622E-01  6.03168E-01  6.59011E-01  7.15215E-01  7.71864E-01  8.29061E-01  8.86933E-01  9.45653E-01
 NY background values follow
    -3.778E+00   -3.849E+00   -3.919E+00   -3.990E+00   -4.059E+00   -4.129E+00   -4.198E+00   -4.267E+00   -4.335E+00   -4.403E+00
    -4.471E+00   -4.539E+00   -4.606E+00   -4.672E+00   -4.739E+00   -4.805E+00   -4.871E+00   -4.936E+00   -5.002E+00   -5.066E+00
    -5.131E+00   -5.195E+00   -5.259E+00   -5.322E+00   -5.385E+00   -5.448E+00   -5.511E+00   -5.573E+00   -5.635E+00   -5.696E+00
    -5.757E+00   -5.818E+00   -5.879E+00   -5.939E+00   -5.999E+00   -6.058E+00   -6.117E+00   -6.176E+00   -6.235E+00   -6.293E+00
    -6.351E+00   -6.408E+00   -6.466E+00   -6.522E+00   -6.579E+00   -6.635E+00   -6.691E+00   -6.747E+00   -6.802E+00   -6.857E+00
    -6.911E+00   -6.966E+00   -7.020E+00   -7.073E+00   -7.126E+00   -7.179E+00   -7.232E+00   -7.284E+00   -7.336E+00   -7.388E+00
    -7.439E+00   -7.490E+00   -7.541E+00   -7.591E+00   -7.641E+00   -7.691E+00   -7.740E+00   -7.789E+00   -7.838E+00   -7.886E+00
    -7.934E+00   -7.982E+00   -8.030E+00   -8.077E+00   -8.123E+00   -8.170E+00   -8.216E+00   -8.262E+00   -8.307E+00   -8.352E+00
    -8.397E+00   -8.442E+00   -8.486E+00   -8.530E+00   -8.573E+00   -8.616E+00   -8.659E+00   -8.702E+00   -8.744E+00   -8.786E+00
    -8.827E+00   -8.869E+00   -8.910E+00   -8.950E+00   -8.990E+00   -9.030E+00   -9.070E+00   -9.109E+00   -9.148E+00   -9.187E+00
    -9.225E+00   -9.263E+00   -9.301E+00   -9.339E+00   -9.376E+00   -9.412E+00   -9.449E+00   -9.485E+00   -9.521E+00   -9.556E+00
    -9.591E+00   -9.626E+00   -9.661E+00   -9.695E+00   -9.729E+00   -9.762E+00   -9.795E+00   -9.828E+00   -9.861E+00   -9.893E+00
    -9.925E+00   -9.957E+00   -9.988E+00   -1.002E+01   -1.005E+01   -1.008E+01   -1.011E+01   -1.014E+01   -1.017E+01   -1.020E+01
    -1.023E+01   -1.026E+01   -1.028E+01   -1.031E+01   -1.034E+01   -1.037E+01   -1.039E+01   -1.042E+01   -1.045E+01   -1.047E+01
    -1.050E+01   -1.052E+01   -1.055E+01   -1.057E+01   -1.060E+01   -1.062E+01   -1.065E+01   -1.067E+01   -1.069E+01   -1.072E+01
    -1.074E+01   -1.076E+01   -1.078E+01   -1.080E+01   -1.083E+01   -1.085E+01   -1.087E+01   -1.089E+01   -1.091E+01   -1.093E+01
    -1.095E+01   -1.097E+01   -1.099E+01   -1.101E+01   -1.102E+01   -1.104E+01   -1.106E+01   -1.108E+01   -1.109E+01   -1.111E+01
    -1.113E+01   -1.114E+01   -1.116E+01   -1.118E+01   -1.119E+01   -1.121E+01   -1.122E+01   -1.124E+01   -1.125E+01   -1.126E+01
    -1.128E+01   -1.129E+01   -1.130E+01   -1.132E+01   -1.133E+01   -1.134E+01   -1.135E+01   -1.136E+01   -1.138E+01   -1.139E+01
    -1.140E+01   -1.141E+01   -1.142E+01   -1.143E+01   -1.144E+01   -1.144E+01   -1.145E+01   -1.146E+01   -1.147E+01   -1.148E+01
    -1.149E+01   -1.149E+01   -1.150E+01   -1.151E+01   -1.151E+01   -1.152E+01   -1.152E+01   -1.153E+01   -1.153E+01   -1.154E+01
    -1.154E+01   -1.155E+01   -1.155E+01   -1.155E+01   -1.156E+01   -1.156E+01   -1.156E+01   -1.156E+01   -1.156E+01   -1.156E+01
    -1.156E+01   -1.156E+01   -1.156E+01   -1.156E+01   -1.156E+01   -1.156E+01   -1.155E+01   -1.155E+01   -1.155E+01   -1.154E+01
    -1.154E+01   -1.153E+01   -1.153E+01   -1.152E+01   -1.151E+01   -1.150E+01   -1.150E+01   -1.149E+01   -1.148E+01   -1.147E+01
    -1.146E+01   -1.145E+01   -1.143E+01   -1.142E+01   -1.141E+01   -1.140E+01   -1.138E+01   -1.137E+01   -1.135E+01   -1.133E+01
    -1.132E+01   -1.130E+01   -1.128E+01   -1.126E+01   -1.124E+01   -1.122E+01   -1.120E+01   -1.118E+01   -1.115E+01   -1.113E+01
    -1.111E+01   -1.108E+01   -1.106E+01   -1.103E+01   -1.100E+01   -1.098E+01   -1.095E+01   -1.092E+01   -1.089E+01   -1.086E+01
    -1.083E+01   -1.080E+01   -1.077E+01   -1.074E+01   -1.070E+01   -1.067E+01   -1.064E+01   -1.060E+01   -1.057E+01   -1.053E+01
    -1.049E+01   -1.046E+01   -1.042E+01   -1.038E+01   -1.034E+01   -1.030E+01   -1.026E+01   -1.022E+01   -1.018E+01   -1.014E+01
    -1.010E+01   -1.005E+01   -1.001E+01   -9.968E+00   -9.924E+00   -9.880E+00   -9.834E+00   -9.789E+00   -9.743E+00   -9.696E+00
    -9.649E+00   -9.602E+00   -9.554E+00   -9.505E+00   -9.457E+00   -9.407E+00   -9.358E+00   -9.307E+00   -9.257E+00   -9.206E+00
    -9.154E+00   -9.103E+00   -9.050E+00   -8.998E+00   -8.945E+00   -8.891E+00   -8.838E+00   -8.784E+00   -8.729E+00   -8.674E+00
    -8.619E+00   -8.564E+00   -8.508E+00   -8.451E+00   -8.395E+00   -8.338E+00   -8.281E+00   -8.224E+00   -8.166E+00   -8.108E+00
    -8.050E+00   -7.991E+00   -7.932E+00   -7.873E+00   -7.814E+00   -7.754E+00   -7.694E+00   -7.634E+00   -7.574E+00   -7.514E+00
    -7.453E+00   -7.392E+00   -7.331E+00   -7.270E+00   -7.208E+00   -7.147E+00   -7.085E+00   -7.023E+00   -6.961E+00   -6.899E+00
    -6.837E+00   -6.774E+00   -6.712E+00   -6.649E+00   -6.586E+00   -6.523E+00   -6.460E+00   -6.397E+00   -6.334E+00   -6.271E+00
    -6.207E+00   -6.144E+00   -6.081E+00   -6.017E+00   -5.953E+00   -5.890E+00   -5.826E+00   -5.762E+00   -5.698E+00   -5.634E+00
    -5.571E+00   -5.507E+00   -5.443E+00   -5.379E+00   -5.315E+00   -5.251E+00   -5.187E+00   -5.123E+00   -5.059E+00   -4.995E+00
    -4.931E+00   -4.867E+00   -4.803E+00   -4.740E+00   -4.676E+00   -4.612E+00   -4.548E+00   -4.485E+00   -4.421E+00   -4.358E+00
    -4.294E+00   -4.231E+00   -4.168E+00   -4.105E+00   -4.042E+00   -3.979E+00   -3.916E+00   -3.853E+00   -3.791E+00   -3.728E+00
    -3.666E+00   -3.604E+00   -3.542E+00   -3.480E+00   -3.418E+00   -3.356E+00   -3.295E+00   -3.234E+00   -3.172E+00   -3.111E+00
    -3.051E+00   -2.990E+00   -2.930E+00   -2.870E+00   -2.810E+00   -2.750E+00   -2.690E+00   -2.631E+00   -2.572E+00   -2.513E+00
    -2.454E+00   -2.396E+00   -2.338E+00   -2.280E+00   -2.222E+00   -2.165E+00   -2.108E+00   -2.051E+00   -1.995E+00   -1.938E+00
    -1.882E+00   -1.827E+00   -1.771E+00   -1.716E+00   -1.661E+00   -1.607E+00   -1.553E+00   -1.499E+00   -1.446E+00   -1.392E+00
    -1.340E+00   -1.287E+00   -1.235E+00   -1.183E+00   -1.132E+00   -1.081E+00   -1.030E+00   -9.802E-01   -9.303E-01   -8.808E-01
    -8.317E-01   -7.830E-01   -7.346E-01   -6.866E-01   -6.388E-01   -5.915E-01   -5.444E-01   -4.976E-01   -4.511E-01   -4.049E-01
    -3.590E-01   -3.134E-01   -2.680E-01   -2.228E-01   -1.779E-01   -1.332E-01   -8.875E-02   -4.448E-02   -4.147E-04    4.347E-02
     8.718E-02    1.307E-01    1.741E-01    2.173E-01    2.605E-01    3.034E-01    3.463E-01    3.891E-01    4.317E-01    4.743E-01
     5.169E-01    5.593E-01    6.017E-01    6.441E-01    6.864E-01    7.288E-01    7.711E-01    8.134E-01    8.557E-01    8.981E-01
     9.405E-01    9.829E-01    1.025E+00    1.068E+00    1.111E+00    1.153E+00    1.196E+00    1.239E+00
 Ala      Conc. = 4.61E+03
