 LCModel (Version 6.3-1L) Copyright: S.W. Provencher.          Ref.: Magn. Reson. Med. 30:672-679 (1993).                
 Slice#3 Row#3 Col#9  PD_24_press_2_raw_act
 36 lines in following concentration table = NCONC+1
    Conc.  %SD /Cr+PCr  Metabolite                                         
    0.000 999%   0.000 Ala                                                 
  121.070 188%   0.109 Asp                                                 
 1.11E+03  12%   1.000 Cr                                                  
    0.000 999%   0.000 PCr                                                 
  119.397 118%   0.108 GABA                                                
   82.237 170% 7.4E-02 Glc                                                 
 1.39E+03  67%   1.255 Gln                                                 
 1.86E+03  55%   1.678 Glu                                                 
    0.000 999%   0.000 GPC                                                 
  469.529  11%   0.425 PCh                                                 
  259.790  75%   0.235 GSH                                                 
   88.007 676% 8.0E-02 Ins                                                 
  665.601  68%   0.602 Lac                                                 
  824.985  34%   0.746 NAA                                                 
  889.313  31%   0.804 NAAG                                                
   62.135  66% 5.6E-02 Scyllo                                              
  247.658  89%   0.224 Tau                                                 
  237.644  88%   0.215 -CrCH2                                              
  469.529  11%   0.425 GPC+PCh                                             
 1.71E+03   8%   1.550 NAA+NAAG                                            
 1.11E+03  12%   1.000 Cr+PCr                                              
 3.24E+03  53%   2.933 Glu+Gln                                             
    0.000 999%   0.000 Lip13a                                              
  820.057  49%   0.742 Lip13b                                              
  218.413  55%   0.198 Lip09                                               
  545.418  33%   0.493 MM09                                                
  133.449  55%   0.121 Lip20                                               
 1.04E+03  31%   0.938 MM20                                                
  162.649  48%   0.147 MM12                                                
    0.000 999%   0.000 MM14                                                
    0.000 999%   0.000 MM17                                                
  820.057  49%   0.742 Lip13a+Lip13b                                       
  982.707  40%   0.889 MM14+Lip13a+Lip13b+MM12                             
  763.832  24%   0.691 MM09+Lip09                                          
 1.17E+03  27%   1.059 MM20+Lip20                                          
   6 lines in following misc. output table
  FWHM = 0.099 ppm    S/N =   3                                            
  Data shift = 0.008 ppm                                                   
  Ph: -51 deg      -4.8 deg/ppm                                            
  alphaB,S = 1.2E+00,   5.2E+01                                            
   14 spline knots.   Ns =10(1)                                            
  (13) 6 infls.   (18) 1 extrs.                                            
  498 points on ppm-axis = NY
      4.000000     3.992357     3.984714     3.977070     3.969427     3.961784     3.954141     3.946497     3.938854     3.931211
      3.923568     3.915925     3.908281     3.900638     3.892995     3.885352     3.877708     3.870065     3.862422     3.854779
      3.847136     3.839492     3.831849     3.824206     3.816563     3.808919     3.801276     3.793633     3.785990     3.778347
      3.770703     3.763060     3.755417     3.747774     3.740130     3.732487     3.724844     3.717201     3.709558     3.701914
      3.694271     3.686628     3.678985     3.671341     3.663698     3.656055     3.648412     3.640769     3.633125     3.625482
      3.617839     3.610196     3.602552     3.594909     3.587266     3.579623     3.571980     3.564336     3.556693     3.549050
      3.541407     3.533763     3.526120     3.518477     3.510834     3.503191     3.495547     3.487904     3.480261     3.472618
      3.464974     3.457331     3.449688     3.442045     3.434402     3.426758     3.419115     3.411472     3.403829     3.396185
      3.388542     3.380899     3.373256     3.365613     3.357969     3.350326     3.342683     3.335040     3.327396     3.319753
      3.312110     3.304467     3.296824     3.289180     3.281537     3.273894     3.266251     3.258607     3.250964     3.243321
      3.235678     3.228034     3.220391     3.212748     3.205105     3.197462     3.189818     3.182175     3.174532     3.166889
      3.159245     3.151602     3.143959     3.136316     3.128673     3.121029     3.113386     3.105743     3.098100     3.090456
      3.082813     3.075170     3.067527     3.059884     3.052240     3.044597     3.036954     3.029311     3.021667     3.014024
      3.006381     2.998738     2.991095     2.983451     2.975808     2.968165     2.960522     2.952878     2.945235     2.937592
      2.929949     2.922306     2.914662     2.907019     2.899376     2.891733     2.884089     2.876446     2.868803     2.861160
      2.853517     2.845873     2.838230     2.830587     2.822944     2.815300     2.807657     2.800014     2.792371     2.784728
      2.777084     2.769441     2.761798     2.754155     2.746511     2.738868     2.731225     2.723582     2.715939     2.708295
      2.700652     2.693009     2.685366     2.677722     2.670079     2.662436     2.654793     2.647150     2.639506     2.631863
      2.624220     2.616577     2.608933     2.601290     2.593647     2.586004     2.578361     2.570717     2.563074     2.555431
      2.547788     2.540144     2.532501     2.524858     2.517215     2.509572     2.501928     2.494285     2.486642     2.478999
      2.471355     2.463712     2.456069     2.448426     2.440783     2.433139     2.425496     2.417853     2.410210     2.402566
      2.394923     2.387280     2.379637     2.371994     2.364350     2.356707     2.349064     2.341421     2.333777     2.326134
      2.318491     2.310848     2.303205     2.295561     2.287918     2.280275     2.272632     2.264988     2.257345     2.249702
      2.242059     2.234416     2.226772     2.219129     2.211486     2.203843     2.196199     2.188556     2.180913     2.173270
      2.165627     2.157983     2.150340     2.142697     2.135054     2.127410     2.119767     2.112124     2.104481     2.096838
      2.089194     2.081551     2.073908     2.066265     2.058621     2.050978     2.043335     2.035692     2.028049     2.020405
      2.012762     2.005119     1.997476     1.989833     1.982190     1.974546     1.966903     1.959260     1.951617     1.943974
      1.936331     1.928688     1.921045     1.913402     1.905759     1.898115     1.890472     1.882829     1.875186     1.867543
      1.859900     1.852257     1.844614     1.836971     1.829327     1.821684     1.814041     1.806398     1.798755     1.791112
      1.783469     1.775826     1.768183     1.760540     1.752896     1.745253     1.737610     1.729967     1.722324     1.714681
      1.707038     1.699395     1.691752     1.684108     1.676465     1.668822     1.661179     1.653536     1.645893     1.638250
      1.630607     1.622964     1.615321     1.607677     1.600034     1.592391     1.584748     1.577105     1.569462     1.561819
      1.554176     1.546533     1.538890     1.531246     1.523603     1.515960     1.508317     1.500674     1.493031     1.485388
      1.477745     1.470102     1.462458     1.454815     1.447172     1.439529     1.431886     1.424243     1.416600     1.408957
      1.401314     1.393671     1.386027     1.378384     1.370741     1.363098     1.355455     1.347812     1.340169     1.332526
      1.324883     1.317240     1.309596     1.301953     1.294310     1.286667     1.279024     1.271381     1.263738     1.256095
      1.248452     1.240808     1.233165     1.225522     1.217879     1.210236     1.202593     1.194950     1.187307     1.179664
      1.172021     1.164377     1.156734     1.149091     1.141448     1.133805     1.126162     1.118519     1.110876     1.103233
      1.095590     1.087946     1.080303     1.072660     1.065017     1.057374     1.049731     1.042088     1.034445     1.026802
      1.019158     1.011515     1.003872     0.996229     0.988586     0.980943     0.973300     0.965657     0.958014     0.950371
      0.942727     0.935084     0.927441     0.919798     0.912155     0.904512     0.896869     0.889226     0.881583     0.873940
      0.866296     0.858653     0.851010     0.843367     0.835724     0.828081     0.820438     0.812795     0.805152     0.797508
      0.789865     0.782222     0.774579     0.766936     0.759293     0.751650     0.744007     0.736364     0.728721     0.721077
      0.713434     0.705791     0.698148     0.690505     0.682862     0.675219     0.667576     0.659933     0.652290     0.644646
      0.637003     0.629360     0.621717     0.614074     0.606431     0.598788     0.591145     0.583502     0.575858     0.568215
      0.560572     0.552929     0.545286     0.537643     0.530000     0.522357     0.514714     0.507071     0.499427     0.491784
      0.484141     0.476498     0.468855     0.461212     0.453569     0.445925     0.438282     0.430639     0.422996     0.415353
      0.407710     0.400067     0.392424     0.384780     0.377137     0.369494     0.361851     0.354208     0.346565     0.338922
      0.331278     0.323635     0.315992     0.308349     0.300706     0.293063     0.285420     0.277777     0.270133     0.262490
      0.254847     0.247204     0.239561     0.231918     0.224275     0.216631     0.208988     0.201345
 NY phased data points follow
  -3.18259E+01 -2.83915E+01 -4.03619E+01 -3.88131E+01 -3.34840E+01 -7.37065E+00 -1.37418E+01 -1.32326E+01 -2.00859E+01 -1.23864E+01
  -1.23393E+01 -1.22149E+00 -2.55770E+01 -1.91284E+00 -2.37925E+01 -8.01510E+00 -2.39903E+01 -2.30965E+01 -1.60041E+01 -2.63469E+01
  -2.69124E+01 -2.35853E+01 -3.27380E+01 -3.18120E+01 -2.64607E+01 -2.28794E+01 -2.52322E+01 -1.94042E+01 -1.10719E+01 -1.67552E+01
  -2.10903E+01 -2.08044E+01 -2.48155E+01 -8.87644E+00 -3.03647E+01 -1.23550E+01 -2.08069E+01 -1.31144E+01 -2.32066E+01 -3.15870E+01
  -2.51958E+01 -2.61435E+01 -2.89450E+01 -2.10077E+01 -3.04063E+01 -2.55172E+01 -1.76468E+01 -9.20083E+00 -1.41374E+01 -6.50751E+00
  -7.04136E+00 -2.09177E+01 -2.45745E+01 -1.40397E+01 -2.86298E+01 -2.29872E+01 -3.31173E+01 -3.10715E+01 -2.82375E+01 -1.99027E+01
  -1.61811E+01 -2.35228E+01 -2.64571E+01 -3.07241E+01 -3.43552E+01 -2.40031E+01 -3.01692E+01 -1.55855E+01 -1.74846E+01 -1.70850E+01
  -2.42635E+01 -3.01147E+01 -2.04444E+01 -2.42502E+01 -2.20552E+01 -1.93342E+01 -2.54914E+01 -2.03992E+01 -2.20574E+01 -1.38061E+01
  -2.30936E+01 -2.18439E+01 -2.55798E+01 -9.12441E+00 -2.32554E+01 -1.67927E+01 -2.05500E+01 -1.46781E+01 -2.47935E+01 -1.59772E+01
  -1.96846E+01 -2.15611E+01 -7.87778E+00 -1.43499E+01 -7.31715E+00 -1.96673E+00 -1.07565E+01  4.05478E+00 -7.42024E+00  1.79808E+00
  -6.09872E+00  3.53083E+00  1.54759E+00  1.29579E+01  6.51623E+00  1.65860E+01  1.10356E+01  4.01020E+00 -7.15155E+00  2.83059E-01
   8.17387E-01 -1.50430E+01 -2.21982E+01 -1.82776E+01 -1.57589E+01 -1.27518E+01 -1.19017E+01 -2.41282E+01 -1.39975E+01 -1.92828E+01
  -1.35317E+01 -9.70315E+00 -1.24892E+01 -8.46472E-01  1.28120E+00 -3.42834E+00  4.81894E+00  1.76393E+00  7.37062E+00  7.39629E+00
   8.02896E+00 -4.75349E+00 -6.34347E+00  1.91046E+00 -1.22827E+01 -7.96436E+00 -1.81285E+01 -1.27517E+01 -1.87544E+01 -2.35981E+01
  -3.23078E+01 -2.15087E+01 -1.72345E+01 -2.02334E+01 -1.34398E+01 -1.80820E+01 -1.67411E+01 -1.70733E+01 -1.85086E+01 -1.44653E+01
  -2.00191E+01 -2.51693E+01 -1.17199E+01 -1.84011E+01 -1.87067E+01 -2.04699E+01 -1.76083E+01 -1.82307E+01 -1.37161E+01 -1.43752E+01
  -1.40997E+01 -1.44727E+01 -2.32452E+01 -1.98738E+01 -2.18937E+01 -1.67102E+01 -2.22665E+01 -1.48334E+01 -2.13691E+01 -1.39593E+01
  -2.83273E+01 -1.36121E+01 -2.00123E+01 -2.34034E+01 -1.70164E+01 -2.63636E+01 -2.84661E+01 -2.46604E+01 -1.72724E+01 -2.46178E+01
  -2.48020E+01 -1.93208E+01 -1.92931E+01 -2.04630E+01 -1.54681E+01 -1.86132E+01 -2.23598E+01 -1.82202E+01 -1.40736E+01 -1.60685E+01
  -2.71990E+01 -4.36832E+00 -3.03319E+01 -1.54049E+01 -1.59347E+01 -1.39512E+01 -1.26571E+01 -1.79051E+01 -1.96128E+01 -2.28529E+01
  -4.30798E+00 -8.10346E+00 -1.16497E+01 -1.27990E+01 -1.79380E+01 -1.50729E+01 -1.19396E+01 -1.90413E+01 -1.35872E+01 -1.11358E+01
  -1.50936E+01 -7.86894E+00 -1.90758E+01 -1.01072E+01 -1.37650E+01 -1.12971E+01 -1.49190E+01 -2.05506E+01 -1.35393E+01 -8.39480E+00
  -9.14837E-01 -1.65198E+01 -9.49388E+00 -8.83963E+00 -2.09641E+01 -2.08164E+01 -9.35840E+00 -1.13425E+01 -1.87083E+01 -1.01695E+01
  -1.19033E+01  2.52806E+00 -9.19677E+00 -8.90860E+00 -9.66672E+00 -7.11879E+00 -1.12040E+01 -5.76357E+00 -1.37929E+01 -6.60891E+00
  -1.50271E+01 -2.52758E+01 -6.46638E+00 -7.21942E+00 -3.74965E+00 -4.08771E+00 -8.34864E+00 -1.45282E+01 -8.91494E+00  5.21579E-01
  -6.86035E+00  2.81120E+00  2.30308E+00 -7.80681E-01  9.86841E+00  2.70364E+01  3.34282E+01  2.95357E+01  1.81311E+01  2.33799E+01
   2.40340E+01  2.09785E+01  1.26276E+01  8.05182E+00  2.25582E+00  1.26860E+01  5.90511E+00  5.47906E-01  5.99744E+00 -6.56833E-01
  -7.31258E+00 -7.96524E+00 -6.25007E+00  1.89872E+00 -7.69230E+00 -4.53055E+00 -1.37717E+00 -2.09454E+00 -8.09978E+00 -4.85755E+00
  -1.87675E+01 -4.12651E+00 -1.15241E+01 -7.00868E+00 -1.41344E+01 -4.78148E+00 -6.84395E+00 -7.48134E+00  2.01379E+00 -4.65058E+00
  -1.09233E+01 -1.53198E+01 -1.02878E+01 -9.18558E+00 -2.09104E+01 -2.04096E+01 -1.63891E+01 -8.87972E+00 -1.81492E+01 -1.22423E+01
  -2.12033E+01 -1.10322E+01 -1.56092E+01 -1.00573E+01 -1.94812E+01 -1.53427E+01 -1.85480E+01 -1.81755E+01 -1.04613E+01 -1.65365E+01
  -1.43241E+01 -5.21105E+00 -2.95132E+01 -2.78886E+01 -2.82008E+01 -1.81778E+01 -3.17103E+01 -2.60502E+01 -2.72411E+01 -2.06949E+01
  -2.23171E+01 -2.19393E+01 -2.77004E+01 -2.44633E+01 -1.93905E+01 -2.29000E+01 -1.48320E+01 -1.70347E+01 -2.27192E+01 -2.01782E+01
  -3.34879E+01 -1.68935E+01 -1.83410E+01 -1.15975E+01 -1.32371E+01 -6.68771E+00 -1.38870E+01 -1.10445E+01 -1.53172E+01 -7.18995E+00
  -1.23681E+01  1.02629E-01 -4.92517E+00 -5.67851E+00  1.64350E+00  8.11319E+00 -4.73679E+00 -1.23407E+01 -3.43573E+00 -8.12584E+00
  -1.44544E+01 -5.78328E+00 -6.93897E+00 -4.67195E+00 -3.61556E-01 -5.24144E+00 -9.46921E-02 -7.49549E-01 -6.50420E+00  5.64792E+00
  -8.44243E+00  8.21382E-02  1.13160E+00 -2.40015E+00 -7.13966E-01  3.09747E+00 -1.14782E+00 -1.02152E+00 -8.14861E+00 -6.58426E+00
  -6.67316E+00 -5.43744E+00 -9.77468E+00 -1.28861E+01 -7.64261E+00 -3.79673E+00 -1.09100E+01 -6.17228E+00 -8.25892E+00  2.43372E+00
  -7.46672E+00  3.15777E+00 -7.17896E+00 -1.21638E+01 -1.74203E+00 -8.83195E+00 -8.09847E+00 -4.73392E+00 -7.71954E+00 -7.05354E+00
  -3.39240E+00 -1.35523E+01 -5.71399E+00 -1.96270E+01 -2.04042E+01  1.30325E+00 -1.42160E+01  1.33077E+01 -3.10160E+00 -1.49817E+00
   3.05040E+00 -1.34515E+00 -4.55481E-01 -2.07708E+00 -4.46221E+00 -4.09679E+00 -8.54015E-01  7.45472E+00  6.30165E+00 -4.90881E-01
  -2.59406E+00  1.58705E+00 -3.56977E+00 -4.03017E+00 -6.69680E+00 -9.55571E+00  1.41731E+00 -4.32752E-01 -8.06058E+00 -4.82611E+00
   1.40985E+00 -5.91717E+00 -7.86137E+00 -8.82737E+00 -5.62883E+00 -9.92819E+00 -1.33963E+01  3.61713E+00 -6.55303E+00 -8.26125E+00
  -1.08211E+01 -2.76894E+00 -4.05517E+00 -5.36629E+00  3.23201E+00 -1.03575E+01 -1.52584E+01  2.71870E+00  2.29093E+00 -2.48281E+00
  -6.52612E+00 -8.19624E+00 -2.48074E+00  7.68423E+00 -7.90552E+00 -7.13442E+00 -2.72411E+00 -4.15079E+00 -7.74599E+00  2.40743E+00
  -8.61239E-01 -7.71494E-01 -2.74210E+00  1.03911E+01 -5.39744E+00 -8.46974E+00  6.20949E+00  4.70858E-01  4.14497E+00  6.60686E+00
   2.53941E+00  3.38373E+00  4.66264E+00  2.19634E+00 -7.71270E+00 -6.69755E-01 -3.24486E+00 -7.23165E+00 -9.23820E+00  8.68651E-02
  -9.20121E+00  6.92239E-01 -9.45103E-01 -1.77268E+00 -4.67896E+00 -2.21060E+00 -3.01865E+00  8.03374E+00 -5.57380E+00 -5.28724E+00
  -5.73403E+00  4.21070E+00 -4.90075E+00  1.53208E+00 -1.96073E+00 -1.08929E+01 -5.30717E+00 -5.52113E-01 -5.06458E+00  6.93559E-01
   1.50544E+00  7.51987E+00 -6.08790E-01 -2.74507E+00 -3.34101E+00  9.70539E-01 -4.18574E+00 -1.79803E-01
 NY points of the fit to the data follow
  -2.60775E+01 -2.65580E+01 -2.68155E+01 -2.58643E+01 -2.32863E+01 -2.00222E+01 -1.76663E+01 -1.69046E+01 -1.69494E+01 -1.64390E+01
  -1.49660E+01 -1.33490E+01 -1.24229E+01 -1.23763E+01 -1.30551E+01 -1.41373E+01 -1.51289E+01 -1.59594E+01 -1.72883E+01 -1.94984E+01
  -2.19192E+01 -2.36335E+01 -2.43232E+01 -2.39854E+01 -2.28116E+01 -2.12933E+01 -1.99803E+01 -1.92285E+01 -1.90410E+01 -1.92546E+01
  -1.95933E+01 -1.97211E+01 -1.95126E+01 -1.91478E+01 -1.89176E+01 -1.90256E+01 -1.96179E+01 -2.06541E+01 -2.17834E+01 -2.26828E+01
  -2.33406E+01 -2.37930E+01 -2.39747E+01 -2.38986E+01 -2.36071E+01 -2.31157E+01 -2.25784E+01 -2.22806E+01 -2.23497E+01 -2.26175E+01
  -2.28670E+01 -2.30129E+01 -2.30569E+01 -2.30400E+01 -2.30186E+01 -2.30233E+01 -2.30415E+01 -2.30360E+01 -2.29710E+01 -2.28662E+01
  -2.27730E+01 -2.27106E+01 -2.26706E+01 -2.26481E+01 -2.26205E+01 -2.25674E+01 -2.24839E+01 -2.23490E+01 -2.21507E+01 -2.19308E+01
  -2.17659E+01 -2.17019E+01 -2.17227E+01 -2.17468E+01 -2.16863E+01 -2.15385E+01 -2.13820E+01 -2.12246E+01 -2.09631E+01 -2.05477E+01
  -2.00817E+01 -1.97327E+01 -1.95865E+01 -1.95533E+01 -1.94162E+01 -1.90982E+01 -1.87703E+01 -1.86039E+01 -1.86154E+01 -1.87377E+01
  -1.88575E+01 -1.88667E+01 -1.88136E+01 -1.88303E+01 -1.80617E+01 -1.50397E+01 -9.56943E+00 -3.67689E+00  2.34960E-01  1.69389E+00
   2.31273E+00  4.07202E+00  7.01942E+00  9.51675E+00  1.03281E+01  9.33994E+00  6.88630E+00  3.56650E+00  1.84119E-01 -3.20516E+00
  -7.43121E+00 -1.23853E+01 -1.64732E+01 -1.87192E+01 -1.96215E+01 -1.98612E+01 -1.98467E+01 -1.97717E+01 -1.90582E+01 -1.66131E+01
  -1.21995E+01 -7.28385E+00 -3.84164E+00 -2.43626E+00 -1.89600E+00 -5.27400E-01  1.98271E+00  4.35023E+00  5.35997E+00  4.77583E+00
   2.89730E+00  2.52882E-01 -2.45308E+00 -5.05627E+00 -8.26492E+00 -1.22572E+01 -1.58423E+01 -1.80086E+01 -1.89774E+01 -1.92910E+01
  -1.93068E+01 -1.92507E+01 -1.91711E+01 -1.90516E+01 -1.88999E+01 -1.87671E+01 -1.87236E+01 -1.88144E+01 -1.90058E+01 -1.92053E+01
  -1.93252E+01 -1.93515E+01 -1.93775E+01 -1.95156E+01 -1.97594E+01 -1.99997E+01 -2.01216E+01 -2.00981E+01 -2.00136E+01 -1.99951E+01
  -2.00951E+01 -2.02712E+01 -2.04532E+01 -2.05858E+01 -2.06368E+01 -2.06191E+01 -2.06037E+01 -2.06668E+01 -2.08292E+01 -2.10207E+01
  -2.11240E+01 -2.10813E+01 -2.09651E+01 -2.09169E+01 -2.10267E+01 -2.12279E+01 -2.13306E+01 -2.12040E+01 -2.09366E+01 -2.07302E+01
  -2.06599E+01 -2.06044E+01 -2.03643E+01 -1.98349E+01 -1.91083E+01 -1.84175E+01 -1.79477E+01 -1.77248E+01 -1.76496E+01 -1.76169E+01
  -1.76009E+01 -1.76412E+01 -1.77245E+01 -1.77095E+01 -1.74704E+01 -1.70551E+01 -1.65947E+01 -1.61124E+01 -1.55710E+01 -1.50209E+01
  -1.45539E+01 -1.43775E+01 -1.47785E+01 -1.57112E+01 -1.66462E+01 -1.70965E+01 -1.71156E+01 -1.69720E+01 -1.68619E+01 -1.68179E+01
  -1.68109E+01 -1.68507E+01 -1.68912E+01 -1.67977E+01 -1.65121E+01 -1.62504E+01 -1.60516E+01 -1.55032E+01 -1.44879E+01 -1.37003E+01
  -1.37796E+01 -1.45588E+01 -1.55330E+01 -1.64273E+01 -1.70709E+01 -1.71458E+01 -1.64673E+01 -1.53177E+01 -1.41335E+01 -1.31021E+01
  -1.21476E+01 -1.12897E+01 -1.06899E+01 -1.03598E+01 -1.03376E+01 -1.06934E+01 -1.13115E+01 -1.18592E+01 -1.20630E+01 -1.18685E+01
  -1.15309E+01 -1.14770E+01 -1.18199E+01 -1.22622E+01 -1.25155E+01 -1.25947E+01 -1.24628E+01 -1.14294E+01 -8.84154E+00 -4.95785E+00
  -1.11120E+00  1.63642E+00  3.92793E+00  7.45795E+00  1.28617E+01  1.83737E+01  2.18579E+01  2.30125E+01  2.31202E+01  2.31647E+01
   2.29676E+01  2.20289E+01  1.98992E+01  1.61354E+01  1.12019E+01  6.66083E+00  3.38233E+00  6.31812E-01 -2.48211E+00 -5.66053E+00
  -8.00836E+00 -9.37627E+00 -1.01222E+01 -1.04807E+01 -1.06592E+01 -1.07830E+01 -1.08823E+01 -1.09589E+01 -1.10362E+01 -1.11327E+01
  -1.12538E+01 -1.14037E+01 -1.15849E+01 -1.17677E+01 -1.19004E+01 -1.19589E+01 -1.19683E+01 -1.19655E+01 -1.19644E+01 -1.19672E+01
  -1.19798E+01 -1.20044E+01 -1.20339E+01 -1.20595E+01 -1.20752E+01 -1.20789E+01 -1.20755E+01 -1.20721E+01 -1.20698E+01 -1.20726E+01
  -1.20841E+01 -1.20964E+01 -1.20982E+01 -1.20876E+01 -1.20688E+01 -1.20431E+01 -1.20079E+01 -1.19650E+01 -1.19225E+01 -1.18849E+01
  -1.18513E+01 -1.18203E+01 -1.17902E+01 -1.17593E+01 -1.17270E+01 -1.16930E+01 -1.16571E+01 -1.16196E+01 -1.15800E+01 -1.15381E+01
  -1.14936E+01 -1.14464E+01 -1.13961E+01 -1.13428E+01 -1.12858E+01 -1.12245E+01 -1.11583E+01 -1.10867E+01 -1.10092E+01 -1.09243E+01
  -1.08304E+01 -1.07249E+01 -1.06053E+01 -1.04678E+01 -1.03069E+01 -1.01142E+01 -9.87736E+00 -9.57763E+00 -9.09971E+00 -8.23327E+00
  -7.05224E+00 -6.04099E+00 -5.71388E+00 -6.05872E+00 -6.59167E+00 -6.90903E+00 -7.01784E+00 -7.06355E+00 -6.90880E+00 -6.35411E+00
  -5.60623E+00 -5.06414E+00 -4.80037E+00 -4.50917E+00 -3.96873E+00 -3.22742E+00 -2.27342E+00 -1.12740E+00 -1.15517E-01  4.34803E-01
   5.46413E-01  4.01251E-01 -2.21214E-02 -9.29206E-01 -2.21880E+00 -3.48951E+00 -4.51240E+00 -5.28822E+00 -5.86372E+00 -6.29673E+00
  -6.62416E+00 -6.87044E+00 -7.05378E+00 -7.18818E+00 -7.28424E+00 -7.34962E+00 -7.38957E+00 -7.40751E+00 -7.40560E+00 -7.38511E+00
  -7.34653E+00 -7.28973E+00 -7.21405E+00 -7.11858E+00 -7.00231E+00 -6.86420E+00 -6.70317E+00 -6.51818E+00 -6.30842E+00 -6.07352E+00
  -5.81370E+00 -5.52985E+00 -5.22355E+00 -4.89725E+00 -4.55433E+00 -4.19922E+00 -3.83732E+00 -3.47480E+00 -3.11843E+00 -2.77538E+00
  -2.45301E+00 -2.15856E+00 -1.89876E+00 -1.67942E+00 -1.50519E+00 -1.37938E+00 -1.30378E+00 -1.27863E+00 -1.30247E+00 -1.37233E+00
  -1.48387E+00 -1.63174E+00 -1.80983E+00 -2.01159E+00 -2.23027E+00 -2.45922E+00 -2.69223E+00 -2.92372E+00 -3.14893E+00 -3.36388E+00
  -3.56544E+00 -3.75130E+00 -3.92000E+00 -4.07082E+00 -4.20365E+00 -4.31882E+00 -4.41698E+00 -4.49910E+00 -4.56633E+00 -4.61999E+00
  -4.66135E+00 -4.69164E+00 -4.71202E+00 -4.72359E+00 -4.72743E+00 -4.72448E+00 -4.71558E+00 -4.70139E+00 -4.68254E+00 -4.65960E+00
  -4.63308E+00 -4.60344E+00 -4.57101E+00 -4.53606E+00 -4.49885E+00 -4.45966E+00 -4.41873E+00 -4.37623E+00 -4.33229E+00 -4.28702E+00
  -4.24054E+00 -4.19300E+00 -4.14454E+00 -4.09520E+00 -4.04503E+00 -3.99407E+00 -3.94242E+00 -3.89017E+00 -3.83737E+00 -3.78401E+00
  -3.73012E+00 -3.67573E+00 -3.62093E+00 -3.56577E+00 -3.51026E+00 -3.45438E+00 -3.39814E+00 -3.34158E+00 -3.28478E+00 -3.22776E+00
  -3.17049E+00 -3.11296E+00 -3.05519E+00 -2.99724E+00 -2.93915E+00 -2.88092E+00 -2.82252E+00 -2.76393E+00 -2.70519E+00 -2.64638E+00
  -2.58750E+00 -2.52853E+00 -2.46943E+00 -2.41023E+00 -2.35098E+00 -2.29173E+00 -2.23247E+00 -2.17315E+00 -2.11377E+00 -2.05437E+00
  -1.99502E+00 -1.93573E+00 -1.87648E+00 -1.81724E+00 -1.75802E+00 -1.69891E+00 -1.63994E+00 -1.58114E+00
 NY background values follow
    -2.814E+01   -2.808E+01   -2.802E+01   -2.796E+01   -2.790E+01   -2.784E+01   -2.778E+01   -2.772E+01   -2.766E+01   -2.760E+01
    -2.754E+01   -2.747E+01   -2.741E+01   -2.735E+01   -2.729E+01   -2.723E+01   -2.717E+01   -2.711E+01   -2.705E+01   -2.699E+01
    -2.693E+01   -2.686E+01   -2.680E+01   -2.674E+01   -2.668E+01   -2.662E+01   -2.656E+01   -2.650E+01   -2.644E+01   -2.638E+01
    -2.632E+01   -2.625E+01   -2.619E+01   -2.613E+01   -2.607E+01   -2.601E+01   -2.595E+01   -2.589E+01   -2.583E+01   -2.577E+01
    -2.571E+01   -2.565E+01   -2.558E+01   -2.552E+01   -2.546E+01   -2.540E+01   -2.534E+01   -2.528E+01   -2.522E+01   -2.516E+01
    -2.510E+01   -2.504E+01   -2.498E+01   -2.492E+01   -2.486E+01   -2.480E+01   -2.474E+01   -2.468E+01   -2.462E+01   -2.456E+01
    -2.450E+01   -2.444E+01   -2.438E+01   -2.432E+01   -2.426E+01   -2.420E+01   -2.414E+01   -2.408E+01   -2.402E+01   -2.396E+01
    -2.390E+01   -2.384E+01   -2.378E+01   -2.372E+01   -2.367E+01   -2.361E+01   -2.355E+01   -2.349E+01   -2.343E+01   -2.337E+01
    -2.331E+01   -2.326E+01   -2.320E+01   -2.314E+01   -2.308E+01   -2.302E+01   -2.296E+01   -2.291E+01   -2.285E+01   -2.279E+01
    -2.273E+01   -2.268E+01   -2.262E+01   -2.256E+01   -2.251E+01   -2.245E+01   -2.239E+01   -2.234E+01   -2.228E+01   -2.222E+01
    -2.217E+01   -2.211E+01   -2.205E+01   -2.200E+01   -2.194E+01   -2.189E+01   -2.183E+01   -2.178E+01   -2.172E+01   -2.166E+01
    -2.161E+01   -2.155E+01   -2.150E+01   -2.145E+01   -2.139E+01   -2.134E+01   -2.128E+01   -2.123E+01   -2.117E+01   -2.112E+01
    -2.107E+01   -2.101E+01   -2.096E+01   -2.091E+01   -2.085E+01   -2.080E+01   -2.075E+01   -2.069E+01   -2.064E+01   -2.059E+01
    -2.054E+01   -2.048E+01   -2.043E+01   -2.038E+01   -2.033E+01   -2.028E+01   -2.023E+01   -2.018E+01   -2.012E+01   -2.007E+01
    -2.002E+01   -1.997E+01   -1.992E+01   -1.987E+01   -1.982E+01   -1.977E+01   -1.972E+01   -1.967E+01   -1.962E+01   -1.957E+01
    -1.952E+01   -1.947E+01   -1.943E+01   -1.938E+01   -1.933E+01   -1.928E+01   -1.923E+01   -1.918E+01   -1.914E+01   -1.909E+01
    -1.904E+01   -1.899E+01   -1.895E+01   -1.890E+01   -1.885E+01   -1.881E+01   -1.876E+01   -1.871E+01   -1.867E+01   -1.862E+01
    -1.857E+01   -1.853E+01   -1.848E+01   -1.844E+01   -1.839E+01   -1.835E+01   -1.830E+01   -1.826E+01   -1.821E+01   -1.817E+01
    -1.812E+01   -1.808E+01   -1.804E+01   -1.799E+01   -1.795E+01   -1.790E+01   -1.786E+01   -1.782E+01   -1.778E+01   -1.773E+01
    -1.769E+01   -1.765E+01   -1.760E+01   -1.756E+01   -1.752E+01   -1.748E+01   -1.744E+01   -1.740E+01   -1.735E+01   -1.731E+01
    -1.727E+01   -1.723E+01   -1.719E+01   -1.715E+01   -1.711E+01   -1.707E+01   -1.703E+01   -1.699E+01   -1.695E+01   -1.691E+01
    -1.687E+01   -1.683E+01   -1.679E+01   -1.675E+01   -1.671E+01   -1.667E+01   -1.663E+01   -1.659E+01   -1.656E+01   -1.652E+01
    -1.648E+01   -1.644E+01   -1.640E+01   -1.636E+01   -1.633E+01   -1.629E+01   -1.625E+01   -1.621E+01   -1.618E+01   -1.614E+01
    -1.610E+01   -1.607E+01   -1.603E+01   -1.599E+01   -1.596E+01   -1.592E+01   -1.588E+01   -1.585E+01   -1.581E+01   -1.577E+01
    -1.574E+01   -1.570E+01   -1.567E+01   -1.563E+01   -1.559E+01   -1.556E+01   -1.552E+01   -1.549E+01   -1.545E+01   -1.542E+01
    -1.538E+01   -1.535E+01   -1.531E+01   -1.528E+01   -1.524E+01   -1.521E+01   -1.517E+01   -1.513E+01   -1.510E+01   -1.506E+01
    -1.503E+01   -1.499E+01   -1.496E+01   -1.492E+01   -1.489E+01   -1.485E+01   -1.482E+01   -1.478E+01   -1.475E+01   -1.471E+01
    -1.468E+01   -1.464E+01   -1.461E+01   -1.457E+01   -1.454E+01   -1.450E+01   -1.447E+01   -1.443E+01   -1.439E+01   -1.436E+01
    -1.432E+01   -1.429E+01   -1.425E+01   -1.422E+01   -1.418E+01   -1.414E+01   -1.411E+01   -1.407E+01   -1.403E+01   -1.400E+01
    -1.396E+01   -1.392E+01   -1.389E+01   -1.385E+01   -1.381E+01   -1.377E+01   -1.374E+01   -1.370E+01   -1.366E+01   -1.362E+01
    -1.358E+01   -1.355E+01   -1.351E+01   -1.347E+01   -1.343E+01   -1.339E+01   -1.335E+01   -1.331E+01   -1.327E+01   -1.323E+01
    -1.319E+01   -1.315E+01   -1.310E+01   -1.306E+01   -1.302E+01   -1.298E+01   -1.294E+01   -1.289E+01   -1.285E+01   -1.281E+01
    -1.276E+01   -1.272E+01   -1.267E+01   -1.263E+01   -1.259E+01   -1.254E+01   -1.249E+01   -1.245E+01   -1.240E+01   -1.236E+01
    -1.231E+01   -1.226E+01   -1.222E+01   -1.217E+01   -1.212E+01   -1.207E+01   -1.203E+01   -1.198E+01   -1.193E+01   -1.188E+01
    -1.183E+01   -1.178E+01   -1.173E+01   -1.168E+01   -1.163E+01   -1.158E+01   -1.153E+01   -1.148E+01   -1.143E+01   -1.137E+01
    -1.132E+01   -1.127E+01   -1.122E+01   -1.117E+01   -1.111E+01   -1.106E+01   -1.101E+01   -1.095E+01   -1.090E+01   -1.085E+01
    -1.079E+01   -1.074E+01   -1.068E+01   -1.063E+01   -1.057E+01   -1.052E+01   -1.046E+01   -1.041E+01   -1.035E+01   -1.029E+01
    -1.024E+01   -1.018E+01   -1.012E+01   -1.007E+01   -1.001E+01   -9.952E+00   -9.895E+00   -9.837E+00   -9.779E+00   -9.721E+00
    -9.663E+00   -9.604E+00   -9.545E+00   -9.486E+00   -9.427E+00   -9.368E+00   -9.309E+00   -9.249E+00   -9.189E+00   -9.129E+00
    -9.069E+00   -9.009E+00   -8.948E+00   -8.888E+00   -8.827E+00   -8.766E+00   -8.705E+00   -8.644E+00   -8.582E+00   -8.521E+00
    -8.459E+00   -8.397E+00   -8.335E+00   -8.273E+00   -8.211E+00   -8.149E+00   -8.086E+00   -8.024E+00   -7.961E+00   -7.898E+00
    -7.835E+00   -7.772E+00   -7.709E+00   -7.645E+00   -7.582E+00   -7.518E+00   -7.455E+00   -7.391E+00   -7.327E+00   -7.263E+00
    -7.199E+00   -7.135E+00   -7.071E+00   -7.006E+00   -6.942E+00   -6.877E+00   -6.813E+00   -6.748E+00   -6.683E+00   -6.618E+00
    -6.554E+00   -6.489E+00   -6.424E+00   -6.358E+00   -6.293E+00   -6.228E+00   -6.163E+00   -6.098E+00   -6.032E+00   -5.967E+00
    -5.901E+00   -5.836E+00   -5.770E+00   -5.705E+00   -5.639E+00   -5.574E+00   -5.508E+00   -5.442E+00   -5.376E+00   -5.311E+00
    -5.245E+00   -5.179E+00   -5.113E+00   -5.048E+00   -4.982E+00   -4.916E+00   -4.850E+00   -4.784E+00   -4.719E+00   -4.653E+00
    -4.587E+00   -4.521E+00   -4.455E+00   -4.389E+00   -4.324E+00   -4.258E+00   -4.192E+00   -4.126E+00   -4.060E+00   -3.994E+00
    -3.928E+00   -3.862E+00   -3.797E+00   -3.731E+00   -3.665E+00   -3.599E+00   -3.533E+00   -3.467E+00   -3.402E+00   -3.336E+00
    -3.270E+00   -3.204E+00   -3.138E+00   -3.072E+00   -3.007E+00   -2.941E+00   -2.875E+00   -2.809E+00   -2.744E+00   -2.678E+00
    -2.612E+00   -2.547E+00   -2.481E+00   -2.415E+00   -2.350E+00   -2.284E+00   -2.218E+00   -2.153E+00
 Asp      Conc. = 1.21E+02
