 LCModel (Version 6.3-1L) Copyright: S.W. Provencher.          Ref.: Magn. Reson. Med. 30:672-679 (1993).                
 Slice#1 Row#3 Col#2  PD_24_press_2_raw_act
 36 lines in following concentration table = NCONC+1
    Conc.  %SD /Cr+PCr  Metabolite                                         
 2.82E+04  13%   0.000 Ala                                                 
    0.000 999%   0.000 Asp                                                 
    0.000 999%   0.000 Cr                                                  
    0.000 999%   0.000 PCr                                                 
    0.000 999%   0.000 GABA                                                
    0.000 999%   0.000 Glc                                                 
  532.767 511%   0.000 Gln                                                 
    0.000 999%   0.000 Glu                                                 
    0.000 999%   0.000 GPC                                                 
   15.647 764%   0.000 PCh                                                 
  199.291 247%   0.000 GSH                                                 
 1.11E+03 121%   0.000 Ins                                                 
 2.65E+04  15%   0.000 Lac                                                 
    0.000 999%   0.000 NAA                                                 
    0.000 999%   0.000 NAAG                                                
    0.000 999%   0.000 Scyllo                                              
    0.000 999%   0.000 Tau                                                 
   92.265 287%   0.000 -CrCH2                                              
   15.647 764%   0.000 GPC+PCh                                             
    0.000 999%   0.000 NAA+NAAG                                            
    0.000 999%   0.000 Cr+PCr                                              
  532.767 511%   0.000 Glu+Gln                                             
    0.000 999%   0.000 Lip13a                                              
    0.000 999%   0.000 Lip13b                                              
    0.000 999%   0.000 Lip09                                               
 1.98E+04   8%   0.000 MM09                                                
    0.000 999%   0.000 Lip20                                               
 2.84E+04   8%   0.000 MM20                                                
 5.92E+03   8%   0.000 MM12                                                
 1.75E+04   7%   0.000+MM14                                                
 1.00E+04   6%   0.000+MM17                                                
    0.000 999%   0.000 Lip13a+Lip13b                                       
 2.34E+04   7%   0.000 MM14+Lip13a+Lip13b+MM12                             
 1.98E+04   8%   0.000 MM09+Lip09                                          
 2.84E+04   8%   0.000 MM20+Lip20                                          
   6 lines in following misc. output table
  FWHM = 0.168 ppm    S/N =  12                                            
  Data shift = 0.138 ppm                                                   
  Ph:-178 deg     153.7 deg/ppm                                            
  alphaB,S = 6.6E-01,   3.9E+02                                            
   10 spline knots.   Ns = 9(2)                                            
  (13) 4 infls.   ( 5) 1 extrs.                                            
  498 points on ppm-axis = NY
      4.000000     3.992357     3.984714     3.977070     3.969427     3.961784     3.954141     3.946497     3.938854     3.931211
      3.923568     3.915925     3.908281     3.900638     3.892995     3.885352     3.877708     3.870065     3.862422     3.854779
      3.847136     3.839492     3.831849     3.824206     3.816563     3.808919     3.801276     3.793633     3.785990     3.778347
      3.770703     3.763060     3.755417     3.747774     3.740130     3.732487     3.724844     3.717201     3.709558     3.701914
      3.694271     3.686628     3.678985     3.671341     3.663698     3.656055     3.648412     3.640769     3.633125     3.625482
      3.617839     3.610196     3.602552     3.594909     3.587266     3.579623     3.571980     3.564336     3.556693     3.549050
      3.541407     3.533763     3.526120     3.518477     3.510834     3.503191     3.495547     3.487904     3.480261     3.472618
      3.464974     3.457331     3.449688     3.442045     3.434402     3.426758     3.419115     3.411472     3.403829     3.396185
      3.388542     3.380899     3.373256     3.365613     3.357969     3.350326     3.342683     3.335040     3.327396     3.319753
      3.312110     3.304467     3.296824     3.289180     3.281537     3.273894     3.266251     3.258607     3.250964     3.243321
      3.235678     3.228034     3.220391     3.212748     3.205105     3.197462     3.189818     3.182175     3.174532     3.166889
      3.159245     3.151602     3.143959     3.136316     3.128673     3.121029     3.113386     3.105743     3.098100     3.090456
      3.082813     3.075170     3.067527     3.059884     3.052240     3.044597     3.036954     3.029311     3.021667     3.014024
      3.006381     2.998738     2.991095     2.983451     2.975808     2.968165     2.960522     2.952878     2.945235     2.937592
      2.929949     2.922306     2.914662     2.907019     2.899376     2.891733     2.884089     2.876446     2.868803     2.861160
      2.853517     2.845873     2.838230     2.830587     2.822944     2.815300     2.807657     2.800014     2.792371     2.784728
      2.777084     2.769441     2.761798     2.754155     2.746511     2.738868     2.731225     2.723582     2.715939     2.708295
      2.700652     2.693009     2.685366     2.677722     2.670079     2.662436     2.654793     2.647150     2.639506     2.631863
      2.624220     2.616577     2.608933     2.601290     2.593647     2.586004     2.578361     2.570717     2.563074     2.555431
      2.547788     2.540144     2.532501     2.524858     2.517215     2.509572     2.501928     2.494285     2.486642     2.478999
      2.471355     2.463712     2.456069     2.448426     2.440783     2.433139     2.425496     2.417853     2.410210     2.402566
      2.394923     2.387280     2.379637     2.371994     2.364350     2.356707     2.349064     2.341421     2.333777     2.326134
      2.318491     2.310848     2.303205     2.295561     2.287918     2.280275     2.272632     2.264988     2.257345     2.249702
      2.242059     2.234416     2.226772     2.219129     2.211486     2.203843     2.196199     2.188556     2.180913     2.173270
      2.165627     2.157983     2.150340     2.142697     2.135054     2.127410     2.119767     2.112124     2.104481     2.096838
      2.089194     2.081551     2.073908     2.066265     2.058621     2.050978     2.043335     2.035692     2.028049     2.020405
      2.012762     2.005119     1.997476     1.989833     1.982190     1.974546     1.966903     1.959260     1.951617     1.943974
      1.936331     1.928688     1.921045     1.913402     1.905759     1.898115     1.890472     1.882829     1.875186     1.867543
      1.859900     1.852257     1.844614     1.836971     1.829327     1.821684     1.814041     1.806398     1.798755     1.791112
      1.783469     1.775826     1.768183     1.760540     1.752896     1.745253     1.737610     1.729967     1.722324     1.714681
      1.707038     1.699395     1.691752     1.684108     1.676465     1.668822     1.661179     1.653536     1.645893     1.638250
      1.630607     1.622964     1.615321     1.607677     1.600034     1.592391     1.584748     1.577105     1.569462     1.561819
      1.554176     1.546533     1.538890     1.531246     1.523603     1.515960     1.508317     1.500674     1.493031     1.485388
      1.477745     1.470102     1.462458     1.454815     1.447172     1.439529     1.431886     1.424243     1.416600     1.408957
      1.401314     1.393671     1.386027     1.378384     1.370741     1.363098     1.355455     1.347812     1.340169     1.332526
      1.324883     1.317240     1.309596     1.301953     1.294310     1.286667     1.279024     1.271381     1.263738     1.256095
      1.248452     1.240808     1.233165     1.225522     1.217879     1.210236     1.202593     1.194950     1.187307     1.179664
      1.172021     1.164377     1.156734     1.149091     1.141448     1.133805     1.126162     1.118519     1.110876     1.103233
      1.095590     1.087946     1.080303     1.072660     1.065017     1.057374     1.049731     1.042088     1.034445     1.026802
      1.019158     1.011515     1.003872     0.996229     0.988586     0.980943     0.973300     0.965657     0.958014     0.950371
      0.942727     0.935084     0.927441     0.919798     0.912155     0.904512     0.896869     0.889226     0.881583     0.873940
      0.866296     0.858653     0.851010     0.843367     0.835724     0.828081     0.820438     0.812795     0.805152     0.797508
      0.789865     0.782222     0.774579     0.766936     0.759293     0.751650     0.744007     0.736364     0.728721     0.721077
      0.713434     0.705791     0.698148     0.690505     0.682862     0.675219     0.667576     0.659933     0.652290     0.644646
      0.637003     0.629360     0.621717     0.614074     0.606431     0.598788     0.591145     0.583502     0.575858     0.568215
      0.560572     0.552929     0.545286     0.537643     0.530000     0.522357     0.514714     0.507071     0.499427     0.491784
      0.484141     0.476498     0.468855     0.461212     0.453569     0.445925     0.438282     0.430639     0.422996     0.415353
      0.407710     0.400067     0.392424     0.384780     0.377137     0.369494     0.361851     0.354208     0.346565     0.338922
      0.331278     0.323635     0.315992     0.308349     0.300706     0.293063     0.285420     0.277777     0.270133     0.262490
      0.254847     0.247204     0.239561     0.231918     0.224275     0.216631     0.208988     0.201345
 NY phased data points follow
   3.44420E+01  3.58853E+01  3.24815E+01  3.19711E+01  2.81044E+01  3.09637E+01  3.08750E+01  2.26071E+01  3.21140E+01  2.70267E+01
   2.74504E+01  2.23026E+01  2.78645E+01  2.07661E+01  2.98267E+01  1.74528E+01  3.15340E+01  2.49447E+01  1.77685E+01  2.37156E+01
   3.60283E+01  3.16827E+01  1.96694E+01  2.86391E+01  2.81788E+01  2.70412E+01  2.31480E+01  2.08992E+01  2.71786E+01  2.63650E+01
   2.42564E+01  2.01084E+01  2.61341E+01  1.70640E+01  2.22226E+01  2.02347E+01  2.17227E+01  2.24816E+01  1.50201E+01  1.53085E+01
   3.20440E+01  1.90050E+01  1.53584E+01  1.00392E+01  2.17672E+01  1.38929E+01  2.14755E+01  1.94881E+01  1.35793E+01  2.02414E+01
   2.52647E+01  1.05232E+01  2.36477E+01  1.51366E+01  9.40594E+00  2.18470E+01  1.70513E+01  1.69249E+01  2.11054E+01  2.11519E+00
   1.26735E+01  1.36354E+01  9.44284E+00  8.63792E+00  9.76344E+00  7.84941E+00  1.09465E+01  7.77894E+00  1.12863E+01  1.40591E+01
   1.00479E+01  3.14643E+00  2.88518E+00  1.38417E+01  2.65495E+00  5.05135E+00  3.06286E+00  1.23017E+01  7.86171E+00  6.24331E+00
   1.50260E+00  7.70135E+00  2.07947E+00  1.44993E+00  1.07439E+01  5.70102E-01  1.06109E+01  5.79783E+00  8.71484E+00 -4.56716E+00
   1.26232E+00  5.38944E+00  1.14609E+01  7.85080E+00  5.10940E+00  2.67326E+00  4.43066E+00  5.12840E+00  5.58856E+00 -6.80830E+00
   1.75146E+01  1.11199E+01  1.63965E+01  1.98215E+00  1.01255E+01  9.27902E+00  1.43343E+01  1.36708E+01  2.14985E+00  1.74840E+00
  -7.16121E+00 -2.47486E+00  3.29192E+00  4.58755E+00 -3.32626E-01  4.50201E+00  1.63762E+00 -1.39219E+00 -6.80184E+00 -1.87225E+00
   3.52546E+00 -9.20378E-01  6.86566E+00  4.55571E+00 -2.52328E+00 -1.23311E+00 -5.30196E+00 -4.72264E+00  4.51035E-01  2.66707E+00
  -4.66687E+00 -4.76334E+00 -4.29602E+00 -4.26327E+00  1.26142E+00  1.56683E+00 -2.40728E+00 -5.45929E+00 -2.80711E+00 -7.52190E+00
  -1.06747E+00 -3.43881E+00  3.90577E+00 -4.17293E+00  4.62037E+00 -2.42939E+00  2.05182E+00  1.18368E+00 -4.90605E+00  3.75506E+00
   3.39920E+00 -9.94400E+00 -2.23944E+00 -4.14726E+00  2.42476E+00 -1.47304E+00 -2.30465E+00 -1.53866E+01 -1.60051E+00 -1.06757E+01
  -5.43428E+00 -5.02424E+00 -5.74141E+00 -1.74594E+00 -3.45504E+00 -4.08786E-01 -2.60517E+00 -1.80162E+00  2.71506E+00  1.36567E+00
  -2.54084E+00 -6.83878E+00 -8.10206E+00  2.10071E+00 -1.35602E+01 -6.37849E-01 -4.75775E+00 -3.74910E+00 -6.69642E+00 -8.06237E+00
  -1.21880E+01 -3.60234E+00 -1.49843E+01 -1.07739E+01 -1.12526E+01 -1.07930E+01 -2.36006E+01 -1.62976E+01 -1.51821E+01 -1.44958E+01
  -1.98129E+01 -1.64900E+01 -2.86235E+01 -2.51245E+01 -2.84447E+01 -2.57388E+01 -2.54388E+01 -1.39050E+01 -2.79713E+01 -2.76742E+01
  -3.21289E+01 -2.90452E+01 -3.77221E+01 -3.38790E+01 -3.95289E+01 -2.88658E+01 -3.87923E+01 -3.32377E+01 -3.53159E+01 -3.74017E+01
  -2.98520E+01 -3.25282E+01 -3.15178E+01 -3.18511E+01 -4.15994E+01 -1.78632E+01 -3.42821E+01 -2.90769E+01 -2.45750E+01 -2.16943E+01
  -2.19031E+01 -2.73020E+01 -2.43298E+01 -2.30534E+01 -2.99705E+01 -2.21777E+01 -1.99321E+01 -2.66770E+01 -1.14864E+01 -2.54692E+01
  -2.72744E+01 -1.39627E+01 -2.00669E+01 -2.51236E+01 -1.32564E+01 -1.56836E+01 -1.85476E+01 -2.83602E+01 -2.55388E+01 -1.69855E+01
  -1.80692E+01 -1.79739E+01 -1.99673E+01 -1.67472E+01 -2.24858E+01 -2.20548E+01 -2.20068E+01 -1.65308E+01 -2.23038E+01 -1.77976E+01
  -3.04833E+01 -2.45348E+01 -2.28764E+01 -1.75619E+01 -2.15751E+01 -1.78384E+01 -2.90170E+01 -2.30157E+01 -2.64292E+01 -2.72041E+01
  -2.34399E+01 -2.06163E+01 -2.18222E+01 -2.60304E+01 -3.20588E+01 -3.77366E+01 -3.18083E+01 -3.48777E+01 -4.00867E+01 -4.23857E+01
  -3.59426E+01 -4.08653E+01 -4.17202E+01 -4.58965E+01 -4.27396E+01 -5.32667E+01 -4.88592E+01 -5.36407E+01 -6.54490E+01 -5.69179E+01
  -6.27136E+01 -6.15596E+01 -7.08924E+01 -6.09008E+01 -5.62257E+01 -4.95372E+01 -6.24627E+01 -5.17148E+01 -6.27421E+01 -4.56738E+01
  -3.51897E+01 -2.72397E+01 -1.66707E+01 -1.77709E+01 -1.16375E+01  7.91002E+00  3.00247E+01  4.97503E+01  5.23261E+01  6.36360E+01
   7.33303E+01  8.47859E+01  9.44050E+01  1.07050E+02  1.12020E+02  1.15439E+02  1.26742E+02  1.31236E+02  1.37607E+02  1.27281E+02
   1.25441E+02  1.33163E+02  1.29462E+02  1.19489E+02  1.19469E+02  1.14963E+02  1.10603E+02  9.88972E+01  9.75900E+01  1.03846E+02
   8.20579E+01  9.08646E+01  8.52596E+01  6.54023E+01  7.04904E+01  7.16929E+01  6.48371E+01  5.91348E+01  5.50733E+01  5.16129E+01
   4.59669E+01  5.35978E+01  3.33298E+01  4.72285E+01  2.80982E+01  2.71485E+01  4.31527E+01  3.56152E+01  2.54975E+01  3.10250E+01
   2.70757E+01  3.18783E+01  2.61415E+01  2.49323E+01  1.78459E+01  2.14229E+01  1.62368E+01  1.29577E+01  1.72270E+01  1.28090E+01
   1.67084E+01  9.60665E+00  1.35074E+01  1.92134E+01  8.50586E+00  1.40966E+01  1.45377E+01  8.22909E+00  8.05505E+00  1.35326E+01
   1.59098E+01  6.16319E+00  1.26733E+01  9.20286E+00  1.27157E+01  1.26366E+01  7.81401E+00 -1.27775E+00  6.70911E+00  5.92682E+00
  -8.10791E-02 -9.07622E-01  1.41857E+00  4.09007E+00 -7.93713E+00 -3.33799E+00  1.77515E+00  2.69976E+00  9.25296E-01  7.85102E-01
  -3.24041E-01 -2.54999E+00 -4.66018E+00 -1.24930E+00 -6.09198E+00 -1.30933E+01 -1.00379E+01 -8.87683E+00 -1.83783E+01 -1.54269E+01
  -1.27040E+01 -7.04509E+00 -7.45842E+00 -1.55092E+01 -7.89082E+00 -1.72908E+01 -1.55118E+01 -1.75767E+01 -2.12813E+01 -7.17487E+00
  -1.60963E+01 -8.95658E+00 -9.28613E+00 -1.78414E+01 -1.77928E+01 -1.03566E+01 -1.14820E+01 -1.29259E+01 -9.88815E+00 -2.16857E+01
  -2.11568E+01 -1.43297E+01 -2.58217E+01 -1.28706E+01 -1.65246E+01 -2.35669E+01 -1.70906E+01 -1.56493E+01 -1.39566E+01 -1.43629E+01
  -1.39118E+01 -2.25685E+01 -1.91457E+01 -1.63795E+01 -1.63770E+01 -1.79276E+01 -1.50581E+01 -2.20993E+01 -2.33714E+01 -2.17564E+01
  -2.25568E+01 -1.29871E+01 -1.50409E+01 -2.05000E+01 -1.59758E+01 -3.20399E+01 -2.63186E+01 -2.27908E+01 -2.42002E+01 -2.52789E+01
  -2.28991E+01 -2.75352E+01 -2.25776E+01 -2.64032E+01 -3.10424E+01 -2.86938E+01 -2.05407E+01 -2.41293E+01 -2.96556E+01 -2.23703E+01
  -2.04022E+01 -2.93808E+01 -2.78611E+01 -2.03141E+01 -2.37476E+01 -1.79996E+01 -1.81148E+01 -2.19801E+01 -1.30428E+01 -1.65102E+01
  -1.96596E+01 -1.63081E+01 -1.96919E+01 -1.21310E+01 -1.07662E+01 -2.47553E+01 -1.24497E+01 -1.45248E+01 -1.73884E+01 -2.15397E+01
  -1.41298E+01 -8.96266E+00 -1.32261E+01 -1.49680E+01 -1.68332E+01 -1.21079E+01 -9.02359E+00 -1.87490E+01 -8.65177E+00 -1.57587E+01
  -1.24154E+01 -1.18374E+01 -1.34639E+01 -1.78614E+01 -6.65282E+00 -8.76801E+00 -5.30506E+00 -3.22361E+00 -3.21439E+00 -1.70070E+01
  -3.85565E+00 -1.16899E+01 -7.54205E+00 -1.39280E+01 -1.10582E+01 -1.19139E+01 -2.13145E+00 -5.63575E+00
 NY points of the fit to the data follow
   2.97890E+01  3.09640E+01  2.84384E+01  2.97934E+01  2.97410E+01  3.28622E+01  3.44655E+01  3.49257E+01  3.53470E+01  3.33128E+01
   3.27409E+01  2.84492E+01  2.73449E+01  2.28347E+01  2.46126E+01  2.18280E+01  2.46981E+01  2.27342E+01  2.60483E+01  2.41126E+01
   2.70184E+01  2.42821E+01  2.60706E+01  2.34584E+01  2.42175E+01  2.17583E+01  2.16980E+01  1.97889E+01  1.95804E+01  1.90684E+01
   1.91110E+01  1.97673E+01  1.97243E+01  2.10448E+01  2.04409E+01  2.18781E+01  2.04026E+01  2.16683E+01  1.94341E+01  2.01746E+01
   1.77773E+01  1.85651E+01  1.62890E+01  1.74858E+01  1.57769E+01  1.77436E+01  1.71025E+01  1.84211E+01  1.75697E+01  1.84140E+01
   1.71912E+01  1.73620E+01  1.55900E+01  1.49538E+01  1.40936E+01  1.39524E+01  1.35229E+01  1.35921E+01  1.34881E+01  1.36879E+01
   1.37783E+01  1.35153E+01  1.33353E+01  1.29525E+01  1.27251E+01  1.22915E+01  1.20358E+01  1.15900E+01  1.13431E+01  1.09431E+01
   1.07457E+01  1.03078E+01  1.00979E+01  9.63819E+00  9.43175E+00  8.98225E+00  8.79317E+00  8.34496E+00  8.19489E+00  7.73158E+00
   7.57185E+00  7.13529E+00  7.00501E+00  6.60693E+00  6.51200E+00  6.16625E+00  6.12136E+00  5.78058E+00  5.77867E+00  5.46231E+00
   5.51131E+00  5.24814E+00  5.33925E+00  5.13241E+00  5.27156E+00  5.08869E+00  5.24364E+00  5.07797E+00  5.24226E+00  5.10813E+00
   5.28718E+00  5.18558E+00  5.37529E+00  5.30028E+00  5.49875E+00  5.45073E+00  5.65618E+00  5.64607E+00  5.83259E+00  5.82988E+00
   5.98193E+00  5.98640E+00  6.11820E+00  6.13972E+00  6.25813E+00  6.32364E+00  6.44237E+00  6.48281E+00  6.56493E+00  6.56301E+00
   6.58267E+00  6.55037E+00  6.54247E+00  6.48394E+00  6.46061E+00  6.35690E+00  6.29912E+00  6.12495E+00  6.02373E+00  5.77932E+00
   5.63765E+00  5.32001E+00  5.12674E+00  4.72749E+00  4.47316E+00  3.99747E+00  3.68383E+00  3.14590E+00  2.78830E+00  2.20720E+00
   1.80915E+00  1.18569E+00  7.38517E-01  7.43352E-02 -4.25123E-01 -1.11827E+00 -1.66236E+00 -2.36542E+00 -2.94428E+00 -3.65025E+00
  -4.25511E+00 -4.96310E+00 -5.58850E+00 -6.28621E+00 -6.91470E+00 -7.57618E+00 -8.19252E+00 -8.84815E+00 -9.47124E+00 -1.01227E+01
  -1.07545E+01 -1.13882E+01 -1.20107E+01 -1.26186E+01 -1.32188E+01 -1.38104E+01 -1.43917E+01 -1.49809E+01 -1.55464E+01 -1.61233E+01
  -1.66682E+01 -1.72213E+01 -1.77254E+01 -1.82424E+01 -1.87100E+01 -1.92186E+01 -1.96959E+01 -2.01990E+01 -2.07076E+01 -2.12165E+01
  -2.17395E+01 -2.21925E+01 -2.26838E+01 -2.30413E+01 -2.34827E+01 -2.37755E+01 -2.42046E+01 -2.44181E+01 -2.48551E+01 -2.50248E+01
  -2.54886E+01 -2.56865E+01 -2.62599E+01 -2.63547E+01 -2.69013E+01 -2.68952E+01 -2.74049E+01 -2.73226E+01 -2.77937E+01 -2.76385E+01
  -2.80631E+01 -2.78358E+01 -2.82042E+01 -2.79401E+01 -2.82677E+01 -2.79813E+01 -2.82626E+01 -2.79537E+01 -2.81650E+01 -2.78197E+01
  -2.79412E+01 -2.75501E+01 -2.75606E+01 -2.71545E+01 -2.70787E+01 -2.66555E+01 -2.65047E+01 -2.61040E+01 -2.59511E+01 -2.55023E+01
  -2.52864E+01 -2.47996E+01 -2.45077E+01 -2.39512E+01 -2.36403E+01 -2.31055E+01 -2.27767E+01 -2.22172E+01 -2.18344E+01 -2.12642E+01
  -2.08517E+01 -2.03254E+01 -1.99269E+01 -1.93694E+01 -1.89340E+01 -1.83730E+01 -1.79282E+01 -1.73954E+01 -1.69761E+01 -1.65201E+01
  -1.61533E+01 -1.58187E+01 -1.55289E+01 -1.53292E+01 -1.51366E+01 -1.50818E+01 -1.50094E+01 -1.51096E+01 -1.51843E+01 -1.54594E+01
  -1.57081E+01 -1.61727E+01 -1.66163E+01 -1.72872E+01 -1.79317E+01 -1.87985E+01 -1.96278E+01 -2.06953E+01 -2.17202E+01 -2.29258E+01
  -2.40844E+01 -2.54072E+01 -2.66738E+01 -2.80656E+01 -2.94390E+01 -3.09110E+01 -3.23575E+01 -3.38707E+01 -3.53518E+01 -3.68704E+01
  -3.83491E+01 -3.98388E+01 -4.12648E+01 -4.26684E+01 -4.39915E+01 -4.52554E+01 -4.64067E+01 -4.74459E+01 -4.83294E+01 -4.90248E+01
  -4.94921E+01 -4.96751E+01 -4.95198E+01 -4.89588E+01 -4.79277E+01 -4.63525E+01 -4.41659E+01 -4.12995E+01 -3.76999E+01 -3.33216E+01
  -2.81436E+01 -2.21616E+01 -1.54033E+01 -7.91812E+00  2.10189E-01  8.87913E+00  1.79593E+01  2.73147E+01  3.67983E+01  4.62756E+01
   5.56237E+01  6.47577E+01  7.36334E+01  8.22822E+01  9.08352E+01  9.96187E+01  1.09369E+02  1.21778E+02  1.36243E+02  1.40302E+02
   1.46306E+02  1.42458E+02  1.41735E+02  1.32225E+02  1.25989E+02  1.10830E+02  1.10671E+02  1.00530E+02  1.00219E+02  9.12609E+01
   8.86297E+01  7.92447E+01  7.56832E+01  6.66225E+01  6.28716E+01  5.55922E+01  5.08284E+01  4.61297E+01  4.41990E+01  5.00858E+01
   4.51039E+01  4.73151E+01  4.08029E+01  4.10998E+01  3.39574E+01  3.22491E+01  2.27511E+01  3.07015E+01  2.45979E+01  3.17518E+01
   2.65017E+01  3.08626E+01  2.54259E+01  2.83136E+01  2.22897E+01  2.51081E+01  2.01493E+01  2.29115E+01  2.12106E+01  1.94537E+01
   1.71934E+01  1.51045E+01  1.38455E+01  1.25829E+01  1.10551E+01  8.90228E+00  1.16554E+01  1.14285E+01  1.46979E+01  1.29087E+01
   1.51803E+01  1.29488E+01  1.42982E+01  1.17783E+01  1.18366E+01  8.01689E+00  7.81089E+00  4.34270E+00  6.33753E+00  8.05235E+00
   8.93209E+00  8.93897E+00  8.76961E+00  6.24841E+00  4.20180E+00 -1.99081E+00 -5.87465E+00 -8.15695E+00 -9.64346E+00 -1.06432E+01
  -1.13107E+01 -1.17260E+01 -1.19467E+01 -1.20046E+01 -1.19315E+01 -1.17456E+01 -1.14711E+01 -1.11215E+01 -1.07178E+01 -1.02709E+01
  -9.80013E+00 -9.31591E+00 -8.83671E+00 -8.37141E+00 -7.93633E+00 -7.53812E+00 -7.19111E+00 -6.89997E+00 -6.67662E+00 -6.52274E+00
  -6.44704E+00 -6.44818E+00 -6.53222E+00 -6.69534E+00 -6.94091E+00 -7.26225E+00 -7.66009E+00 -8.12571E+00 -8.65830E+00 -9.24776E+00
  -9.89192E+00 -1.05794E+01 -1.13072E+01 -1.20638E+01 -1.28463E+01 -1.36433E+01 -1.44521E+01 -1.52617E+01 -1.60700E+01 -1.68671E+01
  -1.76520E+01 -1.84156E+01 -1.91578E+01 -1.98705E+01 -2.05547E+01 -2.12034E+01 -2.18189E+01 -2.23949E+01 -2.29343E+01 -2.34318E+01
  -2.38912E+01 -2.43080E+01 -2.46866E+01 -2.50227E+01 -2.53211E+01 -2.55780E+01 -2.57986E+01 -2.59796E+01 -2.61261E+01 -2.62349E+01
  -2.63113E+01 -2.63520E+01 -2.63629E+01 -2.63407E+01 -2.62908E+01 -2.62101E+01 -2.61040E+01 -2.59693E+01 -2.58117E+01 -2.56279E+01
  -2.54231E+01 -2.51941E+01 -2.49462E+01 -2.46760E+01 -2.43890E+01 -2.40816E+01 -2.37590E+01 -2.34176E+01 -2.30626E+01 -2.26904E+01
  -2.23063E+01 -2.19065E+01 -2.14959E+01 -2.10708E+01 -2.06364E+01 -2.01888E+01 -1.97330E+01 -1.92651E+01 -1.87900E+01 -1.83038E+01
  -1.78115E+01 -1.73091E+01 -1.68015E+01 -1.62845E+01 -1.57631E+01 -1.52333E+01 -1.46999E+01 -1.41588E+01 -1.36147E+01 -1.30636E+01
  -1.25102E+01 -1.19504E+01 -1.13890E+01 -1.08218E+01 -1.02535E+01 -9.67977E+00 -9.10544E+00 -8.52630E+00 -7.94701E+00 -7.36323E+00
  -6.77955E+00 -6.19163E+00 -5.60408E+00 -5.01246E+00 -4.42117E+00 -3.82551E+00 -3.22960E+00 -2.62831E+00
 NY background values follow
     2.891E+01    2.854E+01    2.818E+01    2.781E+01    2.744E+01    2.707E+01    2.670E+01    2.633E+01    2.596E+01    2.558E+01
     2.520E+01    2.483E+01    2.445E+01    2.407E+01    2.368E+01    2.330E+01    2.292E+01    2.254E+01    2.215E+01    2.177E+01
     2.138E+01    2.100E+01    2.061E+01    2.023E+01    1.984E+01    1.946E+01    1.907E+01    1.869E+01    1.830E+01    1.792E+01
     1.754E+01    1.715E+01    1.677E+01    1.639E+01    1.601E+01    1.563E+01    1.525E+01    1.487E+01    1.450E+01    1.412E+01
     1.375E+01    1.338E+01    1.301E+01    1.264E+01    1.227E+01    1.191E+01    1.155E+01    1.118E+01    1.083E+01    1.047E+01
     1.011E+01    9.763E+00    9.413E+00    9.066E+00    8.722E+00    8.381E+00    8.042E+00    7.706E+00    7.373E+00    7.044E+00
     6.717E+00    6.394E+00    6.074E+00    5.758E+00    5.445E+00    5.136E+00    4.831E+00    4.529E+00    4.231E+00    3.938E+00
     3.648E+00    3.363E+00    3.081E+00    2.804E+00    2.531E+00    2.261E+00    1.996E+00    1.733E+00    1.474E+00    1.218E+00
     9.652E-01    7.151E-01    4.676E-01    2.227E-01   -1.987E-02   -2.603E-01   -4.986E-01   -7.351E-01   -9.698E-01   -1.203E+00
    -1.435E+00   -1.665E+00   -1.895E+00   -2.123E+00   -2.351E+00   -2.578E+00   -2.805E+00   -3.031E+00   -3.258E+00   -3.484E+00
    -3.710E+00   -3.937E+00   -4.164E+00   -4.392E+00   -4.621E+00   -4.851E+00   -5.082E+00   -5.314E+00   -5.547E+00   -5.783E+00
    -6.020E+00   -6.258E+00   -6.499E+00   -6.743E+00   -6.988E+00   -7.236E+00   -7.487E+00   -7.741E+00   -7.998E+00   -8.258E+00
    -8.521E+00   -8.788E+00   -9.058E+00   -9.333E+00   -9.611E+00   -9.893E+00   -1.018E+01   -1.047E+01   -1.077E+01   -1.107E+01
    -1.137E+01   -1.168E+01   -1.200E+01   -1.232E+01   -1.265E+01   -1.298E+01   -1.332E+01   -1.366E+01   -1.401E+01   -1.437E+01
    -1.473E+01   -1.510E+01   -1.548E+01   -1.587E+01   -1.626E+01   -1.665E+01   -1.706E+01   -1.747E+01   -1.789E+01   -1.831E+01
    -1.874E+01   -1.918E+01   -1.962E+01   -2.007E+01   -2.053E+01   -2.099E+01   -2.146E+01   -2.193E+01   -2.241E+01   -2.289E+01
    -2.338E+01   -2.388E+01   -2.438E+01   -2.489E+01   -2.540E+01   -2.592E+01   -2.644E+01   -2.697E+01   -2.750E+01   -2.804E+01
    -2.858E+01   -2.912E+01   -2.968E+01   -3.023E+01   -3.079E+01   -3.136E+01   -3.193E+01   -3.250E+01   -3.308E+01   -3.366E+01
    -3.424E+01   -3.483E+01   -3.543E+01   -3.602E+01   -3.662E+01   -3.723E+01   -3.784E+01   -3.845E+01   -3.906E+01   -3.968E+01
    -4.030E+01   -4.092E+01   -4.155E+01   -4.218E+01   -4.281E+01   -4.345E+01   -4.409E+01   -4.473E+01   -4.537E+01   -4.602E+01
    -4.667E+01   -4.732E+01   -4.797E+01   -4.862E+01   -4.928E+01   -4.994E+01   -5.060E+01   -5.126E+01   -5.193E+01   -5.259E+01
    -5.326E+01   -5.393E+01   -5.460E+01   -5.527E+01   -5.594E+01   -5.662E+01   -5.729E+01   -5.797E+01   -5.864E+01   -5.932E+01
    -5.999E+01   -6.067E+01   -6.135E+01   -6.202E+01   -6.270E+01   -6.337E+01   -6.404E+01   -6.472E+01   -6.539E+01   -6.606E+01
    -6.672E+01   -6.739E+01   -6.805E+01   -6.872E+01   -6.937E+01   -7.003E+01   -7.068E+01   -7.134E+01   -7.198E+01   -7.263E+01
    -7.327E+01   -7.391E+01   -7.454E+01   -7.517E+01   -7.579E+01   -7.641E+01   -7.703E+01   -7.764E+01   -7.825E+01   -7.885E+01
    -7.945E+01   -8.004E+01   -8.062E+01   -8.120E+01   -8.177E+01   -8.234E+01   -8.290E+01   -8.346E+01   -8.400E+01   -8.454E+01
    -8.508E+01   -8.560E+01   -8.612E+01   -8.663E+01   -8.713E+01   -8.763E+01   -8.812E+01   -8.859E+01   -8.906E+01   -8.952E+01
    -8.998E+01   -9.042E+01   -9.085E+01   -9.128E+01   -9.169E+01   -9.210E+01   -9.249E+01   -9.288E+01   -9.325E+01   -9.361E+01
    -9.397E+01   -9.431E+01   -9.464E+01   -9.496E+01   -9.527E+01   -9.556E+01   -9.585E+01   -9.612E+01   -9.638E+01   -9.664E+01
    -9.688E+01   -9.710E+01   -9.732E+01   -9.753E+01   -9.772E+01   -9.791E+01   -9.808E+01   -9.825E+01   -9.840E+01   -9.854E+01
    -9.868E+01   -9.880E+01   -9.891E+01   -9.901E+01   -9.911E+01   -9.919E+01   -9.926E+01   -9.932E+01   -9.938E+01   -9.942E+01
    -9.946E+01   -9.948E+01   -9.950E+01   -9.950E+01   -9.950E+01   -9.949E+01   -9.947E+01   -9.944E+01   -9.940E+01   -9.936E+01
    -9.930E+01   -9.924E+01   -9.917E+01   -9.909E+01   -9.900E+01   -9.891E+01   -9.880E+01   -9.869E+01   -9.857E+01   -9.844E+01
    -9.831E+01   -9.816E+01   -9.801E+01   -9.786E+01   -9.769E+01   -9.752E+01   -9.734E+01   -9.716E+01   -9.696E+01   -9.676E+01
    -9.656E+01   -9.634E+01   -9.612E+01   -9.590E+01   -9.566E+01   -9.543E+01   -9.518E+01   -9.493E+01   -9.467E+01   -9.441E+01
    -9.414E+01   -9.386E+01   -9.358E+01   -9.330E+01   -9.301E+01   -9.271E+01   -9.241E+01   -9.210E+01   -9.179E+01   -9.147E+01
    -9.114E+01   -9.082E+01   -9.048E+01   -9.014E+01   -8.980E+01   -8.945E+01   -8.909E+01   -8.873E+01   -8.837E+01   -8.800E+01
    -8.762E+01   -8.724E+01   -8.686E+01   -8.647E+01   -8.607E+01   -8.567E+01   -8.526E+01   -8.485E+01   -8.444E+01   -8.402E+01
    -8.359E+01   -8.316E+01   -8.272E+01   -8.228E+01   -8.184E+01   -8.139E+01   -8.093E+01   -8.047E+01   -8.001E+01   -7.954E+01
    -7.906E+01   -7.858E+01   -7.810E+01   -7.761E+01   -7.711E+01   -7.661E+01   -7.611E+01   -7.560E+01   -7.509E+01   -7.457E+01
    -7.405E+01   -7.352E+01   -7.299E+01   -7.245E+01   -7.191E+01   -7.137E+01   -7.082E+01   -7.026E+01   -6.970E+01   -6.914E+01
    -6.857E+01   -6.800E+01   -6.742E+01   -6.684E+01   -6.625E+01   -6.566E+01   -6.506E+01   -6.447E+01   -6.386E+01   -6.325E+01
    -6.264E+01   -6.202E+01   -6.140E+01   -6.077E+01   -6.014E+01   -5.951E+01   -5.887E+01   -5.822E+01   -5.758E+01   -5.692E+01
    -5.627E+01   -5.561E+01   -5.495E+01   -5.428E+01   -5.361E+01   -5.293E+01   -5.225E+01   -5.157E+01   -5.089E+01   -5.020E+01
    -4.951E+01   -4.882E+01   -4.812E+01   -4.742E+01   -4.672E+01   -4.602E+01   -4.531E+01   -4.461E+01   -4.390E+01   -4.318E+01
    -4.247E+01   -4.175E+01   -4.104E+01   -4.032E+01   -3.960E+01   -3.887E+01   -3.815E+01   -3.743E+01   -3.670E+01   -3.597E+01
    -3.524E+01   -3.452E+01   -3.379E+01   -3.306E+01   -3.233E+01   -3.160E+01   -3.086E+01   -3.013E+01   -2.940E+01   -2.867E+01
    -2.794E+01   -2.721E+01   -2.648E+01   -2.575E+01   -2.502E+01   -2.429E+01   -2.356E+01   -2.283E+01   -2.211E+01   -2.138E+01
    -2.066E+01   -1.993E+01   -1.921E+01   -1.849E+01   -1.777E+01   -1.706E+01   -1.634E+01   -1.563E+01   -1.492E+01   -1.421E+01
    -1.350E+01   -1.280E+01   -1.209E+01   -1.139E+01   -1.070E+01   -1.000E+01   -9.310E+00   -8.621E+00
 Ala      Conc. = 2.82E+04
