 LCModel (Version 6.3-1L) Copyright: S.W. Provencher.          Ref.: Magn. Reson. Med. 30:672-679 (1993).                
 Slice#3 Row#2 Col#8  PD_24_press_2_raw_act
 36 lines in following concentration table = NCONC+1
    Conc.  %SD /Cr+PCr  Metabolite                                         
   72.324 111%   0.242 Ala                                                 
   38.563  96%   0.129 Asp                                                 
    0.000 999%   0.000 Cr                                                  
  299.439  24%   1.000 PCr                                                 
   22.025 101% 7.4E-02 GABA                                                
   19.367 115% 6.5E-02 Glc                                                 
    0.000 999%   0.000 Gln                                                 
    6.820 999% 2.3E-02 Glu                                                 
   28.232 299% 9.4E-02 GPC                                                 
   36.419 233%   0.122 PCh                                                 
  160.132  43%   0.535 GSH                                                 
  272.140  74%   0.909 Ins                                                 
    0.000 999%   0.000 Lac                                                 
  151.894  42%   0.507 NAA                                                 
  129.008  46%   0.431 NAAG                                                
    9.301  78% 3.1E-02 Scyllo                                              
   38.796  95%   0.130 Tau                                                 
    0.333 999% 1.1E-03 -CrCH2                                              
   64.651  34%   0.216 GPC+PCh                                             
  280.902  32%   0.938 NAA+NAAG                                            
  299.439  24%   1.000 Cr+PCr                                              
    6.820 999% 2.3E-02 Glu+Gln                                             
  253.493 172%   0.847 Lip13a                                              
    0.000 999%   0.000 Lip13b                                              
  103.011 169%   0.344 Lip09                                               
 1.67E+03  18%   5.570 MM09                                                
    0.000 999%   0.000 Lip20                                               
  610.412  75%   2.039 MM20                                                
  608.853  34%   2.033 MM12                                                
 2.54E+03  17%   8.493 MM14                                                
  351.600  97%   1.174 MM17                                                
  253.493 172%   0.847 Lip13a+Lip13b                                       
 3.41E+03  13%  11.373 MM14+Lip13a+Lip13b+MM12                             
 1.77E+03  15%   5.914 MM09+Lip09                                          
  610.412  75%   2.039 MM20+Lip20                                          
   6 lines in following misc. output table
  FWHM = 0.038 ppm    S/N =   1                                            
  Data shift =-0.023 ppm                                                   
  Ph: -45 deg     -12.1 deg/ppm                                            
  alphaB,S = 8.5E+01,   1.3E+01                                            
   14 spline knots.   Ns = 5(1)                                            
   2 inflections.     2 extrema                                            
  498 points on ppm-axis = NY
      4.000000     3.992357     3.984714     3.977070     3.969427     3.961784     3.954141     3.946497     3.938854     3.931211
      3.923568     3.915925     3.908281     3.900638     3.892995     3.885352     3.877708     3.870065     3.862422     3.854779
      3.847136     3.839492     3.831849     3.824206     3.816563     3.808919     3.801276     3.793633     3.785990     3.778347
      3.770703     3.763060     3.755417     3.747774     3.740130     3.732487     3.724844     3.717201     3.709558     3.701914
      3.694271     3.686628     3.678985     3.671341     3.663698     3.656055     3.648412     3.640769     3.633125     3.625482
      3.617839     3.610196     3.602552     3.594909     3.587266     3.579623     3.571980     3.564336     3.556693     3.549050
      3.541407     3.533763     3.526120     3.518477     3.510834     3.503191     3.495547     3.487904     3.480261     3.472618
      3.464974     3.457331     3.449688     3.442045     3.434402     3.426758     3.419115     3.411472     3.403829     3.396185
      3.388542     3.380899     3.373256     3.365613     3.357969     3.350326     3.342683     3.335040     3.327396     3.319753
      3.312110     3.304467     3.296824     3.289180     3.281537     3.273894     3.266251     3.258607     3.250964     3.243321
      3.235678     3.228034     3.220391     3.212748     3.205105     3.197462     3.189818     3.182175     3.174532     3.166889
      3.159245     3.151602     3.143959     3.136316     3.128673     3.121029     3.113386     3.105743     3.098100     3.090456
      3.082813     3.075170     3.067527     3.059884     3.052240     3.044597     3.036954     3.029311     3.021667     3.014024
      3.006381     2.998738     2.991095     2.983451     2.975808     2.968165     2.960522     2.952878     2.945235     2.937592
      2.929949     2.922306     2.914662     2.907019     2.899376     2.891733     2.884089     2.876446     2.868803     2.861160
      2.853517     2.845873     2.838230     2.830587     2.822944     2.815300     2.807657     2.800014     2.792371     2.784728
      2.777084     2.769441     2.761798     2.754155     2.746511     2.738868     2.731225     2.723582     2.715939     2.708295
      2.700652     2.693009     2.685366     2.677722     2.670079     2.662436     2.654793     2.647150     2.639506     2.631863
      2.624220     2.616577     2.608933     2.601290     2.593647     2.586004     2.578361     2.570717     2.563074     2.555431
      2.547788     2.540144     2.532501     2.524858     2.517215     2.509572     2.501928     2.494285     2.486642     2.478999
      2.471355     2.463712     2.456069     2.448426     2.440783     2.433139     2.425496     2.417853     2.410210     2.402566
      2.394923     2.387280     2.379637     2.371994     2.364350     2.356707     2.349064     2.341421     2.333777     2.326134
      2.318491     2.310848     2.303205     2.295561     2.287918     2.280275     2.272632     2.264988     2.257345     2.249702
      2.242059     2.234416     2.226772     2.219129     2.211486     2.203843     2.196199     2.188556     2.180913     2.173270
      2.165627     2.157983     2.150340     2.142697     2.135054     2.127410     2.119767     2.112124     2.104481     2.096838
      2.089194     2.081551     2.073908     2.066265     2.058621     2.050978     2.043335     2.035692     2.028049     2.020405
      2.012762     2.005119     1.997476     1.989833     1.982190     1.974546     1.966903     1.959260     1.951617     1.943974
      1.936331     1.928688     1.921045     1.913402     1.905759     1.898115     1.890472     1.882829     1.875186     1.867543
      1.859900     1.852257     1.844614     1.836971     1.829327     1.821684     1.814041     1.806398     1.798755     1.791112
      1.783469     1.775826     1.768183     1.760540     1.752896     1.745253     1.737610     1.729967     1.722324     1.714681
      1.707038     1.699395     1.691752     1.684108     1.676465     1.668822     1.661179     1.653536     1.645893     1.638250
      1.630607     1.622964     1.615321     1.607677     1.600034     1.592391     1.584748     1.577105     1.569462     1.561819
      1.554176     1.546533     1.538890     1.531246     1.523603     1.515960     1.508317     1.500674     1.493031     1.485388
      1.477745     1.470102     1.462458     1.454815     1.447172     1.439529     1.431886     1.424243     1.416600     1.408957
      1.401314     1.393671     1.386027     1.378384     1.370741     1.363098     1.355455     1.347812     1.340169     1.332526
      1.324883     1.317240     1.309596     1.301953     1.294310     1.286667     1.279024     1.271381     1.263738     1.256095
      1.248452     1.240808     1.233165     1.225522     1.217879     1.210236     1.202593     1.194950     1.187307     1.179664
      1.172021     1.164377     1.156734     1.149091     1.141448     1.133805     1.126162     1.118519     1.110876     1.103233
      1.095590     1.087946     1.080303     1.072660     1.065017     1.057374     1.049731     1.042088     1.034445     1.026802
      1.019158     1.011515     1.003872     0.996229     0.988586     0.980943     0.973300     0.965657     0.958014     0.950371
      0.942727     0.935084     0.927441     0.919798     0.912155     0.904512     0.896869     0.889226     0.881583     0.873940
      0.866296     0.858653     0.851010     0.843367     0.835724     0.828081     0.820438     0.812795     0.805152     0.797508
      0.789865     0.782222     0.774579     0.766936     0.759293     0.751650     0.744007     0.736364     0.728721     0.721077
      0.713434     0.705791     0.698148     0.690505     0.682862     0.675219     0.667576     0.659933     0.652290     0.644646
      0.637003     0.629360     0.621717     0.614074     0.606431     0.598788     0.591145     0.583502     0.575858     0.568215
      0.560572     0.552929     0.545286     0.537643     0.530000     0.522357     0.514714     0.507071     0.499427     0.491784
      0.484141     0.476498     0.468855     0.461212     0.453569     0.445925     0.438282     0.430639     0.422996     0.415353
      0.407710     0.400067     0.392424     0.384780     0.377137     0.369494     0.361851     0.354208     0.346565     0.338922
      0.331278     0.323635     0.315992     0.308349     0.300706     0.293063     0.285420     0.277777     0.270133     0.262490
      0.254847     0.247204     0.239561     0.231918     0.224275     0.216631     0.208988     0.201345
 NY phased data points follow
   1.52699E+01  7.96907E+00  8.93740E+00 -1.07546E+01 -1.51682E+01 -2.93352E+01 -1.32020E+01 -8.44741E+00  1.83539E+00  3.16540E-01
   8.68969E+00 -4.49531E+00  1.32772E+00 -4.82459E+00 -8.97441E+00 -1.09957E+01 -9.63786E+00 -1.74318E+01 -1.21709E+01 -9.96249E+00
   5.01386E+00 -6.11508E+00  1.29295E+00 -1.49519E+01 -7.92806E+00 -1.16920E+01 -1.64903E+01 -2.90706E+01 -2.10228E+01 -1.71988E+01
  -8.08732E+00 -2.98677E+00  4.71084E+00 -5.51937E+00 -4.32128E+00 -2.73314E+01 -1.59377E+01 -1.68677E+01 -1.83642E+01 -3.69627E+00
  -6.02049E+00 -1.17418E+01 -1.07761E+01 -1.74069E+01 -1.75641E+01 -9.00561E+00 -1.40804E+01 -1.00358E+01 -9.38037E+00 -1.91514E+01
  -3.48321E+00 -1.24260E+01  2.32353E-01 -1.76141E+01 -1.01789E+01 -1.00388E+01 -4.77348E+00 -1.72953E+01 -9.36439E+00 -8.88419E+00
  -2.35617E+01 -8.96339E+00 -6.37272E+00 -5.30383E+00 -1.34261E+01 -2.27700E+00 -1.35522E+01 -5.90285E+00 -1.51181E+01 -1.73802E+01
  -7.83902E+00 -1.57431E+01 -4.52214E+00 -1.33148E+00 -1.71371E+01 -1.44812E+01 -4.66571E+00 -1.97792E+01 -1.03704E+01 -2.02016E+01
  -4.46174E+00 -1.60553E+01 -1.66723E+01 -2.42722E+01 -5.23341E+00 -4.97669E+00 -1.05876E+01 -7.25487E+00  1.49748E+00 -1.74391E+01
  -1.34356E+01 -1.26950E+01 -4.03537E+00 -1.40289E+01 -3.80104E+00 -1.92416E+01 -1.31060E+01 -1.52117E+01 -6.09412E+00 -7.27583E+00
  -2.22047E+01 -1.01299E+01 -6.05304E+00 -3.15310E+00 -2.33705E+00 -1.82223E+00  1.57278E+00  1.07327E+00  1.10702E-01 -8.94756E+00
  -8.10382E+00 -1.17394E+01 -4.39300E-01 -6.58640E-01 -5.41412E+00 -1.78662E+01 -2.55493E+01 -1.22096E+01  2.34420E+00 -1.22360E+01
  -8.83957E+00 -1.33471E+01 -1.14497E+01 -2.71886E+01 -2.26582E+01 -1.55401E+01 -3.89284E+00  2.92586E+00  8.89978E+00  1.87989E+00
   9.42847E+00 -3.36689E+00  5.76420E-02 -4.31214E+00 -6.55378E+00 -1.28046E+01 -1.20642E+01 -2.22714E+01 -9.28578E-02 -7.32659E+00
  -8.92527E+00 -1.43818E+01 -1.67070E+01 -1.35008E+01 -1.12106E+01 -1.75175E+01 -9.94370E+00 -1.47754E+01 -8.39239E+00 -1.01692E+01
  -1.02684E+01 -1.39766E+01 -1.40737E+01 -1.14229E+01 -1.42666E+01 -2.10782E+01 -3.77582E+00 -7.30389E+00 -1.74048E+01 -1.45683E+01
  -9.73368E+00 -1.82619E+01 -6.01764E+00 -1.24263E+01 -1.50344E+01 -2.10875E+01 -1.22151E+01 -2.65523E+01 -6.29745E+00 -1.09427E+01
  -8.76590E+00 -3.18650E+00 -1.61599E+01 -1.05653E+01 -2.17087E+00 -1.46194E+01 -1.42508E+01 -2.64307E+01 -1.17895E+01 -1.70477E+01
  -8.02433E+00 -1.18490E+01 -1.23816E+01 -1.30739E+01 -1.69534E+01 -1.58682E+01 -6.32060E+00 -1.19324E+01 -1.43549E+01 -1.48572E+01
  -1.46684E+01 -1.23208E+01 -1.24825E+01 -1.28923E+01 -1.34573E+01 -7.84045E+00 -6.58624E+00 -1.01240E+01 -9.06396E-01 -1.33384E+01
  -1.42965E+01 -1.36348E+01 -8.00055E+00 -1.90222E+01 -7.16913E+00 -3.53693E+00  2.11232E-01 -1.58323E+01 -8.47635E+00 -4.16737E-01
   3.89444E+00 -7.45133E+00 -7.31848E+00 -4.55756E+00 -6.00353E+00 -7.28776E+00 -1.29979E+01  2.87349E+00  2.01779E+00 -2.85974E+00
  -4.47034E+00 -9.01070E+00 -1.93093E+01 -1.66245E+00 -1.06719E+01 -2.84539E+00 -6.80486E+00 -1.70521E+01 -4.62595E+00 -8.56542E+00
  -1.06496E+01 -1.43896E+01 -9.04354E+00 -1.69920E+01 -3.63875E+00 -5.67586E+00 -7.70961E+00 -1.20156E+01  2.42779E+00 -7.35839E+00
  -5.38231E+00 -8.74804E-01 -1.19490E+01 -1.77578E+00 -8.51240E+00 -7.99966E+00 -1.66066E+01 -1.42717E+00 -6.59892E+00 -6.82920E+00
  -2.65185E+00 -1.20975E+01 -9.08759E+00 -8.06726E+00 -1.01777E+01 -1.03489E+01 -4.67674E+00 -1.10807E+01  6.92611E+00 -2.46906E+00
   9.48687E+00  2.37393E+00  1.06458E+01 -6.07016E+00  1.25267E+01 -1.11104E+01  8.81086E-01 -1.65085E+01 -1.32636E+01  5.46134E-01
  -1.21402E+01 -5.66556E+00 -6.84457E+00 -1.48603E+01 -1.10661E+01 -7.43211E+00 -4.93121E+00 -7.76768E+00 -6.30971E+00 -1.60174E+01
  -4.49786E+00 -2.34688E+01 -1.68333E+01 -8.94666E-02 -6.97422E+00 -5.08188E+00 -1.26824E+01 -5.43781E+00 -7.14638E+00 -2.23937E+01
  -7.73952E+00 -1.52773E+01 -8.40694E+00 -8.61512E+00 -4.84652E+00 -7.09630E+00 -1.24533E+01 -6.30993E+00 -9.80643E+00 -6.90786E+00
  -1.81345E+01 -1.03940E+00 -4.14529E+00 -1.01475E+01  7.89795E+00 -5.32777E+00 -1.29342E+01  1.54440E+00 -1.69349E+00  5.01522E-01
  -8.85018E+00 -4.55299E+00  1.92839E+00 -1.15387E+01 -1.05471E+01  1.19278E+01 -1.53966E+00 -6.93707E+00 -3.39318E+00 -1.19456E+01
  -1.66103E+00 -2.54097E+00 -3.34614E+00 -3.93988E+00 -5.19869E+00 -9.20818E+00  7.17816E+00  2.85016E+00 -3.55424E-01  7.66608E+00
   2.14335E+00  7.84010E+00  6.15791E+00 -1.96654E+00  5.00450E+00  8.26703E+00  4.32715E+00  7.86958E+00  9.40500E+00  1.24870E+01
   1.39015E+01  2.31419E+01  1.48047E+01  9.34081E+00  4.42302E+00  2.20598E+01  3.02730E+00 -3.32583E+00  3.78442E+00  1.16336E+01
   6.30748E+00  4.55479E-01  6.46111E-02 -9.63630E+00  9.16086E+00  2.74633E+00 -5.34777E+00  8.53227E+00  1.77930E+00 -1.26642E+01
  -9.55637E+00 -2.23644E+00 -1.31939E+01 -8.11712E+00 -1.39213E+01 -3.47829E+00 -7.57520E-01  9.74077E+00  5.42394E+00  6.45004E+00
   3.67783E+00 -3.69009E+00  9.93163E+00  7.90544E+00  6.93023E+00  2.97439E+00  3.58970E-01  4.37735E+00  1.22048E-02 -6.07067E+00
   1.02594E+01  6.10112E+00  9.62883E+00  1.22875E+01  1.03368E+01  6.47544E+00 -3.41059E+00  6.39771E+00  1.35588E+01  2.38918E+00
   1.14938E+00  8.16130E+00  2.33439E+01  7.17745E+00  1.27952E+01  4.65874E+00  8.72367E+00 -1.82177E-01  1.29285E+01  3.01698E+00
   7.40065E+00  3.57091E+00 -5.44824E+00  6.48059E+00  3.95027E+00  1.23740E+00  1.14885E+01  7.71104E+00 -1.27268E+01  6.63017E+00
   7.85567E+00  1.65123E+01  2.98890E+00  1.77303E+01  3.55062E+00  5.91830E+00  4.58792E+00 -3.15280E+00  8.45408E+00 -8.30402E+00
   2.53313E+00 -9.28810E+00 -9.87809E-01  8.54907E-01  1.14923E+01 -7.27012E+00  2.04564E+00 -3.89466E+00  3.91454E+00 -8.77005E+00
  -1.40936E+00 -2.01747E+00  1.08809E+00  5.35934E-01 -7.57909E-01 -7.69314E+00 -8.11820E-01 -5.05900E+00 -9.52863E+00 -8.12541E+00
  -1.13293E+01 -4.14088E+00 -8.47943E+00 -4.15825E+00 -7.80147E+00  2.02530E+00 -1.84984E+00 -1.21484E+01 -8.11903E+00 -1.19926E+01
  -5.66982E+00 -5.24133E+00 -4.67332E+00 -1.66325E+00  2.11901E+00 -1.57450E+01 -1.90266E+00  1.93203E+00  4.02375E+00  6.07257E+00
  -9.66836E-01 -1.35992E+01  9.60262E-01  8.72255E+00 -1.86365E+01 -1.05380E+00 -3.34993E+00  4.85496E-01 -1.29916E+01 -1.86273E+00
  -1.06738E+01 -1.02635E+01 -1.20455E+01  5.09586E+00 -5.45841E+00 -7.17065E+00 -2.33033E+00  1.21670E+00  7.25910E-02 -1.59845E+01
  -5.12651E+00 -5.66424E+00  1.36679E+00 -2.67305E+00 -1.87914E+00  2.96237E-01 -1.73892E+01 -1.13850E+01 -6.28779E+00 -7.87966E+00
   4.47415E+00 -1.60567E+00 -8.30799E-01 -8.54067E+00  6.27013E+00 -3.52589E+00 -1.01130E+01 -3.80059E+00
 NY points of the fit to the data follow
  -1.08428E+01 -1.12689E+01 -1.17545E+01 -1.26926E+01 -1.48206E+01 -1.66759E+01 -1.60153E+01 -1.23608E+01 -7.14805E+00 -2.34284E+00
   6.50104E-01  1.24371E+00 -3.83447E-01 -3.57725E+00 -7.16499E+00 -9.74626E+00 -1.07166E+01 -1.11077E+01 -1.14119E+01 -1.15542E+01
  -1.15025E+01 -1.13308E+01 -1.11249E+01 -1.09995E+01 -1.12249E+01 -1.24503E+01 -1.42410E+01 -1.49298E+01 -1.35274E+01 -1.05453E+01
  -7.24719E+00 -4.72570E+00 -3.62288E+00 -4.14651E+00 -5.98528E+00 -8.26972E+00 -9.93180E+00 -1.03600E+01 -1.01633E+01 -1.00837E+01
  -1.02112E+01 -1.05323E+01 -1.11774E+01 -1.21822E+01 -1.30395E+01 -1.30052E+01 -1.18333E+01 -9.99122E+00 -8.23118E+00 -7.12083E+00
  -6.90583E+00 -7.54826E+00 -8.79777E+00 -1.01804E+01 -1.12193E+01 -1.17551E+01 -1.19311E+01 -1.18903E+01 -1.16071E+01 -1.10386E+01
  -1.03021E+01 -9.63469E+00 -9.25298E+00 -9.25467E+00 -9.61857E+00 -1.01983E+01 -1.07259E+01 -1.10552E+01 -1.11878E+01 -1.11048E+01
  -1.08714E+01 -1.05990E+01 -1.03302E+01 -1.00575E+01 -9.79220E+00 -9.57905E+00 -9.48026E+00 -9.55871E+00 -9.79697E+00 -1.00701E+01
  -1.03258E+01 -1.06102E+01 -1.07901E+01 -1.06365E+01 -1.01451E+01 -9.58186E+00 -9.27670E+00 -9.39459E+00 -9.85701E+00 -1.04496E+01
  -1.09910E+01 -1.13581E+01 -1.14709E+01 -1.12846E+01 -1.09566E+01 -1.06446E+01 -1.04404E+01 -1.05868E+01 -1.18432E+01 -1.40453E+01
  -1.51653E+01 -1.35813E+01 -9.56655E+00 -4.75298E+00 -8.14075E-01  1.21501E+00  1.06942E+00 -9.87491E-01 -4.19636E+00 -7.28977E+00
  -9.07059E+00 -9.62877E+00 -9.81533E+00 -9.90136E+00 -9.94129E+00 -9.92106E+00 -9.86406E+00 -9.82599E+00 -9.84635E+00 -9.95801E+00
  -1.03128E+01 -1.18393E+01 -1.53349E+01 -1.80574E+01 -1.66560E+01 -1.07089E+01 -2.61338E+00  4.60230E+00  8.85265E+00  9.37830E+00
   6.77930E+00  2.33440E+00 -2.19739E+00 -5.02339E+00 -5.88404E+00 -6.63713E+00 -7.88386E+00 -9.40889E+00 -1.07141E+01 -1.13332E+01
  -1.10811E+01 -1.01902E+01 -9.17344E+00 -8.38781E+00 -7.99926E+00 -8.01595E+00 -8.28001E+00 -8.58878E+00 -8.83882E+00 -8.95674E+00
  -9.00441E+00 -9.07136E+00 -9.22957E+00 -9.47686E+00 -9.75233E+00 -9.93102E+00 -9.90655E+00 -9.72641E+00 -9.53331E+00 -9.43875E+00
  -9.49194E+00 -9.65136E+00 -9.82699E+00 -9.93591E+00 -9.94412E+00 -9.85044E+00 -9.72398E+00 -9.69888E+00 -9.81249E+00 -9.97538E+00
  -1.00508E+01 -9.94615E+00 -9.72514E+00 -9.58064E+00 -9.60214E+00 -9.73797E+00 -9.87791E+00 -9.95287E+00 -9.95200E+00 -9.95975E+00
  -1.00113E+01 -1.00463E+01 -1.00459E+01 -1.00652E+01 -1.01559E+01 -1.03425E+01 -1.06139E+01 -1.08572E+01 -1.08602E+01 -1.04160E+01
  -9.54337E+00 -8.47475E+00 -7.52943E+00 -6.89107E+00 -6.81849E+00 -7.50862E+00 -8.73608E+00 -9.95931E+00 -1.07202E+01 -1.08957E+01
  -1.05978E+01 -1.00042E+01 -9.26864E+00 -8.58905E+00 -8.16256E+00 -8.07014E+00 -8.15037E+00 -8.26806E+00 -8.38354E+00 -8.48060E+00
  -8.55863E+00 -8.63375E+00 -8.72431E+00 -8.80637E+00 -8.85524E+00 -8.86399E+00 -8.83587E+00 -8.76315E+00 -8.66677E+00 -8.59574E+00
  -8.57437E+00 -8.55474E+00 -8.48429E+00 -8.33620E+00 -8.13315E+00 -7.90934E+00 -7.62411E+00 -7.27146E+00 -7.06150E+00 -7.23073E+00
  -7.79817E+00 -8.55705E+00 -9.24300E+00 -9.62972E+00 -9.41632E+00 -8.44827E+00 -6.97355E+00 -5.54599E+00 -4.71398E+00 -4.70692E+00
  -5.42820E+00 -6.66819E+00 -8.02732E+00 -8.99045E+00 -9.19131E+00 -8.64618E+00 -7.72028E+00 -6.75571E+00 -5.97878E+00 -5.55111E+00
  -5.71976E+00 -7.03231E+00 -8.88618E+00 -9.60778E+00 -8.39883E+00 -6.37169E+00 -4.88858E+00 -3.46969E+00 -1.25627E+00  1.57405E+00
   3.97065E+00  5.09746E+00  4.96308E+00  4.04355E+00  2.20179E+00 -5.19579E-01 -3.27271E+00 -5.04425E+00 -5.76335E+00 -6.15528E+00
  -6.43488E+00 -6.62862E+00 -6.72905E+00 -6.73973E+00 -6.70184E+00 -6.67456E+00 -6.69641E+00 -6.77295E+00 -6.88759E+00 -7.01917E+00
  -7.13967E+00 -7.22278E+00 -7.25476E+00 -7.24067E+00 -7.20182E+00 -7.15032E+00 -7.09053E+00 -7.04029E+00 -7.01637E+00 -7.00668E+00
  -6.98228E+00 -6.92471E+00 -6.83373E+00 -6.71087E+00 -6.56272E+00 -6.40351E+00 -6.25428E+00 -6.13080E+00 -6.03205E+00 -5.93982E+00
  -5.84277E+00 -5.73796E+00 -5.62501E+00 -5.50584E+00 -5.38540E+00 -5.27149E+00 -5.17108E+00 -5.08224E+00 -5.00008E+00 -4.92060E+00
  -4.83882E+00 -4.74968E+00 -4.64789E+00 -4.52779E+00 -4.38334E+00 -4.20814E+00 -3.99589E+00 -3.74085E+00 -3.43861E+00 -3.08752E+00
  -2.69262E+00 -2.28040E+00 -1.91053E+00 -1.41055E+00 -4.31090E-01  1.03004E+00  2.60460E+00  3.89260E+00  4.71479E+00  5.11650E+00
   5.10183E+00  4.59108E+00  3.90183E+00  3.63842E+00  4.17049E+00  5.31026E+00  6.65512E+00  7.93880E+00  8.94582E+00  9.52293E+00
   9.58659E+00  9.20785E+00  8.65401E+00  8.14632E+00  7.64844E+00  7.12851E+00  6.58301E+00  6.01801E+00  5.44301E+00  4.86851E+00
   4.30472E+00  3.76082E+00  3.24451E+00  2.76172E+00  2.31655E+00  1.91130E+00  1.54666E+00  1.22184E+00  9.34831E-01  6.82663E-01
   4.61696E-01  2.67950E-01  9.73661E-02 -5.39585E-02 -1.89590E-01 -3.12580E-01 -4.25306E-01 -5.29359E-01 -6.25500E-01 -7.13663E-01
  -7.92978E-01 -8.61794E-01 -9.17715E-01 -9.57678E-01 -9.78072E-01 -9.74873E-01 -9.43771E-01 -8.80306E-01 -7.80003E-01 -6.38572E-01
  -4.52128E-01 -2.17425E-01  6.79220E-02  4.05220E-01  7.94469E-01  1.23413E+00  1.72091E+00  2.24963E+00  2.81318E+00  3.40258E+00
   4.00708E+00  4.61442E+00  5.21114E+00  5.78306E+00  6.31582E+00  6.79553E+00  7.20929E+00  7.54582E+00  7.79594E+00  7.95302E+00
   8.01329E+00  7.97598E+00  7.84326E+00  7.62007E+00  7.31381E+00  6.93389E+00  6.49129E+00  5.99795E+00  5.46619E+00  4.90825E+00
   4.33574E+00  3.75937E+00  3.18863E+00  2.63161E+00  2.09487E+00  1.58347E+00  1.10105E+00  6.49951E-01  2.31384E-01 -1.54412E-01
  -5.07998E-01 -8.30545E-01 -1.12364E+00 -1.38916E+00 -1.62912E+00 -1.84562E+00 -2.04078E+00 -2.21664E+00 -2.37512E+00 -2.51799E+00
  -2.64688E+00 -2.76329E+00 -2.86859E+00 -2.96397E+00 -3.05050E+00 -3.12910E+00 -3.20062E+00 -3.26579E+00 -3.32528E+00 -3.37965E+00
  -3.42940E+00 -3.47495E+00 -3.51671E+00 -3.55503E+00 -3.59023E+00 -3.62258E+00 -3.65230E+00 -3.67960E+00 -3.70468E+00 -3.72773E+00
  -3.74891E+00 -3.76835E+00 -3.78616E+00 -3.80246E+00 -3.81737E+00 -3.83098E+00 -3.84339E+00 -3.85466E+00 -3.86484E+00 -3.87401E+00
  -3.88226E+00 -3.88963E+00 -3.89618E+00 -3.90194E+00 -3.90694E+00 -3.91125E+00 -3.91491E+00 -3.91796E+00 -3.92041E+00 -3.92229E+00
  -3.92362E+00 -3.92446E+00 -3.92483E+00 -3.92475E+00 -3.92423E+00 -3.92328E+00 -3.92193E+00 -3.92021E+00 -3.91815E+00 -3.91574E+00
  -3.91300E+00 -3.90993E+00 -3.90656E+00 -3.90292E+00 -3.89901E+00 -3.89484E+00 -3.89040E+00 -3.88572E+00 -3.88081E+00 -3.87570E+00
  -3.87038E+00 -3.86484E+00 -3.85911E+00 -3.85319E+00 -3.84710E+00 -3.84086E+00 -3.83446E+00 -3.82789E+00
 NY background values follow
    -1.213E+01   -1.212E+01   -1.210E+01   -1.209E+01   -1.207E+01   -1.206E+01   -1.204E+01   -1.203E+01   -1.201E+01   -1.200E+01
    -1.198E+01   -1.197E+01   -1.195E+01   -1.194E+01   -1.192E+01   -1.191E+01   -1.189E+01   -1.188E+01   -1.186E+01   -1.185E+01
    -1.183E+01   -1.182E+01   -1.180E+01   -1.179E+01   -1.177E+01   -1.176E+01   -1.174E+01   -1.173E+01   -1.171E+01   -1.170E+01
    -1.168E+01   -1.167E+01   -1.165E+01   -1.164E+01   -1.162E+01   -1.161E+01   -1.159E+01   -1.158E+01   -1.156E+01   -1.155E+01
    -1.153E+01   -1.151E+01   -1.150E+01   -1.148E+01   -1.147E+01   -1.145E+01   -1.144E+01   -1.142E+01   -1.141E+01   -1.139E+01
    -1.138E+01   -1.136E+01   -1.135E+01   -1.133E+01   -1.132E+01   -1.130E+01   -1.129E+01   -1.127E+01   -1.126E+01   -1.124E+01
    -1.123E+01   -1.121E+01   -1.120E+01   -1.118E+01   -1.117E+01   -1.115E+01   -1.114E+01   -1.112E+01   -1.111E+01   -1.109E+01
    -1.108E+01   -1.106E+01   -1.105E+01   -1.103E+01   -1.101E+01   -1.100E+01   -1.098E+01   -1.097E+01   -1.095E+01   -1.094E+01
    -1.092E+01   -1.091E+01   -1.089E+01   -1.088E+01   -1.086E+01   -1.085E+01   -1.083E+01   -1.082E+01   -1.080E+01   -1.079E+01
    -1.077E+01   -1.076E+01   -1.074E+01   -1.073E+01   -1.071E+01   -1.070E+01   -1.068E+01   -1.067E+01   -1.065E+01   -1.064E+01
    -1.062E+01   -1.061E+01   -1.059E+01   -1.057E+01   -1.056E+01   -1.054E+01   -1.053E+01   -1.051E+01   -1.050E+01   -1.048E+01
    -1.047E+01   -1.045E+01   -1.044E+01   -1.042E+01   -1.041E+01   -1.039E+01   -1.038E+01   -1.036E+01   -1.035E+01   -1.033E+01
    -1.032E+01   -1.030E+01   -1.029E+01   -1.027E+01   -1.026E+01   -1.024E+01   -1.023E+01   -1.021E+01   -1.020E+01   -1.018E+01
    -1.016E+01   -1.015E+01   -1.013E+01   -1.012E+01   -1.010E+01   -1.009E+01   -1.007E+01   -1.006E+01   -1.004E+01   -1.003E+01
    -1.001E+01   -9.997E+00   -9.982E+00   -9.967E+00   -9.952E+00   -9.937E+00   -9.921E+00   -9.906E+00   -9.891E+00   -9.876E+00
    -9.861E+00   -9.845E+00   -9.830E+00   -9.815E+00   -9.800E+00   -9.785E+00   -9.769E+00   -9.754E+00   -9.739E+00   -9.724E+00
    -9.709E+00   -9.693E+00   -9.678E+00   -9.663E+00   -9.648E+00   -9.633E+00   -9.617E+00   -9.602E+00   -9.587E+00   -9.572E+00
    -9.556E+00   -9.541E+00   -9.526E+00   -9.511E+00   -9.496E+00   -9.480E+00   -9.465E+00   -9.450E+00   -9.435E+00   -9.420E+00
    -9.404E+00   -9.389E+00   -9.374E+00   -9.359E+00   -9.344E+00   -9.328E+00   -9.313E+00   -9.298E+00   -9.283E+00   -9.267E+00
    -9.252E+00   -9.237E+00   -9.222E+00   -9.207E+00   -9.191E+00   -9.176E+00   -9.161E+00   -9.146E+00   -9.131E+00   -9.115E+00
    -9.100E+00   -9.085E+00   -9.070E+00   -9.054E+00   -9.039E+00   -9.024E+00   -9.009E+00   -8.994E+00   -8.978E+00   -8.963E+00
    -8.948E+00   -8.933E+00   -8.918E+00   -8.902E+00   -8.887E+00   -8.872E+00   -8.857E+00   -8.842E+00   -8.826E+00   -8.811E+00
    -8.796E+00   -8.781E+00   -8.765E+00   -8.750E+00   -8.735E+00   -8.720E+00   -8.705E+00   -8.689E+00   -8.674E+00   -8.659E+00
    -8.644E+00   -8.629E+00   -8.613E+00   -8.598E+00   -8.583E+00   -8.568E+00   -8.553E+00   -8.537E+00   -8.522E+00   -8.507E+00
    -8.492E+00   -8.476E+00   -8.461E+00   -8.446E+00   -8.431E+00   -8.416E+00   -8.400E+00   -8.385E+00   -8.370E+00   -8.355E+00
    -8.340E+00   -8.324E+00   -8.309E+00   -8.294E+00   -8.279E+00   -8.264E+00   -8.248E+00   -8.233E+00   -8.218E+00   -8.203E+00
    -8.188E+00   -8.172E+00   -8.157E+00   -8.142E+00   -8.127E+00   -8.112E+00   -8.096E+00   -8.081E+00   -8.066E+00   -8.051E+00
    -8.036E+00   -8.020E+00   -8.005E+00   -7.990E+00   -7.975E+00   -7.960E+00   -7.944E+00   -7.929E+00   -7.914E+00   -7.899E+00
    -7.884E+00   -7.868E+00   -7.853E+00   -7.838E+00   -7.823E+00   -7.808E+00   -7.792E+00   -7.777E+00   -7.762E+00   -7.747E+00
    -7.732E+00   -7.716E+00   -7.701E+00   -7.686E+00   -7.671E+00   -7.656E+00   -7.640E+00   -7.625E+00   -7.610E+00   -7.595E+00
    -7.580E+00   -7.565E+00   -7.549E+00   -7.534E+00   -7.519E+00   -7.504E+00   -7.489E+00   -7.473E+00   -7.458E+00   -7.443E+00
    -7.428E+00   -7.413E+00   -7.398E+00   -7.382E+00   -7.367E+00   -7.352E+00   -7.337E+00   -7.322E+00   -7.306E+00   -7.291E+00
    -7.276E+00   -7.261E+00   -7.246E+00   -7.231E+00   -7.215E+00   -7.200E+00   -7.185E+00   -7.170E+00   -7.155E+00   -7.140E+00
    -7.124E+00   -7.109E+00   -7.094E+00   -7.079E+00   -7.064E+00   -7.049E+00   -7.033E+00   -7.018E+00   -7.003E+00   -6.988E+00
    -6.973E+00   -6.958E+00   -6.942E+00   -6.927E+00   -6.912E+00   -6.897E+00   -6.882E+00   -6.867E+00   -6.852E+00   -6.836E+00
    -6.821E+00   -6.806E+00   -6.791E+00   -6.776E+00   -6.761E+00   -6.745E+00   -6.730E+00   -6.715E+00   -6.700E+00   -6.685E+00
    -6.670E+00   -6.655E+00   -6.639E+00   -6.624E+00   -6.609E+00   -6.594E+00   -6.579E+00   -6.564E+00   -6.549E+00   -6.534E+00
    -6.518E+00   -6.503E+00   -6.488E+00   -6.473E+00   -6.458E+00   -6.443E+00   -6.428E+00   -6.412E+00   -6.397E+00   -6.382E+00
    -6.367E+00   -6.352E+00   -6.337E+00   -6.322E+00   -6.307E+00   -6.292E+00   -6.276E+00   -6.261E+00   -6.246E+00   -6.231E+00
    -6.216E+00   -6.201E+00   -6.186E+00   -6.171E+00   -6.155E+00   -6.140E+00   -6.125E+00   -6.110E+00   -6.095E+00   -6.080E+00
    -6.065E+00   -6.050E+00   -6.035E+00   -6.020E+00   -6.004E+00   -5.989E+00   -5.974E+00   -5.959E+00   -5.944E+00   -5.929E+00
    -5.914E+00   -5.899E+00   -5.884E+00   -5.869E+00   -5.854E+00   -5.838E+00   -5.823E+00   -5.808E+00   -5.793E+00   -5.778E+00
    -5.763E+00   -5.748E+00   -5.733E+00   -5.718E+00   -5.703E+00   -5.688E+00   -5.673E+00   -5.658E+00   -5.642E+00   -5.627E+00
    -5.612E+00   -5.597E+00   -5.582E+00   -5.567E+00   -5.552E+00   -5.537E+00   -5.522E+00   -5.507E+00   -5.492E+00   -5.477E+00
    -5.462E+00   -5.447E+00   -5.432E+00   -5.417E+00   -5.402E+00   -5.387E+00   -5.372E+00   -5.356E+00   -5.341E+00   -5.326E+00
    -5.311E+00   -5.296E+00   -5.281E+00   -5.266E+00   -5.251E+00   -5.236E+00   -5.221E+00   -5.206E+00   -5.191E+00   -5.176E+00
    -5.161E+00   -5.146E+00   -5.131E+00   -5.116E+00   -5.101E+00   -5.086E+00   -5.071E+00   -5.056E+00   -5.041E+00   -5.026E+00
    -5.011E+00   -4.996E+00   -4.981E+00   -4.966E+00   -4.951E+00   -4.936E+00   -4.921E+00   -4.906E+00   -4.891E+00   -4.876E+00
    -4.861E+00   -4.846E+00   -4.831E+00   -4.816E+00   -4.801E+00   -4.786E+00   -4.771E+00   -4.756E+00   -4.741E+00   -4.726E+00
    -4.711E+00   -4.696E+00   -4.681E+00   -4.666E+00   -4.651E+00   -4.636E+00   -4.621E+00   -4.606E+00
 Ala      Conc. = 7.23E+01
