 LCModel (Version 6.3-1L) Copyright: S.W. Provencher.          Ref.: Magn. Reson. Med. 30:672-679 (1993).                
 Slice#3 Row#5 Col#1  PD_24_press_2_raw_act
 36 lines in following concentration table = NCONC+1
    Conc.  %SD /Cr+PCr  Metabolite                                         
  254.345  86%   1.491 Ala                                                 
   24.170  76%   0.142 Asp                                                 
  170.550  43%   1.000 Cr                                                  
    0.000 999%   0.000 PCr                                                 
   14.274  77% 8.4E-02 GABA                                                
   14.022  78% 8.2E-02 Glc                                                 
  873.572  64%   5.122 Gln                                                 
 1.34E+03  46%   7.841 Glu                                                 
   73.252  38%   0.430 GPC                                                 
    0.000 999%   0.000 PCh                                                 
  463.620  25%   2.718 GSH                                                 
  494.332  85%   2.898 Ins                                                 
    0.000 999%   0.000 Lac                                                 
   96.346  82%   0.565 NAA                                                 
    0.000 999%   0.000 NAAG                                                
    5.431  68% 3.2E-02 Scyllo                                              
   23.295  78%   0.137 Tau                                                 
   20.112 137%   0.118 -CrCH2                                              
   73.252  38%   0.430 GPC+PCh                                             
   96.346  82%   0.565 NAA+NAAG                                            
  170.550  43%   1.000 Cr+PCr                                              
 2.21E+03  47%  12.963 Glu+Gln                                             
    0.000 999%   0.000 Lip13a                                              
  316.801  41%   1.858 Lip13b                                              
   11.579 940% 6.8E-02 Lip09                                               
    0.000 999%   0.000 MM09                                                
    6.301 999% 3.7E-02 Lip20                                               
    0.000 999%   0.000 MM20                                                
 1.36E-03 999% 8.0E-06 MM12                                                
    0.000 999%   0.000 MM14                                                
    0.115 999% 6.7E-04 MM17                                                
  316.801  41%   1.858 Lip13a+Lip13b                                       
  316.803  41%   1.858 MM14+Lip13a+Lip13b+MM12                             
   11.579 940% 6.8E-02 MM09+Lip09                                          
    6.301 999% 3.7E-02 MM20+Lip20                                          
   6 lines in following misc. output table
  FWHM = 0.099 ppm    S/N =   1                                            
  Data shift = 0.008 ppm                                                   
  Ph:   1 deg      25.3 deg/ppm                                            
  alphaB,S = 5.9E-01,   5.1E+01                                            
   14 spline knots.   Ns = 7(1)                                            
  (12) 6 infls.   (13) 3 extrs.                                            
  498 points on ppm-axis = NY
      4.000000     3.992357     3.984714     3.977070     3.969427     3.961784     3.954141     3.946497     3.938854     3.931211
      3.923568     3.915925     3.908281     3.900638     3.892995     3.885352     3.877708     3.870065     3.862422     3.854779
      3.847136     3.839492     3.831849     3.824206     3.816563     3.808919     3.801276     3.793633     3.785990     3.778347
      3.770703     3.763060     3.755417     3.747774     3.740130     3.732487     3.724844     3.717201     3.709558     3.701914
      3.694271     3.686628     3.678985     3.671341     3.663698     3.656055     3.648412     3.640769     3.633125     3.625482
      3.617839     3.610196     3.602552     3.594909     3.587266     3.579623     3.571980     3.564336     3.556693     3.549050
      3.541407     3.533763     3.526120     3.518477     3.510834     3.503191     3.495547     3.487904     3.480261     3.472618
      3.464974     3.457331     3.449688     3.442045     3.434402     3.426758     3.419115     3.411472     3.403829     3.396185
      3.388542     3.380899     3.373256     3.365613     3.357969     3.350326     3.342683     3.335040     3.327396     3.319753
      3.312110     3.304467     3.296824     3.289180     3.281537     3.273894     3.266251     3.258607     3.250964     3.243321
      3.235678     3.228034     3.220391     3.212748     3.205105     3.197462     3.189818     3.182175     3.174532     3.166889
      3.159245     3.151602     3.143959     3.136316     3.128673     3.121029     3.113386     3.105743     3.098100     3.090456
      3.082813     3.075170     3.067527     3.059884     3.052240     3.044597     3.036954     3.029311     3.021667     3.014024
      3.006381     2.998738     2.991095     2.983451     2.975808     2.968165     2.960522     2.952878     2.945235     2.937592
      2.929949     2.922306     2.914662     2.907019     2.899376     2.891733     2.884089     2.876446     2.868803     2.861160
      2.853517     2.845873     2.838230     2.830587     2.822944     2.815300     2.807657     2.800014     2.792371     2.784728
      2.777084     2.769441     2.761798     2.754155     2.746511     2.738868     2.731225     2.723582     2.715939     2.708295
      2.700652     2.693009     2.685366     2.677722     2.670079     2.662436     2.654793     2.647150     2.639506     2.631863
      2.624220     2.616577     2.608933     2.601290     2.593647     2.586004     2.578361     2.570717     2.563074     2.555431
      2.547788     2.540144     2.532501     2.524858     2.517215     2.509572     2.501928     2.494285     2.486642     2.478999
      2.471355     2.463712     2.456069     2.448426     2.440783     2.433139     2.425496     2.417853     2.410210     2.402566
      2.394923     2.387280     2.379637     2.371994     2.364350     2.356707     2.349064     2.341421     2.333777     2.326134
      2.318491     2.310848     2.303205     2.295561     2.287918     2.280275     2.272632     2.264988     2.257345     2.249702
      2.242059     2.234416     2.226772     2.219129     2.211486     2.203843     2.196199     2.188556     2.180913     2.173270
      2.165627     2.157983     2.150340     2.142697     2.135054     2.127410     2.119767     2.112124     2.104481     2.096838
      2.089194     2.081551     2.073908     2.066265     2.058621     2.050978     2.043335     2.035692     2.028049     2.020405
      2.012762     2.005119     1.997476     1.989833     1.982190     1.974546     1.966903     1.959260     1.951617     1.943974
      1.936331     1.928688     1.921045     1.913402     1.905759     1.898115     1.890472     1.882829     1.875186     1.867543
      1.859900     1.852257     1.844614     1.836971     1.829327     1.821684     1.814041     1.806398     1.798755     1.791112
      1.783469     1.775826     1.768183     1.760540     1.752896     1.745253     1.737610     1.729967     1.722324     1.714681
      1.707038     1.699395     1.691752     1.684108     1.676465     1.668822     1.661179     1.653536     1.645893     1.638250
      1.630607     1.622964     1.615321     1.607677     1.600034     1.592391     1.584748     1.577105     1.569462     1.561819
      1.554176     1.546533     1.538890     1.531246     1.523603     1.515960     1.508317     1.500674     1.493031     1.485388
      1.477745     1.470102     1.462458     1.454815     1.447172     1.439529     1.431886     1.424243     1.416600     1.408957
      1.401314     1.393671     1.386027     1.378384     1.370741     1.363098     1.355455     1.347812     1.340169     1.332526
      1.324883     1.317240     1.309596     1.301953     1.294310     1.286667     1.279024     1.271381     1.263738     1.256095
      1.248452     1.240808     1.233165     1.225522     1.217879     1.210236     1.202593     1.194950     1.187307     1.179664
      1.172021     1.164377     1.156734     1.149091     1.141448     1.133805     1.126162     1.118519     1.110876     1.103233
      1.095590     1.087946     1.080303     1.072660     1.065017     1.057374     1.049731     1.042088     1.034445     1.026802
      1.019158     1.011515     1.003872     0.996229     0.988586     0.980943     0.973300     0.965657     0.958014     0.950371
      0.942727     0.935084     0.927441     0.919798     0.912155     0.904512     0.896869     0.889226     0.881583     0.873940
      0.866296     0.858653     0.851010     0.843367     0.835724     0.828081     0.820438     0.812795     0.805152     0.797508
      0.789865     0.782222     0.774579     0.766936     0.759293     0.751650     0.744007     0.736364     0.728721     0.721077
      0.713434     0.705791     0.698148     0.690505     0.682862     0.675219     0.667576     0.659933     0.652290     0.644646
      0.637003     0.629360     0.621717     0.614074     0.606431     0.598788     0.591145     0.583502     0.575858     0.568215
      0.560572     0.552929     0.545286     0.537643     0.530000     0.522357     0.514714     0.507071     0.499427     0.491784
      0.484141     0.476498     0.468855     0.461212     0.453569     0.445925     0.438282     0.430639     0.422996     0.415353
      0.407710     0.400067     0.392424     0.384780     0.377137     0.369494     0.361851     0.354208     0.346565     0.338922
      0.331278     0.323635     0.315992     0.308349     0.300706     0.293063     0.285420     0.277777     0.270133     0.262490
      0.254847     0.247204     0.239561     0.231918     0.224275     0.216631     0.208988     0.201345
 NY phased data points follow
  -2.40765E+02 -2.27309E+02 -2.28815E+02 -2.26619E+02 -2.21968E+02 -2.14778E+02 -2.11549E+02 -2.19159E+02 -2.06232E+02 -2.01925E+02
  -2.05472E+02 -2.03659E+02 -2.00493E+02 -1.87818E+02 -1.94629E+02 -1.91368E+02 -1.93184E+02 -1.92644E+02 -1.96825E+02 -1.84213E+02
  -1.89475E+02 -1.80227E+02 -1.84836E+02 -1.74220E+02 -1.80966E+02 -1.75631E+02 -1.71832E+02 -1.75935E+02 -1.78494E+02 -1.71315E+02
  -1.64035E+02 -1.69839E+02 -1.66013E+02 -1.61818E+02 -1.63625E+02 -1.59936E+02 -1.62702E+02 -1.55962E+02 -1.58357E+02 -1.49421E+02
  -1.54852E+02 -1.53938E+02 -1.51006E+02 -1.52684E+02 -1.53388E+02 -1.49805E+02 -1.55819E+02 -1.49349E+02 -1.44466E+02 -1.41006E+02
  -1.48660E+02 -1.39905E+02 -1.46464E+02 -1.42956E+02 -1.38237E+02 -1.35506E+02 -1.44987E+02 -1.37668E+02 -1.38329E+02 -1.41435E+02
  -1.47601E+02 -1.39718E+02 -1.38510E+02 -1.35699E+02 -1.38356E+02 -1.36630E+02 -1.33007E+02 -1.27898E+02 -1.39199E+02 -1.29678E+02
  -1.31283E+02 -1.36551E+02 -1.37132E+02 -1.30483E+02 -1.33691E+02 -1.22913E+02 -1.31070E+02 -1.30778E+02 -1.34442E+02 -1.20780E+02
  -1.26506E+02 -1.23946E+02 -1.22452E+02 -1.26258E+02 -1.15327E+02 -1.24975E+02 -1.14783E+02 -1.21542E+02 -1.15664E+02 -1.16348E+02
  -1.12466E+02 -1.21151E+02 -1.14739E+02 -1.16834E+02 -1.21629E+02 -1.16190E+02 -1.21831E+02 -1.17395E+02 -1.15534E+02 -1.15160E+02
  -1.07890E+02 -1.09066E+02 -1.08711E+02 -1.07930E+02 -1.09467E+02 -1.08537E+02 -1.09429E+02 -1.10504E+02 -1.07257E+02 -1.04370E+02
  -1.06174E+02 -1.04440E+02 -1.16532E+02 -1.09809E+02 -1.06610E+02 -1.05274E+02 -1.01021E+02 -1.03336E+02 -1.07507E+02 -9.89834E+01
  -1.05785E+02 -1.00745E+02 -9.95220E+01 -1.03385E+02 -9.90954E+01 -1.02096E+02 -9.54252E+01 -9.79317E+01 -1.01005E+02 -9.80825E+01
  -9.40056E+01 -1.00231E+02 -1.01122E+02 -9.76972E+01 -9.78156E+01 -1.01956E+02 -1.07636E+02 -1.01516E+02 -9.56844E+01 -9.37679E+01
  -9.82235E+01 -1.01857E+02 -1.02226E+02 -9.20750E+01 -9.19296E+01 -1.00346E+02 -9.70889E+01 -9.41593E+01 -9.59031E+01 -1.02849E+02
  -9.86016E+01 -9.19522E+01 -9.70909E+01 -9.64429E+01 -9.30235E+01 -9.70978E+01 -9.07146E+01 -9.51427E+01 -9.68317E+01 -8.80976E+01
  -8.41898E+01 -9.12003E+01 -8.81236E+01 -9.27805E+01 -9.36874E+01 -9.19170E+01 -8.64869E+01 -9.01481E+01 -9.33301E+01 -8.80625E+01
  -9.28953E+01 -9.00707E+01 -8.78522E+01 -9.22485E+01 -8.65225E+01 -7.97772E+01 -9.21092E+01 -8.17283E+01 -8.43549E+01 -8.86844E+01
  -8.85322E+01 -8.70575E+01 -7.82229E+01 -7.84690E+01 -8.72866E+01 -8.20166E+01 -8.58599E+01 -8.47282E+01 -8.76687E+01 -8.14358E+01
  -7.63753E+01 -7.72381E+01 -8.47346E+01 -8.22469E+01 -8.00848E+01 -7.97856E+01 -7.20892E+01 -7.95393E+01 -7.14881E+01 -8.66987E+01
  -7.52713E+01 -7.84501E+01 -7.45220E+01 -8.04034E+01 -7.73089E+01 -7.48949E+01 -7.07125E+01 -6.93225E+01 -7.06394E+01 -7.49664E+01
  -6.95574E+01 -6.82943E+01 -7.31324E+01 -6.72480E+01 -7.20964E+01 -7.53205E+01 -7.02905E+01 -7.72891E+01 -7.24143E+01 -6.78616E+01
  -7.15310E+01 -7.36072E+01 -6.99400E+01 -7.73920E+01 -6.58801E+01 -7.40045E+01 -7.19403E+01 -6.98103E+01 -7.57342E+01 -6.82247E+01
  -7.12915E+01 -6.93832E+01 -7.00975E+01 -7.31846E+01 -7.08118E+01 -7.38957E+01 -7.16447E+01 -7.17007E+01 -7.32696E+01 -6.82037E+01
  -7.44661E+01 -6.68211E+01 -7.39895E+01 -6.92305E+01 -6.95212E+01 -7.87026E+01 -7.07906E+01 -7.09958E+01 -7.11418E+01 -6.98786E+01
  -7.91527E+01 -7.87700E+01 -6.85395E+01 -7.27219E+01 -6.88813E+01 -6.14867E+01 -6.96578E+01 -7.16316E+01 -6.62695E+01 -6.11661E+01
  -6.36141E+01 -6.28579E+01 -6.60089E+01 -6.80394E+01 -6.99045E+01 -6.93697E+01 -6.24647E+01 -6.43698E+01 -6.32505E+01 -7.01849E+01
  -6.77937E+01 -7.27145E+01 -7.13260E+01 -6.58634E+01 -6.44150E+01 -6.55950E+01 -6.44899E+01 -6.69748E+01 -6.13310E+01 -6.40938E+01
  -7.12942E+01 -6.73282E+01 -6.94988E+01 -6.89820E+01 -7.13655E+01 -6.51307E+01 -6.73300E+01 -6.00798E+01 -6.63693E+01 -7.01451E+01
  -6.36897E+01 -6.19259E+01 -6.27900E+01 -5.91504E+01 -5.95012E+01 -6.45387E+01 -6.36273E+01 -4.80311E+01 -6.05993E+01 -5.83771E+01
  -5.89954E+01 -5.66845E+01 -6.32280E+01 -5.27375E+01 -5.48008E+01 -5.22442E+01 -5.33394E+01 -5.52933E+01 -4.87752E+01 -5.49538E+01
  -5.29742E+01 -4.95319E+01 -5.87616E+01 -5.78082E+01 -5.90437E+01 -5.31340E+01 -5.75632E+01 -5.45348E+01 -5.90397E+01 -5.78791E+01
  -5.89062E+01 -5.58887E+01 -5.81420E+01 -5.94263E+01 -5.30436E+01 -5.47508E+01 -5.47602E+01 -5.83684E+01 -5.77582E+01 -5.40274E+01
  -6.43837E+01 -5.85762E+01 -5.91624E+01 -6.10158E+01 -5.89961E+01 -5.57115E+01 -5.23870E+01 -5.42342E+01 -5.71112E+01 -5.71189E+01
  -5.26085E+01 -5.77483E+01 -5.19290E+01 -5.60789E+01 -4.58196E+01 -4.62598E+01 -5.08441E+01 -5.09654E+01 -5.50672E+01 -4.94611E+01
  -5.54039E+01 -5.17950E+01 -4.81264E+01 -4.40749E+01 -4.88088E+01 -4.80154E+01 -4.57930E+01 -4.40424E+01 -4.05068E+01 -4.62103E+01
  -4.57251E+01 -4.33872E+01 -4.85951E+01 -4.90658E+01 -4.49012E+01 -4.65017E+01 -4.59899E+01 -4.38554E+01 -4.62342E+01 -4.71702E+01
  -5.01210E+01 -5.13693E+01 -5.11871E+01 -4.22504E+01 -4.34867E+01 -5.23797E+01 -4.08550E+01 -4.90715E+01 -4.36145E+01 -4.31366E+01
  -4.05990E+01 -4.30571E+01 -4.28060E+01 -4.32113E+01 -4.54524E+01 -4.63996E+01 -4.20667E+01 -4.39831E+01 -3.76816E+01 -4.63493E+01
  -4.47486E+01 -3.99966E+01 -4.84795E+01 -4.14557E+01 -4.52112E+01 -4.31504E+01 -3.81585E+01 -3.97825E+01 -4.05193E+01 -3.99654E+01
  -4.10841E+01 -4.58345E+01 -3.85424E+01 -3.83747E+01 -4.45867E+01 -4.44256E+01 -4.28684E+01 -4.29391E+01 -4.12705E+01 -4.29211E+01
  -3.77094E+01 -4.81280E+01 -4.41404E+01 -3.93099E+01 -3.50522E+01 -4.10206E+01 -3.97103E+01 -3.69469E+01 -3.38936E+01 -4.22608E+01
  -3.68923E+01 -3.28000E+01 -4.00861E+01 -3.46996E+01 -3.84905E+01 -3.33352E+01 -3.55434E+01 -3.95566E+01 -3.71358E+01 -3.05400E+01
  -3.56813E+01 -3.55523E+01 -2.97514E+01 -3.35684E+01 -3.52446E+01 -3.61560E+01 -3.56879E+01 -3.73247E+01 -3.32898E+01 -3.08055E+01
  -3.18777E+01 -3.05247E+01 -2.68182E+01 -3.38843E+01 -3.09628E+01 -3.29587E+01 -2.62966E+01 -3.68292E+01 -2.71951E+01 -3.58542E+01
  -2.63338E+01 -3.94697E+01 -3.10463E+01 -3.21483E+01 -3.25255E+01 -2.85807E+01 -2.85757E+01 -3.57369E+01 -3.25243E+01 -2.69824E+01
  -2.79273E+01 -3.95394E+01 -2.09829E+01 -2.46793E+01 -3.11979E+01 -2.67341E+01 -2.54885E+01 -2.88851E+01 -3.02282E+01 -3.17924E+01
  -3.18948E+01 -2.30810E+01 -2.40259E+01 -2.70364E+01 -3.23259E+01 -2.48455E+01 -3.30225E+01 -3.38614E+01 -3.16700E+01 -3.22933E+01
  -3.15816E+01 -2.36630E+01 -2.85492E+01 -2.80552E+01 -2.72922E+01 -2.76447E+01 -2.89726E+01 -2.68345E+01 -2.99954E+01 -2.55214E+01
  -2.04186E+01 -2.95163E+01 -2.05281E+01 -2.05853E+01 -2.84821E+01 -2.32321E+01 -2.92955E+01 -2.34031E+01
 NY points of the fit to the data follow
  -2.20361E+02 -2.19058E+02 -2.17684E+02 -2.16284E+02 -2.14627E+02 -2.12642E+02 -2.10644E+02 -2.08765E+02 -2.06946E+02 -2.05114E+02
  -2.03279E+02 -2.01541E+02 -1.99948E+02 -1.98429E+02 -1.96864E+02 -1.95172E+02 -1.93423E+02 -1.91857E+02 -1.90550E+02 -1.89408E+02
  -1.88310E+02 -1.87271E+02 -1.86050E+02 -1.83921E+02 -1.81326E+02 -1.78730E+02 -1.76041E+02 -1.73305E+02 -1.70729E+02 -1.68551E+02
  -1.66902E+02 -1.65838E+02 -1.65105E+02 -1.64175E+02 -1.62742E+02 -1.61120E+02 -1.60102E+02 -1.60116E+02 -1.60611E+02 -1.60620E+02
  -1.60373E+02 -1.59810E+02 -1.58644E+02 -1.57019E+02 -1.55172E+02 -1.53327E+02 -1.51658E+02 -1.50449E+02 -1.49643E+02 -1.48881E+02
  -1.48089E+02 -1.47235E+02 -1.46307E+02 -1.45444E+02 -1.44822E+02 -1.44362E+02 -1.43776E+02 -1.42921E+02 -1.41921E+02 -1.40915E+02
  -1.39934E+02 -1.38991E+02 -1.38083E+02 -1.37205E+02 -1.36328E+02 -1.35427E+02 -1.34585E+02 -1.33863E+02 -1.33184E+02 -1.32459E+02
  -1.31662E+02 -1.30802E+02 -1.29940E+02 -1.29116E+02 -1.28351E+02 -1.27640E+02 -1.26958E+02 -1.26308E+02 -1.25687E+02 -1.25113E+02
  -1.24597E+02 -1.24116E+02 -1.23671E+02 -1.23238E+02 -1.22789E+02 -1.22316E+02 -1.21828E+02 -1.21321E+02 -1.20789E+02 -1.20225E+02
  -1.19657E+02 -1.19130E+02 -1.18647E+02 -1.18170E+02 -1.17629E+02 -1.16914E+02 -1.15733E+02 -1.14223E+02 -1.12893E+02 -1.11846E+02
  -1.10950E+02 -1.10092E+02 -1.09292E+02 -1.08660E+02 -1.08249E+02 -1.07927E+02 -1.07542E+02 -1.07065E+02 -1.06653E+02 -1.06620E+02
  -1.07147E+02 -1.07962E+02 -1.08339E+02 -1.08197E+02 -1.07928E+02 -1.07619E+02 -1.07292E+02 -1.06943E+02 -1.06555E+02 -1.06069E+02
  -1.05205E+02 -1.04045E+02 -1.02977E+02 -1.02091E+02 -1.01278E+02 -1.00428E+02 -9.94673E+01 -9.84964E+01 -9.78193E+01 -9.74921E+01
  -9.73154E+01 -9.71782E+01 -9.71145E+01 -9.72997E+01 -9.78461E+01 -9.84788E+01 -9.86503E+01 -9.83508E+01 -9.79541E+01 -9.76496E+01
  -9.75239E+01 -9.74645E+01 -9.71724E+01 -9.65292E+01 -9.57581E+01 -9.50271E+01 -9.44544E+01 -9.41622E+01 -9.41041E+01 -9.41398E+01
  -9.41256E+01 -9.39596E+01 -9.37195E+01 -9.34473E+01 -9.31634E+01 -9.28754E+01 -9.25864E+01 -9.22892E+01 -9.19648E+01 -9.16281E+01
  -9.12800E+01 -9.09124E+01 -9.05348E+01 -9.01739E+01 -8.98479E+01 -8.95294E+01 -8.91922E+01 -8.88364E+01 -8.84789E+01 -8.81386E+01
  -8.78217E+01 -8.75136E+01 -8.72072E+01 -8.69065E+01 -8.66191E+01 -8.63482E+01 -8.60793E+01 -8.57995E+01 -8.55593E+01 -8.53721E+01
  -8.52082E+01 -8.50239E+01 -8.47615E+01 -8.43671E+01 -8.38391E+01 -8.32260E+01 -8.26131E+01 -8.20868E+01 -8.16679E+01 -8.13731E+01
  -8.13215E+01 -8.14772E+01 -8.15649E+01 -8.14489E+01 -8.11712E+01 -8.07140E+01 -8.01389E+01 -7.95924E+01 -7.90522E+01 -7.84166E+01
  -7.77845E+01 -7.71864E+01 -7.66870E+01 -7.65835E+01 -7.67239E+01 -7.66516E+01 -7.65164E+01 -7.65008E+01 -7.64250E+01 -7.59430E+01
  -7.52835E+01 -7.46535E+01 -7.41600E+01 -7.38921E+01 -7.38237E+01 -7.39869E+01 -7.42288E+01 -7.39314E+01 -7.30761E+01 -7.25427E+01
  -7.25826E+01 -7.28930E+01 -7.34578E+01 -7.41784E+01 -7.48083E+01 -7.49331E+01 -7.47249E+01 -7.41760E+01 -7.31221E+01 -7.17146E+01
  -7.03107E+01 -6.93403E+01 -6.90126E+01 -6.90563E+01 -6.91929E+01 -6.93944E+01 -6.98120E+01 -7.02478E+01 -7.03888E+01 -7.02605E+01
  -7.02296E+01 -7.03797E+01 -7.05511E+01 -7.06972E+01 -7.08604E+01 -7.11712E+01 -7.14391E+01 -7.14408E+01 -7.13153E+01 -7.10900E+01
  -7.06031E+01 -6.99707E+01 -6.96389E+01 -6.93620E+01 -6.88282E+01 -6.82523E+01 -6.77601E+01 -6.71559E+01 -6.64775E+01 -6.59437E+01
  -6.56191E+01 -6.55244E+01 -6.55710E+01 -6.56039E+01 -6.54808E+01 -6.52236E+01 -6.50240E+01 -6.51436E+01 -6.55772E+01 -6.59774E+01
  -6.61044E+01 -6.61165E+01 -6.60376E+01 -6.58536E+01 -6.56724E+01 -6.55297E+01 -6.53595E+01 -6.51525E+01 -6.49136E+01 -6.46659E+01
  -6.44549E+01 -6.43150E+01 -6.42106E+01 -6.40944E+01 -6.39634E+01 -6.38231E+01 -6.36668E+01 -6.34869E+01 -6.32862E+01 -6.30818E+01
  -6.28855E+01 -6.26919E+01 -6.24991E+01 -6.23070E+01 -6.21137E+01 -6.19169E+01 -6.17155E+01 -6.15125E+01 -6.13084E+01 -6.11016E+01
  -6.08929E+01 -6.06838E+01 -6.04733E+01 -6.02614E+01 -6.00487E+01 -5.98352E+01 -5.96208E+01 -5.94050E+01 -5.91880E+01 -5.89699E+01
  -5.87509E+01 -5.85306E+01 -5.83072E+01 -5.80793E+01 -5.78455E+01 -5.76031E+01 -5.73476E+01 -5.70705E+01 -5.67534E+01 -5.63461E+01
  -5.57588E+01 -5.51997E+01 -5.49296E+01 -5.48760E+01 -5.49048E+01 -5.49873E+01 -5.51913E+01 -5.55967E+01 -5.59847E+01 -5.60265E+01
  -5.58159E+01 -5.55677E+01 -5.54316E+01 -5.54463E+01 -5.54969E+01 -5.53398E+01 -5.47899E+01 -5.40987E+01 -5.35040E+01 -5.28967E+01
  -5.22145E+01 -5.15724E+01 -5.12187E+01 -5.13055E+01 -5.15393E+01 -5.15595E+01 -5.14158E+01 -5.11526E+01 -5.07795E+01 -5.02990E+01
  -4.97173E+01 -4.90510E+01 -4.83292E+01 -4.75941E+01 -4.68965E+01 -4.62894E+01 -4.58197E+01 -4.55197E+01 -4.54016E+01 -4.54553E+01
  -4.56511E+01 -4.59453E+01 -4.62882E+01 -4.66330E+01 -4.69412E+01 -4.71870E+01 -4.73573E+01 -4.74505E+01 -4.74728E+01 -4.74354E+01
  -4.73506E+01 -4.72305E+01 -4.70854E+01 -4.69230E+01 -4.67490E+01 -4.65674E+01 -4.63805E+01 -4.61900E+01 -4.59969E+01 -4.58017E+01
  -4.56048E+01 -4.54063E+01 -4.52065E+01 -4.50054E+01 -4.48033E+01 -4.46000E+01 -4.43958E+01 -4.41905E+01 -4.39844E+01 -4.37774E+01
  -4.35697E+01 -4.33612E+01 -4.31520E+01 -4.29422E+01 -4.27318E+01 -4.25210E+01 -4.23098E+01 -4.20984E+01 -4.18867E+01 -4.16749E+01
  -4.14632E+01 -4.12516E+01 -4.10403E+01 -4.08294E+01 -4.06190E+01 -4.04092E+01 -4.02001E+01 -3.99917E+01 -3.97842E+01 -3.95775E+01
  -3.93717E+01 -3.91668E+01 -3.89627E+01 -3.87596E+01 -3.85572E+01 -3.83557E+01 -3.81549E+01 -3.79549E+01 -3.77555E+01 -3.75569E+01
  -3.73588E+01 -3.71614E+01 -3.69646E+01 -3.67684E+01 -3.65728E+01 -3.63779E+01 -3.61837E+01 -3.59902E+01 -3.57973E+01 -3.56053E+01
  -3.54141E+01 -3.52238E+01 -3.50344E+01 -3.48459E+01 -3.46584E+01 -3.44720E+01 -3.42867E+01 -3.41025E+01 -3.39194E+01 -3.37376E+01
  -3.35571E+01 -3.33779E+01 -3.32000E+01 -3.30235E+01 -3.28484E+01 -3.26747E+01 -3.25026E+01 -3.23320E+01 -3.21630E+01 -3.19955E+01
  -3.18297E+01 -3.16656E+01 -3.15032E+01 -3.13425E+01 -3.11834E+01 -3.10260E+01 -3.08702E+01 -3.07158E+01 -3.05629E+01 -3.04114E+01
  -3.02613E+01 -3.01124E+01 -2.99647E+01 -2.98182E+01 -2.96729E+01 -2.95286E+01 -2.93853E+01 -2.92429E+01 -2.91015E+01 -2.89609E+01
  -2.88211E+01 -2.86819E+01 -2.85435E+01 -2.84057E+01 -2.82684E+01 -2.81317E+01 -2.79954E+01 -2.78594E+01 -2.77239E+01 -2.75886E+01
  -2.74535E+01 -2.73186E+01 -2.71838E+01 -2.70491E+01 -2.69143E+01 -2.67796E+01 -2.66447E+01 -2.65097E+01 -2.63744E+01 -2.62389E+01
  -2.61030E+01 -2.59668E+01 -2.58302E+01 -2.56931E+01 -2.55554E+01 -2.54172E+01 -2.52783E+01 -2.51387E+01
 NY background values follow
    -2.219E+02   -2.203E+02   -2.187E+02   -2.172E+02   -2.156E+02   -2.140E+02   -2.124E+02   -2.109E+02   -2.093E+02   -2.077E+02
    -2.062E+02   -2.046E+02   -2.031E+02   -2.016E+02   -2.000E+02   -1.985E+02   -1.970E+02   -1.955E+02   -1.940E+02   -1.925E+02
    -1.910E+02   -1.895E+02   -1.880E+02   -1.865E+02   -1.851E+02   -1.836E+02   -1.822E+02   -1.808E+02   -1.793E+02   -1.779E+02
    -1.765E+02   -1.752E+02   -1.738E+02   -1.724E+02   -1.711E+02   -1.698E+02   -1.684E+02   -1.671E+02   -1.658E+02   -1.646E+02
    -1.633E+02   -1.621E+02   -1.608E+02   -1.596E+02   -1.584E+02   -1.572E+02   -1.561E+02   -1.549E+02   -1.538E+02   -1.527E+02
    -1.516E+02   -1.505E+02   -1.495E+02   -1.484E+02   -1.474E+02   -1.464E+02   -1.454E+02   -1.444E+02   -1.434E+02   -1.425E+02
    -1.416E+02   -1.406E+02   -1.397E+02   -1.388E+02   -1.380E+02   -1.371E+02   -1.362E+02   -1.354E+02   -1.346E+02   -1.338E+02
    -1.330E+02   -1.322E+02   -1.314E+02   -1.307E+02   -1.299E+02   -1.292E+02   -1.285E+02   -1.278E+02   -1.271E+02   -1.264E+02
    -1.257E+02   -1.250E+02   -1.244E+02   -1.237E+02   -1.231E+02   -1.225E+02   -1.219E+02   -1.213E+02   -1.207E+02   -1.201E+02
    -1.195E+02   -1.190E+02   -1.184E+02   -1.179E+02   -1.174E+02   -1.168E+02   -1.163E+02   -1.158E+02   -1.153E+02   -1.148E+02
    -1.143E+02   -1.139E+02   -1.134E+02   -1.129E+02   -1.125E+02   -1.120E+02   -1.116E+02   -1.111E+02   -1.107E+02   -1.103E+02
    -1.098E+02   -1.094E+02   -1.090E+02   -1.086E+02   -1.082E+02   -1.078E+02   -1.074E+02   -1.070E+02   -1.066E+02   -1.062E+02
    -1.059E+02   -1.055E+02   -1.051E+02   -1.047E+02   -1.044E+02   -1.040E+02   -1.036E+02   -1.033E+02   -1.029E+02   -1.025E+02
    -1.022E+02   -1.018E+02   -1.014E+02   -1.011E+02   -1.007E+02   -1.003E+02   -9.998E+01   -9.961E+01   -9.925E+01   -9.888E+01
    -9.852E+01   -9.815E+01   -9.778E+01   -9.741E+01   -9.705E+01   -9.668E+01   -9.631E+01   -9.594E+01   -9.558E+01   -9.521E+01
    -9.484E+01   -9.447E+01   -9.411E+01   -9.374E+01   -9.338E+01   -9.301E+01   -9.265E+01   -9.228E+01   -9.192E+01   -9.156E+01
    -9.120E+01   -9.084E+01   -9.048E+01   -9.012E+01   -8.976E+01   -8.941E+01   -8.905E+01   -8.870E+01   -8.835E+01   -8.800E+01
    -8.765E+01   -8.730E+01   -8.696E+01   -8.662E+01   -8.628E+01   -8.594E+01   -8.560E+01   -8.526E+01   -8.493E+01   -8.460E+01
    -8.427E+01   -8.395E+01   -8.362E+01   -8.330E+01   -8.298E+01   -8.267E+01   -8.235E+01   -8.204E+01   -8.173E+01   -8.143E+01
    -8.113E+01   -8.083E+01   -8.053E+01   -8.024E+01   -7.995E+01   -7.966E+01   -7.937E+01   -7.909E+01   -7.882E+01   -7.854E+01
    -7.827E+01   -7.800E+01   -7.774E+01   -7.748E+01   -7.722E+01   -7.696E+01   -7.671E+01   -7.647E+01   -7.622E+01   -7.598E+01
    -7.575E+01   -7.552E+01   -7.529E+01   -7.507E+01   -7.485E+01   -7.463E+01   -7.442E+01   -7.421E+01   -7.401E+01   -7.381E+01
    -7.362E+01   -7.343E+01   -7.324E+01   -7.306E+01   -7.288E+01   -7.271E+01   -7.254E+01   -7.238E+01   -7.222E+01   -7.207E+01
    -7.192E+01   -7.177E+01   -7.163E+01   -7.149E+01   -7.135E+01   -7.122E+01   -7.109E+01   -7.096E+01   -7.084E+01   -7.072E+01
    -7.060E+01   -7.048E+01   -7.036E+01   -7.025E+01   -7.013E+01   -7.002E+01   -6.991E+01   -6.980E+01   -6.969E+01   -6.958E+01
    -6.947E+01   -6.936E+01   -6.925E+01   -6.915E+01   -6.903E+01   -6.892E+01   -6.881E+01   -6.870E+01   -6.859E+01   -6.847E+01
    -6.835E+01   -6.823E+01   -6.811E+01   -6.799E+01   -6.786E+01   -6.773E+01   -6.760E+01   -6.747E+01   -6.733E+01   -6.719E+01
    -6.704E+01   -6.689E+01   -6.674E+01   -6.658E+01   -6.642E+01   -6.626E+01   -6.609E+01   -6.592E+01   -6.575E+01   -6.557E+01
    -6.539E+01   -6.520E+01   -6.502E+01   -6.483E+01   -6.464E+01   -6.445E+01   -6.425E+01   -6.405E+01   -6.385E+01   -6.365E+01
    -6.345E+01   -6.324E+01   -6.304E+01   -6.283E+01   -6.262E+01   -6.241E+01   -6.220E+01   -6.199E+01   -6.177E+01   -6.156E+01
    -6.135E+01   -6.113E+01   -6.092E+01   -6.071E+01   -6.049E+01   -6.028E+01   -6.007E+01   -5.985E+01   -5.964E+01   -5.943E+01
    -5.922E+01   -5.901E+01   -5.880E+01   -5.860E+01   -5.839E+01   -5.819E+01   -5.798E+01   -5.778E+01   -5.758E+01   -5.739E+01
    -5.719E+01   -5.700E+01   -5.680E+01   -5.661E+01   -5.642E+01   -5.623E+01   -5.605E+01   -5.586E+01   -5.568E+01   -5.549E+01
    -5.531E+01   -5.513E+01   -5.495E+01   -5.476E+01   -5.458E+01   -5.441E+01   -5.423E+01   -5.405E+01   -5.387E+01   -5.369E+01
    -5.351E+01   -5.334E+01   -5.316E+01   -5.298E+01   -5.281E+01   -5.263E+01   -5.245E+01   -5.228E+01   -5.210E+01   -5.192E+01
    -5.174E+01   -5.156E+01   -5.138E+01   -5.120E+01   -5.102E+01   -5.084E+01   -5.066E+01   -5.048E+01   -5.029E+01   -5.011E+01
    -4.992E+01   -4.973E+01   -4.954E+01   -4.935E+01   -4.916E+01   -4.897E+01   -4.878E+01   -4.858E+01   -4.839E+01   -4.819E+01
    -4.799E+01   -4.779E+01   -4.760E+01   -4.740E+01   -4.719E+01   -4.699E+01   -4.679E+01   -4.659E+01   -4.638E+01   -4.618E+01
    -4.597E+01   -4.577E+01   -4.556E+01   -4.535E+01   -4.514E+01   -4.494E+01   -4.473E+01   -4.452E+01   -4.431E+01   -4.410E+01
    -4.389E+01   -4.368E+01   -4.347E+01   -4.326E+01   -4.304E+01   -4.283E+01   -4.262E+01   -4.241E+01   -4.220E+01   -4.199E+01
    -4.178E+01   -4.157E+01   -4.135E+01   -4.114E+01   -4.093E+01   -4.072E+01   -4.051E+01   -4.030E+01   -4.009E+01   -3.988E+01
    -3.967E+01   -3.946E+01   -3.926E+01   -3.905E+01   -3.884E+01   -3.863E+01   -3.843E+01   -3.822E+01   -3.802E+01   -3.781E+01
    -3.761E+01   -3.741E+01   -3.721E+01   -3.700E+01   -3.680E+01   -3.660E+01   -3.641E+01   -3.621E+01   -3.601E+01   -3.582E+01
    -3.562E+01   -3.543E+01   -3.523E+01   -3.504E+01   -3.485E+01   -3.466E+01   -3.448E+01   -3.429E+01   -3.410E+01   -3.392E+01
    -3.374E+01   -3.355E+01   -3.337E+01   -3.320E+01   -3.302E+01   -3.284E+01   -3.267E+01   -3.250E+01   -3.233E+01   -3.216E+01
    -3.199E+01   -3.182E+01   -3.166E+01   -3.150E+01   -3.134E+01   -3.118E+01   -3.102E+01   -3.087E+01   -3.071E+01   -3.056E+01
    -3.041E+01   -3.026E+01   -3.011E+01   -2.996E+01   -2.981E+01   -2.967E+01   -2.952E+01   -2.938E+01   -2.924E+01   -2.909E+01
    -2.895E+01   -2.881E+01   -2.867E+01   -2.853E+01   -2.839E+01   -2.826E+01   -2.812E+01   -2.798E+01   -2.784E+01   -2.771E+01
    -2.757E+01   -2.744E+01   -2.730E+01   -2.716E+01   -2.703E+01   -2.689E+01   -2.675E+01   -2.662E+01   -2.648E+01   -2.634E+01
    -2.621E+01   -2.607E+01   -2.593E+01   -2.579E+01   -2.565E+01   -2.551E+01   -2.537E+01   -2.523E+01
 Ala      Conc. = 2.54E+02
