 LCModel (Version 6.3-1L) Copyright: S.W. Provencher.          Ref.: Magn. Reson. Med. 30:672-679 (1993).                
 Slice#3 Row#12 Col#2  PD_24_press_2_raw_act
 36 lines in following concentration table = NCONC+1
    Conc.  %SD /Cr+PCr  Metabolite                                         
    3.315 999%   0.123 Ala                                                 
    8.318 171%   0.309 Asp                                                 
   26.960  78%   1.000 Cr                                                  
    0.000 999%   0.000 PCr                                                 
    5.861 145%   0.217 GABA                                                
    5.215 164%   0.193 Glc                                                 
    6.131 999%   0.227 Gln                                                 
   30.291 378%   1.124 Glu                                                 
    0.000 999%   0.000 GPC                                                 
   29.441  27%   1.092 PCh                                                 
    0.000 999%   0.000 GSH                                                 
  119.236  86%   4.423 Ins                                                 
   34.902 166%   1.295 Lac                                                 
   60.179  41%   2.232 NAA                                                 
    0.000 999%   0.000 NAAG                                                
    3.144  89%   0.117 Scyllo                                              
   13.040 108%   0.484 Tau                                                 
   84.371  28%   3.130 -CrCH2                                              
   29.441  27%   1.092 GPC+PCh                                             
   60.179  41%   2.232 NAA+NAAG                                            
   26.960  78%   1.000 Cr+PCr                                              
   36.422 452%   1.351 Glu+Gln                                             
 1.67E+03  10%  61.831 Lip13a                                              
    0.000 999%   0.000 Lip13b                                              
    0.000 999%   0.000 Lip09                                               
  273.991  21%  10.163 MM09                                                
  409.671  27%  15.196 Lip20                                               
  467.897  23%  17.356 MM20                                                
   86.523  38%   3.209 MM12                                                
  408.122  18%  15.138 MM14                                                
    0.000 999%   0.000 MM17                                                
 1.67E+03  10%  61.831 Lip13a+Lip13b                                       
 2.16E+03   7%  80.179 MM14+Lip13a+Lip13b+MM12                             
  273.991  21%  10.163 MM09+Lip09                                          
  877.568  14%  32.551 MM20+Lip20                                          
   6 lines in following misc. output table
  FWHM = 0.061 ppm    S/N =   2                                            
  Data shift =-0.046 ppm                                                   
  Ph: -13 deg      32.3 deg/ppm                                            
  alphaB,S = 8.4E-01,   6.8E+01                                            
   14 spline knots.   Ns = 6(1)                                            
  ( 4) 2 infls.   ( 3) 1 extrs.                                            
  498 points on ppm-axis = NY
      4.000000     3.992357     3.984714     3.977070     3.969427     3.961784     3.954141     3.946497     3.938854     3.931211
      3.923568     3.915925     3.908281     3.900638     3.892995     3.885352     3.877708     3.870065     3.862422     3.854779
      3.847136     3.839492     3.831849     3.824206     3.816563     3.808919     3.801276     3.793633     3.785990     3.778347
      3.770703     3.763060     3.755417     3.747774     3.740130     3.732487     3.724844     3.717201     3.709558     3.701914
      3.694271     3.686628     3.678985     3.671341     3.663698     3.656055     3.648412     3.640769     3.633125     3.625482
      3.617839     3.610196     3.602552     3.594909     3.587266     3.579623     3.571980     3.564336     3.556693     3.549050
      3.541407     3.533763     3.526120     3.518477     3.510834     3.503191     3.495547     3.487904     3.480261     3.472618
      3.464974     3.457331     3.449688     3.442045     3.434402     3.426758     3.419115     3.411472     3.403829     3.396185
      3.388542     3.380899     3.373256     3.365613     3.357969     3.350326     3.342683     3.335040     3.327396     3.319753
      3.312110     3.304467     3.296824     3.289180     3.281537     3.273894     3.266251     3.258607     3.250964     3.243321
      3.235678     3.228034     3.220391     3.212748     3.205105     3.197462     3.189818     3.182175     3.174532     3.166889
      3.159245     3.151602     3.143959     3.136316     3.128673     3.121029     3.113386     3.105743     3.098100     3.090456
      3.082813     3.075170     3.067527     3.059884     3.052240     3.044597     3.036954     3.029311     3.021667     3.014024
      3.006381     2.998738     2.991095     2.983451     2.975808     2.968165     2.960522     2.952878     2.945235     2.937592
      2.929949     2.922306     2.914662     2.907019     2.899376     2.891733     2.884089     2.876446     2.868803     2.861160
      2.853517     2.845873     2.838230     2.830587     2.822944     2.815300     2.807657     2.800014     2.792371     2.784728
      2.777084     2.769441     2.761798     2.754155     2.746511     2.738868     2.731225     2.723582     2.715939     2.708295
      2.700652     2.693009     2.685366     2.677722     2.670079     2.662436     2.654793     2.647150     2.639506     2.631863
      2.624220     2.616577     2.608933     2.601290     2.593647     2.586004     2.578361     2.570717     2.563074     2.555431
      2.547788     2.540144     2.532501     2.524858     2.517215     2.509572     2.501928     2.494285     2.486642     2.478999
      2.471355     2.463712     2.456069     2.448426     2.440783     2.433139     2.425496     2.417853     2.410210     2.402566
      2.394923     2.387280     2.379637     2.371994     2.364350     2.356707     2.349064     2.341421     2.333777     2.326134
      2.318491     2.310848     2.303205     2.295561     2.287918     2.280275     2.272632     2.264988     2.257345     2.249702
      2.242059     2.234416     2.226772     2.219129     2.211486     2.203843     2.196199     2.188556     2.180913     2.173270
      2.165627     2.157983     2.150340     2.142697     2.135054     2.127410     2.119767     2.112124     2.104481     2.096838
      2.089194     2.081551     2.073908     2.066265     2.058621     2.050978     2.043335     2.035692     2.028049     2.020405
      2.012762     2.005119     1.997476     1.989833     1.982190     1.974546     1.966903     1.959260     1.951617     1.943974
      1.936331     1.928688     1.921045     1.913402     1.905759     1.898115     1.890472     1.882829     1.875186     1.867543
      1.859900     1.852257     1.844614     1.836971     1.829327     1.821684     1.814041     1.806398     1.798755     1.791112
      1.783469     1.775826     1.768183     1.760540     1.752896     1.745253     1.737610     1.729967     1.722324     1.714681
      1.707038     1.699395     1.691752     1.684108     1.676465     1.668822     1.661179     1.653536     1.645893     1.638250
      1.630607     1.622964     1.615321     1.607677     1.600034     1.592391     1.584748     1.577105     1.569462     1.561819
      1.554176     1.546533     1.538890     1.531246     1.523603     1.515960     1.508317     1.500674     1.493031     1.485388
      1.477745     1.470102     1.462458     1.454815     1.447172     1.439529     1.431886     1.424243     1.416600     1.408957
      1.401314     1.393671     1.386027     1.378384     1.370741     1.363098     1.355455     1.347812     1.340169     1.332526
      1.324883     1.317240     1.309596     1.301953     1.294310     1.286667     1.279024     1.271381     1.263738     1.256095
      1.248452     1.240808     1.233165     1.225522     1.217879     1.210236     1.202593     1.194950     1.187307     1.179664
      1.172021     1.164377     1.156734     1.149091     1.141448     1.133805     1.126162     1.118519     1.110876     1.103233
      1.095590     1.087946     1.080303     1.072660     1.065017     1.057374     1.049731     1.042088     1.034445     1.026802
      1.019158     1.011515     1.003872     0.996229     0.988586     0.980943     0.973300     0.965657     0.958014     0.950371
      0.942727     0.935084     0.927441     0.919798     0.912155     0.904512     0.896869     0.889226     0.881583     0.873940
      0.866296     0.858653     0.851010     0.843367     0.835724     0.828081     0.820438     0.812795     0.805152     0.797508
      0.789865     0.782222     0.774579     0.766936     0.759293     0.751650     0.744007     0.736364     0.728721     0.721077
      0.713434     0.705791     0.698148     0.690505     0.682862     0.675219     0.667576     0.659933     0.652290     0.644646
      0.637003     0.629360     0.621717     0.614074     0.606431     0.598788     0.591145     0.583502     0.575858     0.568215
      0.560572     0.552929     0.545286     0.537643     0.530000     0.522357     0.514714     0.507071     0.499427     0.491784
      0.484141     0.476498     0.468855     0.461212     0.453569     0.445925     0.438282     0.430639     0.422996     0.415353
      0.407710     0.400067     0.392424     0.384780     0.377137     0.369494     0.361851     0.354208     0.346565     0.338922
      0.331278     0.323635     0.315992     0.308349     0.300706     0.293063     0.285420     0.277777     0.270133     0.262490
      0.254847     0.247204     0.239561     0.231918     0.224275     0.216631     0.208988     0.201345
 NY phased data points follow
  -1.37340E+01 -1.47858E+01 -1.32143E+01 -1.46303E+01 -1.43316E+01 -1.51582E+01 -1.34154E+01 -1.61740E+01 -1.26256E+01 -1.30157E+01
  -1.19292E+01 -1.15535E+01 -1.12768E+01 -1.29407E+01 -1.18713E+01 -1.06334E+01 -9.47010E+00 -1.24192E+01 -8.36872E+00 -1.13016E+01
  -8.99523E+00 -1.10678E+01 -8.74713E+00 -1.32339E+01 -8.49078E+00 -9.04880E+00 -1.19117E+01 -1.06290E+01 -1.50499E+01 -9.69984E+00
  -1.03684E+01 -7.53084E+00 -1.02919E+01 -8.12228E+00 -8.79094E+00 -1.04252E+01 -7.66945E+00 -1.08041E+01 -8.62896E+00 -8.60572E+00
  -9.58609E+00 -9.18251E+00 -7.22364E+00 -9.29420E+00 -7.49109E+00 -7.75311E+00 -8.05366E+00 -9.42951E+00 -9.21720E+00 -7.39128E+00
  -9.03128E+00 -8.68323E+00 -9.06533E+00 -9.61228E+00 -9.15240E+00 -8.00229E+00 -6.42201E+00 -8.51995E+00 -5.97619E+00 -7.89003E+00
  -7.96820E+00 -8.56954E+00 -9.64670E+00 -8.75432E+00 -1.07138E+01 -6.63611E+00 -5.54681E+00 -8.78594E+00 -8.57637E+00 -7.32923E+00
  -7.18017E+00 -6.91811E+00 -7.80576E+00 -7.37951E+00 -4.92616E+00 -6.47312E+00 -5.21689E+00 -7.50668E+00 -6.68562E+00 -6.50040E+00
  -5.98498E+00 -7.73946E+00 -5.47698E+00 -4.67923E+00 -3.78355E+00 -8.87369E+00 -6.91303E+00 -9.64680E+00 -5.28638E+00 -5.04795E+00
  -5.62199E+00 -6.08385E+00 -7.21186E+00 -6.51691E+00 -5.75868E+00 -6.13150E+00 -7.98984E+00 -8.64020E+00 -6.86771E+00 -5.42666E+00
  -3.84607E+00 -4.32540E+00 -4.43784E+00 -4.46134E+00 -4.24182E+00 -4.85605E+00 -6.93421E+00 -4.30414E+00 -3.05171E+00 -4.38036E+00
  -4.20430E+00 -4.80861E+00 -6.35370E+00 -5.95907E+00 -4.59922E+00 -6.69961E+00 -7.73677E+00 -4.46766E+00 -5.89730E+00 -6.91021E+00
  -4.58431E+00 -7.04483E+00 -4.18558E+00 -6.45252E+00 -5.90653E+00 -6.05990E+00 -3.73037E+00 -5.78295E+00 -2.23419E+00 -3.33366E+00
  -2.06418E+00 -2.51511E+00 -3.66811E+00 -5.19419E+00 -4.99319E+00 -3.27904E+00 -6.17362E+00 -7.04399E+00 -1.65778E+00 -5.20017E+00
  -4.45380E+00 -4.86793E+00 -5.82376E+00 -5.05084E+00 -5.36028E+00 -4.94039E+00 -2.49443E+00 -4.48833E+00 -3.97936E+00 -7.41438E+00
  -5.74044E+00 -3.75777E+00 -4.67832E+00 -3.24100E+00 -3.97972E+00 -4.92990E+00 -4.96328E+00 -2.18821E+00 -4.08341E+00 -6.72487E+00
  -5.36588E+00 -4.78989E+00 -2.36207E+00 -5.19957E+00 -2.84051E+00 -4.34514E+00 -3.57594E+00 -4.11763E+00 -1.99393E+00 -2.74173E+00
  -2.41105E+00 -5.31271E+00 -3.40971E+00 -3.70983E+00 -4.40596E+00 -4.48544E+00 -4.44456E+00 -2.71780E+00 -3.77672E+00 -4.75696E+00
  -3.98176E+00 -4.25335E+00 -5.62955E+00 -4.76853E+00 -5.54615E+00 -5.35199E+00 -3.33616E+00 -3.84349E+00 -4.80622E+00 -3.53871E+00
  -1.75737E+00 -3.15806E+00 -2.45165E+00 -4.47470E+00 -3.07499E+00 -4.96871E+00 -4.25234E+00 -4.85716E+00 -1.75492E+00 -2.84416E+00
  -4.06924E+00 -3.44256E+00 -4.88569E+00 -3.29722E+00 -1.93622E+00 -4.32131E+00 -2.18034E+00 -4.52768E+00 -5.40808E+00 -3.07210E+00
  -1.63829E+00 -2.09786E+00 -4.10480E+00 -2.22269E+00 -2.51939E+00 -4.09961E+00  5.53953E-02 -1.25399E+00 -1.85703E+00 -2.55213E+00
  -1.65017E+00 -3.11619E+00 -1.70163E+00 -2.34317E+00 -1.08678E+00 -3.33845E+00 -1.80076E+00 -8.77319E-01 -1.10530E+00 -2.10819E+00
  -2.04498E-01 -4.45892E-01  9.27962E-01 -1.63864E+00 -1.14437E+00 -7.76273E-01 -6.53969E-01  9.84079E-01 -1.41909E+00  1.06327E+00
   2.03382E+00 -3.89679E-01 -7.74474E-01 -4.87044E-01  2.43637E+00  4.54466E-01  1.63972E+00 -1.24690E+00  5.65418E-01 -2.52087E+00
  -4.09861E-01 -1.40401E+00 -1.71004E+00 -1.75987E+00 -2.26730E+00 -6.80080E-01  2.19168E+00 -2.25731E+00  4.20221E+00  1.62817E+00
   2.84966E-01  1.03552E+00  1.92532E+00  1.23232E+00  1.48236E+00 -4.99854E-01 -2.32927E+00 -2.60126E+00 -1.65083E-01 -3.51992E+00
  -3.10001E+00 -3.82125E+00 -1.59183E+00 -3.15113E+00 -1.66392E+00 -2.22781E+00 -1.11798E+00 -3.87503E+00 -5.39725E-01 -3.02549E+00
  -3.54106E+00 -4.12129E+00 -1.07074E+00 -1.19785E+00 -1.93079E+00 -4.49305E+00 -1.53997E+00 -2.87977E+00 -1.28482E+00 -1.92216E+00
  -1.97531E+00 -4.46813E+00 -4.17231E+00 -1.05793E+00 -6.07687E-02 -3.20685E+00 -1.19147E+00 -3.52645E+00 -2.47406E+00 -3.28314E+00
  -4.30669E+00 -1.82487E+00 -3.15125E+00 -1.47794E+00 -2.99563E+00 -1.42507E+00 -3.70340E+00 -2.22129E+00 -3.64245E+00 -4.47597E+00
  -4.41623E+00 -5.47864E+00 -3.61596E+00 -5.40037E+00 -3.76574E+00 -3.65909E+00 -3.16999E+00 -2.91579E+00 -5.15922E+00 -1.41678E+00
   5.89257E-01  4.02032E-01 -3.38263E-01 -4.25364E-02  5.70438E-01  1.56125E+00  8.82333E-01  1.07223E+00  6.96844E-01 -1.45524E-01
   1.84535E+00  2.92905E+00  4.01635E+00  2.24060E+00  5.45806E+00  1.92258E+00  4.06508E+00  3.76893E+00  3.04916E+00  5.32681E+00
   6.93012E+00  2.82872E+00  4.85414E+00  6.52345E+00  4.14261E+00  3.54361E+00  5.52525E+00  4.92893E+00  7.30725E+00  4.10989E+00
   5.17297E+00  5.35135E+00  7.40561E+00  3.71093E+00  5.59451E+00  6.12584E+00  8.27951E+00  5.37309E+00  4.25145E+00  4.32778E+00
   8.34807E+00  4.56425E+00  8.39998E+00  6.78422E+00  3.39231E+00  6.44921E+00  4.15799E+00  2.80341E+00  3.02038E+00  1.68071E+00
   2.37710E+00  4.23111E+00  3.29445E+00  3.60481E+00  1.96558E+00  3.20307E+00  2.28800E+00  1.04707E+00  3.08198E+00  4.00564E-01
   4.07008E+00  1.93524E+00  2.35977E+00  2.37114E+00  1.13078E+00  4.49778E-01  3.42702E+00  7.45514E-01  1.51547E-01  1.49646E+00
   1.27127E+00  3.48025E+00  1.79082E+00  7.44971E-01  2.22381E+00  1.56094E+00  1.17353E+00 -1.07377E-01  3.83026E-01  7.67232E-02
  -1.71684E-01  6.16041E-01  1.96923E+00  1.53814E+00  7.02606E-01  1.63584E+00 -1.53249E+00 -2.20911E+00  2.27244E-01 -1.35260E+00
  -5.91773E-01  3.74164E-01 -1.94908E+00  3.15785E-01  7.97220E-01  2.22122E+00  2.09447E+00  1.37449E+00 -8.19879E-02 -8.69900E-01
   3.15143E-01 -7.26801E-03 -9.24734E-01 -4.21398E-02  8.70195E-01 -1.67849E+00  1.78543E-01 -3.06311E-01 -2.09317E+00 -6.85728E-01
  -1.08139E+00 -2.58340E+00  1.25934E+00  5.38914E-03  5.57024E-01 -1.89740E+00  5.84177E-01 -3.06688E+00 -6.00286E-01  1.02120E+00
  -6.80413E-01 -8.88426E-01  2.64126E+00 -1.12839E+00  9.89095E-01  1.49091E+00 -2.15373E+00  5.45107E-01 -8.92132E-01  2.07827E+00
   1.58685E-01 -7.31110E-01  1.90253E+00  2.95306E+00  3.11001E-01 -5.36210E-01  3.88970E-01 -1.00140E+00  2.73057E+00  2.46589E-01
  -1.13182E+00 -2.91781E-01  1.82103E+00  2.55099E+00  1.07249E+00  4.74434E-01  8.69172E-01 -1.25846E+00 -2.30769E-01 -1.90403E+00
  -1.12510E+00  1.20091E+00  1.38150E-01 -3.74563E-01  1.53049E+00  1.11076E-01  3.93523E-01 -1.45681E+00  7.79742E-01 -1.08516E+00
  -3.24471E-01 -8.20896E-01  2.10729E+00 -5.00050E-01  7.66298E-01 -6.42345E-01 -7.17130E-01 -1.88915E+00  8.95469E-01 -1.47897E+00
   6.62797E-01 -1.45202E+00  1.30122E+00 -8.17898E-01  6.36504E-01 -7.19984E-01 -1.70161E+00 -1.00844E+00
 NY points of the fit to the data follow
  -1.12753E+01 -1.13178E+01 -1.14206E+01 -1.16407E+01 -1.19293E+01 -1.21901E+01 -1.23334E+01 -1.23298E+01 -1.21975E+01 -1.19803E+01
  -1.17210E+01 -1.14471E+01 -1.11671E+01 -1.08792E+01 -1.06045E+01 -1.03910E+01 -1.02986E+01 -1.03088E+01 -1.03273E+01 -1.03096E+01
  -1.02563E+01 -1.01958E+01 -1.01387E+01 -1.00889E+01 -1.00442E+01 -1.00032E+01 -9.95934E+00 -9.90723E+00 -9.84286E+00 -9.76847E+00
  -9.68846E+00 -9.60674E+00 -9.52467E+00 -9.45205E+00 -9.39617E+00 -9.35952E+00 -9.33934E+00 -9.33166E+00 -9.32885E+00 -9.32161E+00
  -9.29124E+00 -9.20438E+00 -9.04216E+00 -8.83096E+00 -8.62028E+00 -8.45409E+00 -8.35824E+00 -8.33589E+00 -8.36665E+00 -8.42664E+00
  -8.49832E+00 -8.57655E+00 -8.65530E+00 -8.71150E+00 -8.70933E+00 -8.62613E+00 -8.48393E+00 -8.33610E+00 -8.21913E+00 -8.14404E+00
  -8.10567E+00 -8.08997E+00 -8.08447E+00 -8.07846E+00 -8.06800E+00 -8.05128E+00 -8.01810E+00 -7.96052E+00 -7.88287E+00 -7.79459E+00
  -7.70513E+00 -7.62700E+00 -7.56667E+00 -7.52578E+00 -7.50134E+00 -7.48747E+00 -7.47872E+00 -7.46960E+00 -7.45697E+00 -7.43449E+00
  -7.39617E+00 -7.35368E+00 -7.32186E+00 -7.30629E+00 -7.30386E+00 -7.30823E+00 -7.30897E+00 -7.29798E+00 -7.27161E+00 -7.23047E+00
  -7.17463E+00 -7.10812E+00 -7.03382E+00 -6.95142E+00 -6.86490E+00 -6.78362E+00 -6.69706E+00 -6.52800E+00 -6.15627E+00 -5.62213E+00
  -5.05099E+00 -4.56372E+00 -4.23908E+00 -4.10319E+00 -4.13360E+00 -4.29254E+00 -4.54314E+00 -4.86252E+00 -5.24092E+00 -5.64411E+00
  -5.99053E+00 -6.18272E+00 -6.20268E+00 -6.16313E+00 -6.11375E+00 -6.06209E+00 -6.00818E+00 -5.95279E+00 -5.89517E+00 -5.83287E+00
  -5.75718E+00 -5.63629E+00 -5.44740E+00 -5.21888E+00 -4.99276E+00 -4.80436E+00 -4.67491E+00 -4.60869E+00 -4.59678E+00 -4.62613E+00
  -4.68504E+00 -4.76784E+00 -4.86911E+00 -4.97197E+00 -5.04632E+00 -5.06444E+00 -5.03763E+00 -5.00000E+00 -4.95970E+00 -4.91777E+00
  -4.87435E+00 -4.83027E+00 -4.78670E+00 -4.74453E+00 -4.70391E+00 -4.66536E+00 -4.62837E+00 -4.59213E+00 -4.55652E+00 -4.52220E+00
  -4.48980E+00 -4.45924E+00 -4.42981E+00 -4.40152E+00 -4.37561E+00 -4.35587E+00 -4.34342E+00 -4.33578E+00 -4.32904E+00 -4.31884E+00
  -4.30482E+00 -4.28947E+00 -4.27519E+00 -4.26374E+00 -4.25549E+00 -4.24977E+00 -4.24587E+00 -4.24452E+00 -4.24749E+00 -4.25636E+00
  -4.27036E+00 -4.28657E+00 -4.29873E+00 -4.30299E+00 -4.30092E+00 -4.29633E+00 -4.29118E+00 -4.28504E+00 -4.27619E+00 -4.26315E+00
  -4.24639E+00 -4.22905E+00 -4.21211E+00 -4.19395E+00 -4.17309E+00 -4.14662E+00 -4.11262E+00 -4.07519E+00 -4.03880E+00 -4.00569E+00
  -3.97333E+00 -3.93775E+00 -3.89977E+00 -3.86371E+00 -3.83364E+00 -3.80992E+00 -3.78760E+00 -3.76125E+00 -3.72722E+00 -3.68547E+00
  -3.63875E+00 -3.59196E+00 -3.54839E+00 -3.50957E+00 -3.47774E+00 -3.45263E+00 -3.43280E+00 -3.41642E+00 -3.39739E+00 -3.36654E+00
  -3.31313E+00 -3.23591E+00 -3.14276E+00 -3.04568E+00 -2.95448E+00 -2.87679E+00 -2.81816E+00 -2.77886E+00 -2.75029E+00 -2.71872E+00
  -2.67691E+00 -2.62205E+00 -2.54999E+00 -2.46000E+00 -2.35676E+00 -2.25215E+00 -2.15273E+00 -2.05888E+00 -1.97181E+00 -1.89461E+00
  -1.82884E+00 -1.76884E+00 -1.70570E+00 -1.63541E+00 -1.55884E+00 -1.47635E+00 -1.38890E+00 -1.30020E+00 -1.21158E+00 -1.12167E+00
  -1.02781E+00 -9.29056E-01 -8.26044E-01 -7.21122E-01 -6.17963E-01 -5.19212E-01 -4.26188E-01 -3.38947E-01 -2.57738E-01 -1.83607E-01
  -1.18479E-01 -6.42457E-02 -1.87522E-02  3.20470E-02  1.57049E-01  4.17487E-01  7.61563E-01  1.09848E+00  1.34910E+00  1.46508E+00
   1.43681E+00  1.28552E+00  1.04117E+00  7.28711E-01  3.60538E-01 -5.45267E-02 -4.83958E-01 -8.60961E-01 -1.11568E+00 -1.26091E+00
  -1.37026E+00 -1.46462E+00 -1.54833E+00 -1.62467E+00 -1.69555E+00 -1.76170E+00 -1.82405E+00 -1.88345E+00 -1.94023E+00 -1.99388E+00
  -2.04343E+00 -2.08771E+00 -2.12589E+00 -2.15791E+00 -2.18383E+00 -2.20418E+00 -2.21987E+00 -2.23170E+00 -2.24033E+00 -2.24644E+00
  -2.25033E+00 -2.25226E+00 -2.25230E+00 -2.25032E+00 -2.24622E+00 -2.24013E+00 -2.23216E+00 -2.22237E+00 -2.21076E+00 -2.19744E+00
  -2.18244E+00 -2.16576E+00 -2.14740E+00 -2.12727E+00 -2.10513E+00 -2.08073E+00 -2.05368E+00 -2.02354E+00 -1.98971E+00 -1.95152E+00
  -1.90808E+00 -1.85841E+00 -1.80132E+00 -1.73556E+00 -1.65966E+00 -1.57214E+00 -1.47134E+00 -1.35568E+00 -1.22349E+00 -1.07325E+00
  -9.03219E-01 -7.11639E-01 -4.99542E-01 -2.70307E-01 -2.66702E-02  2.29426E-01  4.96570E-01  7.73265E-01  1.05752E+00  1.34851E+00
   1.64607E+00  1.94762E+00  2.24923E+00  2.54693E+00  2.83702E+00  3.11568E+00  3.37866E+00  3.62439E+00  3.85478E+00  4.07340E+00
   4.28743E+00  4.51146E+00  4.74201E+00  4.95009E+00  5.11399E+00  5.22516E+00  5.28751E+00  5.31184E+00  5.31147E+00  5.31937E+00
   5.36813E+00  5.46307E+00  5.59412E+00  5.74919E+00  5.91626E+00  6.07774E+00  6.20015E+00  6.25784E+00  6.25119E+00  6.18004E+00
   6.04128E+00  5.83804E+00  5.58806E+00  5.32217E+00  5.05131E+00  4.77010E+00  4.47876E+00  4.18033E+00  3.87879E+00  3.57829E+00
   3.28295E+00  2.99650E+00  2.72231E+00  2.46322E+00  2.22156E+00  1.99917E+00  1.79738E+00  1.61709E+00  1.45877E+00  1.32254E+00
   1.20824E+00  1.11536E+00  1.04322E+00  9.90843E-01  9.57083E-01  9.40537E-01  9.39628E-01  9.52533E-01  9.77259E-01  1.01158E+00
   1.05313E+00  1.09940E+00  1.14779E+00  1.19569E+00  1.24055E+00  1.27991E+00  1.31158E+00  1.33362E+00  1.34450E+00  1.34307E+00
   1.32869E+00  1.30117E+00  1.26079E+00  1.20829E+00  1.14479E+00  1.07173E+00  9.90789E-01  9.03791E-01  8.12638E-01  7.19188E-01
   6.25226E-01  5.32354E-01  4.41998E-01  3.55327E-01  2.73291E-01  1.96569E-01  1.25635E-01  6.07231E-02  1.91446E-03 -5.08883E-02
  -9.78767E-02 -1.39357E-01 -1.75672E-01 -2.07224E-01 -2.34407E-01 -2.57640E-01 -2.77304E-01 -2.93782E-01 -3.07409E-01 -3.18513E-01
  -3.27367E-01 -3.34237E-01 -3.39337E-01 -3.42880E-01 -3.45028E-01 -3.45947E-01 -3.45758E-01 -3.44591E-01 -3.42536E-01 -3.39695E-01
  -3.36135E-01 -3.31936E-01 -3.27147E-01 -3.21834E-01 -3.16033E-01 -3.09799E-01 -3.03157E-01 -2.96152E-01 -2.88804E-01 -2.81151E-01
  -2.73208E-01 -2.65007E-01 -2.56558E-01 -2.47890E-01 -2.39007E-01 -2.29936E-01 -2.20680E-01 -2.11259E-01 -2.01676E-01 -1.91950E-01
  -1.82080E-01 -1.72085E-01 -1.61964E-01 -1.51733E-01 -1.41388E-01 -1.30947E-01 -1.20404E-01 -1.09775E-01 -9.90560E-02 -8.82596E-02
  -7.73812E-02 -6.64338E-02 -5.54125E-02 -4.43293E-02 -3.31787E-02 -2.19717E-02 -1.07029E-02  6.16278E-04  1.19918E-02  2.34135E-02
   3.48876E-02  4.64039E-02  5.79685E-02  6.95715E-02  8.12192E-02  9.29027E-02  1.04628E-01  1.16387E-01  1.28185E-01  1.40013E-01
   1.51878E-01  1.63771E-01  1.75700E-01  1.87655E-01  1.99643E-01  2.11655E-01  2.23699E-01  2.35767E-01
 NY background values follow
    -1.154E+01   -1.149E+01   -1.144E+01   -1.140E+01   -1.135E+01   -1.130E+01   -1.126E+01   -1.121E+01   -1.116E+01   -1.111E+01
    -1.107E+01   -1.102E+01   -1.097E+01   -1.092E+01   -1.088E+01   -1.083E+01   -1.078E+01   -1.074E+01   -1.069E+01   -1.064E+01
    -1.059E+01   -1.055E+01   -1.050E+01   -1.045E+01   -1.041E+01   -1.036E+01   -1.031E+01   -1.026E+01   -1.022E+01   -1.017E+01
    -1.012E+01   -1.008E+01   -1.003E+01   -9.984E+00   -9.937E+00   -9.891E+00   -9.844E+00   -9.798E+00   -9.751E+00   -9.705E+00
    -9.659E+00   -9.613E+00   -9.567E+00   -9.521E+00   -9.475E+00   -9.429E+00   -9.383E+00   -9.337E+00   -9.292E+00   -9.246E+00
    -9.201E+00   -9.156E+00   -9.110E+00   -9.065E+00   -9.020E+00   -8.975E+00   -8.930E+00   -8.886E+00   -8.841E+00   -8.797E+00
    -8.752E+00   -8.708E+00   -8.664E+00   -8.620E+00   -8.576E+00   -8.532E+00   -8.488E+00   -8.445E+00   -8.401E+00   -8.358E+00
    -8.315E+00   -8.272E+00   -8.229E+00   -8.186E+00   -8.144E+00   -8.101E+00   -8.059E+00   -8.017E+00   -7.975E+00   -7.933E+00
    -7.891E+00   -7.850E+00   -7.808E+00   -7.767E+00   -7.726E+00   -7.685E+00   -7.644E+00   -7.604E+00   -7.563E+00   -7.523E+00
    -7.483E+00   -7.443E+00   -7.403E+00   -7.364E+00   -7.324E+00   -7.285E+00   -7.246E+00   -7.207E+00   -7.169E+00   -7.130E+00
    -7.092E+00   -7.054E+00   -7.016E+00   -6.978E+00   -6.940E+00   -6.903E+00   -6.866E+00   -6.829E+00   -6.792E+00   -6.755E+00
    -6.719E+00   -6.682E+00   -6.646E+00   -6.610E+00   -6.574E+00   -6.539E+00   -6.504E+00   -6.468E+00   -6.433E+00   -6.398E+00
    -6.364E+00   -6.329E+00   -6.295E+00   -6.261E+00   -6.227E+00   -6.193E+00   -6.160E+00   -6.126E+00   -6.093E+00   -6.060E+00
    -6.028E+00   -5.995E+00   -5.963E+00   -5.930E+00   -5.898E+00   -5.866E+00   -5.835E+00   -5.803E+00   -5.772E+00   -5.741E+00
    -5.710E+00   -5.680E+00   -5.649E+00   -5.619E+00   -5.589E+00   -5.559E+00   -5.529E+00   -5.499E+00   -5.470E+00   -5.441E+00
    -5.412E+00   -5.383E+00   -5.354E+00   -5.326E+00   -5.298E+00   -5.270E+00   -5.242E+00   -5.214E+00   -5.187E+00   -5.159E+00
    -5.132E+00   -5.105E+00   -5.078E+00   -5.052E+00   -5.025E+00   -4.999E+00   -4.973E+00   -4.947E+00   -4.922E+00   -4.896E+00
    -4.871E+00   -4.846E+00   -4.821E+00   -4.796E+00   -4.771E+00   -4.747E+00   -4.723E+00   -4.699E+00   -4.675E+00   -4.651E+00
    -4.627E+00   -4.604E+00   -4.581E+00   -4.558E+00   -4.535E+00   -4.512E+00   -4.490E+00   -4.468E+00   -4.445E+00   -4.423E+00
    -4.402E+00   -4.380E+00   -4.359E+00   -4.337E+00   -4.316E+00   -4.295E+00   -4.274E+00   -4.254E+00   -4.233E+00   -4.213E+00
    -4.193E+00   -4.173E+00   -4.153E+00   -4.133E+00   -4.114E+00   -4.094E+00   -4.075E+00   -4.056E+00   -4.037E+00   -4.018E+00
    -4.000E+00   -3.981E+00   -3.963E+00   -3.945E+00   -3.927E+00   -3.909E+00   -3.891E+00   -3.874E+00   -3.856E+00   -3.839E+00
    -3.822E+00   -3.805E+00   -3.788E+00   -3.771E+00   -3.755E+00   -3.738E+00   -3.722E+00   -3.706E+00   -3.690E+00   -3.674E+00
    -3.658E+00   -3.643E+00   -3.627E+00   -3.612E+00   -3.596E+00   -3.581E+00   -3.566E+00   -3.551E+00   -3.537E+00   -3.522E+00
    -3.507E+00   -3.493E+00   -3.478E+00   -3.464E+00   -3.450E+00   -3.435E+00   -3.421E+00   -3.407E+00   -3.394E+00   -3.380E+00
    -3.366E+00   -3.352E+00   -3.339E+00   -3.325E+00   -3.312E+00   -3.298E+00   -3.285E+00   -3.271E+00   -3.258E+00   -3.245E+00
    -3.232E+00   -3.219E+00   -3.205E+00   -3.192E+00   -3.179E+00   -3.166E+00   -3.153E+00   -3.140E+00   -3.128E+00   -3.115E+00
    -3.102E+00   -3.089E+00   -3.076E+00   -3.063E+00   -3.050E+00   -3.037E+00   -3.025E+00   -3.012E+00   -2.999E+00   -2.986E+00
    -2.973E+00   -2.961E+00   -2.948E+00   -2.935E+00   -2.922E+00   -2.909E+00   -2.896E+00   -2.884E+00   -2.871E+00   -2.858E+00
    -2.845E+00   -2.832E+00   -2.819E+00   -2.806E+00   -2.794E+00   -2.781E+00   -2.768E+00   -2.755E+00   -2.742E+00   -2.729E+00
    -2.716E+00   -2.703E+00   -2.690E+00   -2.677E+00   -2.663E+00   -2.650E+00   -2.637E+00   -2.624E+00   -2.611E+00   -2.597E+00
    -2.584E+00   -2.571E+00   -2.557E+00   -2.544E+00   -2.530E+00   -2.517E+00   -2.503E+00   -2.490E+00   -2.476E+00   -2.463E+00
    -2.449E+00   -2.435E+00   -2.421E+00   -2.408E+00   -2.394E+00   -2.380E+00   -2.366E+00   -2.352E+00   -2.338E+00   -2.324E+00
    -2.310E+00   -2.296E+00   -2.282E+00   -2.268E+00   -2.253E+00   -2.239E+00   -2.225E+00   -2.211E+00   -2.197E+00   -2.182E+00
    -2.168E+00   -2.154E+00   -2.139E+00   -2.125E+00   -2.111E+00   -2.096E+00   -2.082E+00   -2.067E+00   -2.053E+00   -2.039E+00
    -2.024E+00   -2.010E+00   -1.995E+00   -1.981E+00   -1.966E+00   -1.952E+00   -1.937E+00   -1.923E+00   -1.908E+00   -1.894E+00
    -1.879E+00   -1.865E+00   -1.850E+00   -1.836E+00   -1.821E+00   -1.806E+00   -1.792E+00   -1.777E+00   -1.763E+00   -1.748E+00
    -1.734E+00   -1.719E+00   -1.705E+00   -1.690E+00   -1.676E+00   -1.661E+00   -1.647E+00   -1.632E+00   -1.618E+00   -1.603E+00
    -1.589E+00   -1.574E+00   -1.559E+00   -1.545E+00   -1.530E+00   -1.516E+00   -1.501E+00   -1.487E+00   -1.472E+00   -1.458E+00
    -1.443E+00   -1.429E+00   -1.414E+00   -1.400E+00   -1.385E+00   -1.370E+00   -1.356E+00   -1.341E+00   -1.327E+00   -1.312E+00
    -1.298E+00   -1.283E+00   -1.269E+00   -1.254E+00   -1.239E+00   -1.225E+00   -1.210E+00   -1.196E+00   -1.181E+00   -1.167E+00
    -1.152E+00   -1.138E+00   -1.123E+00   -1.108E+00   -1.094E+00   -1.079E+00   -1.065E+00   -1.050E+00   -1.036E+00   -1.021E+00
    -1.007E+00   -9.920E-01   -9.775E-01   -9.630E-01   -9.485E-01   -9.340E-01   -9.195E-01   -9.050E-01   -8.906E-01   -8.761E-01
    -8.616E-01   -8.472E-01   -8.328E-01   -8.184E-01   -8.040E-01   -7.896E-01   -7.752E-01   -7.608E-01   -7.465E-01   -7.322E-01
    -7.179E-01   -7.036E-01   -6.893E-01   -6.750E-01   -6.608E-01   -6.466E-01   -6.324E-01   -6.182E-01   -6.040E-01   -5.899E-01
    -5.758E-01   -5.617E-01   -5.476E-01   -5.336E-01   -5.196E-01   -5.056E-01   -4.916E-01   -4.776E-01   -4.637E-01   -4.498E-01
    -4.359E-01   -4.220E-01   -4.082E-01   -3.943E-01   -3.805E-01   -3.667E-01   -3.529E-01   -3.392E-01   -3.254E-01   -3.117E-01
    -2.979E-01   -2.842E-01   -2.705E-01   -2.569E-01   -2.432E-01   -2.295E-01   -2.159E-01   -2.023E-01   -1.886E-01   -1.750E-01
    -1.614E-01   -1.478E-01   -1.343E-01   -1.207E-01   -1.071E-01   -9.356E-02   -8.001E-02   -6.647E-02   -5.293E-02   -3.939E-02
    -2.586E-02   -1.233E-02    1.188E-03    1.471E-02    2.822E-02    4.174E-02    5.525E-02    6.876E-02
 Ala      Conc. = 3.31E+00
