 LCModel (Version 6.3-1L) Copyright: S.W. Provencher.          Ref.: Magn. Reson. Med. 30:672-679 (1993).                
 Slice#1 Row#2 Col#8  PD_24_press_2_raw_act
 36 lines in following concentration table = NCONC+1
    Conc.  %SD /Cr+PCr  Metabolite                                         
  229.882  85%   1.194 Ala                                                 
   46.920 107%   0.244 Asp                                                 
  192.530  46%   1.000 Cr                                                  
    0.000 999%   0.000 PCr                                                 
   24.058 126%   0.125 GABA                                                
   24.834 122%   0.129 Glc                                                 
    0.000 999%   0.000 Gln                                                 
   61.646 667%   0.320 Glu                                                 
    0.000 999%   0.000 GPC                                                 
   79.910  43%   0.415 PCh                                                 
    0.000 999%   0.000 GSH                                                 
    0.000 999%   0.000 Ins                                                 
    0.000 999%   0.000 Lac                                                 
  457.958  26%   2.379 NAA                                                 
    0.000 999%   0.000 NAAG                                                
    9.140 109% 4.7E-02 Scyllo                                              
   41.151 122%   0.214 Tau                                                 
   74.090  88%   0.385 -CrCH2                                              
   79.910  43%   0.415 GPC+PCh                                             
  457.958  26%   2.379 NAA+NAAG                                            
  192.530  46%   1.000 Cr+PCr                                              
   61.646 667%   0.320 Glu+Gln                                             
  254.258 153%   1.321 Lip13a                                              
    0.000 999%   0.000 Lip13b                                              
    0.000 999%   0.000 Lip09                                               
  711.695  32%   3.697 MM09                                                
   45.424 322%   0.236 Lip20                                               
 1.07E+03  32%   5.545 MM20                                                
  213.512  32%   1.109 MM12                                                
  533.785  33%   2.772 MM14                                                
  266.980  33%   1.387 MM17                                                
  254.258 153%   1.321 Lip13a+Lip13b                                       
 1.00E+03  42%   5.202 MM14+Lip13a+Lip13b+MM12                             
  711.695  32%   3.697 MM09+Lip09                                          
 1.11E+03  32%   5.781 MM20+Lip20                                          
   6 lines in following misc. output table
  FWHM = 0.046 ppm    S/N =   1                                            
  Data shift =-0.061 ppm                                                   
  Ph: -90 deg     -31.1 deg/ppm                                            
  alphaB,S = 8.5E+01,   3.9E+01                                            
   14 spline knots.   Ns = 9(1)                                            
   2 inflections.     2 extrema                                            
  498 points on ppm-axis = NY
      4.000000     3.992357     3.984714     3.977070     3.969427     3.961784     3.954141     3.946497     3.938854     3.931211
      3.923568     3.915925     3.908281     3.900638     3.892995     3.885352     3.877708     3.870065     3.862422     3.854779
      3.847136     3.839492     3.831849     3.824206     3.816563     3.808919     3.801276     3.793633     3.785990     3.778347
      3.770703     3.763060     3.755417     3.747774     3.740130     3.732487     3.724844     3.717201     3.709558     3.701914
      3.694271     3.686628     3.678985     3.671341     3.663698     3.656055     3.648412     3.640769     3.633125     3.625482
      3.617839     3.610196     3.602552     3.594909     3.587266     3.579623     3.571980     3.564336     3.556693     3.549050
      3.541407     3.533763     3.526120     3.518477     3.510834     3.503191     3.495547     3.487904     3.480261     3.472618
      3.464974     3.457331     3.449688     3.442045     3.434402     3.426758     3.419115     3.411472     3.403829     3.396185
      3.388542     3.380899     3.373256     3.365613     3.357969     3.350326     3.342683     3.335040     3.327396     3.319753
      3.312110     3.304467     3.296824     3.289180     3.281537     3.273894     3.266251     3.258607     3.250964     3.243321
      3.235678     3.228034     3.220391     3.212748     3.205105     3.197462     3.189818     3.182175     3.174532     3.166889
      3.159245     3.151602     3.143959     3.136316     3.128673     3.121029     3.113386     3.105743     3.098100     3.090456
      3.082813     3.075170     3.067527     3.059884     3.052240     3.044597     3.036954     3.029311     3.021667     3.014024
      3.006381     2.998738     2.991095     2.983451     2.975808     2.968165     2.960522     2.952878     2.945235     2.937592
      2.929949     2.922306     2.914662     2.907019     2.899376     2.891733     2.884089     2.876446     2.868803     2.861160
      2.853517     2.845873     2.838230     2.830587     2.822944     2.815300     2.807657     2.800014     2.792371     2.784728
      2.777084     2.769441     2.761798     2.754155     2.746511     2.738868     2.731225     2.723582     2.715939     2.708295
      2.700652     2.693009     2.685366     2.677722     2.670079     2.662436     2.654793     2.647150     2.639506     2.631863
      2.624220     2.616577     2.608933     2.601290     2.593647     2.586004     2.578361     2.570717     2.563074     2.555431
      2.547788     2.540144     2.532501     2.524858     2.517215     2.509572     2.501928     2.494285     2.486642     2.478999
      2.471355     2.463712     2.456069     2.448426     2.440783     2.433139     2.425496     2.417853     2.410210     2.402566
      2.394923     2.387280     2.379637     2.371994     2.364350     2.356707     2.349064     2.341421     2.333777     2.326134
      2.318491     2.310848     2.303205     2.295561     2.287918     2.280275     2.272632     2.264988     2.257345     2.249702
      2.242059     2.234416     2.226772     2.219129     2.211486     2.203843     2.196199     2.188556     2.180913     2.173270
      2.165627     2.157983     2.150340     2.142697     2.135054     2.127410     2.119767     2.112124     2.104481     2.096838
      2.089194     2.081551     2.073908     2.066265     2.058621     2.050978     2.043335     2.035692     2.028049     2.020405
      2.012762     2.005119     1.997476     1.989833     1.982190     1.974546     1.966903     1.959260     1.951617     1.943974
      1.936331     1.928688     1.921045     1.913402     1.905759     1.898115     1.890472     1.882829     1.875186     1.867543
      1.859900     1.852257     1.844614     1.836971     1.829327     1.821684     1.814041     1.806398     1.798755     1.791112
      1.783469     1.775826     1.768183     1.760540     1.752896     1.745253     1.737610     1.729967     1.722324     1.714681
      1.707038     1.699395     1.691752     1.684108     1.676465     1.668822     1.661179     1.653536     1.645893     1.638250
      1.630607     1.622964     1.615321     1.607677     1.600034     1.592391     1.584748     1.577105     1.569462     1.561819
      1.554176     1.546533     1.538890     1.531246     1.523603     1.515960     1.508317     1.500674     1.493031     1.485388
      1.477745     1.470102     1.462458     1.454815     1.447172     1.439529     1.431886     1.424243     1.416600     1.408957
      1.401314     1.393671     1.386027     1.378384     1.370741     1.363098     1.355455     1.347812     1.340169     1.332526
      1.324883     1.317240     1.309596     1.301953     1.294310     1.286667     1.279024     1.271381     1.263738     1.256095
      1.248452     1.240808     1.233165     1.225522     1.217879     1.210236     1.202593     1.194950     1.187307     1.179664
      1.172021     1.164377     1.156734     1.149091     1.141448     1.133805     1.126162     1.118519     1.110876     1.103233
      1.095590     1.087946     1.080303     1.072660     1.065017     1.057374     1.049731     1.042088     1.034445     1.026802
      1.019158     1.011515     1.003872     0.996229     0.988586     0.980943     0.973300     0.965657     0.958014     0.950371
      0.942727     0.935084     0.927441     0.919798     0.912155     0.904512     0.896869     0.889226     0.881583     0.873940
      0.866296     0.858653     0.851010     0.843367     0.835724     0.828081     0.820438     0.812795     0.805152     0.797508
      0.789865     0.782222     0.774579     0.766936     0.759293     0.751650     0.744007     0.736364     0.728721     0.721077
      0.713434     0.705791     0.698148     0.690505     0.682862     0.675219     0.667576     0.659933     0.652290     0.644646
      0.637003     0.629360     0.621717     0.614074     0.606431     0.598788     0.591145     0.583502     0.575858     0.568215
      0.560572     0.552929     0.545286     0.537643     0.530000     0.522357     0.514714     0.507071     0.499427     0.491784
      0.484141     0.476498     0.468855     0.461212     0.453569     0.445925     0.438282     0.430639     0.422996     0.415353
      0.407710     0.400067     0.392424     0.384780     0.377137     0.369494     0.361851     0.354208     0.346565     0.338922
      0.331278     0.323635     0.315992     0.308349     0.300706     0.293063     0.285420     0.277777     0.270133     0.262490
      0.254847     0.247204     0.239561     0.231918     0.224275     0.216631     0.208988     0.201345
 NY phased data points follow
   1.12814E+01 -1.71452E+00 -6.10117E-01 -1.54916E+01  5.96244E-01 -8.12077E+00 -2.66148E+00  7.81391E+00 -1.00598E+01 -1.02056E+01
  -2.52547E+01 -1.75763E+01 -9.14855E+00  4.69930E-01  2.46443E+00  1.05048E+00 -4.96070E+00 -7.28820E+00 -1.01478E+01 -1.06292E+01
  -1.04834E+01 -1.05149E+01 -8.62245E+00 -1.41013E+01 -5.56548E+00 -7.62555E+00 -1.63888E+00 -1.31607E+00 -8.27674E+00 -6.33493E-01
  -6.11114E+00 -1.52672E+01 -6.70955E+00 -8.27983E+00 -6.14951E+00 -6.43558E+00 -1.71577E+00 -1.44058E+01 -8.28839E+00 -1.00451E+01
   7.73673E-02 -1.64566E+01 -1.07684E+01 -2.05805E+01 -3.63381E+00  7.37939E+00  6.77900E+00 -1.63830E+01 -1.59756E+01 -1.13025E+01
  -8.79733E+00 -5.67745E+00 -1.83409E+01 -1.13067E+00  7.79054E+00 -7.59940E+00 -1.13127E+01 -4.23789E+00  4.58426E+00 -2.01243E+00
  -5.74797E+00 -2.64899E+00 -2.51072E+00 -7.45145E+00 -4.51841E+00 -5.83934E+00 -1.26768E+01 -5.41714E+00 -6.78049E-01 -2.72671E+00
  -8.88311E+00 -5.49014E-01  5.08397E+00 -1.12119E+01 -8.90105E+00 -1.74237E+01  7.50137E+00 -8.58769E-02 -5.04164E+00  1.65622E+00
  -1.52385E+01 -5.94990E+00 -9.30255E+00 -6.31322E+00 -1.27987E+00 -1.06882E+01 -5.89750E+00 -2.73264E+00 -5.92969E+00  4.36709E+00
  -5.11964E+00 -3.89772E+00 -3.52347E+00  9.90619E+00 -5.38743E+00 -2.40136E+00 -7.59178E+00 -1.03846E+01 -1.12054E+01  4.07044E+00
   3.97178E+00  4.71739E+00 -2.95375E+00  1.68483E-01  6.90725E+00  3.28190E+00  1.09202E+01  4.25034E+00  1.46473E+01 -1.16299E+01
  -3.85754E+00 -3.11350E+00  6.19419E-01 -2.07800E-02 -2.22160E-01 -8.32414E+00 -7.42747E+00 -1.71045E+01 -5.51616E+00 -1.06118E+01
   2.07175E+00 -1.15993E+01  1.35212E+00  3.94716E+00  4.14612E+00  1.09006E+00 -8.20323E+00  8.00441E+00 -8.56085E+00  4.83983E+00
   1.89971E+01  5.51318E+00  1.16509E+01  2.59103E+00  3.73034E+00 -3.60968E+00 -6.40735E+00  5.92092E+00  5.54594E+00 -7.91444E+00
  -1.67221E+00 -2.62112E+00 -3.95504E+00 -1.07444E+01  8.18018E-01 -4.17303E+00  2.65672E+00 -5.55656E+00 -2.20334E+00 -2.68568E-01
  -6.54782E+00  1.05032E+01 -4.90522E+00 -1.07934E+01  7.27945E+00 -9.03085E+00 -4.65911E+00 -4.49412E+00 -4.44872E+00  8.35522E+00
   2.19022E+00  3.84523E+00  1.42935E+00 -1.19614E-02 -7.66901E+00  9.26516E-01 -2.57547E+00 -6.49452E+00 -1.41874E+00 -2.55203E+01
  -6.77945E+00  7.23801E+00 -6.85887E-01 -2.73506E+00  2.26012E+00 -6.35841E+00  3.38307E+00 -8.72012E+00 -4.77973E+00  1.08614E+00
  -1.64820E+00  2.54495E+00 -1.61018E+01 -4.96895E-01 -9.50627E+00  1.89181E+00  3.54396E+00  7.43628E+00 -2.58728E+00  1.12620E+00
  -5.28249E+00 -4.25825E+00  5.13107E+00  5.02687E+00  1.70597E+00  1.44155E+01  3.04951E+00  8.00371E+00  9.51248E-01  1.50890E+01
  -2.43296E+00  7.07043E+00 -5.52886E+00  5.99268E+00  6.30658E+00  8.11476E+00 -1.76448E+01  5.90708E+00  8.06081E+00  7.97318E+00
  -1.63863E+00  4.27210E+00  1.19845E+01  5.14119E+00  3.23448E+00  1.15778E+01  7.33465E+00 -7.51785E-01 -3.43200E+00  8.77691E+00
   5.42165E+00 -1.70912E+00  2.27870E+01  5.31083E+00  5.95322E+00 -2.26792E+00  1.94701E+00  3.26652E+00  7.36054E+00 -5.82673E+00
   2.91656E+00  8.85263E+00  5.39486E+00  1.22135E+01 -9.17524E-01 -1.39081E+00 -9.35404E+00  4.15102E+00 -5.49815E+00  6.41554E+00
   1.22676E+01 -5.35695E+00  1.12002E+00 -4.06227E-01 -1.25244E+01  4.15238E+00 -3.86658E+00 -3.81142E+00 -4.79821E-03  1.25671E+01
   6.60556E+00  1.23503E-01  5.01201E+00  7.94056E+00 -1.64790E-01 -1.45729E+00  2.65045E-01  9.84050E+00  2.13112E+00  1.42667E+01
   7.19498E+00  2.20438E+01  1.31377E+01  2.88322E+01  1.96787E+01  1.05256E+01  1.61973E+01  2.42607E+01  9.20544E+00  5.17054E+00
   9.22813E+00  1.92335E+00  6.85440E+00  2.04550E+01  1.13821E+01  6.23751E+00  1.13034E+01  1.34695E+01  7.06286E+00  7.78503E+00
   1.17143E+01  9.49425E+00  2.40409E+01  3.07717E+00  1.06864E+01  4.18988E+00  1.09556E+01  1.16554E+01  8.23273E+00  1.50928E+01
   8.86948E+00  3.99739E+00  4.90472E+00  1.46036E+01  7.49562E+00  1.62991E+01  7.22687E+00  5.08756E+00  6.82973E+00  9.80062E+00
   3.37331E+00  4.91543E+00  1.43587E+01 -3.16095E+00 -1.42362E+00  9.29947E+00  3.21546E+00  2.20360E+01  3.56496E+00  3.75527E+00
   2.16663E+00  7.48637E+00  1.37640E+01  7.87217E+00  1.55045E+01 -2.92157E+00  1.28707E+01  1.38554E+01  5.19874E+00 -3.52929E+00
   2.26243E+01  6.68137E+00  1.01875E+01  3.78697E+00 -4.38072E+00  1.67748E+01  7.36304E+00  4.10693E+00  2.21905E+00  1.98570E+01
  -5.43306E+00 -7.17746E+00  5.58178E+00  3.95325E+00  1.45249E+00 -4.56121E-01  9.20354E+00  1.38270E+01  1.60814E+01  1.74145E+01
   8.97128E+00  8.24657E+00  1.64353E+00  1.75723E+00 -3.62653E-02 -1.04060E+00  6.25016E+00  3.06154E+00  1.23829E+01  1.32040E+01
   4.14379E+00  8.80020E+00  1.26953E+01  9.86604E+00  9.14007E+00 -3.02708E+00 -5.21412E-01  5.48475E+00  8.48545E+00  2.15687E+01
  -1.65375E+00 -9.73086E+00 -1.58687E+00  8.32350E+00  1.21255E+01 -3.99275E+00  1.18976E+01  1.68224E+01  1.45132E+01  4.54999E+00
   5.67427E+00  4.84542E+00  1.51252E+01  1.05820E+01  1.44889E+00  1.21353E+01  1.74299E+01  2.39967E+01  7.37170E+00  1.42946E+01
   1.24079E+01  1.80439E+01  9.40429E+00  1.84690E+01  2.03272E+01  2.89101E+01  9.37583E+00  8.34840E+00  1.42768E+01  1.51011E+01
   1.45698E+00  1.06338E+01 -2.42049E+00  4.33636E+00  5.99138E+00  1.10427E+01  4.32499E+00  9.73691E+00  2.69512E+00  1.24875E+01
   3.17483E+00  8.02909E+00  1.08211E+01  2.17126E+01  2.19249E+00  1.96060E+01  9.67458E+00  4.82917E+00  2.40308E+01  5.48484E+00
  -1.60183E+00 -3.29478E+00  4.94990E+00  1.08309E+01  9.39962E+00  7.54328E+00  7.79145E+00 -5.50799E+00  1.79263E+01  1.14225E+00
   1.09130E+01 -1.13180E-02  9.64365E+00 -2.06484E+00 -1.02194E+00  1.17636E+01  8.44587E-01  1.48647E+01  3.07485E+00 -5.38929E+00
  -1.36799E+00  5.16934E-01 -7.76535E+00 -2.40106E+00 -5.33816E-01  7.14545E+00  1.56256E+01  2.75365E+00  1.66499E+00  1.03814E+01
  -3.17067E+00  5.50332E+00 -3.14158E-01  6.65379E-01  4.97954E+00 -2.05704E+00  8.40326E+00 -2.88809E+00 -6.23183E+00  5.72208E+00
   5.55879E+00  1.43563E+01  1.15810E+01  5.27922E+00  1.14797E+01  1.39279E+01  1.44645E+00  9.41803E+00  9.27199E+00  6.31565E+00
   2.70198E+00  1.14583E+00  9.50592E+00  1.51676E+01  3.45552E+00  1.58640E+01  4.06734E+00  1.51421E+01  3.72982E+00  4.63864E+00
   3.42961E-01  2.05552E+01  4.32184E+00 -3.78503E-01  1.05855E+01  3.28157E+00 -1.24315E+00  1.59927E+01  1.27552E+00  1.04771E+00
   6.58306E+00 -4.35999E+00  1.28987E+01  6.75421E+00  1.54748E+01  2.97596E+00  4.67234E+00 -4.63031E+00  3.76216E-01  4.36103E+00
  -5.05655E+00  1.58724E+01  1.10465E+01  7.20998E+00  6.84664E+00  1.39882E+01  5.87215E+00  3.63955E+00
 NY points of the fit to the data follow
  -6.21083E+00 -6.12137E+00 -6.13653E+00 -6.29491E+00 -6.48999E+00 -6.60864E+00 -6.58792E+00 -6.46956E+00 -6.34031E+00 -6.17659E+00
  -5.82030E+00 -5.12566E+00 -4.13513E+00 -3.12372E+00 -2.45506E+00 -2.34623E+00 -2.73686E+00 -3.40413E+00 -4.15128E+00 -4.81979E+00
  -5.27757E+00 -5.46187E+00 -5.40691E+00 -5.21478E+00 -5.02027E+00 -4.90753E+00 -4.92662E+00 -5.08941E+00 -5.35853E+00 -5.65980E+00
  -5.91537E+00 -6.06160E+00 -6.05005E+00 -5.85874E+00 -5.51483E+00 -5.10659E+00 -4.74695E+00 -4.52234E+00 -4.45139E+00 -4.50459E+00
  -4.63870E+00 -4.80753E+00 -4.96125E+00 -5.06807E+00 -5.11938E+00 -5.12667E+00 -5.10346E+00 -5.05735E+00 -4.99557E+00 -4.92808E+00
  -4.86365E+00 -4.80423E+00 -4.74453E+00 -4.67961E+00 -4.61075E+00 -4.54313E+00 -4.48635E+00 -4.44707E+00 -4.42426E+00 -4.41133E+00
  -4.40225E+00 -4.38828E+00 -4.36482E+00 -4.33269E+00 -4.29425E+00 -4.25181E+00 -4.21161E+00 -4.17862E+00 -4.15035E+00 -4.12407E+00
  -4.09679E+00 -4.06477E+00 -4.02749E+00 -3.98383E+00 -3.92645E+00 -3.85054E+00 -3.76544E+00 -3.69851E+00 -3.66992E+00 -3.67842E+00
  -3.70406E+00 -3.71747E+00 -3.69926E+00 -3.64380E+00 -3.54399E+00 -3.39393E+00 -3.20470E+00 -3.01100E+00 -2.86181E+00 -2.79956E+00
  -2.83362E+00 -2.93078E+00 -3.05401E+00 -3.20444E+00 -3.47955E+00 -3.86722E+00 -4.14628E+00 -4.13711E+00 -3.75290E+00 -3.04521E+00
  -2.13568E+00 -1.02894E+00  4.01395E-01  2.19067E+00  4.08934E+00  5.60096E+00  6.22195E+00  5.76048E+00  4.47381E+00  2.81520E+00
   1.14884E+00 -2.82706E-01 -1.31348E+00 -1.90699E+00 -2.14850E+00 -2.19775E+00 -2.19662E+00 -2.20564E+00 -2.32875E+00 -2.55258E+00
  -2.70587E+00 -2.65671E+00 -2.34005E+00 -1.79089E+00 -1.08843E+00 -2.06444E-01  9.74346E-01  2.46976E+00  4.04963E+00  5.29092E+00
   5.77966E+00  5.37336E+00  4.29412E+00  2.91125E+00  1.51792E+00  3.15360E-01 -5.58898E-01 -1.07921E+00 -1.31445E+00 -1.39224E+00
  -1.41932E+00 -1.42756E+00 -1.43141E+00 -1.43795E+00 -1.44467E+00 -1.44451E+00 -1.43527E+00 -1.42248E+00 -1.41500E+00 -1.41796E+00
  -1.42952E+00 -1.44173E+00 -1.44173E+00 -1.42873E+00 -1.41330E+00 -1.40684E+00 -1.42122E+00 -1.44915E+00 -1.47761E+00 -1.50791E+00
  -1.55121E+00 -1.61565E+00 -1.68830E+00 -1.73193E+00 -1.70871E+00 -1.61346E+00 -1.48170E+00 -1.36013E+00 -1.28639E+00 -1.28480E+00
  -1.34635E+00 -1.44464E+00 -1.54557E+00 -1.62348E+00 -1.68106E+00 -1.73794E+00 -1.80170E+00 -1.85063E+00 -1.84506E+00 -1.77659E+00
  -1.68174E+00 -1.60554E+00 -1.56665E+00 -1.54087E+00 -1.49233E+00 -1.41810E+00 -1.34003E+00 -1.26835E+00 -1.18702E+00 -1.05834E+00
  -8.66600E-01 -6.32471E-01 -3.98694E-01 -1.98215E-01 -4.19330E-02  7.06555E-02  1.56759E-01  2.28707E-01  2.85329E-01  3.17490E-01
   3.15238E-01  2.87804E-01  2.70775E-01  3.03231E-01  4.05609E-01  5.56159E-01  7.00985E-01  7.84021E-01  7.86181E-01  7.25991E-01
   6.35566E-01  5.36987E-01  4.43013E-01  3.75031E-01  3.61843E-01  4.23754E-01  5.58232E-01  7.38494E-01  9.17271E-01  1.05499E+00
   1.13828E+00  1.17497E+00  1.18738E+00  1.20816E+00  1.27199E+00  1.40255E+00  1.59210E+00  1.80672E+00  2.00852E+00  2.17586E+00
   2.30447E+00  2.40383E+00  2.49486E+00  2.60185E+00  2.74253E+00  2.91606E+00  3.10829E+00  3.30490E+00  3.49783E+00  3.68147E+00
   3.85357E+00  4.01662E+00  4.17610E+00  4.33835E+00  4.50661E+00  4.67924E+00  4.85105E+00  5.01357E+00  5.15482E+00  5.25958E+00
   5.28622E+00  5.05001E+00  4.47575E+00  3.95565E+00  3.84232E+00  4.33266E+00  5.39496E+00  6.82580E+00  8.60138E+00  1.09835E+01
   1.41155E+01  1.76118E+01  2.05608E+01  2.19453E+01  2.12401E+01  1.88000E+01  1.54785E+01  1.20250E+01  8.94495E+00  6.59496E+00
   5.09879E+00  4.32290E+00  3.98946E+00  3.80931E+00  3.69211E+00  3.61476E+00  3.56321E+00  3.52531E+00  3.49131E+00  3.45466E+00
   3.41308E+00  3.36903E+00  3.32829E+00  3.29689E+00  3.28020E+00  3.28255E+00  3.30554E+00  3.34811E+00  3.40709E+00  3.47824E+00
   3.55793E+00  3.64375E+00  3.73382E+00  3.82670E+00  3.92142E+00  4.01734E+00  4.11369E+00  4.20942E+00  4.30319E+00  4.39341E+00
   4.47834E+00  4.55630E+00  4.62588E+00  4.68614E+00  4.73673E+00  4.77776E+00  4.80983E+00  4.83401E+00  4.85178E+00  4.86503E+00
   4.87586E+00  4.88649E+00  4.89902E+00  4.91536E+00  4.93690E+00  4.96389E+00  4.99306E+00  5.01010E+00  5.01464E+00  5.10996E+00
   5.35910E+00  5.75123E+00  6.23046E+00  6.72075E+00  7.19796E+00  7.67943E+00  8.05270E+00  8.14501E+00  7.81389E+00  7.01832E+00
   5.89116E+00  4.69924E+00  3.70067E+00  3.08448E+00  3.00593E+00  3.57075E+00  4.71927E+00  6.17551E+00  7.54290E+00  8.49821E+00
   8.96921E+00  9.04328E+00  8.83647E+00  8.47322E+00  8.08448E+00  7.76191E+00  7.54626E+00  7.41183E+00  7.32032E+00  7.25451E+00
   7.20603E+00  7.16997E+00  7.14306E+00  7.12292E+00  7.10768E+00  7.09577E+00  7.08579E+00  7.07646E+00  7.06670E+00  7.05560E+00
   7.04244E+00  7.02670E+00  7.00802E+00  6.98625E+00  6.96147E+00  6.93401E+00  6.90441E+00  6.87340E+00  6.84186E+00  6.81086E+00
   6.78159E+00  6.75545E+00  6.73387E+00  6.71840E+00  6.71058E+00  6.71207E+00  6.72452E+00  6.74964E+00  6.78908E+00  6.84445E+00
   6.91725E+00  7.00888E+00  7.12057E+00  7.25330E+00  7.40768E+00  7.58389E+00  7.78157E+00  7.99978E+00  8.23688E+00  8.49044E+00
   8.75720E+00  9.03309E+00  9.31326E+00  9.59225E+00  9.86404E+00  1.01223E+01  1.03606E+01  1.05726E+01  1.07528E+01  1.08959E+01
   1.09982E+01  1.10569E+01  1.10704E+01  1.10389E+01  1.09639E+01  1.08481E+01  1.06956E+01  1.05113E+01  1.03008E+01  1.00702E+01
   9.82562E+00  9.57323E+00  9.31866E+00  9.06702E+00  8.82271E+00  8.58937E+00  8.36982E+00  8.16609E+00  7.97943E+00  7.81043E+00
   7.65912E+00  7.52509E+00  7.40757E+00  7.30553E+00  7.21776E+00  7.14300E+00  7.07996E+00  7.02740E+00  6.98413E+00  6.94903E+00
   6.92108E+00  6.89937E+00  6.88311E+00  6.87161E+00  6.86426E+00  6.86050E+00  6.85987E+00  6.86199E+00  6.86654E+00  6.87322E+00
   6.88178E+00  6.89200E+00  6.90369E+00  6.91670E+00  6.93089E+00  6.94617E+00  6.96240E+00  6.97948E+00  6.99734E+00  7.01592E+00
   7.03516E+00  7.05501E+00  7.07539E+00  7.09626E+00  7.11759E+00  7.13935E+00  7.16151E+00  7.18404E+00  7.20690E+00  7.23006E+00
   7.25351E+00  7.27725E+00  7.30125E+00  7.32548E+00  7.34992E+00  7.37456E+00  7.39940E+00  7.42444E+00  7.44965E+00  7.47502E+00
   7.50053E+00  7.52618E+00  7.55198E+00  7.57791E+00  7.60397E+00  7.63013E+00  7.65639E+00  7.68276E+00  7.70924E+00  7.73583E+00
   7.76249E+00  7.78923E+00  7.81604E+00  7.84294E+00  7.86993E+00  7.89699E+00  7.92410E+00  7.95127E+00  7.97851E+00  8.00581E+00
   8.03318E+00  8.06060E+00  8.08807E+00  8.11558E+00  8.14314E+00  8.17077E+00  8.19845E+00  8.22616E+00
 NY background values follow
    -6.371E+00   -6.342E+00   -6.313E+00   -6.283E+00   -6.254E+00   -6.225E+00   -6.196E+00   -6.167E+00   -6.137E+00   -6.108E+00
    -6.079E+00   -6.050E+00   -6.021E+00   -5.991E+00   -5.962E+00   -5.933E+00   -5.904E+00   -5.875E+00   -5.846E+00   -5.816E+00
    -5.787E+00   -5.758E+00   -5.729E+00   -5.700E+00   -5.670E+00   -5.641E+00   -5.612E+00   -5.583E+00   -5.554E+00   -5.524E+00
    -5.495E+00   -5.466E+00   -5.437E+00   -5.408E+00   -5.378E+00   -5.349E+00   -5.320E+00   -5.291E+00   -5.262E+00   -5.233E+00
    -5.203E+00   -5.174E+00   -5.145E+00   -5.116E+00   -5.087E+00   -5.057E+00   -5.028E+00   -4.999E+00   -4.970E+00   -4.941E+00
    -4.911E+00   -4.882E+00   -4.853E+00   -4.824E+00   -4.795E+00   -4.766E+00   -4.736E+00   -4.707E+00   -4.678E+00   -4.649E+00
    -4.620E+00   -4.590E+00   -4.561E+00   -4.532E+00   -4.503E+00   -4.474E+00   -4.444E+00   -4.415E+00   -4.386E+00   -4.357E+00
    -4.328E+00   -4.298E+00   -4.269E+00   -4.240E+00   -4.211E+00   -4.182E+00   -4.153E+00   -4.123E+00   -4.094E+00   -4.065E+00
    -4.036E+00   -4.007E+00   -3.977E+00   -3.948E+00   -3.919E+00   -3.890E+00   -3.861E+00   -3.831E+00   -3.802E+00   -3.773E+00
    -3.744E+00   -3.715E+00   -3.685E+00   -3.656E+00   -3.627E+00   -3.598E+00   -3.569E+00   -3.540E+00   -3.510E+00   -3.481E+00
    -3.452E+00   -3.423E+00   -3.394E+00   -3.364E+00   -3.335E+00   -3.306E+00   -3.277E+00   -3.248E+00   -3.218E+00   -3.189E+00
    -3.160E+00   -3.131E+00   -3.102E+00   -3.072E+00   -3.043E+00   -3.014E+00   -2.985E+00   -2.956E+00   -2.927E+00   -2.897E+00
    -2.868E+00   -2.839E+00   -2.810E+00   -2.781E+00   -2.751E+00   -2.722E+00   -2.693E+00   -2.664E+00   -2.635E+00   -2.605E+00
    -2.576E+00   -2.547E+00   -2.518E+00   -2.489E+00   -2.460E+00   -2.430E+00   -2.401E+00   -2.372E+00   -2.343E+00   -2.314E+00
    -2.284E+00   -2.255E+00   -2.226E+00   -2.197E+00   -2.168E+00   -2.138E+00   -2.109E+00   -2.080E+00   -2.051E+00   -2.022E+00
    -1.992E+00   -1.963E+00   -1.934E+00   -1.905E+00   -1.876E+00   -1.847E+00   -1.817E+00   -1.788E+00   -1.759E+00   -1.730E+00
    -1.701E+00   -1.671E+00   -1.642E+00   -1.613E+00   -1.584E+00   -1.555E+00   -1.525E+00   -1.496E+00   -1.467E+00   -1.438E+00
    -1.409E+00   -1.380E+00   -1.350E+00   -1.321E+00   -1.292E+00   -1.263E+00   -1.234E+00   -1.204E+00   -1.175E+00   -1.146E+00
    -1.117E+00   -1.088E+00   -1.058E+00   -1.029E+00   -1.000E+00   -9.709E-01   -9.417E-01   -9.125E-01   -8.833E-01   -8.541E-01
    -8.249E-01   -7.957E-01   -7.665E-01   -7.374E-01   -7.082E-01   -6.790E-01   -6.498E-01   -6.206E-01   -5.914E-01   -5.622E-01
    -5.330E-01   -5.038E-01   -4.747E-01   -4.455E-01   -4.163E-01   -3.871E-01   -3.579E-01   -3.287E-01   -2.995E-01   -2.703E-01
    -2.411E-01   -2.120E-01   -1.828E-01   -1.536E-01   -1.244E-01   -9.521E-02   -6.602E-02   -3.683E-02   -7.640E-03    2.155E-02
     5.074E-02    7.992E-02    1.091E-01    1.383E-01    1.675E-01    1.967E-01    2.259E-01    2.551E-01    2.842E-01    3.134E-01
     3.426E-01    3.718E-01    4.010E-01    4.302E-01    4.594E-01    4.886E-01    5.177E-01    5.469E-01    5.761E-01    6.053E-01
     6.345E-01    6.637E-01    6.929E-01    7.221E-01    7.512E-01    7.804E-01    8.096E-01    8.388E-01    8.680E-01    8.972E-01
     9.264E-01    9.556E-01    9.847E-01    1.014E+00    1.043E+00    1.072E+00    1.101E+00    1.131E+00    1.160E+00    1.189E+00
     1.218E+00    1.247E+00    1.277E+00    1.306E+00    1.335E+00    1.364E+00    1.393E+00    1.423E+00    1.452E+00    1.481E+00
     1.510E+00    1.539E+00    1.568E+00    1.598E+00    1.627E+00    1.656E+00    1.685E+00    1.714E+00    1.744E+00    1.773E+00
     1.802E+00    1.831E+00    1.860E+00    1.890E+00    1.919E+00    1.948E+00    1.977E+00    2.006E+00    2.035E+00    2.065E+00
     2.094E+00    2.123E+00    2.152E+00    2.181E+00    2.211E+00    2.240E+00    2.269E+00    2.298E+00    2.327E+00    2.357E+00
     2.386E+00    2.415E+00    2.444E+00    2.473E+00    2.502E+00    2.532E+00    2.561E+00    2.590E+00    2.619E+00    2.648E+00
     2.678E+00    2.707E+00    2.736E+00    2.765E+00    2.794E+00    2.824E+00    2.853E+00    2.882E+00    2.911E+00    2.940E+00
     2.969E+00    2.999E+00    3.028E+00    3.057E+00    3.086E+00    3.115E+00    3.145E+00    3.174E+00    3.203E+00    3.232E+00
     3.261E+00    3.290E+00    3.320E+00    3.349E+00    3.378E+00    3.407E+00    3.436E+00    3.466E+00    3.495E+00    3.524E+00
     3.553E+00    3.582E+00    3.612E+00    3.641E+00    3.670E+00    3.699E+00    3.728E+00    3.757E+00    3.787E+00    3.816E+00
     3.845E+00    3.874E+00    3.903E+00    3.933E+00    3.962E+00    3.991E+00    4.020E+00    4.049E+00    4.078E+00    4.108E+00
     4.137E+00    4.166E+00    4.195E+00    4.224E+00    4.254E+00    4.283E+00    4.312E+00    4.341E+00    4.370E+00    4.399E+00
     4.429E+00    4.458E+00    4.487E+00    4.516E+00    4.545E+00    4.575E+00    4.604E+00    4.633E+00    4.662E+00    4.691E+00
     4.721E+00    4.750E+00    4.779E+00    4.808E+00    4.837E+00    4.866E+00    4.896E+00    4.925E+00    4.954E+00    4.983E+00
     5.012E+00    5.042E+00    5.071E+00    5.100E+00    5.129E+00    5.158E+00    5.187E+00    5.217E+00    5.246E+00    5.275E+00
     5.304E+00    5.333E+00    5.363E+00    5.392E+00    5.421E+00    5.450E+00    5.479E+00    5.508E+00    5.538E+00    5.567E+00
     5.596E+00    5.625E+00    5.654E+00    5.684E+00    5.713E+00    5.742E+00    5.771E+00    5.800E+00    5.830E+00    5.859E+00
     5.888E+00    5.917E+00    5.946E+00    5.975E+00    6.005E+00    6.034E+00    6.063E+00    6.092E+00    6.121E+00    6.151E+00
     6.180E+00    6.209E+00    6.238E+00    6.267E+00    6.296E+00    6.326E+00    6.355E+00    6.384E+00    6.413E+00    6.442E+00
     6.472E+00    6.501E+00    6.530E+00    6.559E+00    6.588E+00    6.617E+00    6.647E+00    6.676E+00    6.705E+00    6.734E+00
     6.763E+00    6.793E+00    6.822E+00    6.851E+00    6.880E+00    6.909E+00    6.938E+00    6.968E+00    6.997E+00    7.026E+00
     7.055E+00    7.084E+00    7.114E+00    7.143E+00    7.172E+00    7.201E+00    7.230E+00    7.260E+00    7.289E+00    7.318E+00
     7.347E+00    7.376E+00    7.405E+00    7.435E+00    7.464E+00    7.493E+00    7.522E+00    7.551E+00    7.581E+00    7.610E+00
     7.639E+00    7.668E+00    7.697E+00    7.726E+00    7.756E+00    7.785E+00    7.814E+00    7.843E+00    7.872E+00    7.902E+00
     7.931E+00    7.960E+00    7.989E+00    8.018E+00    8.047E+00    8.077E+00    8.106E+00    8.135E+00
 Ala      Conc. = 2.30E+02
