 LCModel (Version 6.3-1L) Copyright: S.W. Provencher.          Ref.: Magn. Reson. Med. 30:672-679 (1993).                
 Slice#1 Row#6 Col#6  PD_24_press_2_raw_act
 36 lines in following concentration table = NCONC+1
    Conc.  %SD /Cr+PCr  Metabolite                                         
  627.155  91%   0.584 Ala                                                 
  128.943 147%   0.120 Asp                                                 
 1.05E+03  63%   0.976 Cr                                                  
   26.173 999% 2.4E-02 PCr                                                 
  113.954 101%   0.106 GABA                                                
  113.726 101%   0.106 Glc                                                 
    0.000 999%   0.000 Gln                                                 
  220.376 556%   0.205 Glu                                                 
    0.000 999%   0.000 GPC                                                 
  200.782  29%   0.187 PCh                                                 
  176.003 135%   0.164 GSH                                                 
  841.053  84%   0.783 Ins                                                 
    0.000 999%   0.000 Lac                                                 
 1.96E+03  19%   1.824 NAA                                                 
  278.762 147%   0.259 NAAG                                                
   29.551 121% 2.7E-02 Scyllo                                              
  222.711  84%   0.207 Tau                                                 
  478.249  45%   0.445 -CrCH2                                              
  200.782  29%   0.187 GPC+PCh                                             
 2.24E+03  10%   2.084 NAA+NAAG                                            
 1.07E+03  15%   1.000 Cr+PCr                                              
  220.376 556%   0.205 Glu+Gln                                             
 2.96E+03  54%   2.751 Lip13a                                              
   93.298 602% 8.7E-02 Lip13b                                              
  974.509  51%   0.907 Lip09                                               
 2.01E+03  30%   1.869 MM09                                                
  520.688  60%   0.485 Lip20                                               
 1.11E+03  86%   1.030 MM20                                                
  367.493 133%   0.342 MM12                                                
 1.22E+03  68%   1.131 MM14                                                
 3.70E+03  15%   3.443 MM17                                                
 3.05E+03  41%   2.837 Lip13a+Lip13b                                       
 4.63E+03  17%   4.310 MM14+Lip13a+Lip13b+MM12                             
 2.98E+03  13%   2.775 MM09+Lip09                                          
 1.63E+03  56%   1.514 MM20+Lip20                                          
   6 lines in following misc. output table
  FWHM = 0.092 ppm    S/N =   3                                            
  Data shift = 0.031 ppm                                                   
  Ph: -36 deg      -2.5 deg/ppm                                            
  alphaB,S = 8.5E+01,   4.1E+02                                            
   14 spline knots.   Ns =10(1)                                            
   2 inflections.     1 extrema                                            
  498 points on ppm-axis = NY
      4.000000     3.992357     3.984714     3.977070     3.969427     3.961784     3.954141     3.946497     3.938854     3.931211
      3.923568     3.915925     3.908281     3.900638     3.892995     3.885352     3.877708     3.870065     3.862422     3.854779
      3.847136     3.839492     3.831849     3.824206     3.816563     3.808919     3.801276     3.793633     3.785990     3.778347
      3.770703     3.763060     3.755417     3.747774     3.740130     3.732487     3.724844     3.717201     3.709558     3.701914
      3.694271     3.686628     3.678985     3.671341     3.663698     3.656055     3.648412     3.640769     3.633125     3.625482
      3.617839     3.610196     3.602552     3.594909     3.587266     3.579623     3.571980     3.564336     3.556693     3.549050
      3.541407     3.533763     3.526120     3.518477     3.510834     3.503191     3.495547     3.487904     3.480261     3.472618
      3.464974     3.457331     3.449688     3.442045     3.434402     3.426758     3.419115     3.411472     3.403829     3.396185
      3.388542     3.380899     3.373256     3.365613     3.357969     3.350326     3.342683     3.335040     3.327396     3.319753
      3.312110     3.304467     3.296824     3.289180     3.281537     3.273894     3.266251     3.258607     3.250964     3.243321
      3.235678     3.228034     3.220391     3.212748     3.205105     3.197462     3.189818     3.182175     3.174532     3.166889
      3.159245     3.151602     3.143959     3.136316     3.128673     3.121029     3.113386     3.105743     3.098100     3.090456
      3.082813     3.075170     3.067527     3.059884     3.052240     3.044597     3.036954     3.029311     3.021667     3.014024
      3.006381     2.998738     2.991095     2.983451     2.975808     2.968165     2.960522     2.952878     2.945235     2.937592
      2.929949     2.922306     2.914662     2.907019     2.899376     2.891733     2.884089     2.876446     2.868803     2.861160
      2.853517     2.845873     2.838230     2.830587     2.822944     2.815300     2.807657     2.800014     2.792371     2.784728
      2.777084     2.769441     2.761798     2.754155     2.746511     2.738868     2.731225     2.723582     2.715939     2.708295
      2.700652     2.693009     2.685366     2.677722     2.670079     2.662436     2.654793     2.647150     2.639506     2.631863
      2.624220     2.616577     2.608933     2.601290     2.593647     2.586004     2.578361     2.570717     2.563074     2.555431
      2.547788     2.540144     2.532501     2.524858     2.517215     2.509572     2.501928     2.494285     2.486642     2.478999
      2.471355     2.463712     2.456069     2.448426     2.440783     2.433139     2.425496     2.417853     2.410210     2.402566
      2.394923     2.387280     2.379637     2.371994     2.364350     2.356707     2.349064     2.341421     2.333777     2.326134
      2.318491     2.310848     2.303205     2.295561     2.287918     2.280275     2.272632     2.264988     2.257345     2.249702
      2.242059     2.234416     2.226772     2.219129     2.211486     2.203843     2.196199     2.188556     2.180913     2.173270
      2.165627     2.157983     2.150340     2.142697     2.135054     2.127410     2.119767     2.112124     2.104481     2.096838
      2.089194     2.081551     2.073908     2.066265     2.058621     2.050978     2.043335     2.035692     2.028049     2.020405
      2.012762     2.005119     1.997476     1.989833     1.982190     1.974546     1.966903     1.959260     1.951617     1.943974
      1.936331     1.928688     1.921045     1.913402     1.905759     1.898115     1.890472     1.882829     1.875186     1.867543
      1.859900     1.852257     1.844614     1.836971     1.829327     1.821684     1.814041     1.806398     1.798755     1.791112
      1.783469     1.775826     1.768183     1.760540     1.752896     1.745253     1.737610     1.729967     1.722324     1.714681
      1.707038     1.699395     1.691752     1.684108     1.676465     1.668822     1.661179     1.653536     1.645893     1.638250
      1.630607     1.622964     1.615321     1.607677     1.600034     1.592391     1.584748     1.577105     1.569462     1.561819
      1.554176     1.546533     1.538890     1.531246     1.523603     1.515960     1.508317     1.500674     1.493031     1.485388
      1.477745     1.470102     1.462458     1.454815     1.447172     1.439529     1.431886     1.424243     1.416600     1.408957
      1.401314     1.393671     1.386027     1.378384     1.370741     1.363098     1.355455     1.347812     1.340169     1.332526
      1.324883     1.317240     1.309596     1.301953     1.294310     1.286667     1.279024     1.271381     1.263738     1.256095
      1.248452     1.240808     1.233165     1.225522     1.217879     1.210236     1.202593     1.194950     1.187307     1.179664
      1.172021     1.164377     1.156734     1.149091     1.141448     1.133805     1.126162     1.118519     1.110876     1.103233
      1.095590     1.087946     1.080303     1.072660     1.065017     1.057374     1.049731     1.042088     1.034445     1.026802
      1.019158     1.011515     1.003872     0.996229     0.988586     0.980943     0.973300     0.965657     0.958014     0.950371
      0.942727     0.935084     0.927441     0.919798     0.912155     0.904512     0.896869     0.889226     0.881583     0.873940
      0.866296     0.858653     0.851010     0.843367     0.835724     0.828081     0.820438     0.812795     0.805152     0.797508
      0.789865     0.782222     0.774579     0.766936     0.759293     0.751650     0.744007     0.736364     0.728721     0.721077
      0.713434     0.705791     0.698148     0.690505     0.682862     0.675219     0.667576     0.659933     0.652290     0.644646
      0.637003     0.629360     0.621717     0.614074     0.606431     0.598788     0.591145     0.583502     0.575858     0.568215
      0.560572     0.552929     0.545286     0.537643     0.530000     0.522357     0.514714     0.507071     0.499427     0.491784
      0.484141     0.476498     0.468855     0.461212     0.453569     0.445925     0.438282     0.430639     0.422996     0.415353
      0.407710     0.400067     0.392424     0.384780     0.377137     0.369494     0.361851     0.354208     0.346565     0.338922
      0.331278     0.323635     0.315992     0.308349     0.300706     0.293063     0.285420     0.277777     0.270133     0.262490
      0.254847     0.247204     0.239561     0.231918     0.224275     0.216631     0.208988     0.201345
 NY phased data points follow
  -1.70134E+00 -8.39670E-01  1.44062E+01 -1.02357E+01  5.12991E+00  6.37664E+00  9.58318E+00  7.57088E-01  8.67232E+00 -2.58269E+00
   1.57109E+01  1.26204E+01  9.37803E+00  1.14793E+01  2.17014E+00 -2.25826E+00  2.00860E+00  4.47402E+00  3.30795E+00  1.53840E+01
   5.08362E+00  1.22525E+01 -7.34891E+00  1.20533E+01  8.83244E+00 -2.04982E+00  1.36918E+01 -9.09745E+00  3.29105E+00  6.10553E-02
   1.09757E+01  7.29365E+00  5.21922E+00  6.88362E+00  2.38892E+00 -5.15857E+00  1.76782E+01  4.82694E-01  4.32106E+00 -5.53233E+00
   1.08329E+01  1.70956E+01  1.21950E+01  2.13737E+00  1.30467E+01  2.97871E+00  3.16185E+00  6.73867E+00  7.47547E+00 -9.07547E+00
   7.14444E+00  3.13647E+00  4.75298E+00 -7.21540E-01  1.32677E+01  6.69842E+00 -4.81627E+00  6.89549E+00  1.44286E+00  3.71379E+00
   1.03261E+00  1.19926E+01  8.87844E+00 -9.42345E+00  8.24110E-01  1.03912E+01  3.41954E+00  3.58143E+00  1.59685E+00 -2.92367E-01
   8.69001E+00 -8.80622E-01  1.83207E+01  1.52275E+01  7.26247E+00 -5.01530E+00  1.18278E+01 -3.46299E+00  1.42812E+01 -5.10534E+00
  -1.75828E+00 -9.13365E+00  2.06298E+01  1.21277E+00  1.32780E+01 -1.55116E+01 -3.26483E+00 -8.03523E+00  5.40422E+00  2.74869E+00
   4.08133E+00  5.64952E-01  1.80445E+01  9.73741E+00  1.48078E+01  6.54110E+00  1.85820E+01  1.21493E+01  8.78762E+00  2.24779E+01
   2.46224E+00  3.48106E+00  1.71033E+01  1.51123E+01  8.98489E+00  2.00769E+01  1.52222E+01  6.63572E+00  1.96210E+01  5.41190E+00
  -1.24020E+00  1.25170E+01 -2.67786E-01  1.01204E+01  1.31922E+01  4.50846E+00 -1.97320E+00  7.01272E+00 -7.62266E-01  1.60826E+01
   6.98175E+00  6.67532E+00  9.72308E+00  1.55788E+01  1.90302E+01  2.83323E+01  2.96971E+01  2.66682E+01  4.39827E+01  2.30518E+01
   3.20384E+01  1.68064E+01  1.60219E+01  5.04941E+00  3.06604E+01  1.06894E+01  2.46237E+01  8.68073E+00 -5.94782E+00 -4.96762E+00
  -6.01590E+00  3.72675E+00  3.86572E+00  7.17315E+00 -1.20821E+00 -1.24678E+01  6.22173E+00 -1.36171E+00 -6.46933E+00  1.91440E+00
   7.51687E+00  1.49837E+01  2.52448E+00  1.52929E+01  4.32374E+00  6.94285E+00 -8.63033E+00  1.33397E+01  2.02366E+01  7.73896E+00
   1.76907E+01  1.20499E+01  4.04091E+00 -9.19058E-01  8.80494E+00  6.18808E-01  1.50071E+01 -1.06685E+00  9.87955E+00  9.18615E+00
   1.96321E+01  2.55796E+00  2.27774E+01  7.58297E-01 -1.55909E+01 -3.93072E+00 -3.42303E+00 -2.44116E+01 -1.26133E+00  1.02943E+01
  -3.45426E+00 -4.71520E+00 -8.80180E+00 -8.29001E+00 -9.43561E-02  2.85359E+00  8.83062E+00  2.79138E+00 -1.02488E+01  1.44132E+00
  -4.46411E+00 -1.26061E+01  1.27308E+00 -1.89041E+01 -7.75288E-02  1.27866E+00  8.51872E+00 -2.58934E+00 -4.16405E+00  2.43701E+00
   8.18465E-01  4.78870E-01  1.14848E+01  5.24185E+00  6.58689E+00 -4.38169E+00  1.27318E+01 -4.72710E+00 -1.46626E+00  2.19514E+01
   1.47070E+01  1.54480E+01  6.52141E+00  1.33281E+00  1.24652E+01  6.52737E+00  1.15338E+01 -2.87386E+00  8.11770E-01  9.29666E+00
   1.26160E+00 -5.34752E+00  1.42249E+01 -3.90009E+00  1.55291E+01  3.57077E+00  1.42517E+01 -1.44075E+01  2.48455E+00  9.96316E+00
   6.71502E+00  3.20399E+00  2.23337E-02 -3.57966E+00  1.13356E+01 -3.50646E+00  4.71690E+00  3.56389E-01  1.67374E+01  9.08352E+00
   8.62385E+00  2.00353E+00 -7.54431E+00  3.50409E+00  9.29214E+00  2.60806E+01 -7.86884E-01  6.50701E+00  1.97074E+01  8.07669E-01
   1.38458E+01  1.69518E+00  1.81602E+01  3.14370E+01  3.40131E+01  4.94132E+01  6.60882E+01  5.60389E+01  5.70454E+01  4.32876E+01
   4.80959E+01  6.81124E+01  4.23618E+01  5.15597E+01  3.33788E+01  1.39417E+01  2.73745E+01  2.36954E+01  2.48619E+01  1.40726E+01
   4.16230E+00  6.04028E+00  1.03862E+01 -1.51805E+00 -6.25907E+00  6.42634E+00  1.18769E+01 -8.92528E+00  1.15925E+01 -6.35120E+00
   1.02303E+01 -5.27823E+00  1.30283E+01  4.35195E+00  7.30833E+00  2.14781E+01  2.07609E+01  2.43974E+00  1.99149E+01  1.69645E+01
   1.58921E+01  1.04134E+01  2.53524E+01  2.26553E+01  2.20693E+01  2.75542E+01  3.25648E+01  7.77013E+00  1.61756E+01  2.60559E+01
   2.61158E+01  2.39848E+01  3.36567E+01  3.60259E+01  3.81367E+01  2.36809E+01  3.14031E+01  3.13898E+01  2.82598E+01  3.58595E+01
   2.42422E+01  3.03112E+01  1.46875E+01  1.61756E+01  3.50326E+01  2.49652E+01  3.16893E+01  1.76189E+01  1.33495E+01  6.28677E+00
   1.65543E+01  8.33016E+00  1.64380E+01 -3.42848E+00  9.68200E+00  8.58012E+00  2.33920E+01 -6.81980E+00  1.36389E+01  4.65765E+00
   1.54228E+01  1.21143E+00 -1.27396E+00  1.06721E+01  2.80699E+01  1.23497E+01  1.69410E+01  1.15661E+01  2.33427E+01  1.11540E+01
   2.27975E+01  1.62204E+01  2.55438E+01  1.94604E+01  2.90224E+01  1.54451E+01  2.29134E+01  2.64475E+01  1.64250E+01  1.40019E+01
   2.95246E+01  1.83850E+01  2.74680E+01  1.67074E+01  2.34203E+01  2.39784E+01  2.00649E+01  3.44297E+01  1.78086E+01  2.01701E+01
   1.06941E+01  1.23902E+01  2.03686E+01  8.76941E+00  1.76982E+01  1.74789E+01  1.01423E+01  2.96586E+01  1.17447E+01  8.95064E+00
   1.84828E+01  1.15568E+01  1.32721E+01  8.71241E-01 -2.09546E+00 -2.95905E+00  7.77839E+00  1.52891E+01  3.22603E+01  5.80275E+00
   1.87897E+01  1.35884E+01  1.70191E+01  8.49591E+00  3.45962E+00  1.96891E+01  7.54540E+00  8.73902E+00  5.96192E+00 -9.64569E-01
   2.21982E+01  1.20993E+01  1.98875E+01  1.31753E+01  9.25209E+00  1.63993E+01  3.05811E+01  1.11385E+01  2.35263E+01  2.70696E+01
   2.14795E+01  2.27280E+01  1.98794E+01  1.35082E+01  3.70432E+01  2.21108E+01  2.68649E+01  1.67894E+01  1.64771E+01  2.09470E+01
   2.59517E+01  2.93618E+01  3.09596E+01  2.84713E+01  3.02191E+01  2.99246E+01  9.08496E+00  2.01247E+01  1.61128E+01  2.66784E+01
   9.80054E+00  1.38210E+01  1.92177E+01  1.76355E+01  3.19585E+01  2.09285E+01  6.75624E+00  2.51049E+01  8.61045E+00  2.33614E+01
   3.66234E+00  2.12406E+01  1.53539E+01  1.80599E+01  1.41746E+01  6.39215E+00  3.32084E+00 -8.02141E-01  1.66561E+01 -4.98624E+00
   8.66409E+00 -4.53630E+00  2.42772E+00 -2.99959E+00  1.71296E+01  5.11508E+00  1.26389E+00  2.57181E+00  1.10546E+01  2.70455E+00
   7.28471E+00  1.28964E+01  2.33757E+01  5.95893E+00  6.09272E+00  7.30467E+00  1.15437E+01 -9.73677E+00 -2.81302E-01  2.19592E+00
   2.37077E+01  9.17996E-01  1.01812E+01  1.87139E+01  2.25012E+01  6.91616E+00  2.47939E+00  2.52675E+01  1.01510E+01  2.95933E+00
   9.91527E+00 -9.39732E+00  1.24337E+00  4.11353E+00  6.83556E+00 -2.42582E+00  9.87633E+00 -7.30377E+00  5.73981E+00  1.25431E+00
  -6.88435E+00  4.23685E+00  1.25279E+01 -6.38577E+00  3.40657E+00  1.73516E+00  7.89021E+00 -8.17082E+00  2.63225E+00 -1.30898E+00
  -9.73737E+00  7.39989E+00 -8.22031E+00  5.44273E+00  7.65853E+00 -3.84349E+00 -1.98307E+00  1.08513E+01
 NY points of the fit to the data follow
   3.07463E+00  2.34781E+00  2.12353E+00  2.47580E+00  3.32698E+00  4.54067E+00  5.93837E+00  7.35569E+00  8.65065E+00  9.72361E+00
   1.05211E+01  1.10092E+01  1.11597E+01  1.09655E+01  1.04731E+01  9.79276E+00  9.02925E+00  8.23634E+00  7.39951E+00  6.48368E+00
   5.52832E+00  4.63026E+00  3.97720E+00  3.73540E+00  3.87146E+00  4.14167E+00  4.43613E+00  4.73021E+00  5.01430E+00  5.25672E+00
   5.41576E+00  5.46708E+00  5.40579E+00  5.24162E+00  4.99819E+00  4.70216E+00  4.39033E+00  4.13548E+00  4.00329E+00  4.01653E+00
   4.15548E+00  4.38478E+00  4.66204E+00  4.91519E+00  5.09685E+00  5.20652E+00  5.24377E+00  5.19728E+00  5.06655E+00  4.88103E+00
   4.67955E+00  4.48987E+00  4.33818E+00  4.23080E+00  4.15297E+00  4.07883E+00  3.99940E+00  3.93279E+00  3.91044E+00  3.96195E+00
   4.06025E+00  4.14657E+00  4.20090E+00  4.23217E+00  4.25623E+00  4.29659E+00  4.37240E+00  4.47815E+00  4.59490E+00  4.70215E+00
   4.78627E+00  4.84839E+00  4.89069E+00  4.90717E+00  4.88984E+00  4.83621E+00  4.76695E+00  4.68874E+00  4.58776E+00  4.45153E+00
   4.27699E+00  4.07476E+00  3.85682E+00  3.63701E+00  3.42713E+00  3.22806E+00  3.05054E+00  2.90899E+00  2.80782E+00  2.74877E+00
   2.72745E+00  2.74630E+00  2.85209E+00  3.26468E+00  4.18091E+00  5.53594E+00  7.18528E+00  8.96057E+00  1.06948E+01  1.22224E+01
   1.34249E+01  1.42484E+01  1.46751E+01  1.46995E+01  1.43268E+01  1.35873E+01  1.25546E+01  1.13357E+01  1.00401E+01  8.74080E+00
   7.46581E+00  6.23324E+00  5.08539E+00  4.11299E+00  3.43408E+00  3.14182E+00  3.21172E+00  3.82333E+00  5.37448E+00  7.79319E+00
   1.08160E+01  1.41287E+01  1.74189E+01  2.04129E+01  2.29006E+01  2.47340E+01  2.58214E+01  2.61103E+01  2.55847E+01  2.42980E+01
   2.23949E+01  2.00819E+01  1.75763E+01  1.50394E+01  1.25488E+01  1.01441E+01  7.90834E+00  5.99523E+00  4.59584E+00  3.85520E+00
   3.63778E+00  3.58266E+00  3.56443E+00  3.55641E+00  3.54704E+00  3.52884E+00  3.49498E+00  3.43782E+00  3.36160E+00  3.27670E+00
   3.18261E+00  3.05901E+00  2.89874E+00  2.71063E+00  2.51698E+00  2.35165E+00  2.22070E+00  2.11453E+00  2.02160E+00  1.92737E+00
   1.81945E+00  1.69696E+00  1.56618E+00  1.43033E+00  1.28423E+00  1.10999E+00  8.76156E-01  5.83251E-01  2.79573E-01  5.02361E-03
  -2.27279E-01 -4.43551E-01 -6.68445E-01 -8.98840E-01 -1.09664E+00 -1.23033E+00 -1.29554E+00 -1.31729E+00 -1.31096E+00 -1.25782E+00
  -1.13559E+00 -9.25009E-01 -6.10390E-01 -1.91805E-01  3.07435E-01  8.49781E-01  1.40194E+00  1.94273E+00  2.43833E+00  2.88259E+00
   3.27369E+00  3.58157E+00  3.78173E+00  3.88777E+00  3.96126E+00  4.03702E+00  4.11840E+00  4.18813E+00  4.22789E+00  4.23459E+00
   4.22617E+00  4.20938E+00  4.16613E+00  4.05886E+00  3.87746E+00  3.64050E+00  3.38906E+00  3.15764E+00  2.96418E+00  2.81174E+00
   2.68705E+00  2.58852E+00  2.50856E+00  2.44439E+00  2.41785E+00  2.45908E+00  2.57331E+00  2.73968E+00  2.94209E+00  3.16961E+00
   3.40995E+00  3.63882E+00  3.83344E+00  3.98649E+00  4.09812E+00  4.18473E+00  4.28678E+00  4.43358E+00  4.63339E+00  4.86690E+00
   5.10719E+00  5.33096E+00  5.51571E+00  5.64499E+00  5.72094E+00  5.76762E+00  5.81750E+00  5.88943E+00  5.99186E+00  6.12936E+00
   6.29788E+00  6.48708E+00  6.68512E+00  6.88781E+00  7.10682E+00  7.39316E+00  7.88161E+00  8.63298E+00  9.62835E+00  1.09634E+01
   1.33418E+01  1.73496E+01  2.27010E+01  2.88597E+01  3.52371E+01  4.12664E+01  4.64593E+01  5.04614E+01  5.30720E+01  5.42019E+01
   5.38308E+01  5.19991E+01  4.88457E+01  4.46441E+01  3.97719E+01  3.46264E+01  2.95125E+01  2.45950E+01  1.99617E+01  1.57000E+01
   1.20506E+01  9.37256E+00  7.91171E+00  7.29654E+00  6.94199E+00  6.69213E+00  6.51400E+00  6.39710E+00  6.33992E+00  6.34619E+00
   6.42051E+00  6.56893E+00  6.80208E+00  7.13490E+00  7.58147E+00  8.15453E+00  8.86490E+00  9.71964E+00  1.07213E+01  1.18671E+01
   1.31506E+01  1.45613E+01  1.60826E+01  1.76912E+01  1.93579E+01  2.10479E+01  2.27205E+01  2.43317E+01  2.58355E+01  2.71855E+01
   2.83381E+01  2.92557E+01  2.99081E+01  3.02756E+01  3.03496E+01  3.01323E+01  2.96367E+01  2.88870E+01  2.79167E+01  2.67665E+01
   2.54822E+01  2.41131E+01  2.27100E+01  2.13238E+01  2.00046E+01  1.88061E+01  1.77999E+01  1.70863E+01  1.66331E+01  1.63010E+01
   1.59733E+01  1.55616E+01  1.50013E+01  1.42456E+01  1.32653E+01  1.21609E+01  1.11273E+01  1.02863E+01  9.70860E+00  9.43589E+00
   9.48550E+00  9.84448E+00  1.04699E+01  1.12977E+01  1.22574E+01  1.32915E+01  1.43590E+01  1.54299E+01  1.64746E+01  1.74435E+01
   1.82440E+01  1.88484E+01  1.92903E+01  1.95858E+01  1.97480E+01  1.98122E+01  1.98495E+01  1.99644E+01  2.01896E+01  2.04692E+01
   2.07646E+01  2.10494E+01  2.13005E+01  2.14965E+01  2.16175E+01  2.16475E+01  2.15753E+01  2.13960E+01  2.11115E+01  2.07298E+01
   2.02638E+01  1.97294E+01  1.91436E+01  1.85227E+01  1.78813E+01  1.72316E+01  1.65832E+01  1.59440E+01  1.53200E+01  1.47164E+01
   1.41376E+01  1.35875E+01  1.30700E+01  1.25884E+01  1.21460E+01  1.17457E+01  1.13902E+01  1.10819E+01  1.08234E+01  1.06168E+01
   1.04644E+01  1.03688E+01  1.03325E+01  1.03585E+01  1.04500E+01  1.06102E+01  1.08427E+01  1.11508E+01  1.15377E+01  1.20059E+01
   1.25572E+01  1.31919E+01  1.39088E+01  1.47046E+01  1.55733E+01  1.65064E+01  1.74923E+01  1.85164E+01  1.95612E+01  2.06067E+01
   2.16307E+01  2.26096E+01  2.35193E+01  2.43363E+01  2.50382E+01  2.56056E+01  2.60221E+01  2.62761E+01  2.63602E+01  2.62727E+01
   2.60168E+01  2.56009E+01  2.50377E+01  2.43438E+01  2.35385E+01  2.26432E+01  2.16801E+01  2.06713E+01  1.96380E+01  1.85997E+01
   1.75737E+01  1.65747E+01  1.56146E+01  1.47027E+01  1.38454E+01  1.30466E+01  1.23082E+01  1.16302E+01  1.10113E+01  1.04489E+01
   9.93975E+00  9.48002E+00  9.06564E+00  8.69253E+00  8.35664E+00  8.05413E+00  7.78136E+00  7.53506E+00  7.31219E+00  7.11010E+00
   6.92637E+00  6.75892E+00  6.60587E+00  6.46562E+00  6.33671E+00  6.21796E+00  6.10826E+00  6.00669E+00  5.91238E+00  5.82466E+00
   5.74286E+00  5.66646E+00  5.59494E+00  5.52789E+00  5.46487E+00  5.40560E+00  5.34973E+00  5.29703E+00  5.24721E+00  5.20008E+00
   5.15540E+00  5.11303E+00  5.07277E+00  5.03453E+00  4.99811E+00  4.96342E+00  4.93032E+00  4.89874E+00  4.86856E+00  4.83973E+00
   4.81211E+00  4.78567E+00  4.76031E+00  4.73600E+00  4.71266E+00  4.69025E+00  4.66868E+00  4.64795E+00  4.62798E+00  4.60876E+00
   4.59021E+00  4.57234E+00  4.55506E+00  4.53838E+00  4.52225E+00  4.50666E+00  4.49155E+00  4.47692E+00  4.46271E+00  4.44894E+00
   4.43554E+00  4.42254E+00  4.40986E+00  4.39751E+00  4.38544E+00  4.37366E+00  4.36212E+00  4.35083E+00
 NY background values follow
     9.307E-01    9.350E-01    9.393E-01    9.436E-01    9.479E-01    9.522E-01    9.565E-01    9.608E-01    9.651E-01    9.694E-01
     9.737E-01    9.780E-01    9.823E-01    9.866E-01    9.909E-01    9.952E-01    9.995E-01    1.004E+00    1.008E+00    1.012E+00
     1.017E+00    1.021E+00    1.025E+00    1.030E+00    1.034E+00    1.038E+00    1.043E+00    1.047E+00    1.051E+00    1.055E+00
     1.060E+00    1.064E+00    1.068E+00    1.073E+00    1.077E+00    1.081E+00    1.086E+00    1.090E+00    1.094E+00    1.098E+00
     1.103E+00    1.107E+00    1.111E+00    1.116E+00    1.120E+00    1.124E+00    1.128E+00    1.133E+00    1.137E+00    1.141E+00
     1.146E+00    1.150E+00    1.154E+00    1.159E+00    1.163E+00    1.167E+00    1.171E+00    1.176E+00    1.180E+00    1.184E+00
     1.189E+00    1.193E+00    1.197E+00    1.202E+00    1.206E+00    1.210E+00    1.214E+00    1.219E+00    1.223E+00    1.227E+00
     1.232E+00    1.236E+00    1.240E+00    1.245E+00    1.249E+00    1.253E+00    1.257E+00    1.262E+00    1.266E+00    1.270E+00
     1.275E+00    1.279E+00    1.283E+00    1.287E+00    1.292E+00    1.296E+00    1.300E+00    1.305E+00    1.309E+00    1.313E+00
     1.318E+00    1.322E+00    1.326E+00    1.330E+00    1.335E+00    1.339E+00    1.343E+00    1.348E+00    1.352E+00    1.356E+00
     1.360E+00    1.365E+00    1.369E+00    1.373E+00    1.378E+00    1.382E+00    1.386E+00    1.390E+00    1.395E+00    1.399E+00
     1.403E+00    1.408E+00    1.412E+00    1.416E+00    1.420E+00    1.425E+00    1.429E+00    1.433E+00    1.438E+00    1.442E+00
     1.446E+00    1.450E+00    1.455E+00    1.459E+00    1.463E+00    1.468E+00    1.472E+00    1.476E+00    1.480E+00    1.485E+00
     1.489E+00    1.493E+00    1.498E+00    1.502E+00    1.506E+00    1.510E+00    1.515E+00    1.519E+00    1.523E+00    1.528E+00
     1.532E+00    1.536E+00    1.540E+00    1.545E+00    1.549E+00    1.553E+00    1.558E+00    1.562E+00    1.566E+00    1.570E+00
     1.575E+00    1.579E+00    1.583E+00    1.588E+00    1.592E+00    1.596E+00    1.600E+00    1.605E+00    1.609E+00    1.613E+00
     1.617E+00    1.622E+00    1.626E+00    1.630E+00    1.635E+00    1.639E+00    1.643E+00    1.647E+00    1.652E+00    1.656E+00
     1.660E+00    1.664E+00    1.669E+00    1.673E+00    1.677E+00    1.682E+00    1.686E+00    1.690E+00    1.694E+00    1.699E+00
     1.703E+00    1.707E+00    1.711E+00    1.716E+00    1.720E+00    1.724E+00    1.729E+00    1.733E+00    1.737E+00    1.741E+00
     1.746E+00    1.750E+00    1.754E+00    1.758E+00    1.763E+00    1.767E+00    1.771E+00    1.775E+00    1.780E+00    1.784E+00
     1.788E+00    1.793E+00    1.797E+00    1.801E+00    1.805E+00    1.810E+00    1.814E+00    1.818E+00    1.822E+00    1.827E+00
     1.831E+00    1.835E+00    1.839E+00    1.844E+00    1.848E+00    1.852E+00    1.856E+00    1.861E+00    1.865E+00    1.869E+00
     1.873E+00    1.878E+00    1.882E+00    1.886E+00    1.890E+00    1.895E+00    1.899E+00    1.903E+00    1.907E+00    1.912E+00
     1.916E+00    1.920E+00    1.924E+00    1.929E+00    1.933E+00    1.937E+00    1.941E+00    1.946E+00    1.950E+00    1.954E+00
     1.958E+00    1.963E+00    1.967E+00    1.971E+00    1.975E+00    1.980E+00    1.984E+00    1.988E+00    1.992E+00    1.997E+00
     2.001E+00    2.005E+00    2.009E+00    2.014E+00    2.018E+00    2.022E+00    2.026E+00    2.031E+00    2.035E+00    2.039E+00
     2.043E+00    2.047E+00    2.052E+00    2.056E+00    2.060E+00    2.064E+00    2.069E+00    2.073E+00    2.077E+00    2.081E+00
     2.086E+00    2.090E+00    2.094E+00    2.098E+00    2.103E+00    2.107E+00    2.111E+00    2.115E+00    2.119E+00    2.124E+00
     2.128E+00    2.132E+00    2.136E+00    2.141E+00    2.145E+00    2.149E+00    2.153E+00    2.157E+00    2.162E+00    2.166E+00
     2.170E+00    2.174E+00    2.179E+00    2.183E+00    2.187E+00    2.191E+00    2.195E+00    2.200E+00    2.204E+00    2.208E+00
     2.212E+00    2.217E+00    2.221E+00    2.225E+00    2.229E+00    2.233E+00    2.238E+00    2.242E+00    2.246E+00    2.250E+00
     2.254E+00    2.259E+00    2.263E+00    2.267E+00    2.271E+00    2.275E+00    2.280E+00    2.284E+00    2.288E+00    2.292E+00
     2.297E+00    2.301E+00    2.305E+00    2.309E+00    2.313E+00    2.318E+00    2.322E+00    2.326E+00    2.330E+00    2.334E+00
     2.339E+00    2.343E+00    2.347E+00    2.351E+00    2.355E+00    2.359E+00    2.364E+00    2.368E+00    2.372E+00    2.376E+00
     2.380E+00    2.385E+00    2.389E+00    2.393E+00    2.397E+00    2.401E+00    2.406E+00    2.410E+00    2.414E+00    2.418E+00
     2.422E+00    2.427E+00    2.431E+00    2.435E+00    2.439E+00    2.443E+00    2.447E+00    2.452E+00    2.456E+00    2.460E+00
     2.464E+00    2.468E+00    2.473E+00    2.477E+00    2.481E+00    2.485E+00    2.489E+00    2.493E+00    2.498E+00    2.502E+00
     2.506E+00    2.510E+00    2.514E+00    2.518E+00    2.523E+00    2.527E+00    2.531E+00    2.535E+00    2.539E+00    2.543E+00
     2.548E+00    2.552E+00    2.556E+00    2.560E+00    2.564E+00    2.568E+00    2.573E+00    2.577E+00    2.581E+00    2.585E+00
     2.589E+00    2.593E+00    2.598E+00    2.602E+00    2.606E+00    2.610E+00    2.614E+00    2.618E+00    2.622E+00    2.627E+00
     2.631E+00    2.635E+00    2.639E+00    2.643E+00    2.647E+00    2.651E+00    2.656E+00    2.660E+00    2.664E+00    2.668E+00
     2.672E+00    2.676E+00    2.680E+00    2.685E+00    2.689E+00    2.693E+00    2.697E+00    2.701E+00    2.705E+00    2.709E+00
     2.714E+00    2.718E+00    2.722E+00    2.726E+00    2.730E+00    2.734E+00    2.738E+00    2.742E+00    2.747E+00    2.751E+00
     2.755E+00    2.759E+00    2.763E+00    2.767E+00    2.771E+00    2.775E+00    2.780E+00    2.784E+00    2.788E+00    2.792E+00
     2.796E+00    2.800E+00    2.804E+00    2.808E+00    2.813E+00    2.817E+00    2.821E+00    2.825E+00    2.829E+00    2.833E+00
     2.837E+00    2.841E+00    2.845E+00    2.850E+00    2.854E+00    2.858E+00    2.862E+00    2.866E+00    2.870E+00    2.874E+00
     2.878E+00    2.882E+00    2.886E+00    2.891E+00    2.895E+00    2.899E+00    2.903E+00    2.907E+00    2.911E+00    2.915E+00
     2.919E+00    2.923E+00    2.927E+00    2.931E+00    2.936E+00    2.940E+00    2.944E+00    2.948E+00    2.952E+00    2.956E+00
     2.960E+00    2.964E+00    2.968E+00    2.972E+00    2.976E+00    2.981E+00    2.985E+00    2.989E+00    2.993E+00    2.997E+00
     3.001E+00    3.005E+00    3.009E+00    3.013E+00    3.017E+00    3.021E+00    3.025E+00    3.029E+00
 Ala      Conc. = 6.27E+02
