 LCModel (Version 6.3-1L) Copyright: S.W. Provencher.          Ref.: Magn. Reson. Med. 30:672-679 (1993).                
 Slice#1 Row#9 Col#4  PD_24_press_2_raw_act
 36 lines in following concentration table = NCONC+1
    Conc.  %SD /Cr+PCr  Metabolite                                         
  587.311  38%   0.241 Ala                                                 
   93.769 415% 3.8E-02 Asp                                                 
  899.934  22%   0.369 Cr                                                  
 1.54E+03  12%   0.631 PCr                                                 
    0.000 999%   0.000 GABA                                                
   76.271 348% 3.1E-02 Glc                                                 
 1.55E+03  30%   0.636 Gln                                                 
 2.69E+03  19%   1.105 Glu                                                 
  740.699   5%   0.304 GPC                                                 
    0.000 999%   0.000 PCh                                                 
  768.152  17%   0.315 GSH                                                 
 2.72E+03  17%   1.118 Ins                                                 
  409.796  61%   0.168 Lac                                                 
 4.32E+03   5%   1.772 NAA                                                 
  225.883  99% 9.3E-02 NAAG                                                
  251.702  19%   0.103 Scyllo                                              
  353.342  96%   0.145 Tau                                                 
    0.000 999%   0.000 -CrCH2                                              
  740.699   5%   0.304 GPC+PCh                                             
 4.54E+03   3%   1.865 NAA+NAAG                                            
 2.44E+03   4%   1.000 Cr+PCr                                              
 4.24E+03  18%   1.741 Glu+Gln                                             
 2.21E+03  25%   0.908 Lip13a                                              
    0.000 999%   0.000 Lip13b                                              
  231.090 175% 9.5E-02 Lip09                                               
 3.07E+03  15%   1.259 MM09                                                
  222.462 126% 9.1E-02 Lip20                                               
 6.69E+03  10%   2.746 MM20                                                
  902.752  41%   0.371 MM12                                                
  689.763  65%   0.283 MM14                                                
 5.89E+03   7%   2.420+MM17                                                
 2.21E+03  25%   0.908 Lip13a+Lip13b                                       
 3.80E+03  13%   1.562 MM14+Lip13a+Lip13b+MM12                             
 3.30E+03   8%   1.354 MM09+Lip09                                          
 6.91E+03  10%   2.837 MM20+Lip20                                          
   6 lines in following misc. output table
  FWHM = 0.038 ppm    S/N =  14                                            
  Data shift = 0.008 ppm                                                   
  Ph: -20 deg      -6.5 deg/ppm                                            
  alphaB,S = 9.1E-01,   6.2E+00                                            
   14 spline knots.   Ns = 8(1)                                            
  (12)17 infls.   (17) 9 extrs.                                            
  498 points on ppm-axis = NY
      4.000000     3.992357     3.984714     3.977070     3.969427     3.961784     3.954141     3.946497     3.938854     3.931211
      3.923568     3.915925     3.908281     3.900638     3.892995     3.885352     3.877708     3.870065     3.862422     3.854779
      3.847136     3.839492     3.831849     3.824206     3.816563     3.808919     3.801276     3.793633     3.785990     3.778347
      3.770703     3.763060     3.755417     3.747774     3.740130     3.732487     3.724844     3.717201     3.709558     3.701914
      3.694271     3.686628     3.678985     3.671341     3.663698     3.656055     3.648412     3.640769     3.633125     3.625482
      3.617839     3.610196     3.602552     3.594909     3.587266     3.579623     3.571980     3.564336     3.556693     3.549050
      3.541407     3.533763     3.526120     3.518477     3.510834     3.503191     3.495547     3.487904     3.480261     3.472618
      3.464974     3.457331     3.449688     3.442045     3.434402     3.426758     3.419115     3.411472     3.403829     3.396185
      3.388542     3.380899     3.373256     3.365613     3.357969     3.350326     3.342683     3.335040     3.327396     3.319753
      3.312110     3.304467     3.296824     3.289180     3.281537     3.273894     3.266251     3.258607     3.250964     3.243321
      3.235678     3.228034     3.220391     3.212748     3.205105     3.197462     3.189818     3.182175     3.174532     3.166889
      3.159245     3.151602     3.143959     3.136316     3.128673     3.121029     3.113386     3.105743     3.098100     3.090456
      3.082813     3.075170     3.067527     3.059884     3.052240     3.044597     3.036954     3.029311     3.021667     3.014024
      3.006381     2.998738     2.991095     2.983451     2.975808     2.968165     2.960522     2.952878     2.945235     2.937592
      2.929949     2.922306     2.914662     2.907019     2.899376     2.891733     2.884089     2.876446     2.868803     2.861160
      2.853517     2.845873     2.838230     2.830587     2.822944     2.815300     2.807657     2.800014     2.792371     2.784728
      2.777084     2.769441     2.761798     2.754155     2.746511     2.738868     2.731225     2.723582     2.715939     2.708295
      2.700652     2.693009     2.685366     2.677722     2.670079     2.662436     2.654793     2.647150     2.639506     2.631863
      2.624220     2.616577     2.608933     2.601290     2.593647     2.586004     2.578361     2.570717     2.563074     2.555431
      2.547788     2.540144     2.532501     2.524858     2.517215     2.509572     2.501928     2.494285     2.486642     2.478999
      2.471355     2.463712     2.456069     2.448426     2.440783     2.433139     2.425496     2.417853     2.410210     2.402566
      2.394923     2.387280     2.379637     2.371994     2.364350     2.356707     2.349064     2.341421     2.333777     2.326134
      2.318491     2.310848     2.303205     2.295561     2.287918     2.280275     2.272632     2.264988     2.257345     2.249702
      2.242059     2.234416     2.226772     2.219129     2.211486     2.203843     2.196199     2.188556     2.180913     2.173270
      2.165627     2.157983     2.150340     2.142697     2.135054     2.127410     2.119767     2.112124     2.104481     2.096838
      2.089194     2.081551     2.073908     2.066265     2.058621     2.050978     2.043335     2.035692     2.028049     2.020405
      2.012762     2.005119     1.997476     1.989833     1.982190     1.974546     1.966903     1.959260     1.951617     1.943974
      1.936331     1.928688     1.921045     1.913402     1.905759     1.898115     1.890472     1.882829     1.875186     1.867543
      1.859900     1.852257     1.844614     1.836971     1.829327     1.821684     1.814041     1.806398     1.798755     1.791112
      1.783469     1.775826     1.768183     1.760540     1.752896     1.745253     1.737610     1.729967     1.722324     1.714681
      1.707038     1.699395     1.691752     1.684108     1.676465     1.668822     1.661179     1.653536     1.645893     1.638250
      1.630607     1.622964     1.615321     1.607677     1.600034     1.592391     1.584748     1.577105     1.569462     1.561819
      1.554176     1.546533     1.538890     1.531246     1.523603     1.515960     1.508317     1.500674     1.493031     1.485388
      1.477745     1.470102     1.462458     1.454815     1.447172     1.439529     1.431886     1.424243     1.416600     1.408957
      1.401314     1.393671     1.386027     1.378384     1.370741     1.363098     1.355455     1.347812     1.340169     1.332526
      1.324883     1.317240     1.309596     1.301953     1.294310     1.286667     1.279024     1.271381     1.263738     1.256095
      1.248452     1.240808     1.233165     1.225522     1.217879     1.210236     1.202593     1.194950     1.187307     1.179664
      1.172021     1.164377     1.156734     1.149091     1.141448     1.133805     1.126162     1.118519     1.110876     1.103233
      1.095590     1.087946     1.080303     1.072660     1.065017     1.057374     1.049731     1.042088     1.034445     1.026802
      1.019158     1.011515     1.003872     0.996229     0.988586     0.980943     0.973300     0.965657     0.958014     0.950371
      0.942727     0.935084     0.927441     0.919798     0.912155     0.904512     0.896869     0.889226     0.881583     0.873940
      0.866296     0.858653     0.851010     0.843367     0.835724     0.828081     0.820438     0.812795     0.805152     0.797508
      0.789865     0.782222     0.774579     0.766936     0.759293     0.751650     0.744007     0.736364     0.728721     0.721077
      0.713434     0.705791     0.698148     0.690505     0.682862     0.675219     0.667576     0.659933     0.652290     0.644646
      0.637003     0.629360     0.621717     0.614074     0.606431     0.598788     0.591145     0.583502     0.575858     0.568215
      0.560572     0.552929     0.545286     0.537643     0.530000     0.522357     0.514714     0.507071     0.499427     0.491784
      0.484141     0.476498     0.468855     0.461212     0.453569     0.445925     0.438282     0.430639     0.422996     0.415353
      0.407710     0.400067     0.392424     0.384780     0.377137     0.369494     0.361851     0.354208     0.346565     0.338922
      0.331278     0.323635     0.315992     0.308349     0.300706     0.293063     0.285420     0.277777     0.270133     0.262490
      0.254847     0.247204     0.239561     0.231918     0.224275     0.216631     0.208988     0.201345
 NY phased data points follow
   1.05336E+01  2.03636E+01  1.57246E+01  3.07705E+01  2.05663E+01  3.36981E+01  2.20753E+01  4.05875E+01  3.89822E+01  5.07330E+01
   4.92392E+01  5.67621E+01  4.08923E+01  4.87767E+01  3.32303E+01  3.85921E+01  2.61460E+01  3.01116E+01  1.42128E+01  2.36998E+01
   1.35101E+01  2.41500E+01  1.44386E+01  1.93903E+01  1.35090E+01  1.61391E+01  1.26858E+01  2.51029E+01  1.43487E+01  2.22744E+01
   1.80630E+01  2.30326E+01  2.33909E+01  2.88447E+01  1.41365E+01  1.63330E+01  1.49034E+01  1.64100E+01  1.09821E+01  1.77214E+01
   1.50424E+01  2.39330E+01  9.12962E+00  2.07789E+01  1.28024E+01  2.68634E+01  2.26699E+01  2.60455E+01  1.99857E+01  2.45197E+01
   1.65758E+01  2.09363E+01  7.84373E+00  1.74609E+01  1.30375E+01  1.86274E+01  1.18894E+01  1.64772E+01  6.43880E+00  1.71417E+01
   8.47213E+00  8.70602E+00  3.93523E+00  1.05914E+01  1.87470E+00  1.07160E+01  6.24286E-01  6.66349E+00  1.22502E+00  1.09319E+01
   1.37406E+00  8.32150E+00 -3.71249E+00  9.22459E+00 -3.94487E+00  8.29279E+00  5.83787E+00  1.20459E+01  6.06442E+00  1.13430E+01
   8.33927E+00  1.01145E+01 -7.02308E+00  1.28088E+01  1.73244E+00  1.46558E+01  4.69408E+00  1.31491E+01  7.10089E+00  9.24385E+00
   8.68055E+00  1.17810E+01  3.37834E+00  1.62418E+01  2.84878E+00  1.44448E+01  1.12015E+01  1.52120E+01  1.64781E+01  2.64210E+01
   2.56583E+01  4.51352E+01  4.37414E+01  5.51370E+01  5.34016E+01  5.44174E+01  4.18795E+01  3.86535E+01  2.68906E+01  2.74393E+01
   1.43534E+01  1.44949E+01  9.15081E+00  1.58196E+01  9.22344E-01  1.24078E+01  3.70062E+00  1.30703E+01  5.11274E+00  1.12437E+01
   4.09052E+00  1.50893E+01  1.38046E+01  2.36142E+01  3.42564E+01  5.17803E+01  5.95918E+01  7.53729E+01  6.85632E+01  6.72440E+01
   5.15789E+01  4.96293E+01  3.02804E+01  2.78758E+01  1.79884E+01  2.15331E+01  1.11946E+01  8.82373E+00  6.31222E+00  7.47692E+00
   2.31187E+00  5.94679E+00  5.13174E+00  3.85364E+00 -1.40427E-01  5.54157E-01  4.19303E+00  1.78363E+00 -4.69414E-01  5.07423E+00
   8.69914E-01 -3.39663E+00 -3.44617E+00  5.90088E+00 -9.33801E+00 -1.90291E+00 -5.31744E+00 -2.02944E+00 -6.76423E+00 -2.38929E+00
  -2.57801E+00 -7.23201E+00 -1.24881E+01 -2.98011E+00 -1.16416E+01 -7.60979E+00 -1.32810E+01 -1.31374E+01 -2.29964E+01 -1.64171E+01
  -1.96879E+01 -1.38996E+01 -2.26144E+01 -2.61674E+01 -2.89427E+01 -2.41416E+01 -2.29125E+01 -1.80065E+01 -2.52491E+01 -1.92874E+01
  -1.67193E+01 -1.45894E+01 -1.29570E+01 -1.12523E+01 -1.56260E+01 -4.46077E+00 -1.33799E+01 -8.78108E+00 -1.31077E+01 -1.28223E+01
  -1.61187E+01 -9.37731E+00 -5.57715E+00 -6.39189E+00 -7.70214E+00 -3.00894E+00 -1.10661E+01 -5.49092E+00 -8.97554E+00 -9.09804E+00
  -7.09344E+00 -4.32944E-01 -7.70226E+00  1.63605E+00  3.19057E+00  1.51563E+00 -1.87028E+00  2.40427E+00 -1.63203E+00  1.10378E+00
  -2.23343E+00  1.94197E+00  6.59255E-01  1.16768E+01  1.15938E+01  1.34471E+01  7.60309E+00  8.19565E+00  8.08687E+00  6.64515E+00
  -3.08559E+00  1.86874E+00 -7.89324E+00 -2.94629E+00  1.65873E+00  5.07932E+00  6.01991E+00  1.31981E+01  1.12831E+01  5.90038E+00
   9.57542E+00  1.36351E+01  8.32031E+00  1.10961E+01  9.85610E+00  8.31775E+00  1.16720E+01  9.00642E+00  5.66999E+00  1.49310E+01
   7.50134E+00  8.61378E+00  4.90641E+00  1.15631E+01  5.58829E+00  9.45867E+00  1.61711E+01  1.70214E+01  1.56383E+01  2.36436E+01
   2.96613E+01  3.58123E+01  3.78160E+01  4.99674E+01  5.44473E+01  5.88857E+01  7.18283E+01  8.91371E+01  1.08072E+02  1.31186E+02
   1.43906E+02  1.43094E+02  1.28836E+02  1.08681E+02  8.63885E+01  6.85228E+01  5.34648E+01  4.23326E+01  3.25007E+01  2.35761E+01
   2.01857E+01  1.68771E+01  1.74999E+01  1.59839E+01  9.24769E+00  1.20699E+01  8.59002E+00  1.35218E+01  1.24009E+01  1.00223E+01
   1.29462E+01  9.24932E+00  1.49188E+01  1.00865E+01  1.57387E+01  1.70685E+01  1.22459E+01  1.71260E+01  1.78837E+01  2.44618E+01
   2.16259E+01  1.94901E+01  2.22143E+01  2.30940E+01  2.72493E+01  2.51008E+01  2.76883E+01  2.70641E+01  2.66355E+01  2.86574E+01
   3.17247E+01  3.40394E+01  3.29105E+01  3.48448E+01  3.16522E+01  3.96465E+01  3.45918E+01  3.77193E+01  3.48707E+01  3.37033E+01
   3.41786E+01  3.74858E+01  2.75064E+01  3.25919E+01  2.39335E+01  2.62950E+01  1.96727E+01  1.80720E+01  1.14457E+01  1.59651E+01
   5.10007E+00  7.38430E+00 -1.20801E-01  2.99257E+00 -6.62568E-02 -8.30246E-01 -1.93503E+00 -2.61237E+00 -1.64876E+00  1.24611E+00
  -3.65402E+00 -1.49491E+00 -3.19146E-02  5.77069E-01  5.92535E+00  8.30477E+00  1.48498E+01  1.60748E+01  1.67356E+01  9.68004E+00
   6.44651E+00  1.70784E+01  1.84537E+01  2.01176E+01  1.70085E+01  1.92688E+01  1.73884E+01  1.81926E+01  1.50040E+01  1.67871E+01
   5.05156E+00  1.55208E+01  9.74573E+00  1.77346E+01  1.79682E+01  1.38982E+01  1.12332E+01  1.84127E+01  1.41506E+01  1.59329E+01
   1.01585E+01  1.57864E+01  1.06513E+01  1.22314E+01  7.58918E+00  1.60370E+01  1.22811E+01  1.40926E+01  1.10977E+01  9.17791E+00
   8.33529E+00  1.41043E+01  1.38805E+01  1.15095E+01  1.15194E+01  5.51778E+00  6.18663E+00  9.14800E+00  7.52439E+00  6.73245E+00
   7.33461E+00  7.91015E+00  5.93726E+00  2.69726E+00  1.28392E+01  5.10271E+00  7.60305E+00  7.12765E+00  6.59619E+00  1.25681E+01
   9.24970E+00  8.90553E+00  1.10949E+01  1.49274E+01  1.38426E+01  1.14018E+01  1.40061E+01  1.54008E+01  2.52452E+01  2.44436E+01
   2.09566E+01  2.41765E+01  2.10299E+01  2.04823E+01  2.26319E+01  2.69566E+01  3.05621E+01  2.25119E+01  2.69646E+01  2.40976E+01
   2.12805E+01  2.13628E+01  2.19678E+01  1.88797E+01  1.92234E+01  1.57813E+01  1.33040E+01  1.10622E+01  1.18488E+01  1.37971E+01
   6.69826E+00  9.11559E+00  9.72077E+00  1.16685E+01  1.39828E+01  8.16398E+00  3.16995E+00  2.03335E+00  6.48709E+00  5.14839E+00
   5.98408E+00  5.95685E+00  4.78710E+00  4.64387E+00  4.64681E+00  4.88432E+00  3.98668E+00  4.12536E+00  6.30238E+00  6.56920E+00
   5.67851E+00  5.49848E+00  7.13183E+00  6.16985E+00  2.10413E-01  5.15517E+00  4.70356E+00  1.15051E+00  3.93351E+00 -4.45776E-01
   4.43025E+00  3.08656E+00  4.91180E+00 -2.36257E+00  5.96586E+00  5.23415E+00  3.73558E-01  2.66187E+00  2.78300E-02  1.11815E+00
   4.61898E+00  2.08006E+00  5.53615E-01 -2.68329E+00 -1.43192E+00  3.00475E+00  5.61301E+00  7.36294E+00  1.32082E+00  6.49042E-01
   3.83525E+00  2.33699E-01  3.91627E+00  1.72304E+00  4.83317E+00  2.79742E+00  4.50056E+00  1.09371E+00  9.98386E+00  1.24681E+00
   1.33784E+00  7.19771E-01  3.99436E+00 -1.59926E+00  1.72261E+00 -1.82016E-01 -7.79659E-01  3.00104E+00  1.09731E+00  9.31867E+00
   4.53957E+00  1.17279E+00  1.95183E+00  3.51638E+00  7.85016E-01 -2.20240E+00 -3.17580E+00  2.57559E+00
 NY points of the fit to the data follow
   1.42365E+01  1.75876E+01  1.61564E+01  1.84259E+01  2.02773E+01  2.63643E+01  3.02294E+01  3.88351E+01  4.28100E+01  4.93820E+01
   4.96897E+01  5.13090E+01  4.67053E+01  4.47240E+01  3.79993E+01  3.57908E+01  2.87474E+01  2.67394E+01  2.11957E+01  1.85914E+01
   1.54045E+01  1.69895E+01  1.56670E+01  1.49703E+01  1.50765E+01  1.47190E+01  1.53644E+01  1.64903E+01  1.88916E+01  2.17047E+01
   2.45133E+01  2.60752E+01  2.65800E+01  2.49208E+01  2.24074E+01  1.89949E+01  1.66151E+01  1.29957E+01  1.34956E+01  1.27456E+01
   1.30394E+01  1.32292E+01  1.37504E+01  1.53369E+01  1.79344E+01  2.09817E+01  2.36663E+01  2.43957E+01  2.35558E+01  2.07496E+01
   1.71171E+01  1.40666E+01  1.16826E+01  1.06286E+01  9.54356E+00  9.45284E+00  9.01046E+00  8.92609E+00  9.49210E+00  1.06907E+01
   1.07590E+01  1.05887E+01  9.12912E+00  8.32457E+00  7.02678E+00  6.82772E+00  6.27711E+00  7.21547E+00  7.42529E+00  7.99856E+00
   8.08999E+00  8.34494E+00  8.25661E+00  8.48933E+00  8.17714E+00  8.10529E+00  7.33726E+00  6.86642E+00  6.69040E+00  7.27600E+00
   6.12639E+00  6.47819E+00  5.97717E+00  7.56176E+00  8.44769E+00  1.03991E+01  1.01988E+01  1.06864E+01  8.93707E+00  7.77003E+00
   5.57422E+00  4.99906E+00  3.61134E+00  4.43445E+00  5.02316E+00  1.19030E+01  1.32825E+01  1.42734E+01  1.63991E+01  2.10088E+01
   2.96956E+01  4.07416E+01  5.09910E+01  5.72534E+01  5.79815E+01  5.27829E+01  4.37370E+01  3.40452E+01  2.54090E+01  2.02003E+01
   1.60414E+01  1.21869E+01  9.86136E+00  3.91197E+00  1.97263E+00  1.31869E+00  1.25105E+00  1.62854E+00  4.85891E+00  1.08833E+01
   1.29542E+01  1.85910E+01  1.93340E+01  2.84676E+01  3.60075E+01  5.13602E+01  6.00383E+01  7.00064E+01  6.82714E+01  6.59648E+01
   5.41171E+01  4.64249E+01  3.40179E+01  2.99559E+01  2.00753E+01  1.82123E+01  9.80908E+00  6.39229E+00  2.88782E+00  2.49868E+00
   2.70967E+00  3.12096E+00  2.89794E+00  2.44800E+00  1.70880E+00  1.42903E+00  6.64672E-01  4.13185E-01 -1.48990E-01 -6.71850E-01
  -1.20970E+00 -1.86640E+00 -2.52428E+00 -3.37524E+00 -3.62706E+00 -3.93954E+00 -3.80523E+00 -3.96907E+00 -4.77190E+00 -5.69853E+00
  -6.56032E+00 -7.01246E+00 -6.99702E+00 -6.68016E+00 -6.43557E+00 -6.49860E+00 -7.17113E+00 -8.30404E+00 -9.65100E+00 -1.03831E+01
  -1.07528E+01 -1.08047E+01 -1.16573E+01 -1.27661E+01 -1.36403E+01 -1.43216E+01 -1.40939E+01 -1.40654E+01 -1.37429E+01 -1.40689E+01
  -1.34134E+01 -1.33666E+01 -1.27036E+01 -1.25477E+01 -1.16884E+01 -1.15189E+01 -9.98584E+00 -8.89549E+00 -6.89456E+00 -5.06999E+00
  -3.49155E+00 -2.29086E+00 -2.28218E+00 -2.63995E+00 -3.51214E+00 -3.78545E+00 -3.92061E+00 -3.03775E+00 -2.48435E+00 -1.17091E+00
   4.29533E-02  1.50546E+00  1.83503E+00  3.73247E+00  2.78827E+00  1.85826E+00 -9.82862E-01 -3.41367E+00 -5.49208E+00 -7.69604E+00
  -8.53091E+00 -7.88679E+00 -5.25132E+00 -1.76943E+00  1.35567E+00  3.98316E+00  5.55884E+00  5.90473E+00  3.54333E+00  1.63191E-01
  -3.17760E+00 -6.65519E+00 -7.30617E+00 -6.78267E+00 -4.31359E+00 -8.00753E-01  1.92686E+00  4.71586E+00  6.09139E+00  7.51207E+00
   7.61158E+00  8.31964E+00  8.63246E+00  9.91541E+00  9.79695E+00  1.05540E+01  1.16184E+01  1.28946E+01  1.35324E+01  1.36565E+01
   1.29484E+01  1.22104E+01  1.14530E+01  1.15053E+01  1.21540E+01  1.39749E+01  1.59565E+01  1.75789E+01  1.96375E+01  2.06121E+01
   2.23617E+01  2.69922E+01  4.31283E+01  5.07857E+01  5.64616E+01  6.22322E+01  7.23790E+01  8.94790E+01  1.10823E+02  1.30052E+02
   1.41259E+02  1.41088E+02  1.28937E+02  1.09076E+02  8.72328E+01  6.82426E+01  5.59296E+01  4.64591E+01  3.74102E+01  3.22147E+01
   1.88148E+01  1.41825E+01  1.23124E+01  1.14645E+01  1.06267E+01  1.02516E+01  9.79528E+00  9.31753E+00  8.89130E+00  8.56749E+00
   8.40681E+00  8.38651E+00  8.60720E+00  8.91750E+00  9.43722E+00  1.01060E+01  1.10084E+01  1.20539E+01  1.33361E+01  1.47659E+01
   1.64372E+01  1.82470E+01  2.02089E+01  2.22439E+01  2.43434E+01  2.64299E+01  2.84644E+01  3.03709E+01  3.21237E+01  3.36426E+01
   3.48996E+01  3.58389E+01  3.64304E+01  3.66488E+01  3.64901E+01  3.59516E+01  3.50612E+01  3.38443E+01  3.23499E+01  3.06293E+01
   2.87335E+01  2.67249E+01  2.46638E+01  2.26070E+01  2.06139E+01  1.87395E+01  1.70458E+01  1.56298E+01  1.46948E+01  1.37415E+01
   1.20077E+01  1.13010E+01  1.02829E+01  1.03417E+01  9.71171E+00  9.18317E+00  7.49818E+00  6.85999E+00  4.21852E+00  2.85487E+00
   5.79566E-01  5.95906E-01  6.30049E-01  3.12685E+00  4.59094E+00  7.75169E+00  8.98372E+00  1.09077E+01  1.19393E+01  1.31802E+01
   1.27168E+01  1.35839E+01  1.34668E+01  1.46404E+01  1.49951E+01  1.50109E+01  1.45974E+01  1.46923E+01  1.34254E+01  1.26658E+01
   1.12952E+01  1.12469E+01  1.13066E+01  1.29113E+01  1.38926E+01  1.56508E+01  1.62865E+01  1.68116E+01  1.67765E+01  1.67187E+01
   1.59665E+01  1.57766E+01  1.49711E+01  1.46554E+01  1.39255E+01  1.29969E+01  1.22511E+01  1.15852E+01  1.09626E+01  1.03745E+01
   9.82024E+00  9.30198E+00  8.82312E+00  8.38748E+00  7.99895E+00  7.66132E+00  7.37821E+00  7.15310E+00  6.98943E+00  6.89070E+00
   6.86048E+00  6.90240E+00  7.02015E+00  7.21747E+00  7.49805E+00  7.86540E+00  8.32258E+00  8.87186E+00  9.51438E+00  1.02498E+01
   1.10760E+01  1.19882E+01  1.29792E+01  1.40384E+01  1.51521E+01  1.63033E+01  1.74717E+01  1.86343E+01  1.97659E+01  2.08396E+01
   2.18282E+01  2.27052E+01  2.34460E+01  2.40288E+01  2.44359E+01  2.46547E+01  2.46781E+01  2.45051E+01  2.41408E+01  2.35958E+01
   2.28861E+01  2.20316E+01  2.10559E+01  1.99844E+01  1.88434E+01  1.76590E+01  1.64559E+01  1.52569E+01  1.40818E+01  1.29473E+01
   1.18668E+01  1.08503E+01  9.90425E+00  9.03264E+00  8.23668E+00  7.51551E+00  6.86658E+00  6.28608E+00  5.76939E+00  5.31140E+00
   4.90682E+00  4.55033E+00  4.23679E+00  3.96131E+00  3.71946E+00  3.50717E+00  3.32085E+00  3.15725E+00  3.01352E+00  2.88718E+00
   2.77608E+00  2.67839E+00  2.59251E+00  2.51703E+00  2.45072E+00  2.39255E+00  2.34163E+00  2.29720E+00  2.25859E+00  2.22517E+00
   2.19640E+00  2.17185E+00  2.15113E+00  2.13391E+00  2.11986E+00  2.10869E+00  2.10015E+00  2.09403E+00  2.09016E+00  2.08836E+00
   2.08844E+00  2.09026E+00  2.09367E+00  2.09861E+00  2.10498E+00  2.11266E+00  2.12154E+00  2.13153E+00  2.14257E+00  2.15462E+00
   2.16763E+00  2.18151E+00  2.19621E+00  2.21167E+00  2.22787E+00  2.24479E+00  2.26240E+00  2.28062E+00  2.29941E+00  2.31875E+00
   2.33866E+00  2.35910E+00  2.38004E+00  2.40144E+00  2.42328E+00  2.44555E+00  2.46828E+00  2.49145E+00  2.51501E+00  2.53895E+00
   2.56327E+00  2.58798E+00  2.61309E+00  2.63861E+00  2.66449E+00  2.69075E+00  2.71740E+00  2.74449E+00
 NY background values follow
     5.182E+00    5.098E+00    5.015E+00    4.932E+00    4.848E+00    4.765E+00    4.682E+00    4.599E+00    4.515E+00    4.432E+00
     4.349E+00    4.266E+00    4.182E+00    4.099E+00    4.016E+00    3.933E+00    3.849E+00    3.766E+00    3.683E+00    3.600E+00
     3.517E+00    3.434E+00    3.351E+00    3.268E+00    3.185E+00    3.102E+00    3.020E+00    2.937E+00    2.854E+00    2.771E+00
     2.689E+00    2.606E+00    2.524E+00    2.441E+00    2.359E+00    2.277E+00    2.194E+00    2.112E+00    2.030E+00    1.948E+00
     1.866E+00    1.785E+00    1.703E+00    1.621E+00    1.540E+00    1.458E+00    1.377E+00    1.295E+00    1.214E+00    1.133E+00
     1.052E+00    9.713E-01    8.905E-01    8.099E-01    7.294E-01    6.491E-01    5.688E-01    4.887E-01    4.088E-01    3.290E-01
     2.493E-01    1.699E-01    9.053E-02    1.136E-02   -6.764E-02   -1.465E-01   -2.251E-01   -3.036E-01   -3.819E-01   -4.600E-01
    -5.379E-01   -6.156E-01   -6.931E-01   -7.704E-01   -8.475E-01   -9.244E-01   -1.001E+00   -1.077E+00   -1.154E+00   -1.230E+00
    -1.305E+00   -1.381E+00   -1.456E+00   -1.531E+00   -1.606E+00   -1.681E+00   -1.755E+00   -1.829E+00   -1.903E+00   -1.976E+00
    -2.049E+00   -2.122E+00   -2.195E+00   -2.267E+00   -2.339E+00   -2.411E+00   -2.482E+00   -2.553E+00   -2.624E+00   -2.694E+00
    -2.765E+00   -2.834E+00   -2.904E+00   -2.973E+00   -3.041E+00   -3.110E+00   -3.178E+00   -3.245E+00   -3.312E+00   -3.379E+00
    -3.445E+00   -3.511E+00   -3.577E+00   -3.642E+00   -3.706E+00   -3.770E+00   -3.834E+00   -3.897E+00   -3.960E+00   -4.023E+00
    -4.084E+00   -4.146E+00   -4.207E+00   -4.267E+00   -4.327E+00   -4.386E+00   -4.445E+00   -4.504E+00   -4.561E+00   -4.619E+00
    -4.675E+00   -4.732E+00   -4.787E+00   -4.842E+00   -4.897E+00   -4.951E+00   -5.004E+00   -5.057E+00   -5.109E+00   -5.160E+00
    -5.211E+00   -5.261E+00   -5.311E+00   -5.360E+00   -5.408E+00   -5.456E+00   -5.503E+00   -5.549E+00   -5.594E+00   -5.639E+00
    -5.683E+00   -5.727E+00   -5.769E+00   -5.811E+00   -5.852E+00   -5.892E+00   -5.932E+00   -5.970E+00   -6.008E+00   -6.045E+00
    -6.081E+00   -6.117E+00   -6.151E+00   -6.185E+00   -6.218E+00   -6.249E+00   -6.280E+00   -6.311E+00   -6.340E+00   -6.368E+00
    -6.395E+00   -6.421E+00   -6.447E+00   -6.471E+00   -6.495E+00   -6.517E+00   -6.539E+00   -6.559E+00   -6.578E+00   -6.597E+00
    -6.614E+00   -6.630E+00   -6.645E+00   -6.660E+00   -6.673E+00   -6.685E+00   -6.696E+00   -6.706E+00   -6.715E+00   -6.724E+00
    -6.731E+00   -6.738E+00   -6.743E+00   -6.748E+00   -6.751E+00   -6.754E+00   -6.757E+00   -6.758E+00   -6.758E+00   -6.758E+00
    -6.757E+00   -6.755E+00   -6.753E+00   -6.749E+00   -6.745E+00   -6.741E+00   -6.735E+00   -6.729E+00   -6.723E+00   -6.715E+00
    -6.708E+00   -6.699E+00   -6.690E+00   -6.680E+00   -6.670E+00   -6.660E+00   -6.648E+00   -6.637E+00   -6.625E+00   -6.612E+00
    -6.599E+00   -6.585E+00   -6.572E+00   -6.557E+00   -6.542E+00   -6.527E+00   -6.512E+00   -6.496E+00   -6.480E+00   -6.464E+00
    -6.447E+00   -6.430E+00   -6.413E+00   -6.395E+00   -6.377E+00   -6.359E+00   -6.340E+00   -6.321E+00   -6.302E+00   -6.283E+00
    -6.263E+00   -6.243E+00   -6.223E+00   -6.202E+00   -6.182E+00   -6.161E+00   -6.139E+00   -6.118E+00   -6.096E+00   -6.074E+00
    -6.052E+00   -6.030E+00   -6.007E+00   -5.985E+00   -5.962E+00   -5.938E+00   -5.915E+00   -5.892E+00   -5.868E+00   -5.844E+00
    -5.820E+00   -5.796E+00   -5.771E+00   -5.747E+00   -5.722E+00   -5.697E+00   -5.672E+00   -5.647E+00   -5.622E+00   -5.596E+00
    -5.571E+00   -5.545E+00   -5.519E+00   -5.494E+00   -5.468E+00   -5.442E+00   -5.415E+00   -5.389E+00   -5.363E+00   -5.336E+00
    -5.310E+00   -5.283E+00   -5.256E+00   -5.229E+00   -5.202E+00   -5.175E+00   -5.148E+00   -5.121E+00   -5.093E+00   -5.066E+00
    -5.038E+00   -5.010E+00   -4.982E+00   -4.954E+00   -4.926E+00   -4.898E+00   -4.870E+00   -4.841E+00   -4.813E+00   -4.784E+00
    -4.756E+00   -4.727E+00   -4.698E+00   -4.669E+00   -4.640E+00   -4.611E+00   -4.582E+00   -4.552E+00   -4.523E+00   -4.493E+00
    -4.463E+00   -4.434E+00   -4.404E+00   -4.374E+00   -4.344E+00   -4.314E+00   -4.284E+00   -4.253E+00   -4.223E+00   -4.192E+00
    -4.162E+00   -4.131E+00   -4.100E+00   -4.069E+00   -4.038E+00   -4.007E+00   -3.976E+00   -3.945E+00   -3.913E+00   -3.882E+00
    -3.850E+00   -3.819E+00   -3.787E+00   -3.755E+00   -3.723E+00   -3.691E+00   -3.659E+00   -3.627E+00   -3.594E+00   -3.562E+00
    -3.529E+00   -3.497E+00   -3.464E+00   -3.431E+00   -3.398E+00   -3.365E+00   -3.332E+00   -3.299E+00   -3.265E+00   -3.232E+00
    -3.198E+00   -3.165E+00   -3.131E+00   -3.097E+00   -3.063E+00   -3.029E+00   -2.995E+00   -2.961E+00   -2.926E+00   -2.892E+00
    -2.857E+00   -2.823E+00   -2.788E+00   -2.753E+00   -2.718E+00   -2.683E+00   -2.648E+00   -2.612E+00   -2.577E+00   -2.541E+00
    -2.506E+00   -2.470E+00   -2.434E+00   -2.399E+00   -2.363E+00   -2.326E+00   -2.290E+00   -2.254E+00   -2.218E+00   -2.181E+00
    -2.145E+00   -2.108E+00   -2.072E+00   -2.035E+00   -1.998E+00   -1.961E+00   -1.924E+00   -1.887E+00   -1.850E+00   -1.813E+00
    -1.776E+00   -1.739E+00   -1.701E+00   -1.664E+00   -1.626E+00   -1.589E+00   -1.551E+00   -1.513E+00   -1.476E+00   -1.438E+00
    -1.400E+00   -1.362E+00   -1.324E+00   -1.286E+00   -1.248E+00   -1.210E+00   -1.172E+00   -1.133E+00   -1.095E+00   -1.057E+00
    -1.018E+00   -9.798E-01   -9.414E-01   -9.029E-01   -8.644E-01   -8.258E-01   -7.872E-01   -7.486E-01   -7.100E-01   -6.714E-01
    -6.328E-01   -5.941E-01   -5.555E-01   -5.168E-01   -4.782E-01   -4.395E-01   -4.009E-01   -3.623E-01   -3.236E-01   -2.850E-01
    -2.465E-01   -2.079E-01   -1.694E-01   -1.308E-01   -9.236E-02   -5.392E-02   -1.551E-02    2.286E-02    6.119E-02    9.947E-02
     1.377E-01    1.759E-01    2.140E-01    2.521E-01    2.901E-01    3.280E-01    3.659E-01    4.037E-01    4.415E-01    4.791E-01
     5.167E-01    5.542E-01    5.916E-01    6.289E-01    6.662E-01    7.033E-01    7.404E-01    7.774E-01    8.143E-01    8.512E-01
     8.879E-01    9.247E-01    9.613E-01    9.979E-01    1.034E+00    1.071E+00    1.107E+00    1.143E+00    1.180E+00    1.216E+00
     1.252E+00    1.288E+00    1.324E+00    1.360E+00    1.396E+00    1.432E+00    1.468E+00    1.504E+00    1.540E+00    1.576E+00
     1.611E+00    1.647E+00    1.683E+00    1.718E+00    1.754E+00    1.790E+00    1.825E+00    1.861E+00    1.896E+00    1.932E+00
     1.967E+00    2.003E+00    2.038E+00    2.074E+00    2.109E+00    2.145E+00    2.180E+00    2.216E+00
 Ala      Conc. = 5.87E+02
