 LCModel (Version 6.3-1L) Copyright: S.W. Provencher.          Ref.: Magn. Reson. Med. 30:672-679 (1993).                
 Slice#1 Row#10 Col#7  PD_24_press_2_raw_act
 36 lines in following concentration table = NCONC+1
    Conc.  %SD /Cr+PCr  Metabolite                                         
  254.237  56%   0.154 Ala                                                 
    0.000 999%   0.000 Asp                                                 
  568.913  52%   0.346 Cr                                                  
 1.08E+03  28%   0.654 PCr                                                 
    0.000 999%   0.000 GABA                                                
   96.055 170% 5.8E-02 Glc                                                 
  878.497  33%   0.534 Gln                                                 
 1.27E+03  25%   0.770 Glu                                                 
  409.535   6%   0.249 GPC                                                 
    0.000 999%   0.000 PCh                                                 
  368.601  23%   0.224 GSH                                                 
 1.61E+03  17%   0.980 Ins                                                 
   63.492 244% 3.9E-02 Lac                                                 
 2.34E+03   6%   1.422 NAA                                                 
  315.125  53%   0.191 NAAG                                                
  138.096  22% 8.4E-02 Scyllo                                              
  394.082  55%   0.239 Tau                                                 
  489.897  26%   0.298 -CrCH2                                              
  409.535   6%   0.249 GPC+PCh                                             
 2.66E+03   4%   1.614 NAA+NAAG                                            
 1.65E+03   4%   1.000 Cr+PCr                                              
 2.15E+03  22%   1.304 Glu+Gln                                             
 1.99E+03  30%   1.208 Lip13a                                              
    0.000 999%   0.000 Lip13b                                              
  361.185  85%   0.219 Lip09                                               
 1.55E+03  22%   0.942 MM09                                                
  400.638  52%   0.243 Lip20                                               
 3.44E+03  12%   2.088 MM20                                                
  536.773  48%   0.326 MM12                                                
  988.987  39%   0.601 MM14                                                
 1.33E+03  12%   0.807 MM17                                                
 1.99E+03  30%   1.208 Lip13a+Lip13b                                       
 3.51E+03  10%   2.135 MM14+Lip13a+Lip13b+MM12                             
 1.91E+03  10%   1.162 MM09+Lip09                                          
 3.84E+03  10%   2.332 MM20+Lip20                                          
   6 lines in following misc. output table
  FWHM = 0.061 ppm    S/N =  11                                            
  Data shift = 0.015 ppm                                                   
  Ph: -32 deg      -9.6 deg/ppm                                            
  alphaB,S = 8.5E+01,   2.1E+02                                            
   14 spline knots.   Ns = 8(1)                                            
   2 inflections.     1 extrema                                            
  498 points on ppm-axis = NY
      4.000000     3.992357     3.984714     3.977070     3.969427     3.961784     3.954141     3.946497     3.938854     3.931211
      3.923568     3.915925     3.908281     3.900638     3.892995     3.885352     3.877708     3.870065     3.862422     3.854779
      3.847136     3.839492     3.831849     3.824206     3.816563     3.808919     3.801276     3.793633     3.785990     3.778347
      3.770703     3.763060     3.755417     3.747774     3.740130     3.732487     3.724844     3.717201     3.709558     3.701914
      3.694271     3.686628     3.678985     3.671341     3.663698     3.656055     3.648412     3.640769     3.633125     3.625482
      3.617839     3.610196     3.602552     3.594909     3.587266     3.579623     3.571980     3.564336     3.556693     3.549050
      3.541407     3.533763     3.526120     3.518477     3.510834     3.503191     3.495547     3.487904     3.480261     3.472618
      3.464974     3.457331     3.449688     3.442045     3.434402     3.426758     3.419115     3.411472     3.403829     3.396185
      3.388542     3.380899     3.373256     3.365613     3.357969     3.350326     3.342683     3.335040     3.327396     3.319753
      3.312110     3.304467     3.296824     3.289180     3.281537     3.273894     3.266251     3.258607     3.250964     3.243321
      3.235678     3.228034     3.220391     3.212748     3.205105     3.197462     3.189818     3.182175     3.174532     3.166889
      3.159245     3.151602     3.143959     3.136316     3.128673     3.121029     3.113386     3.105743     3.098100     3.090456
      3.082813     3.075170     3.067527     3.059884     3.052240     3.044597     3.036954     3.029311     3.021667     3.014024
      3.006381     2.998738     2.991095     2.983451     2.975808     2.968165     2.960522     2.952878     2.945235     2.937592
      2.929949     2.922306     2.914662     2.907019     2.899376     2.891733     2.884089     2.876446     2.868803     2.861160
      2.853517     2.845873     2.838230     2.830587     2.822944     2.815300     2.807657     2.800014     2.792371     2.784728
      2.777084     2.769441     2.761798     2.754155     2.746511     2.738868     2.731225     2.723582     2.715939     2.708295
      2.700652     2.693009     2.685366     2.677722     2.670079     2.662436     2.654793     2.647150     2.639506     2.631863
      2.624220     2.616577     2.608933     2.601290     2.593647     2.586004     2.578361     2.570717     2.563074     2.555431
      2.547788     2.540144     2.532501     2.524858     2.517215     2.509572     2.501928     2.494285     2.486642     2.478999
      2.471355     2.463712     2.456069     2.448426     2.440783     2.433139     2.425496     2.417853     2.410210     2.402566
      2.394923     2.387280     2.379637     2.371994     2.364350     2.356707     2.349064     2.341421     2.333777     2.326134
      2.318491     2.310848     2.303205     2.295561     2.287918     2.280275     2.272632     2.264988     2.257345     2.249702
      2.242059     2.234416     2.226772     2.219129     2.211486     2.203843     2.196199     2.188556     2.180913     2.173270
      2.165627     2.157983     2.150340     2.142697     2.135054     2.127410     2.119767     2.112124     2.104481     2.096838
      2.089194     2.081551     2.073908     2.066265     2.058621     2.050978     2.043335     2.035692     2.028049     2.020405
      2.012762     2.005119     1.997476     1.989833     1.982190     1.974546     1.966903     1.959260     1.951617     1.943974
      1.936331     1.928688     1.921045     1.913402     1.905759     1.898115     1.890472     1.882829     1.875186     1.867543
      1.859900     1.852257     1.844614     1.836971     1.829327     1.821684     1.814041     1.806398     1.798755     1.791112
      1.783469     1.775826     1.768183     1.760540     1.752896     1.745253     1.737610     1.729967     1.722324     1.714681
      1.707038     1.699395     1.691752     1.684108     1.676465     1.668822     1.661179     1.653536     1.645893     1.638250
      1.630607     1.622964     1.615321     1.607677     1.600034     1.592391     1.584748     1.577105     1.569462     1.561819
      1.554176     1.546533     1.538890     1.531246     1.523603     1.515960     1.508317     1.500674     1.493031     1.485388
      1.477745     1.470102     1.462458     1.454815     1.447172     1.439529     1.431886     1.424243     1.416600     1.408957
      1.401314     1.393671     1.386027     1.378384     1.370741     1.363098     1.355455     1.347812     1.340169     1.332526
      1.324883     1.317240     1.309596     1.301953     1.294310     1.286667     1.279024     1.271381     1.263738     1.256095
      1.248452     1.240808     1.233165     1.225522     1.217879     1.210236     1.202593     1.194950     1.187307     1.179664
      1.172021     1.164377     1.156734     1.149091     1.141448     1.133805     1.126162     1.118519     1.110876     1.103233
      1.095590     1.087946     1.080303     1.072660     1.065017     1.057374     1.049731     1.042088     1.034445     1.026802
      1.019158     1.011515     1.003872     0.996229     0.988586     0.980943     0.973300     0.965657     0.958014     0.950371
      0.942727     0.935084     0.927441     0.919798     0.912155     0.904512     0.896869     0.889226     0.881583     0.873940
      0.866296     0.858653     0.851010     0.843367     0.835724     0.828081     0.820438     0.812795     0.805152     0.797508
      0.789865     0.782222     0.774579     0.766936     0.759293     0.751650     0.744007     0.736364     0.728721     0.721077
      0.713434     0.705791     0.698148     0.690505     0.682862     0.675219     0.667576     0.659933     0.652290     0.644646
      0.637003     0.629360     0.621717     0.614074     0.606431     0.598788     0.591145     0.583502     0.575858     0.568215
      0.560572     0.552929     0.545286     0.537643     0.530000     0.522357     0.514714     0.507071     0.499427     0.491784
      0.484141     0.476498     0.468855     0.461212     0.453569     0.445925     0.438282     0.430639     0.422996     0.415353
      0.407710     0.400067     0.392424     0.384780     0.377137     0.369494     0.361851     0.354208     0.346565     0.338922
      0.331278     0.323635     0.315992     0.308349     0.300706     0.293063     0.285420     0.277777     0.270133     0.262490
      0.254847     0.247204     0.239561     0.231918     0.224275     0.216631     0.208988     0.201345
 NY phased data points follow
  -8.14898E+00 -7.99757E+00 -3.79072E+00 -7.01522E+00  1.17439E+00 -8.05346E+00  3.23213E+00  3.46986E+00  1.40146E+01  1.65819E+01
   2.16757E+01  1.69331E+01  1.97032E+01  1.39912E+01  1.08909E+01  3.61021E+00 -1.65564E+00 -2.63426E+00  3.19688E-02 -5.75318E+00
  -9.74030E-02 -5.58473E+00 -3.14723E+00 -7.07333E+00 -5.26315E+00 -4.62018E+00  1.89189E+00 -3.74134E+00  2.58493E+00  2.57328E+00
   1.27960E+00  2.41629E+00  4.72796E+00 -1.99233E-01  4.31738E+00 -4.01810E+00  3.15423E+00  3.18382E+00  4.73871E+00 -4.22398E+00
   3.62311E+00 -4.68240E+00 -2.87004E-01  6.68201E+00  2.59236E+00  2.60457E+00  6.87454E+00  5.44407E+00  4.61134E+00  4.89523E+00
   3.77732E+00  1.82037E+00  2.43153E+00 -4.61659E+00  2.17708E+00 -3.14445E+00  3.12809E-01 -2.65775E+00  5.38869E+00 -1.01508E+00
   5.78196E+00  2.57821E-01 -3.82463E+00 -6.85213E+00 -2.71845E+00 -5.65612E+00 -4.80242E+00 -4.44637E+00 -5.54750E+00 -5.71777E+00
   9.07910E-01 -4.04348E+00 -2.89890E-01  1.71633E+00 -8.39207E-01 -3.11928E+00  3.84420E-01 -1.67627E+00  8.06597E-01 -6.27832E+00
  -3.70613E-01 -7.25416E+00  1.58614E+00 -7.05500E+00  4.48095E+00 -3.50576E+00  2.89224E+00 -4.04766E+00  2.23188E+00 -1.02501E+00
   4.25409E+00 -3.55521E+00  4.87919E+00  1.79507E+00  1.20845E+00 -1.49039E+00  4.90466E+00  3.07528E+00  1.03913E+01  8.06657E+00
   1.54519E+01  2.49360E+01  2.76113E+01  2.94897E+01  3.19242E+01  2.42776E+01  2.21723E+01  8.52398E+00  6.31741E+00  5.95701E+00
  -1.21286E+00  3.88998E+00  4.26422E+00 -4.57940E+00  2.51496E+00 -3.84475E-01  3.07542E+00 -2.01254E+00  2.50518E+00  5.02608E-01
   6.58892E+00  9.55978E+00  1.47948E+01  1.71565E+01  2.81008E+01  3.38757E+01  4.37079E+01  4.66431E+01  5.27441E+01  4.16083E+01
   3.33394E+01  1.86483E+01  1.55034E+01  1.38638E+01  9.56880E+00  4.83413E+00  1.14306E+00 -4.71405E-02  7.77792E+00  2.23342E+00
   3.30118E+00 -2.97282E+00 -1.66705E-01  1.76553E+00 -4.43100E+00 -2.95680E+00  1.85712E+00  1.00624E+00 -2.68328E+00 -4.09913E+00
  -1.50437E+00 -2.09451E+00  1.21131E+00 -1.67246E+00 -4.45379E+00 -1.28945E+00 -2.91372E+00 -2.37830E+00  2.89131E+00  3.24632E-02
   1.48038E+00 -3.33622E+00 -3.25638E+00 -1.49538E+00 -1.10021E+01 -5.73937E+00 -3.50635E+00 -4.15587E+00 -7.41267E+00 -1.16808E+01
  -1.25772E+01 -1.60931E+01 -1.31084E+01 -1.21774E+01 -1.36381E+01 -1.99343E+01 -1.25663E+01 -1.44722E+01 -7.72227E+00 -1.18159E+01
  -5.79091E+00 -1.29495E+01 -1.00474E+01 -5.91101E+00 -5.59907E+00 -1.11432E+01 -5.89708E+00 -9.38716E+00 -9.85076E+00 -1.02197E+01
  -5.36615E+00 -6.95958E+00 -6.96975E+00 -5.73621E+00 -5.57809E+00 -3.20051E+00 -7.51484E+00 -7.18616E+00 -2.55007E+00 -3.48378E+00
  -2.58885E+00 -4.51619E+00  3.60327E+00  2.10658E+00  7.60646E+00  6.44530E+00 -2.03576E+00 -4.92239E-01 -2.80453E+00  9.59874E-03
  -1.54216E+00  8.35484E-01  2.09399E+00  7.28450E+00  9.62238E+00  7.10520E+00  1.36476E+01  6.27004E+00  6.55720E+00  2.71865E+00
   8.47637E-01 -3.00392E+00  1.37401E+00 -5.11968E+00  2.50681E+00  5.36771E+00  1.83731E+00  8.69295E+00  1.57348E+01  5.31087E+00
   6.89557E+00  5.45265E+00  4.14378E+00  3.33636E+00  4.63050E+00  5.99471E+00  9.71317E+00  1.80689E+00  8.12399E+00  5.66817E+00
   7.83271E+00  3.52530E+00  5.62189E+00  7.26069E+00  1.06437E+01  1.31036E+01  1.38130E+01  8.04246E+00  1.21587E+01  1.49441E+01
   1.69455E+01  2.26490E+01  2.82043E+01  3.16962E+01  3.98653E+01  4.53847E+01  5.73710E+01  6.22140E+01  7.63187E+01  7.69258E+01
   8.09658E+01  8.49824E+01  7.84199E+01  6.44461E+01  4.34333E+01  3.11137E+01  2.09708E+01  1.40417E+01  1.51402E+01  8.20583E+00
   1.04456E+01  1.12648E+01  8.89535E+00  4.46929E+00  8.67401E+00  1.72902E+00  8.50998E+00 -9.49265E-01  2.88929E+00 -5.36944E+00
   3.36052E+00 -2.40944E+00 -2.12546E+00 -5.16709E+00 -2.15439E+00 -6.35991E+00 -7.37804E+00 -7.66393E+00 -3.40073E+00 -3.87116E+00
  -1.59504E+00 -5.22981E+00 -1.80418E+00 -2.60471E+00 -2.64401E+00 -7.01862E+00 -1.04765E+00 -3.90284E+00  3.87081E-01 -4.45677E+00
  -4.56665E-01 -2.86643E+00  3.18064E+00  2.38528E+00  4.44682E-01  8.65821E+00  1.03152E+01  5.92068E+00  7.45982E+00  6.36924E+00
   8.14639E+00  1.20891E+01  1.05192E+01  1.79609E+01  1.44454E+01  1.49035E+01  1.61077E+01  1.59993E+01  1.37246E+01  1.68184E+01
   1.33382E+01  1.13065E+01  1.17147E+01  1.23255E+01  7.51216E+00  9.26799E+00  1.16035E+01  6.31133E+00  1.12236E+01  4.31685E+00
   1.91864E+00  1.85859E+00  7.45395E+00  9.79204E+00  1.20701E+01  7.85661E+00  8.83602E+00  1.26987E+01  1.09400E+01  1.20771E+01
   8.46042E+00  8.01694E+00  1.19119E+01  8.78958E+00  1.39789E+01  1.49357E+01  9.78387E+00  1.11018E+01  1.36077E+01  1.10839E+01
   1.47884E+01  1.00306E+01  1.22041E+01  7.44194E+00  1.04052E+01  1.17849E+01  1.26626E+01  1.12680E+01  1.05628E+01  1.47723E+01
   1.08289E+01  1.04894E+01  1.08705E+01  1.04634E+01  1.39097E+01  4.82635E+00  1.09234E+01  9.35379E+00  1.41645E+01  9.39373E+00
   9.22104E+00  8.15074E+00  7.93295E+00  4.23939E+00  8.08670E+00  5.11080E+00  7.81247E+00  3.76163E+00  5.17335E+00  7.19329E+00
   5.19580E+00  4.14044E+00  8.67857E+00  4.82658E+00  9.84482E+00  4.70178E+00  8.90234E+00  8.43967E+00  1.91398E+00  8.80099E+00
   6.39087E+00  7.36219E+00  9.01935E+00  9.46319E+00  9.77868E+00  7.23071E+00  1.24756E+01  1.01610E+01  1.14389E+01  7.55243E+00
   1.22478E+01  7.54084E+00  1.27148E+01  1.32972E+01  1.17260E+01  1.64613E+01  1.50861E+01  1.08630E+01  1.58185E+01  1.30963E+01
   1.25625E+01  1.31095E+01  8.01403E+00  6.28325E+00  1.01959E+01  7.89134E+00  8.39193E+00  9.00250E+00  8.97954E+00  2.16634E+00
   6.77349E+00  3.74097E+00  6.94206E+00  3.04084E+00  7.09429E+00  2.68990E+00  7.78413E+00  2.69122E+00  4.12501E+00  1.95223E+00
   3.81108E+00  5.11827E+00  6.97458E+00  1.23933E+00  5.09268E+00  5.87234E+00  5.22966E+00 -2.00168E+00  1.81716E+00  7.39617E-01
   3.10955E+00  1.13518E+00  4.05895E+00 -2.18740E+00  4.85392E+00  1.54678E+00  2.71790E-01  4.96373E+00  1.93379E+00  2.68115E+00
   7.18446E+00 -2.61762E+00  1.53414E+00  6.59708E-01 -3.58819E-01  4.27959E+00  5.95636E+00 -1.79284E-01 -1.07337E+00 -4.96369E+00
   2.44965E+00 -3.05850E+00  2.35562E+00  1.63395E+00  1.83641E+00  7.08768E-01  3.27602E+00  2.86411E+00  5.75365E+00 -3.77108E+00
  -4.52717E-01  1.23665E+00  2.63359E-01  1.60422E+00 -3.43178E+00  1.67194E+00  5.41598E+00 -1.00803E+00 -7.00059E-01  2.46838E+00
   2.32140E+00  3.09926E+00  2.32494E+00  1.33202E+00  4.89011E+00 -3.19905E+00  2.53307E+00 -6.87048E-01  3.27775E+00  9.32769E+00
   9.56650E-01  1.92944E+00  5.42869E+00  1.25157E+00  6.18692E+00  4.15166E-01  2.79237E+00  1.71967E+00
 NY points of the fit to the data follow
  -5.27950E+00 -5.80357E+00 -5.37754E+00 -4.00005E+00 -1.96108E+00  5.86514E-01  3.71286E+00  7.39545E+00  1.13429E+01  1.50076E+01
   1.76466E+01  1.85032E+01  1.71779E+01  1.39806E+01  9.89675E+00  6.05078E+00  3.08778E+00  1.03993E+00 -5.28710E-01 -1.78144E+00
  -2.63108E+00 -3.13359E+00 -3.24402E+00 -3.16313E+00 -2.97305E+00 -2.62035E+00 -1.97872E+00 -9.52756E-01  4.43352E-01  2.12162E+00
   3.81144E+00  5.04067E+00  5.41159E+00  4.74918E+00  3.25759E+00  1.39718E+00 -4.48545E-01 -2.02091E+00 -3.09512E+00 -3.39352E+00
  -2.85150E+00 -1.80735E+00 -4.73196E-01  1.09281E+00  2.80568E+00  4.43754E+00  5.66722E+00  6.20156E+00  5.79423E+00  4.36414E+00
   2.21538E+00 -3.77645E-02 -1.79611E+00 -2.77838E+00 -3.09883E+00 -3.03280E+00 -2.71391E+00 -2.17201E+00 -1.53305E+00 -9.98850E-01
  -7.48616E-01 -8.48647E-01 -1.29321E+00 -1.93117E+00 -2.50088E+00 -2.81062E+00 -2.80545E+00 -2.53537E+00 -2.08208E+00 -1.56575E+00
  -1.10048E+00 -7.29113E-01 -4.71708E-01 -3.59674E-01 -4.03222E-01 -6.09560E-01 -9.65998E-01 -1.43147E+00 -1.91997E+00 -2.18134E+00
  -2.19405E+00 -1.99157E+00 -1.55642E+00 -9.49965E-01 -2.99998E-01  2.46618E-01  5.54838E-01  4.99881E-01  5.00701E-02 -7.53603E-01
  -1.71962E+00 -2.55114E+00 -3.08521E+00 -3.32656E+00 -3.09848E+00 -1.66456E+00  8.97661E-01  4.20487E+00  8.16163E+00  1.28321E+01
   1.81004E+01  2.33416E+01  2.76052E+01  2.98662E+01  2.92490E+01  2.55647E+01  1.97338E+01  1.34076E+01  8.07314E+00  4.27749E+00
   1.65788E+00 -3.81818E-01 -1.97907E+00 -2.76576E+00 -3.01953E+00 -3.10323E+00 -3.08063E+00 -2.91431E+00 -2.26759E+00 -5.16052E-02
   3.88642E+00  8.77540E+00  1.44607E+01  2.11461E+01  2.87498E+01  3.65017E+01  4.30671E+01  4.69108E+01  4.67141E+01  4.20556E+01
   3.40173E+01  2.48846E+01  1.68596E+01  1.08811E+01  6.60405E+00  3.21121E+00  4.33641E-01 -1.13020E+00 -1.56909E+00 -1.50738E+00
  -1.22838E+00 -9.39073E-01 -7.86353E-01 -8.14247E-01 -9.93076E-01 -1.27823E+00 -1.60613E+00 -1.92963E+00 -2.22990E+00 -2.49947E+00
  -2.73856E+00 -2.94174E+00 -3.11025E+00 -3.30174E+00 -3.51510E+00 -3.70920E+00 -3.86794E+00 -3.99072E+00 -4.14744E+00 -4.39014E+00
  -4.67833E+00 -4.92767E+00 -5.06408E+00 -5.06860E+00 -5.01409E+00 -5.04266E+00 -5.27802E+00 -5.75201E+00 -6.38340E+00 -7.00324E+00
  -7.45250E+00 -7.76595E+00 -8.03944E+00 -8.35682E+00 -8.69071E+00 -8.91047E+00 -8.95737E+00 -8.84910E+00 -8.63743E+00 -8.44109E+00
  -8.32293E+00 -8.23650E+00 -8.08909E+00 -7.76769E+00 -7.21119E+00 -6.46844E+00 -5.63923E+00 -4.72695E+00 -3.69439E+00 -2.61215E+00
  -1.71641E+00 -1.23253E+00 -1.22284E+00 -1.56416E+00 -2.04039E+00 -2.42595E+00 -2.51050E+00 -2.20972E+00 -1.52791E+00 -5.52176E-01
   5.62544E-01  1.57707E+00  2.15930E+00  2.18088E+00  1.59242E+00  3.53584E-01 -1.38529E+00 -3.25183E+00 -4.74585E+00 -5.52932E+00
  -5.42073E+00 -4.33850E+00 -2.44423E+00 -1.89853E-01  1.81759E+00  3.10797E+00  3.51711E+00  3.02972E+00  1.74799E+00  3.16242E-03
  -1.70319E+00 -2.76397E+00 -2.87582E+00 -2.11490E+00 -6.72672E-01  1.18975E+00  3.11083E+00  4.60989E+00  5.43748E+00  5.76642E+00
   5.87975E+00  5.94296E+00  6.03057E+00  6.26536E+00  6.72051E+00  7.29834E+00  7.90003E+00  8.46937E+00  8.91837E+00  9.14628E+00
   9.13802E+00  8.96137E+00  8.79422E+00  8.86866E+00  9.33350E+00  1.01889E+01  1.12969E+01  1.25985E+01  1.41677E+01  1.58953E+01
   1.77355E+01  2.00530E+01  2.42183E+01  3.09755E+01  3.89119E+01  4.72505E+01  5.60088E+01  6.50926E+01  7.37211E+01  8.04889E+01
   8.38072E+01  8.21145E+01  7.45088E+01  6.19333E+01  4.73058E+01  3.40733E+01  2.42408E+01  1.75328E+01  1.26143E+01  8.62467E+00
   6.02955E+00  4.98703E+00  4.44109E+00  4.03957E+00  3.70309E+00  3.37255E+00  3.01319E+00  2.63147E+00  2.24875E+00  1.89517E+00
   1.58990E+00  1.33347E+00  1.11537E+00  9.29478E-01  7.74078E-01  6.39981E-01  5.17790E-01  4.06639E-01  3.16644E-01  2.58358E-01
   2.35129E-01  2.45191E-01  2.90263E-01  3.70604E-01  4.83924E-01  6.29124E-01  8.12535E-01  1.04482E+00  1.33805E+00  1.70263E+00
   2.14612E+00  2.67264E+00  3.28399E+00  3.97556E+00  4.73884E+00  5.56285E+00  6.43468E+00  7.33824E+00  8.25379E+00  9.15770E+00
   1.00261E+01  1.08344E+01  1.15590E+01  1.21794E+01  1.26804E+01  1.30529E+01  1.32973E+01  1.34262E+01  1.34755E+01  1.34877E+01
   1.33953E+01  1.31556E+01  1.27970E+01  1.23355E+01  1.17406E+01  1.09461E+01  9.91142E+00  8.73556E+00  7.54809E+00  6.47017E+00
   5.68968E+00  5.38913E+00  5.63395E+00  6.33204E+00  7.30460E+00  8.37094E+00  9.37670E+00  1.01831E+01  1.06623E+01  1.08578E+01
   1.09190E+01  1.09603E+01  1.10324E+01  1.11142E+01  1.11675E+01  1.12154E+01  1.12539E+01  1.12643E+01  1.12506E+01  1.12235E+01
   1.12199E+01  1.12868E+01  1.14479E+01  1.16837E+01  1.19447E+01  1.21765E+01  1.23341E+01  1.23860E+01  1.23089E+01  1.21073E+01
   1.18229E+01  1.14933E+01  1.11356E+01  1.07498E+01  1.03354E+01  9.91010E+00  9.48456E+00  9.05787E+00  8.63338E+00  8.21601E+00
   7.81133E+00  7.42455E+00  7.06072E+00  6.72420E+00  6.41904E+00  6.14863E+00  5.91610E+00  5.72387E+00  5.57415E+00  5.46855E+00
   5.40867E+00  5.39564E+00  5.43061E+00  5.51425E+00  5.64712E+00  5.82932E+00  6.06078E+00  6.34075E+00  6.66802E+00  7.04036E+00
   7.45476E+00  7.90696E+00  8.39168E+00  8.90218E+00  9.43053E+00  9.96729E+00  1.05020E+01  1.10232E+01  1.15189E+01  1.19767E+01
   1.23845E+01  1.27305E+01  1.30045E+01  1.31977E+01  1.33033E+01  1.33171E+01  1.32371E+01  1.30643E+01  1.28023E+01  1.24571E+01
   1.20371E+01  1.15520E+01  1.10134E+01  1.04331E+01  9.82369E+00  9.19727E+00  8.56547E+00  7.93869E+00  7.32622E+00  6.73576E+00
   6.17363E+00  5.64446E+00  5.15153E+00  4.69657E+00  4.28030E+00  3.90231E+00  3.56156E+00  3.25623E+00  2.98421E+00  2.74293E+00
   2.52987E+00  2.34235E+00  2.17793E+00  2.03408E+00  1.90857E+00  1.79920E+00  1.70414E+00  1.62165E+00  1.55029E+00  1.48864E+00
   1.43558E+00  1.38999E+00  1.35105E+00  1.31795E+00  1.29008E+00  1.26677E+00  1.24755E+00  1.23189E+00  1.21951E+00  1.21002E+00
   1.20319E+00  1.19866E+00  1.19626E+00  1.19572E+00  1.19698E+00  1.19980E+00  1.20412E+00  1.20969E+00  1.21648E+00  1.22433E+00
   1.23325E+00  1.24310E+00  1.25384E+00  1.26532E+00  1.27756E+00  1.29046E+00  1.30406E+00  1.31824E+00  1.33299E+00  1.34819E+00
   1.36392E+00  1.38010E+00  1.39677E+00  1.41381E+00  1.43126E+00  1.44903E+00  1.46719E+00  1.48568E+00  1.50455E+00  1.52368E+00
   1.54312E+00  1.56282E+00  1.58285E+00  1.60316E+00  1.62378E+00  1.64463E+00  1.66577E+00  1.68715E+00  1.70888E+00  1.73088E+00
   1.75320E+00  1.77577E+00  1.79869E+00  1.82192E+00  1.84557E+00  1.86958E+00  1.89403E+00  1.91887E+00
 NY background values follow
    -8.451E+00   -8.429E+00   -8.407E+00   -8.386E+00   -8.364E+00   -8.343E+00   -8.321E+00   -8.299E+00   -8.278E+00   -8.256E+00
    -8.234E+00   -8.213E+00   -8.191E+00   -8.169E+00   -8.148E+00   -8.126E+00   -8.104E+00   -8.082E+00   -8.061E+00   -8.039E+00
    -8.017E+00   -7.996E+00   -7.974E+00   -7.952E+00   -7.930E+00   -7.909E+00   -7.887E+00   -7.865E+00   -7.843E+00   -7.822E+00
    -7.800E+00   -7.778E+00   -7.756E+00   -7.735E+00   -7.713E+00   -7.691E+00   -7.669E+00   -7.647E+00   -7.626E+00   -7.604E+00
    -7.582E+00   -7.560E+00   -7.538E+00   -7.516E+00   -7.495E+00   -7.473E+00   -7.451E+00   -7.429E+00   -7.407E+00   -7.385E+00
    -7.364E+00   -7.342E+00   -7.320E+00   -7.298E+00   -7.276E+00   -7.254E+00   -7.232E+00   -7.211E+00   -7.189E+00   -7.167E+00
    -7.145E+00   -7.123E+00   -7.101E+00   -7.079E+00   -7.057E+00   -7.035E+00   -7.014E+00   -6.992E+00   -6.970E+00   -6.948E+00
    -6.926E+00   -6.904E+00   -6.882E+00   -6.860E+00   -6.838E+00   -6.816E+00   -6.794E+00   -6.772E+00   -6.750E+00   -6.728E+00
    -6.706E+00   -6.684E+00   -6.662E+00   -6.641E+00   -6.619E+00   -6.597E+00   -6.575E+00   -6.553E+00   -6.531E+00   -6.509E+00
    -6.487E+00   -6.465E+00   -6.443E+00   -6.421E+00   -6.399E+00   -6.377E+00   -6.355E+00   -6.333E+00   -6.311E+00   -6.289E+00
    -6.267E+00   -6.245E+00   -6.222E+00   -6.200E+00   -6.178E+00   -6.156E+00   -6.134E+00   -6.112E+00   -6.090E+00   -6.068E+00
    -6.046E+00   -6.024E+00   -6.002E+00   -5.980E+00   -5.958E+00   -5.936E+00   -5.914E+00   -5.892E+00   -5.870E+00   -5.848E+00
    -5.825E+00   -5.803E+00   -5.781E+00   -5.759E+00   -5.737E+00   -5.715E+00   -5.693E+00   -5.671E+00   -5.649E+00   -5.627E+00
    -5.605E+00   -5.582E+00   -5.560E+00   -5.538E+00   -5.516E+00   -5.494E+00   -5.472E+00   -5.450E+00   -5.428E+00   -5.406E+00
    -5.383E+00   -5.361E+00   -5.339E+00   -5.317E+00   -5.295E+00   -5.273E+00   -5.251E+00   -5.228E+00   -5.206E+00   -5.184E+00
    -5.162E+00   -5.140E+00   -5.118E+00   -5.096E+00   -5.073E+00   -5.051E+00   -5.029E+00   -5.007E+00   -4.985E+00   -4.963E+00
    -4.940E+00   -4.918E+00   -4.896E+00   -4.874E+00   -4.852E+00   -4.830E+00   -4.807E+00   -4.785E+00   -4.763E+00   -4.741E+00
    -4.719E+00   -4.697E+00   -4.674E+00   -4.652E+00   -4.630E+00   -4.608E+00   -4.586E+00   -4.563E+00   -4.541E+00   -4.519E+00
    -4.497E+00   -4.475E+00   -4.452E+00   -4.430E+00   -4.408E+00   -4.386E+00   -4.364E+00   -4.341E+00   -4.319E+00   -4.297E+00
    -4.275E+00   -4.253E+00   -4.230E+00   -4.208E+00   -4.186E+00   -4.164E+00   -4.141E+00   -4.119E+00   -4.097E+00   -4.075E+00
    -4.053E+00   -4.030E+00   -4.008E+00   -3.986E+00   -3.964E+00   -3.941E+00   -3.919E+00   -3.897E+00   -3.875E+00   -3.852E+00
    -3.830E+00   -3.808E+00   -3.786E+00   -3.764E+00   -3.741E+00   -3.719E+00   -3.697E+00   -3.675E+00   -3.652E+00   -3.630E+00
    -3.608E+00   -3.586E+00   -3.563E+00   -3.541E+00   -3.519E+00   -3.497E+00   -3.474E+00   -3.452E+00   -3.430E+00   -3.408E+00
    -3.385E+00   -3.363E+00   -3.341E+00   -3.319E+00   -3.296E+00   -3.274E+00   -3.252E+00   -3.230E+00   -3.208E+00   -3.185E+00
    -3.163E+00   -3.141E+00   -3.119E+00   -3.096E+00   -3.074E+00   -3.052E+00   -3.030E+00   -3.007E+00   -2.985E+00   -2.963E+00
    -2.941E+00   -2.918E+00   -2.896E+00   -2.874E+00   -2.852E+00   -2.829E+00   -2.807E+00   -2.785E+00   -2.763E+00   -2.740E+00
    -2.718E+00   -2.696E+00   -2.674E+00   -2.651E+00   -2.629E+00   -2.607E+00   -2.585E+00   -2.562E+00   -2.540E+00   -2.518E+00
    -2.496E+00   -2.473E+00   -2.451E+00   -2.429E+00   -2.407E+00   -2.384E+00   -2.362E+00   -2.340E+00   -2.318E+00   -2.295E+00
    -2.273E+00   -2.251E+00   -2.229E+00   -2.206E+00   -2.184E+00   -2.162E+00   -2.140E+00   -2.118E+00   -2.095E+00   -2.073E+00
    -2.051E+00   -2.029E+00   -2.006E+00   -1.984E+00   -1.962E+00   -1.940E+00   -1.917E+00   -1.895E+00   -1.873E+00   -1.851E+00
    -1.829E+00   -1.806E+00   -1.784E+00   -1.762E+00   -1.740E+00   -1.717E+00   -1.695E+00   -1.673E+00   -1.651E+00   -1.629E+00
    -1.606E+00   -1.584E+00   -1.562E+00   -1.540E+00   -1.517E+00   -1.495E+00   -1.473E+00   -1.451E+00   -1.429E+00   -1.406E+00
    -1.384E+00   -1.362E+00   -1.340E+00   -1.318E+00   -1.295E+00   -1.273E+00   -1.251E+00   -1.229E+00   -1.207E+00   -1.185E+00
    -1.162E+00   -1.140E+00   -1.118E+00   -1.096E+00   -1.074E+00   -1.051E+00   -1.029E+00   -1.007E+00   -9.849E-01   -9.628E-01
    -9.406E-01   -9.184E-01   -8.963E-01   -8.741E-01   -8.519E-01   -8.298E-01   -8.076E-01   -7.855E-01   -7.633E-01   -7.412E-01
    -7.190E-01   -6.969E-01   -6.747E-01   -6.526E-01   -6.304E-01   -6.083E-01   -5.862E-01   -5.640E-01   -5.419E-01   -5.198E-01
    -4.976E-01   -4.755E-01   -4.534E-01   -4.313E-01   -4.092E-01   -3.871E-01   -3.649E-01   -3.428E-01   -3.207E-01   -2.986E-01
    -2.765E-01   -2.544E-01   -2.323E-01   -2.102E-01   -1.881E-01   -1.660E-01   -1.439E-01   -1.219E-01   -9.978E-02   -7.770E-02
    -5.562E-02   -3.355E-02   -1.148E-02    1.059E-02    3.266E-02    5.472E-02    7.678E-02    9.884E-02    1.209E-01    1.429E-01
     1.650E-01    1.870E-01    2.091E-01    2.311E-01    2.532E-01    2.752E-01    2.972E-01    3.192E-01    3.413E-01    3.633E-01
     3.853E-01    4.073E-01    4.293E-01    4.514E-01    4.734E-01    4.954E-01    5.174E-01    5.394E-01    5.613E-01    5.833E-01
     6.053E-01    6.273E-01    6.493E-01    6.713E-01    6.932E-01    7.152E-01    7.372E-01    7.591E-01    7.811E-01    8.030E-01
     8.250E-01    8.469E-01    8.689E-01    8.908E-01    9.128E-01    9.347E-01    9.566E-01    9.786E-01    1.000E+00    1.022E+00
     1.044E+00    1.066E+00    1.088E+00    1.110E+00    1.132E+00    1.154E+00    1.176E+00    1.198E+00    1.219E+00    1.241E+00
     1.263E+00    1.285E+00    1.307E+00    1.329E+00    1.351E+00    1.373E+00    1.394E+00    1.416E+00    1.438E+00    1.460E+00
     1.482E+00    1.504E+00    1.525E+00    1.547E+00    1.569E+00    1.591E+00    1.613E+00    1.635E+00    1.656E+00    1.678E+00
     1.700E+00    1.722E+00    1.743E+00    1.765E+00    1.787E+00    1.809E+00    1.831E+00    1.852E+00    1.874E+00    1.896E+00
     1.918E+00    1.939E+00    1.961E+00    1.983E+00    2.005E+00    2.026E+00    2.048E+00    2.070E+00    2.091E+00    2.113E+00
     2.135E+00    2.157E+00    2.178E+00    2.200E+00    2.222E+00    2.243E+00    2.265E+00    2.287E+00    2.308E+00    2.330E+00
     2.352E+00    2.373E+00    2.395E+00    2.416E+00    2.438E+00    2.460E+00    2.481E+00    2.503E+00
 Ala      Conc. = 2.54E+02
