 LCModel (Version 6.3-1L) Copyright: S.W. Provencher.          Ref.: Magn. Reson. Med. 30:672-679 (1993).                
 Slice#1 Row#12 Col#6  PD_24_press_2_raw_act
 36 lines in following concentration table = NCONC+1
    Conc.  %SD /Cr+PCr  Metabolite                                         
    0.000 999%   0.000 Ala                                                 
    4.890  57%   0.198 Asp                                                 
    0.000 999%   0.000 Cr                                                  
   24.693  66%   1.000 PCr                                                 
    2.933  57%   0.119 GABA                                                
    2.980  56%   0.121 Glc                                                 
    0.000 999%   0.000 Gln                                                 
   10.695 476%   0.433 Glu                                                 
    1.267 999% 5.1E-02 GPC                                                 
    3.095 772%   0.125 PCh                                                 
    0.000 999%   0.000 GSH                                                 
   70.475  91%   2.854 Ins                                                 
    0.000 999%   0.000 Lac                                                 
   60.787  39%   2.462 NAA                                                 
    0.000 999%   0.000 NAAG                                                
    0.952  59% 3.9E-02 Scyllo                                              
    4.918  57%   0.199 Tau                                                 
    2.325 113% 9.4E-02 -CrCH2                                              
    4.362 134%   0.177 GPC+PCh                                             
   60.787  39%   2.462 NAA+NAAG                                            
   24.693  66%   1.000 Cr+PCr                                              
   10.695 476%   0.433 Glu+Gln                                             
  707.109  22%  28.637 Lip13a                                              
    0.000 999%   0.000 Lip13b                                              
  184.073  31%   7.455 Lip09                                               
   19.295 134%   0.781 MM09                                                
   74.302  59%   3.009 Lip20                                               
    0.000 999%   0.000 MM20                                                
    6.117 224%   0.248 MM12                                                
  110.567  46%   4.478 MM14                                                
    0.000 999%   0.000 MM17                                                
  707.109  22%  28.637 Lip13a+Lip13b                                       
  823.794  18%  33.362 MM14+Lip13a+Lip13b+MM12                             
  203.367  27%   8.236 MM09+Lip09                                          
   74.302  59%   3.009 MM20+Lip20                                          
   6 lines in following misc. output table
  FWHM = 0.038 ppm    S/N =   1                                            
  Data shift =-0.008 ppm                                                   
  Ph: -63 deg      27.6 deg/ppm                                            
  alphaB,S = 8.5E+01,   6.4E+00                                            
   14 spline knots.   Ns = 5(1)                                            
   2 inflections.     2 extrema                                            
  498 points on ppm-axis = NY
      4.000000     3.992357     3.984714     3.977070     3.969427     3.961784     3.954141     3.946497     3.938854     3.931211
      3.923568     3.915925     3.908281     3.900638     3.892995     3.885352     3.877708     3.870065     3.862422     3.854779
      3.847136     3.839492     3.831849     3.824206     3.816563     3.808919     3.801276     3.793633     3.785990     3.778347
      3.770703     3.763060     3.755417     3.747774     3.740130     3.732487     3.724844     3.717201     3.709558     3.701914
      3.694271     3.686628     3.678985     3.671341     3.663698     3.656055     3.648412     3.640769     3.633125     3.625482
      3.617839     3.610196     3.602552     3.594909     3.587266     3.579623     3.571980     3.564336     3.556693     3.549050
      3.541407     3.533763     3.526120     3.518477     3.510834     3.503191     3.495547     3.487904     3.480261     3.472618
      3.464974     3.457331     3.449688     3.442045     3.434402     3.426758     3.419115     3.411472     3.403829     3.396185
      3.388542     3.380899     3.373256     3.365613     3.357969     3.350326     3.342683     3.335040     3.327396     3.319753
      3.312110     3.304467     3.296824     3.289180     3.281537     3.273894     3.266251     3.258607     3.250964     3.243321
      3.235678     3.228034     3.220391     3.212748     3.205105     3.197462     3.189818     3.182175     3.174532     3.166889
      3.159245     3.151602     3.143959     3.136316     3.128673     3.121029     3.113386     3.105743     3.098100     3.090456
      3.082813     3.075170     3.067527     3.059884     3.052240     3.044597     3.036954     3.029311     3.021667     3.014024
      3.006381     2.998738     2.991095     2.983451     2.975808     2.968165     2.960522     2.952878     2.945235     2.937592
      2.929949     2.922306     2.914662     2.907019     2.899376     2.891733     2.884089     2.876446     2.868803     2.861160
      2.853517     2.845873     2.838230     2.830587     2.822944     2.815300     2.807657     2.800014     2.792371     2.784728
      2.777084     2.769441     2.761798     2.754155     2.746511     2.738868     2.731225     2.723582     2.715939     2.708295
      2.700652     2.693009     2.685366     2.677722     2.670079     2.662436     2.654793     2.647150     2.639506     2.631863
      2.624220     2.616577     2.608933     2.601290     2.593647     2.586004     2.578361     2.570717     2.563074     2.555431
      2.547788     2.540144     2.532501     2.524858     2.517215     2.509572     2.501928     2.494285     2.486642     2.478999
      2.471355     2.463712     2.456069     2.448426     2.440783     2.433139     2.425496     2.417853     2.410210     2.402566
      2.394923     2.387280     2.379637     2.371994     2.364350     2.356707     2.349064     2.341421     2.333777     2.326134
      2.318491     2.310848     2.303205     2.295561     2.287918     2.280275     2.272632     2.264988     2.257345     2.249702
      2.242059     2.234416     2.226772     2.219129     2.211486     2.203843     2.196199     2.188556     2.180913     2.173270
      2.165627     2.157983     2.150340     2.142697     2.135054     2.127410     2.119767     2.112124     2.104481     2.096838
      2.089194     2.081551     2.073908     2.066265     2.058621     2.050978     2.043335     2.035692     2.028049     2.020405
      2.012762     2.005119     1.997476     1.989833     1.982190     1.974546     1.966903     1.959260     1.951617     1.943974
      1.936331     1.928688     1.921045     1.913402     1.905759     1.898115     1.890472     1.882829     1.875186     1.867543
      1.859900     1.852257     1.844614     1.836971     1.829327     1.821684     1.814041     1.806398     1.798755     1.791112
      1.783469     1.775826     1.768183     1.760540     1.752896     1.745253     1.737610     1.729967     1.722324     1.714681
      1.707038     1.699395     1.691752     1.684108     1.676465     1.668822     1.661179     1.653536     1.645893     1.638250
      1.630607     1.622964     1.615321     1.607677     1.600034     1.592391     1.584748     1.577105     1.569462     1.561819
      1.554176     1.546533     1.538890     1.531246     1.523603     1.515960     1.508317     1.500674     1.493031     1.485388
      1.477745     1.470102     1.462458     1.454815     1.447172     1.439529     1.431886     1.424243     1.416600     1.408957
      1.401314     1.393671     1.386027     1.378384     1.370741     1.363098     1.355455     1.347812     1.340169     1.332526
      1.324883     1.317240     1.309596     1.301953     1.294310     1.286667     1.279024     1.271381     1.263738     1.256095
      1.248452     1.240808     1.233165     1.225522     1.217879     1.210236     1.202593     1.194950     1.187307     1.179664
      1.172021     1.164377     1.156734     1.149091     1.141448     1.133805     1.126162     1.118519     1.110876     1.103233
      1.095590     1.087946     1.080303     1.072660     1.065017     1.057374     1.049731     1.042088     1.034445     1.026802
      1.019158     1.011515     1.003872     0.996229     0.988586     0.980943     0.973300     0.965657     0.958014     0.950371
      0.942727     0.935084     0.927441     0.919798     0.912155     0.904512     0.896869     0.889226     0.881583     0.873940
      0.866296     0.858653     0.851010     0.843367     0.835724     0.828081     0.820438     0.812795     0.805152     0.797508
      0.789865     0.782222     0.774579     0.766936     0.759293     0.751650     0.744007     0.736364     0.728721     0.721077
      0.713434     0.705791     0.698148     0.690505     0.682862     0.675219     0.667576     0.659933     0.652290     0.644646
      0.637003     0.629360     0.621717     0.614074     0.606431     0.598788     0.591145     0.583502     0.575858     0.568215
      0.560572     0.552929     0.545286     0.537643     0.530000     0.522357     0.514714     0.507071     0.499427     0.491784
      0.484141     0.476498     0.468855     0.461212     0.453569     0.445925     0.438282     0.430639     0.422996     0.415353
      0.407710     0.400067     0.392424     0.384780     0.377137     0.369494     0.361851     0.354208     0.346565     0.338922
      0.331278     0.323635     0.315992     0.308349     0.300706     0.293063     0.285420     0.277777     0.270133     0.262490
      0.254847     0.247204     0.239561     0.231918     0.224275     0.216631     0.208988     0.201345
 NY phased data points follow
  -2.23863E+00 -5.00689E+00 -1.24430E+00 -2.60907E+00 -1.11803E+00 -1.17121E+00  9.64815E-01 -3.46005E+00 -3.31063E+00 -2.49047E+00
  -2.49092E-01 -5.58983E+00 -5.82671E+00 -5.47218E+00 -4.96258E+00 -2.94091E+00  5.07497E-01 -4.06549E+00 -5.11857E+00 -7.01034E+00
  -1.66371E+00 -2.95788E+00 -3.62276E+00 -3.10689E+00 -2.03461E+00 -1.14882E-01 -2.13388E-01 -4.02139E+00 -2.78381E+00 -3.83908E+00
  -2.13635E+00 -5.82066E+00 -2.80017E+00 -3.19620E+00 -4.90525E-01 -2.00884E+00 -1.03390E+00 -5.20119E+00 -2.79039E+00 -6.46267E+00
   1.31466E+00 -1.92446E-02 -3.23155E+00 -2.05647E+00 -1.47265E+00 -1.82219E+00 -1.42622E-01  5.86741E-01  6.39939E-01 -4.62108E+00
  -1.26452E+00 -1.78152E-01 -7.13755E-01 -5.27233E+00 -4.44175E+00 -1.38072E+00 -2.41168E+00 -4.18318E+00 -5.21999E+00 -6.46364E-02
  -4.10036E+00 -1.74805E+00  8.49868E-01 -6.12455E+00 -7.18251E-01 -2.43499E+00 -2.90024E+00 -2.64107E+00 -4.05827E-01 -5.00538E+00
  -1.75267E+00 -1.24391E+00 -2.04789E+00 -9.63692E-01 -1.29424E+00 -2.64046E+00 -3.15447E+00 -3.13298E+00 -1.63962E+00 -7.36223E-01
  -3.22596E+00 -2.74137E+00 -4.89323E+00 -5.89205E+00 -3.52346E+00 -2.39272E+00 -7.37953E-01 -4.57195E+00 -3.72543E+00 -1.65279E+00
   7.70873E-01 -3.14706E+00 -2.42688E+00 -3.11694E+00 -2.98731E+00 -1.25383E+00  2.25558E+00 -1.82114E-01 -1.92875E+00 -4.23092E+00
  -1.42518E+00 -1.68276E+00  1.15448E-01  1.58762E+00 -3.54104E+00 -2.78938E+00 -2.68263E+00 -3.24126E+00  4.56480E-01 -2.56056E+00
  -3.36800E+00 -2.70434E+00 -1.02733E+00 -4.61429E+00  1.47272E-02 -6.74646E-01 -8.83631E-01 -2.73045E+00 -3.25984E+00 -1.13130E+00
  -9.25905E-01 -2.43032E+00  4.87772E-01 -1.22904E+00  2.23464E+00 -2.93998E+00 -1.25702E+00 -1.88732E+00 -2.90981E-01  5.98411E-02
   2.58663E-01  9.30336E-01 -1.98281E-02 -2.29904E+00 -2.45955E+00 -2.51544E-01  9.95533E-01 -1.64657E+00 -1.79474E-01 -8.36446E-01
   1.41248E-02 -1.59458E+00  3.28194E-01 -2.20454E+00 -1.60256E+00 -1.83173E+00 -1.59710E+00 -2.63251E+00 -1.72030E-01 -1.63821E+00
   7.71619E-01 -2.75985E+00 -1.49345E+00 -1.21853E+00 -2.38670E+00 -1.74347E+00 -2.84953E-02 -2.21347E+00 -2.64167E+00 -1.40391E+00
  -2.23242E+00  3.86971E-01 -2.65693E+00 -4.80579E+00 -4.53132E+00 -4.01097E+00  1.13521E+00  3.46965E-01 -3.43847E+00 -4.38276E+00
   4.35869E-01 -4.23968E+00 -2.67007E+00 -2.27545E+00 -2.69910E+00 -2.76446E+00 -2.97200E+00 -2.40180E+00 -8.68094E-01 -3.59064E+00
  -1.14553E-01 -3.50484E-01 -1.49777E+00 -3.74967E+00 -7.51816E-01 -2.34399E+00 -6.83651E-01 -2.25066E+00 -1.90254E+00 -1.23859E+00
  -2.00693E+00 -9.03708E-01 -1.74459E+00 -3.06071E+00 -3.51584E-01 -1.37776E+00  1.38937E+00 -2.44151E+00 -3.10781E+00 -7.06432E-01
  -6.84722E-01 -1.17504E+00 -8.29505E-01 -1.46176E+00 -2.50058E+00 -1.52705E-01 -1.28665E+00  4.72816E-01 -1.87418E+00 -2.58197E+00
  -1.16866E+00 -2.20785E-01 -4.17019E-01 -1.37126E-01 -1.35613E+00  1.56833E+00  1.51565E+00 -1.53166E+00 -9.85477E-01 -3.45592E+00
   1.13310E+00 -1.88731E-01 -2.03286E-01 -7.44923E-01 -2.21690E+00 -2.84173E+00  5.65064E-01 -1.86180E+00  8.66434E-01  1.19227E+00
   8.13677E-01 -4.14608E-01  3.21271E-01  1.67456E+00 -1.18527E+00 -6.49515E-01 -1.34289E+00 -3.53653E+00 -1.93071E+00 -6.89777E-01
  -9.50628E-01  1.01868E+00  1.01150E+00 -2.99455E+00  1.86083E+00 -3.02104E+00  1.97505E+00 -2.33726E-01 -2.15771E+00 -2.56064E+00
  -1.24780E-01 -2.51193E+00 -2.02292E+00 -4.54604E+00 -8.44000E-01  7.65246E-01  1.13227E+00  3.28988E+00  2.35140E+00  6.46785E-01
   2.54654E+00  7.20474E-01 -7.74907E-01  5.96694E-01 -1.32203E+00 -5.85948E+00 -5.23784E+00 -4.09776E+00 -5.77484E-01 -1.32144E+00
  -3.48288E-01 -1.91444E+00 -5.96182E-01 -1.10965E+00 -2.68888E+00  2.49298E-01 -2.34576E+00 -7.66589E-01 -2.99009E-01 -3.47087E+00
  -1.95377E+00 -7.30206E-01 -2.38728E+00 -3.06634E+00  8.44170E-01 -2.53760E+00 -4.74475E-01 -3.80659E+00  1.40559E-01 -2.03221E+00
  -2.13836E+00 -1.24082E+00 -1.51712E+00  9.74061E-01 -1.97712E+00 -3.60920E+00 -3.94270E+00 -3.26741E+00  1.93126E-01 -2.92210E+00
  -7.39993E-01 -5.28509E+00 -2.82902E+00 -2.19296E+00 -3.57337E+00 -4.21244E+00 -8.11238E-01 -3.68411E+00 -4.89979E+00 -2.14402E+00
  -3.00159E+00 -5.24231E+00  2.32064E+00 -1.24910E+00  9.44429E-01  7.39667E-01  1.30046E+00  1.85272E+00  2.25606E+00  1.27101E+00
   3.65130E+00  2.85243E+00  2.90310E+00  3.82124E+00  4.77844E+00  3.14945E+00  5.57958E+00  6.98825E+00  8.46666E+00  2.56455E+00
   5.17505E+00  3.02873E-01  3.23533E+00 -3.68686E-01  9.81541E-01  3.10519E+00  2.51737E+00 -1.66005E+00  9.75644E-02  1.68012E+00
   3.69555E+00  4.40382E+00  1.48821E+00  2.91927E+00  3.23769E+00  2.82238E+00  5.07671E+00  4.46113E+00  1.04546E+00  5.96232E+00
   2.15864E+00  9.66136E-01  8.53210E-01  1.68582E+00  4.01464E+00  1.72664E+00  7.93535E-01  1.51314E+00  3.69949E+00 -1.96735E+00
   1.55417E+00  1.02757E+00  2.57738E+00  9.90599E-01  1.15331E+00  3.88423E+00  1.78537E+00  4.55136E+00  2.56890E+00  1.01474E+00
   2.68018E+00  2.19630E+00  3.08006E+00  5.59346E-01  3.32178E+00  1.77279E+00  2.56031E+00  2.41105E+00  3.73890E+00  2.45957E+00
   2.13969E+00  1.80337E+00  4.29488E+00 -1.05594E+00  2.79976E+00 -7.08909E-02  1.39433E+00  2.59062E-01  2.36579E+00  1.24471E+00
   6.96883E-01  3.18440E-01  2.60735E+00  3.33727E+00  8.85788E-01  3.04075E+00  2.43057E+00  2.79884E+00  8.29032E+00  6.21370E-01
  -2.00967E-01 -2.13648E-01  2.35255E+00  2.41555E+00  2.67525E-01  9.87954E-01  1.71049E+00  6.49646E-01  1.92683E+00  2.26896E+00
   1.59727E+00  1.27255E+00  4.39493E-01 -5.89644E-02  3.03697E+00  1.48317E+00  2.51996E+00  1.58732E+00 -2.75219E-02  1.21939E-01
   2.83516E+00 -2.13418E+00  2.42108E+00  2.83956E+00  7.93500E-01 -2.44589E-01  3.22696E+00  1.00668E+00 -2.77810E-01  2.26556E+00
  -3.88770E-01 -8.16654E-01  2.84171E+00  2.76149E+00  1.91774E+00 -2.51016E+00  3.11576E+00  8.91938E-01  9.19933E-01  1.71300E+00
   1.82785E+00  4.44136E+00  3.16663E+00  5.60252E-01  1.91469E+00 -1.02096E-01  1.00362E+00 -4.43807E-01  1.38551E+00 -6.37519E-03
   1.22338E+00  2.42063E+00  2.31533E+00 -1.23574E+00  4.74366E-01 -3.16683E-02  6.96737E-01  1.98773E+00 -1.16692E-01  1.27831E+00
  -5.83439E-01  1.79842E+00 -6.86683E-01  3.30686E+00  2.72789E+00  6.00018E-01  2.11367E+00  1.53984E-01  1.93959E+00  2.20707E+00
   8.27438E-01 -2.06284E+00  1.16125E+00  7.07987E-01  1.14045E+00 -1.34202E+00  2.37990E+00 -4.67127E-01  8.52332E-01 -8.74999E-01
   2.19662E+00  9.67588E-01 -1.26306E+00  2.88650E+00  2.20889E+00  1.42515E-01  2.21287E+00  3.30737E-01  2.84938E+00  7.75114E-01
  -5.63132E-01  8.06709E-01  1.69046E+00  4.09829E-01  3.65297E+00  2.33116E+00  2.09078E+00  6.18732E-01
 NY points of the fit to the data follow
  -2.93058E+00 -2.93534E+00 -2.85859E+00 -2.71547E+00 -2.42704E+00 -2.12356E+00 -1.97966E+00 -2.00489E+00 -2.10631E+00 -2.24391E+00
  -2.40584E+00 -2.59778E+00 -2.84975E+00 -3.08049E+00 -3.09185E+00 -2.89274E+00 -2.78359E+00 -2.75074E+00 -2.72345E+00 -2.70298E+00
  -2.68615E+00 -2.66351E+00 -2.63465E+00 -2.61703E+00 -2.61693E+00 -2.62629E+00 -2.63279E+00 -2.62303E+00 -2.59621E+00 -2.56099E+00
  -2.52478E+00 -2.48800E+00 -2.44361E+00 -2.39281E+00 -2.37143E+00 -2.40498E+00 -2.47947E+00 -2.55545E+00 -2.60611E+00 -2.62843E+00
  -2.63113E+00 -2.60657E+00 -2.46463E+00 -2.12094E+00 -1.72176E+00 -1.53160E+00 -1.60251E+00 -1.79488E+00 -2.01095E+00 -2.23059E+00
  -2.47741E+00 -2.75457E+00 -2.94625E+00 -2.88618E+00 -2.59495E+00 -2.28937E+00 -2.09430E+00 -1.98408E+00 -1.94191E+00 -1.97256E+00
  -2.06116E+00 -2.16549E+00 -2.25546E+00 -2.34096E+00 -2.41338E+00 -2.41315E+00 -2.33863E+00 -2.21464E+00 -2.07100E+00 -1.98142E+00
  -1.95457E+00 -1.96532E+00 -1.99842E+00 -2.03836E+00 -2.07565E+00 -2.11614E+00 -2.16752E+00 -2.19912E+00 -2.17740E+00 -2.15499E+00
  -2.14387E+00 -2.11112E+00 -2.09352E+00 -2.13981E+00 -2.23702E+00 -2.32895E+00 -2.38155E+00 -2.38501E+00 -2.35117E+00 -2.29857E+00
  -2.22441E+00 -2.10681E+00 -1.96587E+00 -1.90139E+00 -1.92911E+00 -2.00472E+00 -2.06972E+00 -2.08455E+00 -1.96569E+00 -1.73103E+00
  -1.54983E+00 -1.49381E+00 -1.51230E+00 -1.55845E+00 -1.64733E+00 -1.77199E+00 -1.95950E+00 -2.17707E+00 -2.28135E+00 -2.17354E+00
  -2.02235E+00 -1.97551E+00 -1.95751E+00 -1.94784E+00 -1.93888E+00 -1.93597E+00 -1.93369E+00 -1.92636E+00 -1.91284E+00 -1.88963E+00
  -1.83504E+00 -1.62828E+00 -1.13081E+00 -6.42111E-01 -4.40931E-01 -5.13466E-01 -6.96630E-01 -9.29155E-01 -1.20256E+00 -1.55424E+00
  -2.01631E+00 -2.38620E+00 -2.33305E+00 -1.97510E+00 -1.81375E+00 -1.77235E+00 -1.74566E+00 -1.72423E+00 -1.70893E+00 -1.69652E+00
  -1.68367E+00 -1.66618E+00 -1.64626E+00 -1.63328E+00 -1.62460E+00 -1.61275E+00 -1.59839E+00 -1.58594E+00 -1.57881E+00 -1.57308E+00
  -1.56411E+00 -1.55005E+00 -1.53163E+00 -1.51552E+00 -1.50412E+00 -1.50009E+00 -1.51948E+00 -1.55328E+00 -1.57291E+00 -1.56313E+00
  -1.52224E+00 -1.47773E+00 -1.45438E+00 -1.44706E+00 -1.43464E+00 -1.41751E+00 -1.42296E+00 -1.46500E+00 -1.51242E+00 -1.54113E+00
  -1.54200E+00 -1.53202E+00 -1.54790E+00 -1.55057E+00 -1.51964E+00 -1.48198E+00 -1.46940E+00 -1.47436E+00 -1.46742E+00 -1.43604E+00
  -1.39536E+00 -1.38595E+00 -1.43173E+00 -1.46791E+00 -1.42239E+00 -1.33957E+00 -1.27766E+00 -1.26061E+00 -1.25324E+00 -1.22895E+00
  -1.19083E+00 -1.15036E+00 -1.13249E+00 -1.15135E+00 -1.17208E+00 -1.18105E+00 -1.19309E+00 -1.20661E+00 -1.21448E+00 -1.19759E+00
  -1.16824E+00 -1.14111E+00 -1.10871E+00 -1.07214E+00 -1.06350E+00 -1.07951E+00 -1.10882E+00 -1.15778E+00 -1.22528E+00 -1.26129E+00
  -1.22896E+00 -1.15674E+00 -1.08133E+00 -1.02964E+00 -9.99461E-01 -9.81762E-01 -9.74463E-01 -9.84558E-01 -1.02868E+00 -1.08666E+00
  -1.09326E+00 -1.03918E+00 -9.59120E-01 -8.95844E-01 -8.50393E-01 -8.13864E-01 -7.93042E-01 -7.98407E-01 -8.26085E-01 -8.45114E-01
  -8.35184E-01 -8.11103E-01 -7.89025E-01 -7.65623E-01 -7.42012E-01 -7.25791E-01 -7.24452E-01 -7.32251E-01 -7.36832E-01 -7.31313E-01
  -7.16898E-01 -6.95392E-01 -6.72441E-01 -6.48177E-01 -6.23166E-01 -6.03096E-01 -5.93058E-01 -5.87605E-01 -5.80023E-01 -5.68139E-01
  -5.43550E-01 -5.09401E-01 -4.67318E-01 -4.04424E-01 -2.35364E-01  4.45521E-01  1.73680E+00  2.75725E+00  3.00684E+00  2.69260E+00
   2.17918E+00  1.55401E+00  8.30062E-01 -1.18895E-01 -1.29082E+00 -2.01796E+00 -1.60871E+00 -7.90772E-01 -5.53867E-01 -5.06121E-01
  -4.81817E-01 -4.65997E-01 -4.53260E-01 -4.39565E-01 -4.29459E-01 -4.25631E-01 -4.27331E-01 -4.31570E-01 -4.36869E-01 -4.39895E-01
  -4.39068E-01 -4.34106E-01 -4.24087E-01 -4.11462E-01 -3.99134E-01 -3.86791E-01 -3.74752E-01 -3.63980E-01 -3.53639E-01 -3.44288E-01
  -3.35774E-01 -3.26162E-01 -3.14905E-01 -3.03162E-01 -2.91012E-01 -2.77746E-01 -2.63614E-01 -2.49120E-01 -2.33939E-01 -2.17956E-01
  -2.01626E-01 -1.84646E-01 -1.66897E-01 -1.48286E-01 -1.28648E-01 -1.07812E-01 -8.56874E-02 -6.22084E-02 -3.72307E-02 -1.05123E-02
   1.81572E-02  4.89537E-02  8.20217E-02  1.17493E-01  1.55543E-01  1.96396E-01  2.40233E-01  2.87160E-01  3.37207E-01  3.90382E-01
   4.46700E-01  5.06163E-01  5.68684E-01  6.34077E-01  7.02092E-01  7.72478E-01  8.44989E-01  9.19363E-01  9.95287E-01  1.07242E+00
   1.15043E+00  1.22909E+00  1.30820E+00  1.38761E+00  1.46715E+00  1.54671E+00  1.62619E+00  1.70558E+00  1.78486E+00  1.86397E+00
   1.94277E+00  2.02105E+00  2.09855E+00  2.17492E+00  2.24971E+00  2.32231E+00  2.39197E+00  2.45787E+00  2.51912E+00  2.57482E+00
   2.62403E+00  2.66578E+00  2.69917E+00  2.72345E+00  2.73803E+00  2.74248E+00  2.73654E+00  2.72017E+00  2.69354E+00  2.65707E+00
   2.61141E+00  2.55737E+00  2.49590E+00  2.42806E+00  2.35502E+00  2.27803E+00  2.19835E+00  2.11721E+00  2.03576E+00  1.95507E+00
   1.87617E+00  1.79998E+00  1.72730E+00  1.65880E+00  1.59502E+00  1.53640E+00  1.48332E+00  1.43610E+00  1.39494E+00  1.35997E+00
   1.33128E+00  1.30893E+00  1.29299E+00  1.28347E+00  1.28034E+00  1.28353E+00  1.29295E+00  1.30848E+00  1.32993E+00  1.35707E+00
   1.38951E+00  1.42679E+00  1.46834E+00  1.51348E+00  1.56143E+00  1.61125E+00  1.66188E+00  1.71217E+00  1.76095E+00  1.80702E+00
   1.84917E+00  1.88624E+00  1.91718E+00  1.94107E+00  1.95720E+00  1.96511E+00  1.96450E+00  1.95535E+00  1.93787E+00  1.91251E+00
   1.87995E+00  1.84104E+00  1.79672E+00  1.74803E+00  1.69606E+00  1.64191E+00  1.58665E+00  1.53125E+00  1.47658E+00  1.42338E+00
   1.37228E+00  1.32379E+00  1.27829E+00  1.23602E+00  1.19709E+00  1.16155E+00  1.12936E+00  1.10044E+00  1.07467E+00  1.05183E+00
   1.03172E+00  1.01414E+00  9.98878E-01  9.85751E-01  9.74548E-01  9.65068E-01  9.57127E-01  9.50575E-01  9.45283E-01  9.41127E-01
   9.37976E-01  9.35713E-01  9.34244E-01  9.33501E-01  9.33424E-01  9.33948E-01  9.34998E-01  9.36516E-01  9.38463E-01  9.40816E-01
   9.43545E-01  9.46612E-01  9.49971E-01  9.53596E-01  9.57475E-01  9.61605E-01  9.65963E-01  9.70522E-01  9.75253E-01  9.80149E-01
   9.85212E-01  9.90440E-01  9.95814E-01  1.00131E+00  1.00692E+00  1.01264E+00  1.01847E+00  1.02442E+00  1.03047E+00  1.03659E+00
   1.04279E+00  1.04907E+00  1.05544E+00  1.06189E+00  1.06840E+00  1.07496E+00  1.08158E+00  1.08826E+00  1.09501E+00  1.10182E+00
   1.10866E+00  1.11554E+00  1.12246E+00  1.12944E+00  1.13648E+00  1.14354E+00  1.15063E+00  1.15775E+00  1.16491E+00  1.17212E+00
   1.17937E+00  1.18663E+00  1.19392E+00  1.20122E+00  1.20857E+00  1.21596E+00  1.22337E+00  1.23080E+00
 NY background values follow
    -2.917E+00   -2.909E+00   -2.900E+00   -2.892E+00   -2.884E+00   -2.876E+00   -2.867E+00   -2.859E+00   -2.851E+00   -2.843E+00
    -2.834E+00   -2.826E+00   -2.818E+00   -2.810E+00   -2.802E+00   -2.793E+00   -2.785E+00   -2.777E+00   -2.769E+00   -2.760E+00
    -2.752E+00   -2.744E+00   -2.736E+00   -2.727E+00   -2.719E+00   -2.711E+00   -2.703E+00   -2.694E+00   -2.686E+00   -2.678E+00
    -2.670E+00   -2.661E+00   -2.653E+00   -2.645E+00   -2.637E+00   -2.628E+00   -2.620E+00   -2.612E+00   -2.604E+00   -2.595E+00
    -2.587E+00   -2.579E+00   -2.571E+00   -2.562E+00   -2.554E+00   -2.546E+00   -2.538E+00   -2.529E+00   -2.521E+00   -2.513E+00
    -2.505E+00   -2.496E+00   -2.488E+00   -2.480E+00   -2.472E+00   -2.463E+00   -2.455E+00   -2.447E+00   -2.439E+00   -2.430E+00
    -2.422E+00   -2.414E+00   -2.406E+00   -2.397E+00   -2.389E+00   -2.381E+00   -2.373E+00   -2.364E+00   -2.356E+00   -2.348E+00
    -2.340E+00   -2.331E+00   -2.323E+00   -2.315E+00   -2.307E+00   -2.298E+00   -2.290E+00   -2.282E+00   -2.274E+00   -2.265E+00
    -2.257E+00   -2.249E+00   -2.241E+00   -2.232E+00   -2.224E+00   -2.216E+00   -2.208E+00   -2.199E+00   -2.191E+00   -2.183E+00
    -2.175E+00   -2.166E+00   -2.158E+00   -2.150E+00   -2.142E+00   -2.134E+00   -2.125E+00   -2.117E+00   -2.109E+00   -2.101E+00
    -2.092E+00   -2.084E+00   -2.076E+00   -2.068E+00   -2.059E+00   -2.051E+00   -2.043E+00   -2.035E+00   -2.026E+00   -2.018E+00
    -2.010E+00   -2.002E+00   -1.993E+00   -1.985E+00   -1.977E+00   -1.969E+00   -1.960E+00   -1.952E+00   -1.944E+00   -1.936E+00
    -1.927E+00   -1.919E+00   -1.911E+00   -1.903E+00   -1.894E+00   -1.886E+00   -1.878E+00   -1.870E+00   -1.861E+00   -1.853E+00
    -1.845E+00   -1.837E+00   -1.828E+00   -1.820E+00   -1.812E+00   -1.804E+00   -1.795E+00   -1.787E+00   -1.779E+00   -1.771E+00
    -1.762E+00   -1.754E+00   -1.746E+00   -1.738E+00   -1.729E+00   -1.721E+00   -1.713E+00   -1.705E+00   -1.696E+00   -1.688E+00
    -1.680E+00   -1.672E+00   -1.663E+00   -1.655E+00   -1.647E+00   -1.639E+00   -1.630E+00   -1.622E+00   -1.614E+00   -1.606E+00
    -1.597E+00   -1.589E+00   -1.581E+00   -1.573E+00   -1.564E+00   -1.556E+00   -1.548E+00   -1.540E+00   -1.531E+00   -1.523E+00
    -1.515E+00   -1.507E+00   -1.498E+00   -1.490E+00   -1.482E+00   -1.474E+00   -1.466E+00   -1.457E+00   -1.449E+00   -1.441E+00
    -1.433E+00   -1.424E+00   -1.416E+00   -1.408E+00   -1.400E+00   -1.391E+00   -1.383E+00   -1.375E+00   -1.367E+00   -1.358E+00
    -1.350E+00   -1.342E+00   -1.334E+00   -1.325E+00   -1.317E+00   -1.309E+00   -1.301E+00   -1.292E+00   -1.284E+00   -1.276E+00
    -1.268E+00   -1.259E+00   -1.251E+00   -1.243E+00   -1.235E+00   -1.226E+00   -1.218E+00   -1.210E+00   -1.202E+00   -1.193E+00
    -1.185E+00   -1.177E+00   -1.169E+00   -1.160E+00   -1.152E+00   -1.144E+00   -1.136E+00   -1.127E+00   -1.119E+00   -1.111E+00
    -1.103E+00   -1.094E+00   -1.086E+00   -1.078E+00   -1.070E+00   -1.061E+00   -1.053E+00   -1.045E+00   -1.037E+00   -1.028E+00
    -1.020E+00   -1.012E+00   -1.004E+00   -9.954E-01   -9.872E-01   -9.789E-01   -9.707E-01   -9.624E-01   -9.542E-01   -9.459E-01
    -9.377E-01   -9.294E-01   -9.212E-01   -9.129E-01   -9.047E-01   -8.965E-01   -8.882E-01   -8.800E-01   -8.717E-01   -8.635E-01
    -8.552E-01   -8.470E-01   -8.387E-01   -8.305E-01   -8.222E-01   -8.140E-01   -8.057E-01   -7.975E-01   -7.892E-01   -7.810E-01
    -7.727E-01   -7.645E-01   -7.562E-01   -7.480E-01   -7.398E-01   -7.315E-01   -7.233E-01   -7.150E-01   -7.068E-01   -6.985E-01
    -6.903E-01   -6.820E-01   -6.738E-01   -6.655E-01   -6.573E-01   -6.490E-01   -6.408E-01   -6.325E-01   -6.243E-01   -6.160E-01
    -6.078E-01   -5.995E-01   -5.913E-01   -5.830E-01   -5.748E-01   -5.666E-01   -5.583E-01   -5.501E-01   -5.418E-01   -5.336E-01
    -5.253E-01   -5.171E-01   -5.088E-01   -5.006E-01   -4.923E-01   -4.841E-01   -4.758E-01   -4.676E-01   -4.593E-01   -4.511E-01
    -4.428E-01   -4.346E-01   -4.263E-01   -4.181E-01   -4.099E-01   -4.016E-01   -3.934E-01   -3.851E-01   -3.769E-01   -3.686E-01
    -3.604E-01   -3.521E-01   -3.439E-01   -3.356E-01   -3.274E-01   -3.191E-01   -3.109E-01   -3.026E-01   -2.944E-01   -2.861E-01
    -2.779E-01   -2.696E-01   -2.614E-01   -2.531E-01   -2.449E-01   -2.367E-01   -2.284E-01   -2.202E-01   -2.119E-01   -2.037E-01
    -1.954E-01   -1.872E-01   -1.789E-01   -1.707E-01   -1.624E-01   -1.542E-01   -1.459E-01   -1.377E-01   -1.294E-01   -1.212E-01
    -1.129E-01   -1.047E-01   -9.644E-02   -8.819E-02   -7.995E-02   -7.170E-02   -6.345E-02   -5.520E-02   -4.696E-02   -3.871E-02
    -3.046E-02   -2.221E-02   -1.397E-02   -5.718E-03    2.530E-03    1.078E-02    1.902E-02    2.727E-02    3.552E-02    4.377E-02
     5.202E-02    6.026E-02    6.851E-02    7.676E-02    8.501E-02    9.325E-02    1.015E-01    1.097E-01    1.180E-01    1.262E-01
     1.345E-01    1.427E-01    1.510E-01    1.592E-01    1.675E-01    1.757E-01    1.840E-01    1.922E-01    2.005E-01    2.087E-01
     2.170E-01    2.252E-01    2.335E-01    2.417E-01    2.500E-01    2.582E-01    2.665E-01    2.747E-01    2.830E-01    2.912E-01
     2.994E-01    3.077E-01    3.159E-01    3.242E-01    3.324E-01    3.407E-01    3.489E-01    3.572E-01    3.654E-01    3.737E-01
     3.819E-01    3.902E-01    3.984E-01    4.067E-01    4.149E-01    4.232E-01    4.314E-01    4.397E-01    4.479E-01    4.562E-01
     4.644E-01    4.726E-01    4.809E-01    4.891E-01    4.974E-01    5.056E-01    5.139E-01    5.221E-01    5.304E-01    5.386E-01
     5.469E-01    5.551E-01    5.634E-01    5.716E-01    5.799E-01    5.881E-01    5.964E-01    6.046E-01    6.129E-01    6.211E-01
     6.294E-01    6.376E-01    6.458E-01    6.541E-01    6.623E-01    6.706E-01    6.788E-01    6.871E-01    6.953E-01    7.036E-01
     7.118E-01    7.201E-01    7.283E-01    7.366E-01    7.448E-01    7.531E-01    7.613E-01    7.696E-01    7.778E-01    7.861E-01
     7.943E-01    8.026E-01    8.108E-01    8.190E-01    8.273E-01    8.355E-01    8.438E-01    8.520E-01    8.603E-01    8.685E-01
     8.768E-01    8.850E-01    8.933E-01    9.015E-01    9.098E-01    9.180E-01    9.263E-01    9.345E-01    9.428E-01    9.510E-01
     9.593E-01    9.675E-01    9.758E-01    9.840E-01    9.922E-01    1.000E+00    1.009E+00    1.017E+00    1.025E+00    1.033E+00
     1.042E+00    1.050E+00    1.058E+00    1.066E+00    1.075E+00    1.083E+00    1.091E+00    1.099E+00    1.108E+00    1.116E+00
     1.124E+00    1.132E+00    1.141E+00    1.149E+00    1.157E+00    1.165E+00    1.174E+00    1.182E+00
 Asp      Conc. = 4.89E+00
