 LCModel (Version 6.3-1L) Copyright: S.W. Provencher.          Ref.: Magn. Reson. Med. 30:672-679 (1993).                
 Slice#3 Row#10 Col#4  PD_24_press_2_raw_act
 36 lines in following concentration table = NCONC+1
    Conc.  %SD /Cr+PCr  Metabolite                                         
  466.085  36%   0.702 Ala                                                 
   16.537 882% 2.5E-02 Asp                                                 
    0.000 999%   0.000 Cr                                                  
  663.484  10%   1.000 PCr                                                 
   32.170 285% 4.8E-02 GABA                                                
    0.000 999%   0.000 Glc                                                 
  622.740  59%   0.939 Gln                                                 
   38.355 999% 5.8E-02 Glu                                                 
  207.445  12%   0.313 GPC                                                 
    0.000 999%   0.000 PCh                                                 
    0.000 999%   0.000 GSH                                                 
 2.21E+03  19%   3.335 Ins                                                 
    0.000 999%   0.000 Lac                                                 
 1.08E+03   7%   1.621 NAA                                                 
    0.000 999%   0.000 NAAG                                                
   49.876  51% 7.5E-02 Scyllo                                              
   33.957 442% 5.1E-02 Tau                                                 
    0.000 999%   0.000 -CrCH2                                              
  207.445  12%   0.313 GPC+PCh                                             
 1.08E+03   7%   1.621 NAA+NAAG                                            
  663.484  10%   1.000 Cr+PCr                                              
  661.095  97%   0.996 Glu+Gln                                             
  354.650 132%   0.535 Lip13a                                              
    0.000 999%   0.000 Lip13b                                              
    0.000 999%   0.000 Lip09                                               
 1.33E+03  18%   2.011 MM09                                                
   94.379 167%   0.142 Lip20                                               
 1.94E+03  21%   2.923 MM20                                                
  388.368  29%   0.585 MM12                                                
 3.20E+03   6%   4.826+MM14                                                
    0.000 999%   0.000 MM17                                                
  354.650 132%   0.535 Lip13a+Lip13b                                       
 3.95E+03  15%   5.946 MM14+Lip13a+Lip13b+MM12                             
 1.33E+03  18%   2.011 MM09+Lip09                                          
 2.03E+03  20%   3.065 MM20+Lip20                                          
   6 lines in following misc. output table
  FWHM = 0.069 ppm    S/N =   5                                            
  Data shift = 0.038 ppm                                                   
  Ph:  45 deg      16.8 deg/ppm                                            
  alphaB,S = 6.2E-01,   2.0E+02                                            
   14 spline knots.   Ns = 9(1)                                            
  (13) 3 infls.   (11) 1 extrs.                                            
  498 points on ppm-axis = NY
      4.000000     3.992357     3.984714     3.977070     3.969427     3.961784     3.954141     3.946497     3.938854     3.931211
      3.923568     3.915925     3.908281     3.900638     3.892995     3.885352     3.877708     3.870065     3.862422     3.854779
      3.847136     3.839492     3.831849     3.824206     3.816563     3.808919     3.801276     3.793633     3.785990     3.778347
      3.770703     3.763060     3.755417     3.747774     3.740130     3.732487     3.724844     3.717201     3.709558     3.701914
      3.694271     3.686628     3.678985     3.671341     3.663698     3.656055     3.648412     3.640769     3.633125     3.625482
      3.617839     3.610196     3.602552     3.594909     3.587266     3.579623     3.571980     3.564336     3.556693     3.549050
      3.541407     3.533763     3.526120     3.518477     3.510834     3.503191     3.495547     3.487904     3.480261     3.472618
      3.464974     3.457331     3.449688     3.442045     3.434402     3.426758     3.419115     3.411472     3.403829     3.396185
      3.388542     3.380899     3.373256     3.365613     3.357969     3.350326     3.342683     3.335040     3.327396     3.319753
      3.312110     3.304467     3.296824     3.289180     3.281537     3.273894     3.266251     3.258607     3.250964     3.243321
      3.235678     3.228034     3.220391     3.212748     3.205105     3.197462     3.189818     3.182175     3.174532     3.166889
      3.159245     3.151602     3.143959     3.136316     3.128673     3.121029     3.113386     3.105743     3.098100     3.090456
      3.082813     3.075170     3.067527     3.059884     3.052240     3.044597     3.036954     3.029311     3.021667     3.014024
      3.006381     2.998738     2.991095     2.983451     2.975808     2.968165     2.960522     2.952878     2.945235     2.937592
      2.929949     2.922306     2.914662     2.907019     2.899376     2.891733     2.884089     2.876446     2.868803     2.861160
      2.853517     2.845873     2.838230     2.830587     2.822944     2.815300     2.807657     2.800014     2.792371     2.784728
      2.777084     2.769441     2.761798     2.754155     2.746511     2.738868     2.731225     2.723582     2.715939     2.708295
      2.700652     2.693009     2.685366     2.677722     2.670079     2.662436     2.654793     2.647150     2.639506     2.631863
      2.624220     2.616577     2.608933     2.601290     2.593647     2.586004     2.578361     2.570717     2.563074     2.555431
      2.547788     2.540144     2.532501     2.524858     2.517215     2.509572     2.501928     2.494285     2.486642     2.478999
      2.471355     2.463712     2.456069     2.448426     2.440783     2.433139     2.425496     2.417853     2.410210     2.402566
      2.394923     2.387280     2.379637     2.371994     2.364350     2.356707     2.349064     2.341421     2.333777     2.326134
      2.318491     2.310848     2.303205     2.295561     2.287918     2.280275     2.272632     2.264988     2.257345     2.249702
      2.242059     2.234416     2.226772     2.219129     2.211486     2.203843     2.196199     2.188556     2.180913     2.173270
      2.165627     2.157983     2.150340     2.142697     2.135054     2.127410     2.119767     2.112124     2.104481     2.096838
      2.089194     2.081551     2.073908     2.066265     2.058621     2.050978     2.043335     2.035692     2.028049     2.020405
      2.012762     2.005119     1.997476     1.989833     1.982190     1.974546     1.966903     1.959260     1.951617     1.943974
      1.936331     1.928688     1.921045     1.913402     1.905759     1.898115     1.890472     1.882829     1.875186     1.867543
      1.859900     1.852257     1.844614     1.836971     1.829327     1.821684     1.814041     1.806398     1.798755     1.791112
      1.783469     1.775826     1.768183     1.760540     1.752896     1.745253     1.737610     1.729967     1.722324     1.714681
      1.707038     1.699395     1.691752     1.684108     1.676465     1.668822     1.661179     1.653536     1.645893     1.638250
      1.630607     1.622964     1.615321     1.607677     1.600034     1.592391     1.584748     1.577105     1.569462     1.561819
      1.554176     1.546533     1.538890     1.531246     1.523603     1.515960     1.508317     1.500674     1.493031     1.485388
      1.477745     1.470102     1.462458     1.454815     1.447172     1.439529     1.431886     1.424243     1.416600     1.408957
      1.401314     1.393671     1.386027     1.378384     1.370741     1.363098     1.355455     1.347812     1.340169     1.332526
      1.324883     1.317240     1.309596     1.301953     1.294310     1.286667     1.279024     1.271381     1.263738     1.256095
      1.248452     1.240808     1.233165     1.225522     1.217879     1.210236     1.202593     1.194950     1.187307     1.179664
      1.172021     1.164377     1.156734     1.149091     1.141448     1.133805     1.126162     1.118519     1.110876     1.103233
      1.095590     1.087946     1.080303     1.072660     1.065017     1.057374     1.049731     1.042088     1.034445     1.026802
      1.019158     1.011515     1.003872     0.996229     0.988586     0.980943     0.973300     0.965657     0.958014     0.950371
      0.942727     0.935084     0.927441     0.919798     0.912155     0.904512     0.896869     0.889226     0.881583     0.873940
      0.866296     0.858653     0.851010     0.843367     0.835724     0.828081     0.820438     0.812795     0.805152     0.797508
      0.789865     0.782222     0.774579     0.766936     0.759293     0.751650     0.744007     0.736364     0.728721     0.721077
      0.713434     0.705791     0.698148     0.690505     0.682862     0.675219     0.667576     0.659933     0.652290     0.644646
      0.637003     0.629360     0.621717     0.614074     0.606431     0.598788     0.591145     0.583502     0.575858     0.568215
      0.560572     0.552929     0.545286     0.537643     0.530000     0.522357     0.514714     0.507071     0.499427     0.491784
      0.484141     0.476498     0.468855     0.461212     0.453569     0.445925     0.438282     0.430639     0.422996     0.415353
      0.407710     0.400067     0.392424     0.384780     0.377137     0.369494     0.361851     0.354208     0.346565     0.338922
      0.331278     0.323635     0.315992     0.308349     0.300706     0.293063     0.285420     0.277777     0.270133     0.262490
      0.254847     0.247204     0.239561     0.231918     0.224275     0.216631     0.208988     0.201345
 NY phased data points follow
   1.80925E+02  1.79366E+02  1.68470E+02  1.68167E+02  1.68905E+02  1.67182E+02  1.69819E+02  1.65712E+02  1.62307E+02  1.60628E+02
   1.59874E+02  1.59575E+02  1.58748E+02  1.57490E+02  1.50452E+02  1.42960E+02  1.36307E+02  1.37092E+02  1.31265E+02  1.27389E+02
   1.22544E+02  1.20129E+02  1.16809E+02  1.18703E+02  1.12139E+02  1.09189E+02  1.11677E+02  1.07004E+02  1.05515E+02  1.08337E+02
   1.17172E+02  1.06119E+02  1.03142E+02  1.01217E+02  1.01821E+02  1.03127E+02  9.88516E+01  1.01543E+02  9.97506E+01  1.01202E+02
   1.01124E+02  9.96580E+01  9.89613E+01  9.60959E+01  9.40024E+01  9.43047E+01  9.45838E+01  8.86647E+01  9.23767E+01  8.70396E+01
   8.78361E+01  8.14764E+01  8.29709E+01  7.70296E+01  7.73701E+01  7.43704E+01  7.73260E+01  7.30668E+01  7.03394E+01  7.12946E+01
   7.17367E+01  6.80011E+01  6.56924E+01  6.31861E+01  5.95037E+01  5.97453E+01  5.80526E+01  5.48630E+01  5.84217E+01  5.85245E+01
   5.70602E+01  5.80757E+01  5.88577E+01  5.46831E+01  5.41387E+01  5.38422E+01  5.11669E+01  4.85167E+01  4.91829E+01  4.67302E+01
   4.57818E+01  4.38352E+01  4.83873E+01  4.07727E+01  4.60321E+01  4.43411E+01  4.11601E+01  4.37114E+01  4.10921E+01  3.95660E+01
   4.26606E+01  3.63632E+01  3.66022E+01  4.08604E+01  3.79005E+01  3.99905E+01  3.48019E+01  3.85144E+01  3.83405E+01  3.49470E+01
   4.18035E+01  4.23364E+01  4.32278E+01  4.73981E+01  4.70031E+01  4.27423E+01  4.08153E+01  3.96772E+01  3.54967E+01  3.45528E+01
   3.73631E+01  3.29087E+01  3.02334E+01  3.39384E+01  3.36706E+01  3.19815E+01  2.63630E+01  2.85533E+01  3.08012E+01  2.94851E+01
   2.46006E+01  2.70281E+01  2.24895E+01  2.42193E+01  2.80472E+01  3.39963E+01  3.69167E+01  3.86538E+01  4.33410E+01  3.77903E+01
   3.37569E+01  3.27623E+01  2.85615E+01  3.02566E+01  2.50409E+01  2.79238E+01  1.75328E+01  1.70239E+01  1.59240E+01  1.90231E+01
   1.68557E+01  1.75048E+01  1.81642E+01  1.49215E+01  1.30177E+01  1.37764E+01  1.20861E+01  1.65892E+01  1.17205E+01  1.25863E+01
   1.00534E+01  5.53575E+00  1.14152E+01  2.07667E+00  4.80389E+00  1.01692E+01  9.05972E+00  7.82033E+00  1.15823E+01  6.21179E+00
   5.78298E+00  2.08318E+00 -5.82137E-01 -9.25622E-01  1.05038E+00 -1.05389E+00  4.83541E+00  2.38109E+00  3.47200E+00  5.41920E+00
  -3.91940E-01 -2.73105E+00 -6.40996E+00 -4.94905E+00 -7.44359E+00 -8.62550E+00 -1.09852E+01 -1.05510E+01 -9.48651E+00 -1.05003E+01
  -1.11558E+01 -1.51521E+01 -1.28582E+01 -1.44789E+01 -9.47544E+00 -1.12962E+01 -1.41032E+01 -1.37285E+01 -1.25042E+01 -5.87573E+00
  -7.86514E+00 -1.03912E+01 -1.01330E+01 -1.16090E+01 -8.42259E+00 -1.02276E+01 -1.41014E+01 -9.37330E+00 -1.23409E+01 -1.54955E+01
  -1.14755E+01 -1.17311E+01 -1.02324E+01 -1.41388E+01 -1.21293E+01 -1.51278E+01 -1.17444E+01 -1.49277E+01 -1.67558E+01 -1.64532E+01
  -1.39965E+01 -1.79355E+01 -1.89539E+01 -1.25260E+01 -9.33279E+00 -1.21587E+01 -1.37021E+01 -8.18866E+00 -8.72372E+00 -9.72603E+00
  -1.37674E+01 -1.40697E+01 -1.86289E+01 -1.67547E+01 -1.88300E+01 -1.18790E+01 -1.49406E+01 -1.46189E+01 -1.50613E+01 -1.69845E+01
  -1.49114E+01 -1.54596E+01 -1.71029E+01 -2.30193E+01 -1.89532E+01 -2.07650E+01 -1.91536E+01 -2.19825E+01 -2.41605E+01 -2.02952E+01
  -2.27387E+01 -2.39877E+01 -2.17326E+01 -2.24465E+01 -2.17392E+01 -2.19614E+01 -2.39227E+01 -2.47969E+01 -2.26441E+01 -2.23357E+01
  -2.02163E+01 -1.85170E+01 -1.59130E+01 -1.72138E+01 -2.02889E+01 -1.82225E+01 -1.34065E+01 -7.73576E+00 -2.30086E+00  1.91252E+00
   7.17338E+00  4.62607E+00 -4.93676E+00 -1.72336E+01 -1.73074E+01 -2.20284E+01 -1.97901E+01 -3.11776E+01 -3.27986E+01 -3.22847E+01
  -3.63493E+01 -3.86592E+01 -3.62059E+01 -3.33651E+01 -3.46575E+01 -3.23804E+01 -3.02423E+01 -3.53888E+01 -3.28701E+01 -3.32300E+01
  -3.18083E+01 -3.78410E+01 -3.69292E+01 -3.92914E+01 -3.31383E+01 -3.69779E+01 -4.15239E+01 -4.03475E+01 -3.87985E+01 -4.07039E+01
  -4.07662E+01 -4.30333E+01 -4.57843E+01 -4.21262E+01 -4.39392E+01 -4.44528E+01 -5.09059E+01 -4.86102E+01 -4.40436E+01 -5.09402E+01
  -4.77643E+01 -5.16063E+01 -4.67190E+01 -4.68296E+01 -4.49489E+01 -4.84682E+01 -4.58922E+01 -4.37134E+01 -4.33296E+01 -3.92000E+01
  -3.60444E+01 -3.72641E+01 -3.05372E+01 -3.58776E+01 -2.91794E+01 -2.97565E+01 -2.66533E+01 -3.05996E+01 -2.07321E+01 -2.40771E+01
  -2.55938E+01 -2.17875E+01 -1.86550E+01 -2.23658E+01 -2.19269E+01 -1.82987E+01 -1.65172E+01 -1.86912E+01 -2.08990E+01 -1.85405E+01
  -1.95325E+01 -2.32196E+01 -1.76370E+01 -2.16260E+01 -1.92361E+01 -1.90837E+01 -2.07779E+01 -2.28303E+01 -2.33623E+01 -2.66276E+01
  -2.94978E+01 -3.13085E+01 -2.57667E+01 -3.18941E+01 -3.54272E+01 -3.40068E+01 -3.13705E+01 -3.56793E+01 -3.52449E+01 -3.46965E+01
  -3.59555E+01 -4.15144E+01 -4.03928E+01 -4.38567E+01 -4.03589E+01 -4.20288E+01 -4.45070E+01 -4.57054E+01 -4.47707E+01 -4.44953E+01
  -4.57040E+01 -4.66443E+01 -4.31049E+01 -4.56370E+01 -3.78991E+01 -4.43550E+01 -4.52996E+01 -4.49038E+01 -4.90691E+01 -4.35257E+01
  -4.52957E+01 -4.04758E+01 -4.59316E+01 -4.75214E+01 -4.57005E+01 -4.42052E+01 -4.45421E+01 -5.20720E+01 -4.88767E+01 -4.72038E+01
  -5.12796E+01 -4.67860E+01 -4.58505E+01 -4.66428E+01 -4.85149E+01 -4.59791E+01 -4.70984E+01 -5.14829E+01 -4.91119E+01 -4.80483E+01
  -4.82843E+01 -4.55934E+01 -4.59608E+01 -5.02293E+01 -5.06682E+01 -4.81653E+01 -4.56505E+01 -4.30755E+01 -5.05597E+01 -4.70136E+01
  -4.70187E+01 -4.68432E+01 -4.54790E+01 -4.71053E+01 -4.89248E+01 -4.95139E+01 -4.79075E+01 -4.77882E+01 -4.85553E+01 -5.14295E+01
  -4.95850E+01 -5.22044E+01 -5.27642E+01 -5.42739E+01 -5.62576E+01 -5.34127E+01 -5.33081E+01 -5.09210E+01 -5.72034E+01 -5.70141E+01
  -5.17939E+01 -4.80954E+01 -6.06280E+01 -5.13490E+01 -5.32316E+01 -5.55485E+01 -5.00764E+01 -4.92004E+01 -5.25752E+01 -5.49640E+01
  -5.10878E+01 -5.37466E+01 -5.17692E+01 -5.22733E+01 -5.38283E+01 -5.38068E+01 -5.43042E+01 -5.29859E+01 -5.21277E+01 -5.44944E+01
  -5.66128E+01 -5.47334E+01 -5.80710E+01 -5.23921E+01 -5.34958E+01 -5.26072E+01 -5.29424E+01 -5.02265E+01 -5.58964E+01 -5.32200E+01
  -5.01121E+01 -5.49336E+01 -5.07203E+01 -5.32414E+01 -5.80581E+01 -5.63530E+01 -5.23468E+01 -5.09241E+01 -5.28201E+01 -5.28975E+01
  -5.34076E+01 -5.38308E+01 -5.10456E+01 -5.76583E+01 -5.40693E+01 -5.54863E+01 -5.39343E+01 -5.65154E+01 -5.37918E+01 -5.52112E+01
  -5.58248E+01 -5.44694E+01 -5.61669E+01 -5.31699E+01 -5.64918E+01 -5.67184E+01 -5.94266E+01 -5.68310E+01 -5.56883E+01 -5.46299E+01
  -5.57962E+01 -5.12086E+01 -5.75948E+01 -5.25824E+01 -5.84497E+01 -5.11625E+01 -5.23401E+01 -5.23529E+01 -4.86834E+01 -4.82631E+01
  -5.28960E+01 -5.14414E+01 -4.92977E+01 -5.12208E+01 -5.08590E+01 -4.83129E+01 -4.42856E+01 -4.60109E+01
 NY points of the fit to the data follow
   1.74398E+02  1.71644E+02  1.69382E+02  1.67447E+02  1.65858E+02  1.64678E+02  1.63941E+02  1.63496E+02  1.62989E+02  1.62031E+02
   1.60313E+02  1.57712E+02  1.54374E+02  1.50642E+02  1.46870E+02  1.43282E+02  1.39925E+02  1.36720E+02  1.33677E+02  1.30883E+02
   1.28400E+02  1.26201E+02  1.24093E+02  1.21959E+02  1.19778E+02  1.17566E+02  1.15415E+02  1.13462E+02  1.11818E+02  1.10501E+02
   1.09384E+02  1.08299E+02  1.07132E+02  1.05828E+02  1.04374E+02  1.02764E+02  1.00981E+02  9.91014E+01  9.73840E+01  9.59574E+01
   9.47425E+01  9.37466E+01  9.31574E+01  9.30958E+01  9.34233E+01  9.37744E+01  9.37079E+01  9.28471E+01  9.09801E+01  8.82012E+01
   8.49477E+01  8.17338E+01  7.88995E+01  7.65493E+01  7.46283E+01  7.30932E+01  7.19398E+01  7.11643E+01  7.06864E+01  7.02330E+01
   6.94963E+01  6.83268E+01  6.68160E+01  6.51928E+01  6.36445E+01  6.22945E+01  6.11960E+01  6.03366E+01  5.96463E+01  5.90475E+01
   5.84838E+01  5.78813E+01  5.71663E+01  5.62942E+01  5.52622E+01  5.41228E+01  5.29484E+01  5.18070E+01  5.06908E+01  4.95408E+01
   4.83706E+01  4.72290E+01  4.61329E+01  4.50413E+01  4.38852E+01  4.26485E+01  4.13672E+01  4.01539E+01  3.91158E+01  3.83276E+01
   3.78186E+01  3.75393E+01  3.73826E+01  3.72689E+01  3.73584E+01  3.77617E+01  3.81825E+01  3.85803E+01  3.91649E+01  4.01748E+01
   4.16534E+01  4.33519E+01  4.48164E+01  4.55603E+01  4.52484E+01  4.38696E+01  4.17492E+01  3.93542E+01  3.70239E+01  3.48843E+01
   3.29293E+01  3.11496E+01  2.96050E+01  2.83933E+01  2.75920E+01  2.71130E+01  2.67428E+01  2.64465E+01  2.63769E+01  2.68807E+01
   2.77460E+01  2.87227E+01  2.99020E+01  3.14993E+01  3.35797E+01  3.59175E+01  3.80511E+01  3.94389E+01  3.96276E+01  3.84541E+01
   3.61679E+01  3.32938E+01  3.03336E+01  2.75604E+01  2.50246E+01  2.27025E+01  2.06271E+01  1.88949E+01  1.76059E+01  1.67632E+01
   1.61158E+01  1.55064E+01  1.49050E+01  1.43037E+01  1.36993E+01  1.30905E+01  1.24769E+01  1.18600E+01  1.12412E+01  1.06231E+01
   1.00078E+01  9.38517E+00  8.73637E+00  8.07564E+00  7.41744E+00  6.76674E+00  6.11795E+00  5.43855E+00  4.72969E+00  4.02431E+00
   3.35899E+00  2.75297E+00  2.19724E+00  1.65695E+00  1.08745E+00  4.56876E-01 -2.39516E-01 -9.84680E-01 -1.72508E+00 -2.42192E+00
  -3.09008E+00 -3.76425E+00 -4.46170E+00 -5.13045E+00 -5.71996E+00 -6.21426E+00 -6.63024E+00 -7.01340E+00 -7.39872E+00 -7.77120E+00
  -8.11818E+00 -8.43578E+00 -8.71822E+00 -8.96276E+00 -9.17448E+00 -9.35885E+00 -9.50323E+00 -9.60398E+00 -9.66238E+00 -9.73168E+00
  -9.86652E+00 -1.00802E+01 -1.03367E+01 -1.05889E+01 -1.08086E+01 -1.09843E+01 -1.11050E+01 -1.11667E+01 -1.11599E+01 -1.10787E+01
  -1.09876E+01 -1.09951E+01 -1.11227E+01 -1.14235E+01 -1.19912E+01 -1.28245E+01 -1.38289E+01 -1.48609E+01 -1.57676E+01 -1.64277E+01
  -1.67621E+01 -1.67693E+01 -1.65277E+01 -1.61566E+01 -1.57528E+01 -1.53760E+01 -1.50645E+01 -1.48510E+01 -1.47547E+01 -1.47784E+01
  -1.49115E+01 -1.51236E+01 -1.53614E+01 -1.56129E+01 -1.58829E+01 -1.61676E+01 -1.64940E+01 -1.68888E+01 -1.73079E+01 -1.77162E+01
  -1.81110E+01 -1.84924E+01 -1.88427E+01 -1.91674E+01 -1.94490E+01 -1.96227E+01 -1.96560E+01 -1.95830E+01 -1.94946E+01 -1.95080E+01
  -1.97169E+01 -2.01356E+01 -2.07010E+01 -2.13163E+01 -2.18879E+01 -2.23557E+01 -2.27000E+01 -2.29213E+01 -2.30115E+01 -2.29671E+01
  -2.26453E+01 -2.14823E+01 -1.97141E+01 -1.79011E+01 -1.59803E+01 -1.35503E+01 -1.03757E+01 -6.68503E+00 -3.13712E+00 -5.93522E-01
   1.55864E-01 -1.27063E+00 -4.59409E+00 -9.01251E+00 -1.36695E+01 -1.80464E+01 -2.20188E+01 -2.56335E+01 -2.88593E+01 -3.15427E+01
  -3.34987E+01 -3.46452E+01 -3.53433E+01 -3.59149E+01 -3.64284E+01 -3.69034E+01 -3.73496E+01 -3.77722E+01 -3.81736E+01 -3.85545E+01
  -3.89144E+01 -3.92515E+01 -3.95641E+01 -3.98512E+01 -4.01128E+01 -4.03501E+01 -4.05647E+01 -4.07588E+01 -4.09347E+01 -4.10945E+01
  -4.12399E+01 -4.13717E+01 -4.14908E+01 -4.15971E+01 -4.16902E+01 -4.17693E+01 -4.18329E+01 -4.18797E+01 -4.19079E+01 -4.19154E+01
  -4.18989E+01 -4.18544E+01 -4.17770E+01 -4.16605E+01 -4.14975E+01 -4.12799E+01 -4.09981E+01 -4.06418E+01 -4.02001E+01 -3.96617E+01
  -3.90157E+01 -3.82516E+01 -3.73603E+01 -3.63342E+01 -3.51671E+01 -3.38527E+01 -3.23790E+01 -3.07100E+01 -2.88510E+01 -2.69827E+01
  -2.51731E+01 -2.34012E+01 -2.16928E+01 -2.01768E+01 -1.90582E+01 -1.84977E+01 -1.84387E+01 -1.88444E+01 -1.96530E+01 -2.06577E+01
  -2.15864E+01 -2.22389E+01 -2.25609E+01 -2.26252E+01 -2.25747E+01 -2.25887E+01 -2.28469E+01 -2.34599E+01 -2.44469E+01 -2.57665E+01
  -2.72848E+01 -2.88929E+01 -3.05385E+01 -3.21814E+01 -3.37649E+01 -3.52095E+01 -3.64325E+01 -3.74512E+01 -3.83117E+01 -3.90403E+01
  -3.96560E+01 -4.01756E+01 -4.06144E+01 -4.09869E+01 -4.13064E+01 -4.15851E+01 -4.18339E+01 -4.20626E+01 -4.22791E+01 -4.24905E+01
  -4.27023E+01 -4.29189E+01 -4.31435E+01 -4.33781E+01 -4.36237E+01 -4.38802E+01 -4.41472E+01 -4.44235E+01 -4.47075E+01 -4.49972E+01
  -4.52903E+01 -4.55841E+01 -4.58758E+01 -4.61627E+01 -4.64416E+01 -4.67096E+01 -4.69636E+01 -4.72005E+01 -4.74176E+01 -4.76120E+01
  -4.77812E+01 -4.79227E+01 -4.80347E+01 -4.81154E+01 -4.81639E+01 -4.81795E+01 -4.81626E+01 -4.81141E+01 -4.80359E+01 -4.79311E+01
  -4.78035E+01 -4.76580E+01 -4.75006E+01 -4.73379E+01 -4.71775E+01 -4.70273E+01 -4.68953E+01 -4.67894E+01 -4.67171E+01 -4.66851E+01
  -4.66990E+01 -4.67629E+01 -4.68794E+01 -4.70493E+01 -4.72715E+01 -4.75435E+01 -4.78608E+01 -4.82176E+01 -4.86075E+01 -4.90233E+01
  -4.94577E+01 -4.99029E+01 -5.03515E+01 -5.07964E+01 -5.12312E+01 -5.16503E+01 -5.20490E+01 -5.24235E+01 -5.27711E+01 -5.30900E+01
  -5.33792E+01 -5.36384E+01 -5.38682E+01 -5.40693E+01 -5.42430E+01 -5.43911E+01 -5.45150E+01 -5.46169E+01 -5.46984E+01 -5.47615E+01
  -5.48080E+01 -5.48396E+01 -5.48579E+01 -5.48645E+01 -5.48607E+01 -5.48479E+01 -5.48273E+01 -5.47999E+01 -5.47669E+01 -5.47290E+01
  -5.46873E+01 -5.46425E+01 -5.45953E+01 -5.45465E+01 -5.44968E+01 -5.44468E+01 -5.43971E+01 -5.43482E+01 -5.43008E+01 -5.42554E+01
  -5.42124E+01 -5.41724E+01 -5.41359E+01 -5.41031E+01 -5.40737E+01 -5.40473E+01 -5.40237E+01 -5.40023E+01 -5.39827E+01 -5.39646E+01
  -5.39476E+01 -5.39313E+01 -5.39151E+01 -5.38988E+01 -5.38818E+01 -5.38638E+01 -5.38443E+01 -5.38228E+01 -5.37991E+01 -5.37725E+01
  -5.37427E+01 -5.37092E+01 -5.36717E+01 -5.36295E+01 -5.35824E+01 -5.35298E+01 -5.34714E+01 -5.34066E+01 -5.33350E+01 -5.32562E+01
  -5.31696E+01 -5.30750E+01 -5.29718E+01 -5.28595E+01 -5.27377E+01 -5.26060E+01 -5.24638E+01 -5.23109E+01 -5.21466E+01 -5.19705E+01
  -5.17822E+01 -5.15813E+01 -5.13672E+01 -5.11395E+01 -5.08978E+01 -5.06416E+01 -5.03705E+01 -5.00839E+01
 NY background values follow
     1.680E+02    1.657E+02    1.634E+02    1.611E+02    1.589E+02    1.566E+02    1.544E+02    1.522E+02    1.500E+02    1.478E+02
     1.457E+02    1.435E+02    1.414E+02    1.393E+02    1.372E+02    1.351E+02    1.330E+02    1.310E+02    1.290E+02    1.269E+02
     1.250E+02    1.230E+02    1.210E+02    1.191E+02    1.172E+02    1.153E+02    1.134E+02    1.116E+02    1.097E+02    1.079E+02
     1.061E+02    1.043E+02    1.026E+02    1.008E+02    9.912E+01    9.743E+01    9.577E+01    9.412E+01    9.250E+01    9.089E+01
     8.932E+01    8.776E+01    8.623E+01    8.472E+01    8.324E+01    8.178E+01    8.034E+01    7.893E+01    7.754E+01    7.617E+01
     7.483E+01    7.351E+01    7.222E+01    7.095E+01    6.970E+01    6.847E+01    6.726E+01    6.608E+01    6.492E+01    6.377E+01
     6.265E+01    6.155E+01    6.048E+01    5.942E+01    5.838E+01    5.736E+01    5.636E+01    5.538E+01    5.442E+01    5.348E+01
     5.256E+01    5.165E+01    5.077E+01    4.990E+01    4.905E+01    4.821E+01    4.740E+01    4.660E+01    4.582E+01    4.505E+01
     4.430E+01    4.357E+01    4.285E+01    4.215E+01    4.147E+01    4.079E+01    4.014E+01    3.950E+01    3.887E+01    3.826E+01
     3.766E+01    3.707E+01    3.650E+01    3.594E+01    3.540E+01    3.486E+01    3.434E+01    3.383E+01    3.332E+01    3.283E+01
     3.235E+01    3.187E+01    3.141E+01    3.095E+01    3.050E+01    3.005E+01    2.961E+01    2.918E+01    2.875E+01    2.833E+01
     2.791E+01    2.749E+01    2.708E+01    2.667E+01    2.626E+01    2.586E+01    2.545E+01    2.505E+01    2.464E+01    2.424E+01
     2.383E+01    2.343E+01    2.302E+01    2.260E+01    2.219E+01    2.177E+01    2.135E+01    2.092E+01    2.049E+01    2.005E+01
     1.961E+01    1.916E+01    1.870E+01    1.824E+01    1.776E+01    1.728E+01    1.679E+01    1.629E+01    1.578E+01    1.526E+01
     1.474E+01    1.421E+01    1.367E+01    1.312E+01    1.257E+01    1.202E+01    1.146E+01    1.089E+01    1.033E+01    9.755E+00
     9.181E+00    8.605E+00    8.028E+00    7.449E+00    6.869E+00    6.290E+00    5.711E+00    5.132E+00    4.555E+00    3.980E+00
     3.407E+00    2.838E+00    2.271E+00    1.709E+00    1.150E+00    5.971E-01    4.918E-02   -4.928E-01   -1.028E+00   -1.557E+00
    -2.078E+00   -2.592E+00   -3.097E+00   -3.593E+00   -4.079E+00   -4.556E+00   -5.022E+00   -5.477E+00   -5.921E+00   -6.353E+00
    -6.772E+00   -7.179E+00   -7.572E+00   -7.953E+00   -8.322E+00   -8.679E+00   -9.025E+00   -9.361E+00   -9.687E+00   -1.000E+01
    -1.031E+01   -1.061E+01   -1.090E+01   -1.119E+01   -1.146E+01   -1.174E+01   -1.200E+01   -1.226E+01   -1.252E+01   -1.277E+01
    -1.302E+01   -1.327E+01   -1.352E+01   -1.376E+01   -1.400E+01   -1.424E+01   -1.448E+01   -1.473E+01   -1.497E+01   -1.521E+01
    -1.546E+01   -1.571E+01   -1.596E+01   -1.622E+01   -1.648E+01   -1.674E+01   -1.701E+01   -1.729E+01   -1.758E+01   -1.787E+01
    -1.816E+01   -1.847E+01   -1.878E+01   -1.911E+01   -1.944E+01   -1.979E+01   -2.014E+01   -2.051E+01   -2.089E+01   -2.127E+01
    -2.167E+01   -2.208E+01   -2.249E+01   -2.291E+01   -2.334E+01   -2.378E+01   -2.422E+01   -2.467E+01   -2.512E+01   -2.558E+01
    -2.604E+01   -2.651E+01   -2.698E+01   -2.745E+01   -2.792E+01   -2.839E+01   -2.886E+01   -2.934E+01   -2.981E+01   -3.028E+01
    -3.075E+01   -3.121E+01   -3.168E+01   -3.214E+01   -3.259E+01   -3.305E+01   -3.349E+01   -3.393E+01   -3.437E+01   -3.479E+01
    -3.521E+01   -3.562E+01   -3.602E+01   -3.642E+01   -3.680E+01   -3.717E+01   -3.754E+01   -3.789E+01   -3.822E+01   -3.855E+01
    -3.886E+01   -3.916E+01   -3.944E+01   -3.971E+01   -3.997E+01   -4.021E+01   -4.044E+01   -4.066E+01   -4.086E+01   -4.105E+01
    -4.123E+01   -4.140E+01   -4.156E+01   -4.171E+01   -4.185E+01   -4.198E+01   -4.209E+01   -4.220E+01   -4.231E+01   -4.240E+01
    -4.248E+01   -4.256E+01   -4.263E+01   -4.269E+01   -4.275E+01   -4.280E+01   -4.285E+01   -4.289E+01   -4.292E+01   -4.295E+01
    -4.298E+01   -4.300E+01   -4.302E+01   -4.303E+01   -4.304E+01   -4.305E+01   -4.306E+01   -4.307E+01   -4.307E+01   -4.308E+01
    -4.308E+01   -4.308E+01   -4.308E+01   -4.309E+01   -4.309E+01   -4.310E+01   -4.311E+01   -4.311E+01   -4.313E+01   -4.314E+01
    -4.316E+01   -4.317E+01   -4.319E+01   -4.322E+01   -4.324E+01   -4.327E+01   -4.330E+01   -4.334E+01   -4.338E+01   -4.342E+01
    -4.346E+01   -4.351E+01   -4.356E+01   -4.362E+01   -4.368E+01   -4.374E+01   -4.381E+01   -4.388E+01   -4.395E+01   -4.403E+01
    -4.412E+01   -4.421E+01   -4.430E+01   -4.440E+01   -4.450E+01   -4.461E+01   -4.472E+01   -4.484E+01   -4.496E+01   -4.509E+01
    -4.522E+01   -4.536E+01   -4.550E+01   -4.565E+01   -4.581E+01   -4.597E+01   -4.614E+01   -4.631E+01   -4.649E+01   -4.668E+01
    -4.687E+01   -4.707E+01   -4.728E+01   -4.749E+01   -4.771E+01   -4.793E+01   -4.816E+01   -4.839E+01   -4.863E+01   -4.887E+01
    -4.912E+01   -4.937E+01   -4.962E+01   -4.988E+01   -5.013E+01   -5.039E+01   -5.065E+01   -5.091E+01   -5.117E+01   -5.143E+01
    -5.169E+01   -5.195E+01   -5.220E+01   -5.246E+01   -5.271E+01   -5.296E+01   -5.321E+01   -5.346E+01   -5.370E+01   -5.394E+01
    -5.417E+01   -5.440E+01   -5.462E+01   -5.484E+01   -5.505E+01   -5.525E+01   -5.545E+01   -5.564E+01   -5.582E+01   -5.599E+01
    -5.616E+01   -5.631E+01   -5.646E+01   -5.660E+01   -5.672E+01   -5.684E+01   -5.694E+01   -5.704E+01   -5.712E+01   -5.719E+01
    -5.725E+01   -5.730E+01   -5.734E+01   -5.737E+01   -5.739E+01   -5.740E+01   -5.741E+01   -5.740E+01   -5.739E+01   -5.737E+01
    -5.734E+01   -5.731E+01   -5.727E+01   -5.722E+01   -5.717E+01   -5.711E+01   -5.705E+01   -5.698E+01   -5.691E+01   -5.684E+01
    -5.676E+01   -5.668E+01   -5.659E+01   -5.651E+01   -5.642E+01   -5.633E+01   -5.624E+01   -5.615E+01   -5.606E+01   -5.597E+01
    -5.587E+01   -5.578E+01   -5.569E+01   -5.561E+01   -5.552E+01   -5.544E+01   -5.535E+01   -5.528E+01   -5.520E+01   -5.513E+01
    -5.506E+01   -5.500E+01   -5.494E+01   -5.489E+01   -5.484E+01   -5.479E+01   -5.475E+01   -5.471E+01   -5.468E+01   -5.464E+01
    -5.461E+01   -5.458E+01   -5.455E+01   -5.452E+01   -5.450E+01   -5.447E+01   -5.444E+01   -5.440E+01   -5.437E+01   -5.433E+01
    -5.429E+01   -5.425E+01   -5.421E+01   -5.415E+01   -5.410E+01   -5.404E+01   -5.397E+01   -5.390E+01   -5.382E+01   -5.374E+01
    -5.364E+01   -5.354E+01   -5.343E+01   -5.331E+01   -5.319E+01   -5.305E+01   -5.290E+01   -5.274E+01   -5.257E+01   -5.239E+01
    -5.220E+01   -5.199E+01   -5.177E+01   -5.154E+01   -5.129E+01   -5.103E+01   -5.076E+01   -5.047E+01
 Ala      Conc. = 4.66E+02
