 LCModel (Version 6.3-1L) Copyright: S.W. Provencher.          Ref.: Magn. Reson. Med. 30:672-679 (1993).                
 Slice#2 Row#1 Col#1  PD_24_press_2_raw_act
 36 lines in following concentration table = NCONC+1
    Conc.  %SD /Cr+PCr  Metabolite                                         
 2.43E+03  36%   4.599 Ala                                                 
   78.545  68%   0.149 Asp                                                 
  528.249  20%   1.000 Cr                                                  
    0.000 999%   0.000 PCr                                                 
   47.370  68% 9.0E-02 GABA                                                
   52.765  61%   0.100 Glc                                                 
 5.37E+03  20%  10.164 Gln                                                 
    0.000 999%   0.000 Glu                                                 
   32.316 814% 6.1E-02 GPC                                                 
  310.607  85%   0.588 PCh                                                 
  523.421  40%   0.991 GSH                                                 
 3.64E+03  12%   6.899 Ins                                                 
    0.000 999%   0.000 Lac                                                 
    0.000 999%   0.000 NAA                                                 
    0.000 999%   0.000 NAAG                                                
   26.360  40% 5.0E-02 Scyllo                                              
  101.604  52%   0.192 Tau                                                 
    0.000 999%   0.000 -CrCH2                                              
  342.922  12%   0.649 GPC+PCh                                             
    0.000 999%   0.000 NAA+NAAG                                            
  528.249  20%   1.000 Cr+PCr                                              
 5.37E+03  20%  10.164 Glu+Gln                                             
    0.000 999%   0.000 Lip13a                                              
  137.579 127%   0.260 Lip13b                                              
    0.000 999%   0.000 Lip09                                               
  172.078  83%   0.326 MM09                                                
    0.000 999%   0.000 Lip20                                               
 1.14E+03  25%   2.155 MM20                                                
    0.000 999%   0.000 MM12                                                
  603.206  57%   1.142 MM14                                                
 1.91E+03   9%   3.613 MM17                                                
  137.579 127%   0.260 Lip13a+Lip13b                                       
  740.785  57%   1.402 MM14+Lip13a+Lip13b+MM12                             
  172.078  83%   0.326 MM09+Lip09                                          
 1.14E+03  25%   2.155 MM20+Lip20                                          
   6 lines in following misc. output table
  FWHM = 0.199 ppm    S/N =   2                                            
  Data shift = 0.115 ppm                                                   
  Ph:-151 deg     101.5 deg/ppm                                            
  alphaB,S = 8.5E+01,   4.1E+02                                            
    7 spline knots.   Ns = 9(2)                                            
   2 inflections.     1 extrema                                            
  498 points on ppm-axis = NY
      4.000000     3.992357     3.984714     3.977070     3.969427     3.961784     3.954141     3.946497     3.938854     3.931211
      3.923568     3.915925     3.908281     3.900638     3.892995     3.885352     3.877708     3.870065     3.862422     3.854779
      3.847136     3.839492     3.831849     3.824206     3.816563     3.808919     3.801276     3.793633     3.785990     3.778347
      3.770703     3.763060     3.755417     3.747774     3.740130     3.732487     3.724844     3.717201     3.709558     3.701914
      3.694271     3.686628     3.678985     3.671341     3.663698     3.656055     3.648412     3.640769     3.633125     3.625482
      3.617839     3.610196     3.602552     3.594909     3.587266     3.579623     3.571980     3.564336     3.556693     3.549050
      3.541407     3.533763     3.526120     3.518477     3.510834     3.503191     3.495547     3.487904     3.480261     3.472618
      3.464974     3.457331     3.449688     3.442045     3.434402     3.426758     3.419115     3.411472     3.403829     3.396185
      3.388542     3.380899     3.373256     3.365613     3.357969     3.350326     3.342683     3.335040     3.327396     3.319753
      3.312110     3.304467     3.296824     3.289180     3.281537     3.273894     3.266251     3.258607     3.250964     3.243321
      3.235678     3.228034     3.220391     3.212748     3.205105     3.197462     3.189818     3.182175     3.174532     3.166889
      3.159245     3.151602     3.143959     3.136316     3.128673     3.121029     3.113386     3.105743     3.098100     3.090456
      3.082813     3.075170     3.067527     3.059884     3.052240     3.044597     3.036954     3.029311     3.021667     3.014024
      3.006381     2.998738     2.991095     2.983451     2.975808     2.968165     2.960522     2.952878     2.945235     2.937592
      2.929949     2.922306     2.914662     2.907019     2.899376     2.891733     2.884089     2.876446     2.868803     2.861160
      2.853517     2.845873     2.838230     2.830587     2.822944     2.815300     2.807657     2.800014     2.792371     2.784728
      2.777084     2.769441     2.761798     2.754155     2.746511     2.738868     2.731225     2.723582     2.715939     2.708295
      2.700652     2.693009     2.685366     2.677722     2.670079     2.662436     2.654793     2.647150     2.639506     2.631863
      2.624220     2.616577     2.608933     2.601290     2.593647     2.586004     2.578361     2.570717     2.563074     2.555431
      2.547788     2.540144     2.532501     2.524858     2.517215     2.509572     2.501928     2.494285     2.486642     2.478999
      2.471355     2.463712     2.456069     2.448426     2.440783     2.433139     2.425496     2.417853     2.410210     2.402566
      2.394923     2.387280     2.379637     2.371994     2.364350     2.356707     2.349064     2.341421     2.333777     2.326134
      2.318491     2.310848     2.303205     2.295561     2.287918     2.280275     2.272632     2.264988     2.257345     2.249702
      2.242059     2.234416     2.226772     2.219129     2.211486     2.203843     2.196199     2.188556     2.180913     2.173270
      2.165627     2.157983     2.150340     2.142697     2.135054     2.127410     2.119767     2.112124     2.104481     2.096838
      2.089194     2.081551     2.073908     2.066265     2.058621     2.050978     2.043335     2.035692     2.028049     2.020405
      2.012762     2.005119     1.997476     1.989833     1.982190     1.974546     1.966903     1.959260     1.951617     1.943974
      1.936331     1.928688     1.921045     1.913402     1.905759     1.898115     1.890472     1.882829     1.875186     1.867543
      1.859900     1.852257     1.844614     1.836971     1.829327     1.821684     1.814041     1.806398     1.798755     1.791112
      1.783469     1.775826     1.768183     1.760540     1.752896     1.745253     1.737610     1.729967     1.722324     1.714681
      1.707038     1.699395     1.691752     1.684108     1.676465     1.668822     1.661179     1.653536     1.645893     1.638250
      1.630607     1.622964     1.615321     1.607677     1.600034     1.592391     1.584748     1.577105     1.569462     1.561819
      1.554176     1.546533     1.538890     1.531246     1.523603     1.515960     1.508317     1.500674     1.493031     1.485388
      1.477745     1.470102     1.462458     1.454815     1.447172     1.439529     1.431886     1.424243     1.416600     1.408957
      1.401314     1.393671     1.386027     1.378384     1.370741     1.363098     1.355455     1.347812     1.340169     1.332526
      1.324883     1.317240     1.309596     1.301953     1.294310     1.286667     1.279024     1.271381     1.263738     1.256095
      1.248452     1.240808     1.233165     1.225522     1.217879     1.210236     1.202593     1.194950     1.187307     1.179664
      1.172021     1.164377     1.156734     1.149091     1.141448     1.133805     1.126162     1.118519     1.110876     1.103233
      1.095590     1.087946     1.080303     1.072660     1.065017     1.057374     1.049731     1.042088     1.034445     1.026802
      1.019158     1.011515     1.003872     0.996229     0.988586     0.980943     0.973300     0.965657     0.958014     0.950371
      0.942727     0.935084     0.927441     0.919798     0.912155     0.904512     0.896869     0.889226     0.881583     0.873940
      0.866296     0.858653     0.851010     0.843367     0.835724     0.828081     0.820438     0.812795     0.805152     0.797508
      0.789865     0.782222     0.774579     0.766936     0.759293     0.751650     0.744007     0.736364     0.728721     0.721077
      0.713434     0.705791     0.698148     0.690505     0.682862     0.675219     0.667576     0.659933     0.652290     0.644646
      0.637003     0.629360     0.621717     0.614074     0.606431     0.598788     0.591145     0.583502     0.575858     0.568215
      0.560572     0.552929     0.545286     0.537643     0.530000     0.522357     0.514714     0.507071     0.499427     0.491784
      0.484141     0.476498     0.468855     0.461212     0.453569     0.445925     0.438282     0.430639     0.422996     0.415353
      0.407710     0.400067     0.392424     0.384780     0.377137     0.369494     0.361851     0.354208     0.346565     0.338922
      0.331278     0.323635     0.315992     0.308349     0.300706     0.293063     0.285420     0.277777     0.270133     0.262490
      0.254847     0.247204     0.239561     0.231918     0.224275     0.216631     0.208988     0.201345
 NY phased data points follow
   4.62969E+00  1.95232E+00  1.00522E+01  9.00864E+00  5.31172E-01  3.71497E+00  4.66981E+00  6.02891E+00  1.22271E+01  8.49469E+00
   9.03260E+00  1.19873E+01  2.86076E-01  7.82207E+00  1.13485E+00  5.29556E+00  6.53685E+00  1.39433E+00  1.06857E+01  2.12251E+00
   9.81525E+00  6.82775E+00  1.54588E+00  3.20911E+00  1.14947E+00  5.55317E+00  4.11599E+00  4.98465E+00  3.98062E+00  7.36589E+00
   6.01941E+00  3.61365E+00  4.30486E+00  8.36249E+00  6.54646E+00  5.80458E+00  5.42738E+00  4.40047E+00  5.78450E+00  6.25462E+00
   5.80292E+00  3.13974E+00  3.43819E+00  1.21687E+01  1.00577E+01  1.25331E+01  4.53489E+00  8.85773E+00  6.63702E+00  5.95689E+00
   8.08367E+00  1.01147E+00  4.23593E+00  4.66171E+00  8.14929E+00 -1.88753E-01  6.17675E+00  7.09014E+00 -4.09684E+00  3.60358E+00
   6.23696E+00  5.41274E+00  4.51519E+00  1.81210E+00  4.75793E+00  6.98464E+00  3.32821E+00  4.34270E+00  2.06168E+00  4.42341E+00
   6.95368E+00  7.60241E+00  3.27697E+00  2.43541E+00  3.12642E+00  6.61601E+00  1.85209E+00  6.59277E+00  3.76398E-01 -2.65135E+00
   4.71562E+00  5.79128E+00  5.93358E-01  6.85061E+00  5.54960E-01 -2.55646E+00  2.44682E+00  8.65596E+00  4.14283E+00  3.85709E+00
   1.44044E+01  7.24729E+00  1.24724E+01  2.25022E-01  7.34533E+00  6.03531E+00  6.54120E+00  5.34672E+00  8.57303E-01  7.74139E-01
   6.69357E+00 -4.27109E+00  3.28281E+00  3.12988E+00  8.40147E-01 -4.53240E+00  5.22459E+00 -1.44369E-01  7.87009E+00  3.31521E-01
  -1.75124E+00 -9.90146E-01 -4.14248E+00 -1.18354E+00  6.30360E+00  9.17609E+00  7.80782E+00  4.97749E+00  1.41269E+00  8.24417E+00
   2.88812E+00 -4.59983E+00  3.30633E-03 -4.98384E+00  3.30299E+00  1.94121E+00 -3.35539E+00 -2.39597E+00 -2.30536E-01  1.23185E+00
  -2.73358E+00 -4.38203E-01 -2.92933E+00  5.79069E+00  3.39937E+00 -5.07477E-01  5.72014E+00  2.13981E+00 -7.13397E-02  4.49970E+00
  -3.72574E+00 -1.49224E+00 -1.57647E+00 -8.01179E+00  1.11978E+00 -9.44285E-01 -7.98990E+00 -4.45962E-01 -4.07350E+00 -2.83144E+00
   1.01935E+00 -5.36929E+00 -9.18977E+00 -8.91981E+00 -7.21965E+00 -2.91303E+00 -9.78767E+00 -1.95099E+00  8.20150E-01 -4.21548E+00
  -7.71268E+00 -6.56117E+00 -8.76809E+00 -1.39119E+00 -3.30188E+00 -3.68845E+00 -9.84224E+00 -1.55708E+01 -6.62066E+00 -1.24258E+01
  -4.59720E+00 -1.03789E+01 -1.09789E+01 -7.02072E+00 -8.32421E+00 -1.43922E+01 -8.88165E+00 -9.09335E+00 -1.01979E+01 -1.33961E+01
  -5.16591E+00 -2.98671E+00 -5.47669E+00 -8.17029E+00 -8.45301E+00 -9.83597E+00 -8.59811E+00 -3.39359E+00 -7.39853E+00 -3.91238E+00
  -1.39192E+01 -1.21430E+01 -1.01481E+01 -9.43081E+00 -1.12800E+01 -8.16263E+00 -3.68029E+00 -1.07099E+01 -1.63469E+00 -9.95897E+00
  -1.08386E+01 -1.28600E+01 -6.37353E+00 -6.91996E+00 -5.48691E+00 -5.38872E+00 -3.84665E+00 -2.65667E+00 -5.23326E+00 -6.95997E+00
  -1.83659E-01 -8.75342E-01 -4.77365E+00  3.05296E+00 -1.26882E-01  2.82280E+00  1.54629E+00 -3.78468E+00 -4.11340E+00  3.42980E+00
   9.71577E-02  3.42783E+00  9.17010E-01  3.04884E+00  3.39241E+00  3.16898E+00 -3.87983E-01  3.96932E-01  1.81052E+00  7.87830E-01
   6.10520E+00  1.15459E+01 -2.04060E+00  5.29135E+00  1.72190E+00 -2.07760E+00  6.06519E+00  4.17418E+00 -2.26564E+00  6.70430E+00
   2.00128E+00  6.09306E-01  4.01214E+00 -1.57253E+00  2.48581E+00  1.33709E+00  8.26263E-01  4.50685E-01  4.43377E+00 -8.94610E-01
   9.31283E-01  4.05579E-01  9.83171E-01 -7.26752E+00 -2.99962E+00 -8.59668E-01 -4.64667E+00 -2.62163E+00  1.16820E+00 -2.77960E+00
   1.06927E+00 -4.19567E+00 -1.11553E+00 -1.65294E+00 -3.25036E+00 -6.53047E+00 -1.05624E+01 -2.06616E-01 -1.01416E+01 -7.60495E+00
  -4.20000E+00 -1.92059E+00 -6.95150E+00 -5.29028E+00 -8.61941E+00 -3.22628E+00 -1.03835E+01 -9.45704E+00 -1.06664E+01 -4.70712E+00
  -8.46466E+00 -8.90472E+00 -4.22592E+00 -8.55026E+00 -7.51896E+00 -3.38535E+00 -8.72393E-01  3.47359E-01 -2.05172E+00 -3.45568E-01
   1.05269E+00  3.57385E+00 -3.05557E-01  5.97180E+00  1.08269E+01  6.82398E+00  1.16147E+01  1.62874E+01  1.97178E+01  1.10030E+01
   1.59918E+01  1.60168E+01  1.87460E+01  2.09941E+01  1.65827E+01  1.41032E+01  1.85176E+01  1.02844E+01  1.36890E+01  7.51404E+00
   8.10017E+00  8.93984E+00  1.38841E+01  1.16429E+01  5.79193E+00  1.09336E+01  7.14215E+00  3.44833E+00  8.58368E+00  1.06535E+01
  -1.62135E+00  4.77244E+00  5.60611E+00  5.70644E+00  8.17895E+00  4.27634E+00  1.69778E+00  2.35216E+00 -6.47315E-01  5.08040E+00
   1.66088E+00  7.84405E+00  5.60363E+00  8.85063E+00  1.68646E-01  2.27418E+00 -1.31265E+00  7.20624E+00 -1.97227E+00  8.59863E-01
  -4.88650E+00  2.51303E+00 -2.47843E+00  9.33012E-02  5.29882E-01  6.29444E+00  1.43281E+00  8.80623E+00  5.18197E+00  5.47929E+00
   6.38722E+00  3.67504E+00 -1.38167E+00  3.61429E+00 -2.66626E-02  4.28591E+00  2.74751E+00  6.34768E+00 -2.22359E+00  4.70853E+00
   1.40979E-01 -1.84227E+00 -1.11498E+00  2.38098E+00  1.06539E-02  5.01115E+00  1.65660E+00 -5.34444E+00 -5.32793E+00 -2.89687E+00
  -3.08120E+00 -1.54892E+00 -3.31940E+00 -2.01590E+00 -4.03443E+00 -6.30775E+00 -6.40899E-01 -6.42541E+00 -3.12254E+00 -2.38583E+00
  -3.87976E+00  1.37129E+00 -4.05585E+00 -2.74239E+00 -2.60049E+00 -6.78804E-01 -2.89907E+00  1.20514E+00 -3.45371E-01 -3.10780E+00
  -1.56134E+00 -1.16247E+00  1.14866E+00 -5.26054E+00 -4.73231E+00 -1.52045E+00 -2.37247E+00 -2.07367E+00  2.56144E+00  4.83737E+00
   9.07266E-01  2.25013E+00 -4.61439E+00 -1.44203E-02 -2.19368E-01 -2.28797E+00  3.33285E+00 -9.07140E-01 -5.79946E+00 -7.18216E+00
  -4.56982E+00 -2.15251E+00 -3.19011E+00 -4.49279E+00 -7.18374E-01  5.19236E+00  1.04943E+00  1.28619E+00 -3.30360E+00  3.13158E-01
  -4.11042E+00 -3.67602E+00 -6.31933E+00 -4.33802E+00 -9.99013E+00 -4.09344E+00 -1.18392E+00 -1.38167E-01 -4.87723E-01  7.69014E-01
  -4.55577E+00 -1.20839E+00 -5.55674E+00  4.97698E+00 -2.06940E+00 -1.61696E-01 -8.06671E+00  1.78566E-01 -2.18722E+00  6.19401E+00
   8.52549E-01  8.47636E-01  6.41520E+00 -5.93294E+00 -7.25149E+00 -1.21202E-01 -7.73732E+00 -1.05986E+00 -1.20494E+00  5.82911E+00
   1.96145E+00 -4.49983E+00  1.03651E+00 -2.19543E+00  6.53549E-01  1.92091E+00 -3.27744E-01 -3.43141E+00  4.41950E-01 -2.34882E+00
  -8.61386E+00 -2.83140E+00 -4.85673E+00 -3.46300E+00 -2.54507E+00  4.86866E+00 -1.41772E+00  4.06106E+00 -2.83611E+00  3.67096E+00
   2.66231E+00  7.93336E-02 -4.19040E+00 -3.39717E+00  1.73770E+00 -5.07787E+00 -6.39188E+00 -2.34527E+00 -6.20427E-02 -6.62102E+00
  -9.50366E-01 -2.66397E+00 -2.56170E+00  7.75071E-01 -1.36746E+00 -3.37357E+00  7.39188E+00 -8.39235E-01 -5.24874E+00  4.74474E+00
   2.45982E+00  5.41766E+00  4.47607E+00  4.36974E+00 -1.11367E+00  1.24733E+00  1.95296E+00 -2.99073E+00
 NY points of the fit to the data follow
   6.57174E+00  6.66500E+00  6.60208E+00  6.56872E+00  6.38516E+00  6.27781E+00  6.05874E+00  5.95553E+00  5.41183E+00  5.14689E+00
   4.30148E+00  4.03855E+00  3.24166E+00  3.08560E+00  2.84154E+00  2.97487E+00  3.24460E+00  3.51399E+00  3.88924E+00  4.16515E+00
   4.44531E+00  4.77408E+00  4.84034E+00  5.15310E+00  5.00260E+00  5.31574E+00  4.96102E+00  5.28271E+00  4.73330E+00  5.13806E+00
   4.64605E+00  5.47068E+00  5.17417E+00  6.28311E+00  6.07481E+00  7.13270E+00  6.87138E+00  7.76684E+00  7.38464E+00  8.12409E+00
   7.60140E+00  8.26280E+00  7.64334E+00  8.34891E+00  7.62493E+00  8.38626E+00  7.46616E+00  8.14850E+00  6.85929E+00  7.31279E+00
   6.07811E+00  6.54636E+00  5.73383E+00  6.22746E+00  5.84007E+00  6.48560E+00  6.00982E+00  6.56324E+00  5.86851E+00  6.31207E+00
   5.38899E+00  5.85110E+00  4.76083E+00  5.12258E+00  3.98620E+00  4.34417E+00  3.27657E+00  3.71041E+00  2.83434E+00  3.41079E+00
   2.74373E+00  3.43786E+00  2.68925E+00  3.11528E+00  2.14944E+00  2.37298E+00  1.31381E+00  1.44337E+00  4.19052E-01  5.33718E-01
  -3.38330E-01 -2.76859E-01 -9.75796E-01 -9.18688E-01 -1.40248E+00 -1.01959E+00 -1.07775E+00 -7.28032E-01 -3.99672E-01 -2.43758E-01
   4.30773E-01  3.31121E-01  1.26804E+00  9.12834E-01  2.04291E+00  1.49294E+00  2.78331E+00  2.00967E+00  3.41276E+00  2.42995E+00
   3.91935E+00  2.74356E+00  4.27476E+00  2.97006E+00  4.52072E+00  3.14606E+00  4.69174E+00  3.27277E+00  4.82509E+00  3.58786E+00
   4.97958E+00  3.79271E+00  4.91588E+00  3.79985E+00  4.62963E+00  3.61545E+00  4.10439E+00  3.20935E+00  3.34181E+00  2.61191E+00
   2.43854E+00  1.92931E+00  1.55466E+00  1.41677E+00  1.07846E+00  1.42904E+00  1.28219E+00  1.55824E+00  1.40383E+00  1.61241E+00
   1.44631E+00  1.58138E+00  1.38961E+00  1.42319E+00  1.19252E+00  1.08531E+00  8.02569E-01  5.16537E-01  1.78384E-01 -3.12181E-01
  -6.94644E-01 -1.35566E+00 -1.75029E+00 -2.48651E+00 -2.83497E+00 -3.53477E+00 -3.78013E+00 -4.30814E+00 -4.40025E+00 -4.60147E+00
  -4.61441E+00 -4.76362E+00 -4.76682E+00 -4.87799E+00 -4.88130E+00 -4.95821E+00 -4.98484E+00 -5.09134E+00 -5.16307E+00 -5.27255E+00
  -5.36673E+00 -5.43672E+00 -5.51437E+00 -5.54207E+00 -5.59545E+00 -5.61215E+00 -5.65002E+00 -5.67265E+00 -5.69817E+00 -5.72679E+00
  -5.73757E+00 -5.76262E+00 -5.73804E+00 -5.74129E+00 -5.67192E+00 -5.68486E+00 -5.66758E+00 -5.73079E+00 -5.87415E+00 -6.09104E+00
  -6.37817E+00 -6.69267E+00 -7.02454E+00 -7.23037E+00 -7.34951E+00 -7.34096E+00 -7.26960E+00 -6.96362E+00 -6.77970E+00 -6.34051E+00
  -6.24730E+00 -6.00714E+00 -6.53987E+00 -6.42176E+00 -7.17150E+00 -7.03090E+00 -7.80967E+00 -7.56764E+00 -8.25703E+00 -7.91525E+00
  -8.48459E+00 -8.05080E+00 -8.45384E+00 -7.90920E+00 -8.07621E+00 -7.38491E+00 -7.27409E+00 -6.45038E+00 -6.08719E+00 -5.19767E+00
  -4.71738E+00 -3.88187E+00 -3.43224E+00 -2.78491E+00 -2.49187E+00 -2.08629E+00 -1.94817E+00 -1.84565E+00 -2.00776E+00 -2.02303E+00
  -2.08286E+00 -1.86305E+00 -1.48844E+00 -7.23334E-01  8.65443E-02  8.83452E-01  1.70684E+00  2.17073E+00  2.69348E+00  2.48282E+00
   2.52947E+00  1.61977E+00  1.22355E+00  1.60138E-01  1.40318E-01 -9.11024E-01 -6.26168E-01 -1.63990E+00 -1.13529E+00 -2.15575E+00
  -1.45723E+00 -2.50313E+00 -1.58233E+00 -2.62146E+00 -1.46280E+00 -2.52367E+00 -1.17357E+00 -2.32112E+00 -8.58642E-01 -2.13674E+00
  -6.57060E-01 -2.05795E+00 -6.61385E-01 -2.11895E+00 -8.73899E-01 -2.22031E+00 -1.15873E+00 -2.28333E+00 -1.52489E+00 -2.22733E+00
  -1.44669E+00 -1.76156E+00 -9.99180E-01 -1.09183E+00 -5.10600E-01 -8.62208E-01 -5.07883E-01 -1.02376E+00 -8.70827E-01 -1.42257E+00
  -1.34463E+00 -1.79503E+00 -1.71714E+00 -1.92888E+00 -1.82797E+00 -1.88022E+00 -1.80008E+00 -1.75927E+00 -1.71650E+00 -1.64665E+00
  -1.58271E+00 -1.48486E+00 -1.34054E+00 -1.13454E+00 -8.57082E-01 -4.96944E-01 -4.29187E-02  5.14861E-01  1.18000E+00  1.95799E+00
   2.84594E+00  3.83862E+00  4.92296E+00  6.08351E+00  7.29341E+00  8.52641E+00  9.74509E+00  1.09162E+01  1.19995E+01  1.29613E+01
   1.37653E+01  1.43891E+01  1.48122E+01  1.50300E+01  1.50464E+01  1.48847E+01  1.45854E+01  1.42334E+01  1.40009E+01  1.36607E+01
   1.29261E+01  1.25922E+01  1.11787E+01  1.09112E+01  8.75842E+00  8.51979E+00  5.81055E+00  6.43347E+00  3.40313E+00  5.05329E+00
   1.73153E+00  4.35148E+00  7.44611E-01  4.14272E+00  2.64181E-01  4.24495E+00  1.88874E-01  4.59399E+00  4.25202E-01  5.07227E+00
   7.79348E-01  5.46927E+00  1.01909E+00  5.52558E+00  9.62128E-01  5.16241E+00  6.45087E-01  4.52541E+00  2.72604E-01  3.84866E+00
   1.36292E-01  3.38988E+00  4.48750E-01  3.31868E+00  1.26581E+00  3.68735E+00  2.52192E+00  4.40230E+00  3.93812E+00  5.11424E+00
   4.52768E+00  4.86809E+00  4.28826E+00  3.96639E+00  3.40241E+00  2.69500E+00  2.22371E+00  1.82731E+00  1.44078E+00  1.04712E+00
   6.48973E-01  2.57995E-01 -1.11530E-01 -4.46807E-01 -7.39076E-01 -9.84462E-01 -1.18369E+00 -1.34090E+00 -1.46225E+00 -1.55452E+00
  -1.62417E+00 -1.67668E+00 -1.71639E+00 -1.74647E+00 -1.76911E+00 -1.78574E+00 -1.79722E+00 -1.80405E+00 -1.80646E+00 -1.80451E+00
  -1.79817E+00 -1.78731E+00 -1.77174E+00 -1.75125E+00 -1.72563E+00 -1.69468E+00 -1.65823E+00 -1.61619E+00 -1.56859E+00 -1.51555E+00
  -1.45740E+00 -1.39464E+00 -1.32799E+00 -1.25837E+00 -1.18695E+00 -1.11508E+00 -1.04428E+00 -9.76217E-01 -9.12588E-01 -8.55093E-01
  -8.05346E-01 -7.64781E-01 -7.34608E-01 -7.15704E-01 -7.08616E-01 -7.13466E-01 -7.30023E-01 -7.57639E-01 -7.95362E-01 -8.41915E-01
  -8.95840E-01 -9.55501E-01 -1.01924E+00 -1.08539E+00 -1.15238E+00 -1.21879E+00 -1.28337E+00 -1.34509E+00 -1.40316E+00 -1.45698E+00
  -1.50619E+00 -1.55060E+00 -1.59021E+00 -1.62511E+00 -1.65553E+00 -1.68174E+00 -1.70408E+00 -1.72290E+00 -1.73856E+00 -1.75139E+00
  -1.76174E+00 -1.76992E+00 -1.77618E+00 -1.78080E+00 -1.78397E+00 -1.78589E+00 -1.78673E+00 -1.78663E+00 -1.78571E+00 -1.78407E+00
  -1.78180E+00 -1.77897E+00 -1.77566E+00 -1.77191E+00 -1.76778E+00 -1.76329E+00 -1.75850E+00 -1.75342E+00 -1.74809E+00 -1.74251E+00
  -1.73674E+00 -1.73075E+00 -1.72460E+00 -1.71827E+00 -1.71180E+00 -1.70517E+00 -1.69842E+00 -1.69155E+00 -1.68455E+00 -1.67745E+00
  -1.67025E+00 -1.66296E+00 -1.65557E+00 -1.64810E+00 -1.64054E+00 -1.63291E+00 -1.62520E+00 -1.61743E+00 -1.60958E+00 -1.60168E+00
  -1.59370E+00 -1.58568E+00 -1.57758E+00 -1.56944E+00 -1.56123E+00 -1.55298E+00 -1.54466E+00 -1.53630E+00 -1.52789E+00 -1.51942E+00
  -1.51091E+00 -1.50234E+00 -1.49372E+00 -1.48505E+00 -1.47632E+00 -1.46754E+00 -1.45869E+00 -1.44978E+00 -1.44080E+00 -1.43173E+00
  -1.42259E+00 -1.41334E+00 -1.40399E+00 -1.39450E+00 -1.38486E+00 -1.37503E+00 -1.36498E+00 -1.35462E+00
 NY background values follow
    -6.427E+00   -6.418E+00   -6.408E+00   -6.398E+00   -6.388E+00   -6.378E+00   -6.368E+00   -6.358E+00   -6.348E+00   -6.338E+00
    -6.328E+00   -6.318E+00   -6.308E+00   -6.298E+00   -6.288E+00   -6.279E+00   -6.269E+00   -6.259E+00   -6.249E+00   -6.239E+00
    -6.229E+00   -6.219E+00   -6.209E+00   -6.199E+00   -6.189E+00   -6.179E+00   -6.169E+00   -6.159E+00   -6.149E+00   -6.140E+00
    -6.130E+00   -6.120E+00   -6.110E+00   -6.100E+00   -6.090E+00   -6.080E+00   -6.070E+00   -6.060E+00   -6.050E+00   -6.040E+00
    -6.030E+00   -6.020E+00   -6.011E+00   -6.001E+00   -5.991E+00   -5.981E+00   -5.971E+00   -5.961E+00   -5.951E+00   -5.941E+00
    -5.931E+00   -5.921E+00   -5.911E+00   -5.901E+00   -5.891E+00   -5.881E+00   -5.872E+00   -5.862E+00   -5.852E+00   -5.842E+00
    -5.832E+00   -5.822E+00   -5.812E+00   -5.802E+00   -5.792E+00   -5.782E+00   -5.772E+00   -5.762E+00   -5.752E+00   -5.743E+00
    -5.733E+00   -5.723E+00   -5.713E+00   -5.703E+00   -5.693E+00   -5.683E+00   -5.673E+00   -5.663E+00   -5.653E+00   -5.643E+00
    -5.633E+00   -5.623E+00   -5.613E+00   -5.604E+00   -5.594E+00   -5.584E+00   -5.574E+00   -5.564E+00   -5.554E+00   -5.544E+00
    -5.534E+00   -5.524E+00   -5.514E+00   -5.504E+00   -5.494E+00   -5.484E+00   -5.474E+00   -5.465E+00   -5.455E+00   -5.445E+00
    -5.435E+00   -5.425E+00   -5.415E+00   -5.405E+00   -5.395E+00   -5.385E+00   -5.375E+00   -5.365E+00   -5.355E+00   -5.345E+00
    -5.335E+00   -5.325E+00   -5.316E+00   -5.306E+00   -5.296E+00   -5.286E+00   -5.276E+00   -5.266E+00   -5.256E+00   -5.246E+00
    -5.236E+00   -5.226E+00   -5.216E+00   -5.206E+00   -5.196E+00   -5.186E+00   -5.177E+00   -5.167E+00   -5.157E+00   -5.147E+00
    -5.137E+00   -5.127E+00   -5.117E+00   -5.107E+00   -5.097E+00   -5.087E+00   -5.077E+00   -5.067E+00   -5.057E+00   -5.047E+00
    -5.037E+00   -5.028E+00   -5.018E+00   -5.008E+00   -4.998E+00   -4.988E+00   -4.978E+00   -4.968E+00   -4.958E+00   -4.948E+00
    -4.938E+00   -4.928E+00   -4.918E+00   -4.908E+00   -4.898E+00   -4.888E+00   -4.879E+00   -4.869E+00   -4.859E+00   -4.849E+00
    -4.839E+00   -4.829E+00   -4.819E+00   -4.809E+00   -4.799E+00   -4.789E+00   -4.779E+00   -4.769E+00   -4.759E+00   -4.749E+00
    -4.739E+00   -4.729E+00   -4.720E+00   -4.710E+00   -4.700E+00   -4.690E+00   -4.680E+00   -4.670E+00   -4.660E+00   -4.650E+00
    -4.640E+00   -4.630E+00   -4.620E+00   -4.610E+00   -4.600E+00   -4.590E+00   -4.580E+00   -4.570E+00   -4.560E+00   -4.551E+00
    -4.541E+00   -4.531E+00   -4.521E+00   -4.511E+00   -4.501E+00   -4.491E+00   -4.481E+00   -4.471E+00   -4.461E+00   -4.451E+00
    -4.441E+00   -4.431E+00   -4.421E+00   -4.411E+00   -4.401E+00   -4.391E+00   -4.381E+00   -4.372E+00   -4.362E+00   -4.352E+00
    -4.342E+00   -4.332E+00   -4.322E+00   -4.312E+00   -4.302E+00   -4.292E+00   -4.282E+00   -4.272E+00   -4.262E+00   -4.252E+00
    -4.242E+00   -4.232E+00   -4.222E+00   -4.212E+00   -4.202E+00   -4.192E+00   -4.183E+00   -4.173E+00   -4.163E+00   -4.153E+00
    -4.143E+00   -4.133E+00   -4.123E+00   -4.113E+00   -4.103E+00   -4.093E+00   -4.083E+00   -4.073E+00   -4.063E+00   -4.053E+00
    -4.043E+00   -4.033E+00   -4.023E+00   -4.013E+00   -4.003E+00   -3.993E+00   -3.983E+00   -3.974E+00   -3.964E+00   -3.954E+00
    -3.944E+00   -3.934E+00   -3.924E+00   -3.914E+00   -3.904E+00   -3.894E+00   -3.884E+00   -3.874E+00   -3.864E+00   -3.854E+00
    -3.844E+00   -3.834E+00   -3.824E+00   -3.814E+00   -3.804E+00   -3.794E+00   -3.784E+00   -3.774E+00   -3.764E+00   -3.754E+00
    -3.744E+00   -3.735E+00   -3.725E+00   -3.715E+00   -3.705E+00   -3.695E+00   -3.685E+00   -3.675E+00   -3.665E+00   -3.655E+00
    -3.645E+00   -3.635E+00   -3.625E+00   -3.615E+00   -3.605E+00   -3.595E+00   -3.585E+00   -3.575E+00   -3.565E+00   -3.555E+00
    -3.545E+00   -3.535E+00   -3.525E+00   -3.515E+00   -3.505E+00   -3.495E+00   -3.485E+00   -3.475E+00   -3.465E+00   -3.456E+00
    -3.446E+00   -3.436E+00   -3.426E+00   -3.416E+00   -3.406E+00   -3.396E+00   -3.386E+00   -3.376E+00   -3.366E+00   -3.356E+00
    -3.346E+00   -3.336E+00   -3.326E+00   -3.316E+00   -3.306E+00   -3.296E+00   -3.286E+00   -3.276E+00   -3.266E+00   -3.256E+00
    -3.246E+00   -3.236E+00   -3.226E+00   -3.216E+00   -3.206E+00   -3.196E+00   -3.186E+00   -3.176E+00   -3.166E+00   -3.156E+00
    -3.146E+00   -3.136E+00   -3.126E+00   -3.116E+00   -3.106E+00   -3.097E+00   -3.087E+00   -3.077E+00   -3.067E+00   -3.057E+00
    -3.047E+00   -3.037E+00   -3.027E+00   -3.017E+00   -3.007E+00   -2.997E+00   -2.987E+00   -2.977E+00   -2.967E+00   -2.957E+00
    -2.947E+00   -2.937E+00   -2.927E+00   -2.917E+00   -2.907E+00   -2.897E+00   -2.887E+00   -2.877E+00   -2.867E+00   -2.857E+00
    -2.847E+00   -2.837E+00   -2.827E+00   -2.817E+00   -2.807E+00   -2.797E+00   -2.787E+00   -2.777E+00   -2.767E+00   -2.757E+00
    -2.747E+00   -2.737E+00   -2.727E+00   -2.717E+00   -2.707E+00   -2.697E+00   -2.687E+00   -2.677E+00   -2.667E+00   -2.657E+00
    -2.647E+00   -2.637E+00   -2.627E+00   -2.617E+00   -2.607E+00   -2.597E+00   -2.587E+00   -2.577E+00   -2.567E+00   -2.557E+00
    -2.547E+00   -2.537E+00   -2.527E+00   -2.517E+00   -2.507E+00   -2.497E+00   -2.487E+00   -2.477E+00   -2.467E+00   -2.457E+00
    -2.448E+00   -2.438E+00   -2.428E+00   -2.418E+00   -2.408E+00   -2.398E+00   -2.388E+00   -2.378E+00   -2.368E+00   -2.358E+00
    -2.348E+00   -2.338E+00   -2.328E+00   -2.318E+00   -2.308E+00   -2.298E+00   -2.288E+00   -2.278E+00   -2.268E+00   -2.258E+00
    -2.248E+00   -2.238E+00   -2.228E+00   -2.218E+00   -2.208E+00   -2.198E+00   -2.188E+00   -2.178E+00   -2.168E+00   -2.158E+00
    -2.148E+00   -2.138E+00   -2.128E+00   -2.118E+00   -2.108E+00   -2.098E+00   -2.088E+00   -2.078E+00   -2.068E+00   -2.058E+00
    -2.048E+00   -2.038E+00   -2.028E+00   -2.018E+00   -2.008E+00   -1.998E+00   -1.988E+00   -1.978E+00   -1.968E+00   -1.958E+00
    -1.948E+00   -1.938E+00   -1.928E+00   -1.918E+00   -1.908E+00   -1.898E+00   -1.888E+00   -1.878E+00   -1.868E+00   -1.858E+00
    -1.848E+00   -1.838E+00   -1.828E+00   -1.818E+00   -1.808E+00   -1.798E+00   -1.788E+00   -1.778E+00   -1.768E+00   -1.758E+00
    -1.748E+00   -1.738E+00   -1.728E+00   -1.718E+00   -1.708E+00   -1.698E+00   -1.688E+00   -1.678E+00   -1.668E+00   -1.658E+00
    -1.648E+00   -1.638E+00   -1.628E+00   -1.618E+00   -1.608E+00   -1.598E+00   -1.588E+00   -1.578E+00   -1.568E+00   -1.558E+00
    -1.548E+00   -1.538E+00   -1.528E+00   -1.518E+00   -1.508E+00   -1.498E+00   -1.488E+00   -1.478E+00
 Ala      Conc. = 2.43E+03
