 LCModel (Version 6.3-1L) Copyright: S.W. Provencher.          Ref.: Magn. Reson. Med. 30:672-679 (1993).                
 Slice#2 Row#4 Col#7  PD_24_press_2_raw_act
 36 lines in following concentration table = NCONC+1
    Conc.  %SD /Cr+PCr  Metabolite                                         
  968.393  37%   0.385 Ala                                                 
    0.000 999%   0.000 Asp                                                 
    0.000 999%   0.000 Cr                                                  
 2.52E+03   7%   1.000 PCr                                                 
  150.482 212% 6.0E-02 GABA                                                
  171.518 186% 6.8E-02 Glc                                                 
 1.26E+03  57%   0.502 Gln                                                 
    0.000 999%   0.000 Glu                                                 
 1.32E+03   5%   0.524 GPC                                                 
    0.000 999%   0.000 PCh                                                 
  880.156  26%   0.350 GSH                                                 
 4.03E+03  20%   1.599 Ins                                                 
  224.985 178% 8.9E-02 Lac                                                 
 3.58E+03   5%   1.420 NAA                                                 
    0.000 999%   0.000 NAAG                                                
  300.475  25%   0.119 Scyllo                                              
  975.241  50%   0.387 Tau                                                 
 1.82E+03  17%   0.723 -CrCH2                                              
 1.32E+03   5%   0.524 GPC+PCh                                             
 3.58E+03   5%   1.420 NAA+NAAG                                            
 2.52E+03   7%   1.000 Cr+PCr                                              
 1.26E+03  57%   0.502 Glu+Gln                                             
   37.200 999% 1.5E-02 Lip13a                                              
    0.000 999%   0.000 Lip13b                                              
    0.000 999%   0.000 Lip09                                               
 2.05E+03  22%   0.814 MM09                                                
    1.058 999% 4.2E-04 Lip20                                               
 2.74E+03  31%   1.089 MM20                                                
  637.520  47%   0.253 MM12                                                
 2.80E+03  24%   1.114 MM14                                                
  985.166  54%   0.391 MM17                                                
   37.200 999% 1.5E-02 Lip13a+Lip13b                                       
 3.48E+03  26%   1.382 MM14+Lip13a+Lip13b+MM12                             
 2.05E+03  22%   0.814 MM09+Lip09                                          
 2.74E+03  31%   1.090 MM20+Lip20                                          
   6 lines in following misc. output table
  FWHM = 0.046 ppm    S/N =   6                                            
  Data shift = 0.023 ppm                                                   
  Ph: -51 deg     -16.7 deg/ppm                                            
  alphaB,S = 1.5E+00,   6.0E+01                                            
   14 spline knots.   Ns = 7(1)                                            
  (11) 5 infls.   (11) 1 extrs.                                            
  498 points on ppm-axis = NY
      4.000000     3.992357     3.984714     3.977070     3.969427     3.961784     3.954141     3.946497     3.938854     3.931211
      3.923568     3.915925     3.908281     3.900638     3.892995     3.885352     3.877708     3.870065     3.862422     3.854779
      3.847136     3.839492     3.831849     3.824206     3.816563     3.808919     3.801276     3.793633     3.785990     3.778347
      3.770703     3.763060     3.755417     3.747774     3.740130     3.732487     3.724844     3.717201     3.709558     3.701914
      3.694271     3.686628     3.678985     3.671341     3.663698     3.656055     3.648412     3.640769     3.633125     3.625482
      3.617839     3.610196     3.602552     3.594909     3.587266     3.579623     3.571980     3.564336     3.556693     3.549050
      3.541407     3.533763     3.526120     3.518477     3.510834     3.503191     3.495547     3.487904     3.480261     3.472618
      3.464974     3.457331     3.449688     3.442045     3.434402     3.426758     3.419115     3.411472     3.403829     3.396185
      3.388542     3.380899     3.373256     3.365613     3.357969     3.350326     3.342683     3.335040     3.327396     3.319753
      3.312110     3.304467     3.296824     3.289180     3.281537     3.273894     3.266251     3.258607     3.250964     3.243321
      3.235678     3.228034     3.220391     3.212748     3.205105     3.197462     3.189818     3.182175     3.174532     3.166889
      3.159245     3.151602     3.143959     3.136316     3.128673     3.121029     3.113386     3.105743     3.098100     3.090456
      3.082813     3.075170     3.067527     3.059884     3.052240     3.044597     3.036954     3.029311     3.021667     3.014024
      3.006381     2.998738     2.991095     2.983451     2.975808     2.968165     2.960522     2.952878     2.945235     2.937592
      2.929949     2.922306     2.914662     2.907019     2.899376     2.891733     2.884089     2.876446     2.868803     2.861160
      2.853517     2.845873     2.838230     2.830587     2.822944     2.815300     2.807657     2.800014     2.792371     2.784728
      2.777084     2.769441     2.761798     2.754155     2.746511     2.738868     2.731225     2.723582     2.715939     2.708295
      2.700652     2.693009     2.685366     2.677722     2.670079     2.662436     2.654793     2.647150     2.639506     2.631863
      2.624220     2.616577     2.608933     2.601290     2.593647     2.586004     2.578361     2.570717     2.563074     2.555431
      2.547788     2.540144     2.532501     2.524858     2.517215     2.509572     2.501928     2.494285     2.486642     2.478999
      2.471355     2.463712     2.456069     2.448426     2.440783     2.433139     2.425496     2.417853     2.410210     2.402566
      2.394923     2.387280     2.379637     2.371994     2.364350     2.356707     2.349064     2.341421     2.333777     2.326134
      2.318491     2.310848     2.303205     2.295561     2.287918     2.280275     2.272632     2.264988     2.257345     2.249702
      2.242059     2.234416     2.226772     2.219129     2.211486     2.203843     2.196199     2.188556     2.180913     2.173270
      2.165627     2.157983     2.150340     2.142697     2.135054     2.127410     2.119767     2.112124     2.104481     2.096838
      2.089194     2.081551     2.073908     2.066265     2.058621     2.050978     2.043335     2.035692     2.028049     2.020405
      2.012762     2.005119     1.997476     1.989833     1.982190     1.974546     1.966903     1.959260     1.951617     1.943974
      1.936331     1.928688     1.921045     1.913402     1.905759     1.898115     1.890472     1.882829     1.875186     1.867543
      1.859900     1.852257     1.844614     1.836971     1.829327     1.821684     1.814041     1.806398     1.798755     1.791112
      1.783469     1.775826     1.768183     1.760540     1.752896     1.745253     1.737610     1.729967     1.722324     1.714681
      1.707038     1.699395     1.691752     1.684108     1.676465     1.668822     1.661179     1.653536     1.645893     1.638250
      1.630607     1.622964     1.615321     1.607677     1.600034     1.592391     1.584748     1.577105     1.569462     1.561819
      1.554176     1.546533     1.538890     1.531246     1.523603     1.515960     1.508317     1.500674     1.493031     1.485388
      1.477745     1.470102     1.462458     1.454815     1.447172     1.439529     1.431886     1.424243     1.416600     1.408957
      1.401314     1.393671     1.386027     1.378384     1.370741     1.363098     1.355455     1.347812     1.340169     1.332526
      1.324883     1.317240     1.309596     1.301953     1.294310     1.286667     1.279024     1.271381     1.263738     1.256095
      1.248452     1.240808     1.233165     1.225522     1.217879     1.210236     1.202593     1.194950     1.187307     1.179664
      1.172021     1.164377     1.156734     1.149091     1.141448     1.133805     1.126162     1.118519     1.110876     1.103233
      1.095590     1.087946     1.080303     1.072660     1.065017     1.057374     1.049731     1.042088     1.034445     1.026802
      1.019158     1.011515     1.003872     0.996229     0.988586     0.980943     0.973300     0.965657     0.958014     0.950371
      0.942727     0.935084     0.927441     0.919798     0.912155     0.904512     0.896869     0.889226     0.881583     0.873940
      0.866296     0.858653     0.851010     0.843367     0.835724     0.828081     0.820438     0.812795     0.805152     0.797508
      0.789865     0.782222     0.774579     0.766936     0.759293     0.751650     0.744007     0.736364     0.728721     0.721077
      0.713434     0.705791     0.698148     0.690505     0.682862     0.675219     0.667576     0.659933     0.652290     0.644646
      0.637003     0.629360     0.621717     0.614074     0.606431     0.598788     0.591145     0.583502     0.575858     0.568215
      0.560572     0.552929     0.545286     0.537643     0.530000     0.522357     0.514714     0.507071     0.499427     0.491784
      0.484141     0.476498     0.468855     0.461212     0.453569     0.445925     0.438282     0.430639     0.422996     0.415353
      0.407710     0.400067     0.392424     0.384780     0.377137     0.369494     0.361851     0.354208     0.346565     0.338922
      0.331278     0.323635     0.315992     0.308349     0.300706     0.293063     0.285420     0.277777     0.270133     0.262490
      0.254847     0.247204     0.239561     0.231918     0.224275     0.216631     0.208988     0.201345
 NY phased data points follow
  -1.28656E+02 -1.25558E+02 -1.29874E+02 -1.10421E+02 -1.17864E+02 -1.01845E+02 -8.75784E+01 -1.06625E+02 -8.02335E+01 -8.87833E+01
  -7.63725E+01 -8.11835E+01 -7.92898E+01 -9.72581E+01 -8.83292E+01 -1.03509E+02 -9.38820E+01 -9.21798E+01 -9.54364E+01 -9.75643E+01
  -1.03032E+02 -9.33083E+01 -9.77815E+01 -1.07340E+02 -6.61925E+01 -8.89599E+01 -9.29629E+01 -8.27663E+01 -6.49347E+01 -8.41503E+01
  -6.16982E+01 -6.94156E+01 -5.68288E+01 -6.91845E+01 -7.29647E+01 -6.08958E+01 -6.04529E+01 -5.61429E+01 -6.70450E+01 -6.04174E+01
  -5.17339E+01 -6.73639E+01 -4.02285E+01 -6.44929E+01 -5.47900E+01 -3.25240E+01 -3.96967E+01 -5.08102E+01 -3.77068E+01 -2.48503E+01
  -3.77108E+01 -2.73358E+01 -2.26740E+01 -3.67911E+01 -3.95412E+01 -4.80163E+01 -4.38542E+01 -4.21723E+01 -4.85583E+01 -3.17739E+01
  -3.89103E+01 -4.94367E+01 -4.83874E+01 -3.76116E+01 -3.50678E+01 -5.30877E+01 -4.30779E+01 -4.06782E+01 -3.13723E+01 -3.86784E+01
  -3.19983E+01 -3.96627E+01 -2.49206E+01 -2.81998E+01 -4.19983E+01 -3.62108E+01 -4.01343E+01 -3.61771E+01 -2.87536E+01 -3.59838E+01
  -2.77195E+01 -2.57219E+01 -3.22300E+01 -2.25043E+01 -1.78731E+01 -3.78097E+01 -1.25202E+01 -1.82049E+01 -1.75099E+01 -2.56265E+01
  -1.72840E+01 -1.35966E+01 -1.33934E+01  8.22359E-01 -6.92960E+00  3.71500E+00  8.81833E-01  1.23200E+01  2.95687E+01  3.01958E+01
   5.69233E+01  9.55293E+01  9.47072E+01  9.36706E+01  8.09764E+01  5.84952E+01  2.17743E+01  3.61374E+01  3.07858E+01  1.39982E+00
   2.04396E+01 -3.40807E+00 -1.78576E+01 -1.48840E+00  5.21472E+00 -3.03108E+00 -1.06298E+01  2.61919E+00 -8.21754E+00 -4.56862E+00
  -7.28684E+00 -3.24952E+00  1.32625E+01  1.62129E+01  2.99922E+01  5.80750E+01  8.19303E+01  7.29593E+01  6.20155E+01  7.06688E+01
   5.15122E+01  4.96908E+01  2.83038E+01  1.95477E+01  1.11462E+01  1.96635E+01  6.12432E+00  1.28532E+01  6.09305E-01 -6.14657E+00
   1.89431E+01 -1.34990E+00  6.93704E+00  7.16126E+00  9.57599E+00  2.23110E-01  4.38554E+00  1.41439E+01 -4.47943E-01  1.39929E+01
   7.11937E+00  1.35537E+01  1.39229E+01  1.83641E+01  1.70374E+01  1.98016E+01  1.45176E+01  4.43688E+00  2.58714E+01  4.31250E+00
  -7.57318E+00 -1.21696E+00  3.13335E+00  4.02109E+00  5.08615E+00  2.99185E+00  4.45255E+00  3.65496E+00  7.24339E-01 -4.68061E+00
  -2.88816E+00 -6.58105E+00 -3.77177E+00 -2.50764E+00 -9.23325E-01 -6.21479E+00 -1.39528E+01 -7.91501E+00 -1.01237E+00 -1.03762E+01
  -1.40826E+01  5.87828E+00 -3.86881E+00  4.96904E+00  9.15860E+00 -1.37217E-02  7.91642E+00 -6.61433E+00  1.76399E+01  1.56151E+01
   2.57440E+01  1.45576E+01  2.61776E+01  2.32251E+01  1.60896E+01  2.32543E+01  1.45133E+00  1.04207E+01  7.83359E-01  8.31758E+00
   1.60108E+01  2.94978E+01  2.65930E+01  2.53968E+01  2.67697E+01  2.05071E+01  2.38814E+01  2.88668E+01  7.80060E+00  1.98831E+01
   2.24573E+01  2.71278E+01  3.19292E+01  2.65449E+01  3.25672E+01  4.66809E+01  3.18904E+01  3.12225E+01  3.78451E+01  3.58609E+01
   3.11719E+01  4.42186E+01  2.98466E+01  3.39620E+01  4.66370E+01  3.03386E+01  4.95750E+01  2.93296E+01  2.43068E+01  2.89268E+01
   3.45275E+01  4.23126E+01  2.59837E+01  3.00792E+01  4.28735E+01  2.74619E+01  4.49028E+01  2.69445E+01  3.14881E+01  3.22280E+01
   3.57885E+01  1.55869E+01  1.98194E+01  2.62557E+01  2.85035E+01  3.57562E+01  3.86632E+01  5.12598E+01  2.68555E+01  4.12263E+01
   5.31763E+01  3.79015E+01  5.74402E+01  7.63077E+01  6.30064E+01  6.97349E+01  5.93754E+01  1.04084E+02  1.18675E+02  1.52400E+02
   1.68792E+02  1.50629E+02  1.36521E+02  9.22598E+01  9.22122E+01  8.87449E+01  7.16359E+01  6.88992E+01  6.33525E+01  4.30546E+01
   4.57021E+01  5.68137E+01  3.42373E+01  1.99149E+01  3.00866E+01  3.71795E+01  4.39891E+01  3.58492E+01  4.21950E+01  4.35738E+01
   5.82476E+01  5.48805E+01  3.77407E+01  4.16774E+01  3.80740E+01  1.70427E+01  4.55274E+01  4.39296E+01  4.40116E+01  4.63750E+01
   4.06684E+01  4.89664E+01  4.29968E+01  5.05637E+01  5.39296E+01  4.19643E+01  4.51860E+01  3.89368E+01  4.21302E+01  3.30944E+01
   3.85302E+01  3.06301E+01  3.45331E+01  4.32228E+01  5.12698E+01  5.25714E+01  4.89090E+01  6.75196E+01  4.71540E+01  3.93238E+01
   5.14861E+01  5.86854E+01  6.40210E+01  5.13093E+01  3.67317E+01  5.92031E+01  6.33592E+01  6.55684E+01  5.29624E+01  4.94017E+01
   6.05190E+01  4.51497E+01  4.90684E+01  7.19328E+01  6.63309E+01  6.96826E+01  5.48452E+01  5.06709E+01  5.24379E+01  5.53246E+01
   4.52764E+01  4.85589E+01  5.46422E+01  6.35314E+01  5.56879E+01  5.35543E+01  6.57758E+01  5.70883E+01  5.35919E+01  5.18998E+01
   7.68010E+01  7.75287E+01  8.06880E+01  7.97324E+01  5.43765E+01  4.37399E+01  4.49392E+01  6.07778E+01  5.09541E+01  6.23023E+01
   6.28194E+01  5.18674E+01  4.64545E+01  5.81287E+01  3.89549E+01  4.89081E+01  3.69894E+01  7.25325E+01  4.90304E+01  4.88599E+01
   6.53595E+01  5.08074E+01  5.87799E+01  4.24309E+01  4.71406E+01  5.25070E+01  4.96561E+01  5.23102E+01  4.82686E+01  5.09887E+01
   7.01546E+01  5.80574E+01  4.85597E+01  4.93080E+01  4.78922E+01  5.03091E+01  6.44223E+01  6.00555E+01  5.36948E+01  4.80903E+01
   4.42217E+01  5.35957E+01  4.23474E+01  4.56315E+01  5.82754E+01  3.98587E+01  4.67711E+01  4.43948E+01  6.37057E+01  3.70830E+01
   5.92370E+01  5.40410E+01  5.30097E+01  2.70827E+01  5.28132E+01  5.88903E+01  5.85437E+01  3.80813E+01  6.43527E+01  4.57340E+01
   4.86983E+01  5.45047E+01  6.73430E+01  4.96799E+01  7.48337E+01  7.37394E+01  4.02191E+01  5.50881E+01  6.67036E+01  7.81120E+01
   6.04060E+01  7.36742E+01  4.71895E+01  6.93311E+01  5.48223E+01  7.22699E+01  6.14546E+01  7.60538E+01  7.07419E+01  5.34807E+01
   6.21427E+01  7.02087E+01  6.61523E+01  5.78890E+01  6.71189E+01  5.95315E+01  5.10541E+01  6.14816E+01  5.62144E+01  5.90531E+01
   5.98973E+01  4.99292E+01  6.07489E+01  4.66290E+01  2.91671E+01  5.00844E+01  4.95971E+01  4.89632E+01  5.23034E+01  6.40741E+01
   4.14231E+01  4.10176E+01  4.10700E+01  5.29350E+01  3.53577E+01  5.78783E+01  4.28224E+01  6.08123E+01  5.49687E+01  6.54733E+01
   4.48318E+01  5.09469E+01  4.52581E+01  4.34594E+01  6.30116E+01  4.15402E+01  4.63525E+01  5.36850E+01  4.32966E+01  5.56643E+01
   4.18985E+01  6.95532E+01  4.91341E+01  4.51152E+01  4.49404E+01  5.82217E+01  5.65437E+01  6.69406E+01  4.88151E+01  4.60760E+01
   5.61410E+01  6.26304E+01  5.63113E+01  5.05786E+01  5.42331E+01  4.36701E+01  5.71706E+01  5.47861E+01  4.92340E+01  5.18250E+01
   4.27391E+01  3.90858E+01  4.09585E+01  4.23625E+01  3.36123E+01  5.60231E+01  5.92937E+01  5.25486E+01  5.32498E+01  5.12618E+01
   5.81748E+01  6.22944E+01  5.76244E+01  4.00777E+01  4.87642E+01  5.63493E+01  4.20020E+01  3.48147E+01
 NY points of the fit to the data follow
  -1.08508E+02 -1.09324E+02 -1.08914E+02 -1.06138E+02 -1.03869E+02 -1.02034E+02 -9.94058E+01 -9.50124E+01 -8.92533E+01 -8.42248E+01
  -8.16682E+01 -8.17498E+01 -8.36029E+01 -8.56116E+01 -8.63954E+01 -8.63638E+01 -8.64150E+01 -8.75308E+01 -8.92846E+01 -8.95319E+01
  -8.92091E+01 -8.85696E+01 -8.78475E+01 -8.64875E+01 -8.52056E+01 -8.44624E+01 -8.27307E+01 -7.86646E+01 -7.24538E+01 -6.59486E+01
  -6.12772E+01 -5.92400E+01 -5.96945E+01 -6.17583E+01 -6.31471E+01 -6.28400E+01 -6.20842E+01 -6.27342E+01 -6.49830E+01 -6.66504E+01
  -6.62314E+01 -6.40774E+01 -6.09673E+01 -5.70096E+01 -5.17320E+01 -4.53483E+01 -3.93222E+01 -3.55726E+01 -3.54989E+01 -3.90049E+01
  -4.42264E+01 -4.86558E+01 -5.06997E+01 -5.11204E+01 -5.13730E+01 -5.18254E+01 -5.16941E+01 -4.99182E+01 -4.68545E+01 -4.38410E+01
  -4.18723E+01 -4.14947E+01 -4.22872E+01 -4.34506E+01 -4.40238E+01 -4.32866E+01 -4.18765E+01 -4.06798E+01 -3.93794E+01 -3.76478E+01
  -3.58132E+01 -3.39550E+01 -3.22102E+01 -3.06842E+01 -2.96630E+01 -2.93529E+01 -2.97024E+01 -3.06224E+01 -3.14803E+01 -3.14390E+01
  -3.00117E+01 -2.84370E+01 -2.70651E+01 -2.52536E+01 -2.27170E+01 -2.01817E+01 -1.91815E+01 -2.01209E+01 -2.20975E+01 -2.39155E+01
  -2.48237E+01 -2.45825E+01 -2.38148E+01 -2.33973E+01 -2.21392E+01 -1.45633E+01 -2.17459E+00  7.50465E+00  1.88300E+01  3.80704E+01
   6.41702E+01  8.79619E+01  9.88618E+01  9.39177E+01  7.74251E+01  5.72710E+01  4.14430E+01  3.19799E+01  2.46517E+01  1.49774E+01
   2.32209E+00 -6.95237E+00 -9.68397E+00 -1.05233E+01 -1.08675E+01 -1.09616E+01 -1.09903E+01 -1.08436E+01 -1.03811E+01 -8.71150E+00
  -2.46725E+00  5.64134E+00  1.18325E+01  2.01975E+01  3.46078E+01  5.34275E+01  6.97223E+01  7.66308E+01  7.25797E+01  6.09831E+01
   4.76890E+01  3.79531E+01  3.21739E+01  2.67514E+01  1.87480E+01  8.60344E+00  1.66819E+00 -2.36178E-01  8.62089E-02  1.44972E+00
   2.97545E+00  4.03723E+00  4.54208E+00  4.82410E+00  4.98005E+00  5.07738E+00  5.22793E+00  5.29263E+00  5.15506E+00  4.93644E+00
   4.68375E+00  4.58690E+00  4.61574E+00  4.71449E+00  4.72024E+00  4.80649E+00  5.05450E+00  5.26766E+00  5.32941E+00  4.99861E+00
   4.58829E+00  4.72166E+00  5.51928E+00  6.57697E+00  7.26108E+00  7.21794E+00  6.65743E+00  6.00817E+00  5.61099E+00  5.48490E+00
   5.36871E+00  5.28993E+00  4.97970E+00  4.35080E+00  3.73434E+00  3.60797E+00  4.19918E+00  5.14362E+00  5.82771E+00  5.97670E+00
   5.73126E+00  5.73072E+00  6.30753E+00  7.16032E+00  7.99519E+00  8.72896E+00  9.75003E+00  1.16287E+01  1.43555E+01  1.72622E+01
   1.93953E+01  2.00320E+01  1.97144E+01  1.91620E+01  1.85933E+01  1.79992E+01  1.74598E+01  1.75508E+01  1.85607E+01  2.02967E+01
   2.25193E+01  2.48474E+01  2.65462E+01  2.69820E+01  2.66893E+01  2.57706E+01  2.38762E+01  2.12570E+01  1.89718E+01  1.77890E+01
   1.77586E+01  1.84543E+01  1.95705E+01  2.09565E+01  2.23879E+01  2.38999E+01  2.55670E+01  2.72369E+01  2.86225E+01  2.94363E+01
   3.01310E+01  3.09771E+01  3.16553E+01  3.20713E+01  3.22000E+01  3.20480E+01  3.18933E+01  3.17474E+01  3.13212E+01  3.05617E+01
   3.01671E+01  3.04988E+01  3.11496E+01  3.19873E+01  3.32981E+01  3.49150E+01  3.64168E+01  3.76092E+01  3.83463E+01  3.84722E+01
   3.77220E+01  3.63364E+01  3.51629E+01  3.48407E+01  3.53645E+01  3.62366E+01  3.73258E+01  3.86296E+01  3.99491E+01  4.12246E+01
   4.26593E+01  4.42715E+01  4.67279E+01  5.45375E+01  6.57455E+01  7.36525E+01  8.33801E+01  1.01175E+02  1.25750E+02  1.47767E+02
   1.56897E+02  1.50416E+02  1.32852E+02  1.11912E+02  9.55433E+01  8.57577E+01  7.80882E+01  6.82334E+01  5.54532E+01  4.59647E+01
   4.31537E+01  4.22098E+01  4.17085E+01  4.14108E+01  4.12207E+01  4.10777E+01  4.09484E+01  4.08201E+01  4.06919E+01  4.05619E+01
   4.04497E+01  4.03739E+01  4.03475E+01  4.03787E+01  4.04628E+01  4.05985E+01  4.07864E+01  4.10062E+01  4.12464E+01  4.15109E+01
   4.18015E+01  4.21152E+01  4.24502E+01  4.28025E+01  4.31769E+01  4.35785E+01  4.40055E+01  4.44518E+01  4.49148E+01  4.53900E+01
   4.58694E+01  4.63456E+01  4.68166E+01  4.72755E+01  4.77184E+01  4.81407E+01  4.85404E+01  4.89165E+01  4.92720E+01  4.96104E+01
   4.99379E+01  5.02605E+01  5.05885E+01  5.09335E+01  5.13119E+01  5.17419E+01  5.22484E+01  5.28673E+01  5.36683E+01  5.48201E+01
   5.64919E+01  5.77445E+01  5.85051E+01  5.96634E+01  6.10994E+01  6.16868E+01  6.02229E+01  5.66240E+01  5.27597E+01  4.99639E+01
   4.81357E+01  4.76676E+01  4.88664E+01  5.16505E+01  5.54220E+01  5.92183E+01  6.25611E+01  6.44888E+01  6.47255E+01  6.43682E+01
   6.43125E+01  6.43407E+01  6.38324E+01  6.25296E+01  6.10936E+01  6.00184E+01  5.87702E+01  5.71345E+01  5.54772E+01  5.40376E+01
   5.28523E+01  5.21053E+01  5.18973E+01  5.21355E+01  5.25916E+01  5.30155E+01  5.33480E+01  5.34724E+01  5.33009E+01  5.30650E+01
   5.29186E+01  5.28176E+01  5.26363E+01  5.22823E+01  5.19361E+01  5.17109E+01  5.15441E+01  5.14042E+01  5.12793E+01  5.11631E+01
   5.10535E+01  5.09489E+01  5.08497E+01  5.07557E+01  5.06692E+01  5.05912E+01  5.05248E+01  5.04712E+01  5.04330E+01  5.04117E+01
   5.04105E+01  5.04313E+01  5.04774E+01  5.05505E+01  5.06537E+01  5.07893E+01  5.09616E+01  5.11733E+01  5.14287E+01  5.17305E+01
   5.20830E+01  5.24891E+01  5.29529E+01  5.34761E+01  5.40606E+01  5.47055E+01  5.54095E+01  5.61682E+01  5.69761E+01  5.78233E+01
   5.86986E+01  5.95865E+01  6.04708E+01  6.13321E+01  6.21510E+01  6.29056E+01  6.35759E+01  6.41419E+01  6.45876E+01  6.48987E+01
   6.50664E+01  6.50845E+01  6.49534E+01  6.46770E+01  6.42657E+01  6.37321E+01  6.30937E+01  6.23686E+01  6.15782E+01  6.07429E+01
   5.98843E+01  5.90209E+01  5.81705E+01  5.73468E+01  5.65626E+01  5.58265E+01  5.51456E+01  5.45227E+01  5.39600E+01  5.34559E+01
   5.30093E+01  5.26165E+01  5.22744E+01  5.19776E+01  5.17221E+01  5.15027E+01  5.13158E+01  5.11567E+01  5.10225E+01  5.09088E+01
   5.08133E+01  5.07326E+01  5.06656E+01  5.06097E+01  5.05637E+01  5.05255E+01  5.04944E+01  5.04690E+01  5.04493E+01  5.04338E+01
   5.04225E+01  5.04139E+01  5.04085E+01  5.04052E+01  5.04047E+01  5.04058E+01  5.04089E+01  5.04129E+01  5.04185E+01  5.04250E+01
   5.04331E+01  5.04418E+01  5.04514E+01  5.04613E+01  5.04722E+01  5.04834E+01  5.04957E+01  5.05079E+01  5.05208E+01  5.05336E+01
   5.05471E+01  5.05608E+01  5.05752E+01  5.05892E+01  5.06037E+01  5.06181E+01  5.06332E+01  5.06482E+01  5.06637E+01  5.06788E+01
   5.06943E+01  5.07098E+01  5.07259E+01  5.07418E+01  5.07582E+01  5.07742E+01  5.07907E+01  5.08071E+01  5.08242E+01  5.08412E+01
   5.08585E+01  5.08756E+01  5.08933E+01  5.09111E+01  5.09297E+01  5.09481E+01  5.09671E+01  5.09860E+01
 NY background values follow
    -1.194E+02   -1.183E+02   -1.173E+02   -1.162E+02   -1.152E+02   -1.141E+02   -1.131E+02   -1.120E+02   -1.110E+02   -1.099E+02
    -1.089E+02   -1.078E+02   -1.068E+02   -1.057E+02   -1.047E+02   -1.036E+02   -1.026E+02   -1.015E+02   -1.005E+02   -9.942E+01
    -9.837E+01   -9.733E+01   -9.628E+01   -9.524E+01   -9.420E+01   -9.316E+01   -9.212E+01   -9.109E+01   -9.006E+01   -8.902E+01
    -8.800E+01   -8.697E+01   -8.594E+01   -8.492E+01   -8.390E+01   -8.289E+01   -8.187E+01   -8.086E+01   -7.985E+01   -7.885E+01
    -7.785E+01   -7.685E+01   -7.585E+01   -7.486E+01   -7.388E+01   -7.289E+01   -7.191E+01   -7.093E+01   -6.996E+01   -6.899E+01
    -6.803E+01   -6.707E+01   -6.611E+01   -6.516E+01   -6.421E+01   -6.327E+01   -6.233E+01   -6.139E+01   -6.046E+01   -5.954E+01
    -5.862E+01   -5.770E+01   -5.679E+01   -5.588E+01   -5.498E+01   -5.408E+01   -5.319E+01   -5.230E+01   -5.142E+01   -5.054E+01
    -4.967E+01   -4.881E+01   -4.794E+01   -4.709E+01   -4.624E+01   -4.539E+01   -4.455E+01   -4.372E+01   -4.289E+01   -4.207E+01
    -4.125E+01   -4.044E+01   -3.963E+01   -3.883E+01   -3.804E+01   -3.725E+01   -3.647E+01   -3.570E+01   -3.493E+01   -3.416E+01
    -3.341E+01   -3.266E+01   -3.191E+01   -3.118E+01   -3.045E+01   -2.972E+01   -2.900E+01   -2.829E+01   -2.759E+01   -2.689E+01
    -2.619E+01   -2.551E+01   -2.483E+01   -2.415E+01   -2.348E+01   -2.282E+01   -2.216E+01   -2.151E+01   -2.087E+01   -2.023E+01
    -1.960E+01   -1.897E+01   -1.835E+01   -1.774E+01   -1.713E+01   -1.653E+01   -1.593E+01   -1.534E+01   -1.476E+01   -1.418E+01
    -1.360E+01   -1.304E+01   -1.247E+01   -1.192E+01   -1.137E+01   -1.082E+01   -1.029E+01   -9.753E+00   -9.226E+00   -8.704E+00
    -8.188E+00   -7.678E+00   -7.173E+00   -6.674E+00   -6.180E+00   -5.692E+00   -5.209E+00   -4.732E+00   -4.260E+00   -3.793E+00
    -3.331E+00   -2.875E+00   -2.423E+00   -1.977E+00   -1.535E+00   -1.098E+00   -6.655E-01   -2.376E-01    1.858E-01    6.048E-01
     1.020E+00    1.430E+00    1.837E+00    2.239E+00    2.638E+00    3.032E+00    3.423E+00    3.810E+00    4.194E+00    4.574E+00
     4.951E+00    5.325E+00    5.695E+00    6.062E+00    6.426E+00    6.787E+00    7.146E+00    7.501E+00    7.854E+00    8.204E+00
     8.552E+00    8.897E+00    9.240E+00    9.581E+00    9.920E+00    1.026E+01    1.059E+01    1.092E+01    1.125E+01    1.158E+01
     1.191E+01    1.224E+01    1.256E+01    1.289E+01    1.321E+01    1.353E+01    1.385E+01    1.416E+01    1.448E+01    1.479E+01
     1.511E+01    1.542E+01    1.573E+01    1.603E+01    1.634E+01    1.664E+01    1.695E+01    1.725E+01    1.755E+01    1.784E+01
     1.814E+01    1.844E+01    1.873E+01    1.902E+01    1.931E+01    1.960E+01    1.988E+01    2.016E+01    2.045E+01    2.073E+01
     2.101E+01    2.128E+01    2.156E+01    2.183E+01    2.210E+01    2.237E+01    2.264E+01    2.290E+01    2.316E+01    2.342E+01
     2.368E+01    2.394E+01    2.420E+01    2.445E+01    2.470E+01    2.495E+01    2.520E+01    2.544E+01    2.569E+01    2.593E+01
     2.617E+01    2.640E+01    2.664E+01    2.687E+01    2.710E+01    2.733E+01    2.756E+01    2.779E+01    2.801E+01    2.823E+01
     2.845E+01    2.867E+01    2.889E+01    2.910E+01    2.932E+01    2.953E+01    2.974E+01    2.995E+01    3.015E+01    3.036E+01
     3.056E+01    3.077E+01    3.097E+01    3.117E+01    3.137E+01    3.156E+01    3.176E+01    3.195E+01    3.214E+01    3.234E+01
     3.253E+01    3.271E+01    3.290E+01    3.309E+01    3.327E+01    3.346E+01    3.364E+01    3.382E+01    3.400E+01    3.418E+01
     3.436E+01    3.454E+01    3.471E+01    3.489E+01    3.506E+01    3.523E+01    3.541E+01    3.558E+01    3.575E+01    3.592E+01
     3.608E+01    3.625E+01    3.642E+01    3.658E+01    3.674E+01    3.691E+01    3.707E+01    3.723E+01    3.738E+01    3.754E+01
     3.770E+01    3.785E+01    3.801E+01    3.816E+01    3.831E+01    3.846E+01    3.861E+01    3.876E+01    3.890E+01    3.905E+01
     3.919E+01    3.933E+01    3.947E+01    3.961E+01    3.975E+01    3.989E+01    4.002E+01    4.016E+01    4.029E+01    4.042E+01
     4.055E+01    4.068E+01    4.081E+01    4.094E+01    4.106E+01    4.118E+01    4.130E+01    4.142E+01    4.154E+01    4.166E+01
     4.178E+01    4.189E+01    4.200E+01    4.212E+01    4.223E+01    4.233E+01    4.244E+01    4.255E+01    4.265E+01    4.276E+01
     4.286E+01    4.296E+01    4.306E+01    4.316E+01    4.326E+01    4.335E+01    4.345E+01    4.354E+01    4.363E+01    4.373E+01
     4.382E+01    4.391E+01    4.400E+01    4.408E+01    4.417E+01    4.425E+01    4.434E+01    4.442E+01    4.450E+01    4.458E+01
     4.466E+01    4.474E+01    4.482E+01    4.490E+01    4.498E+01    4.505E+01    4.513E+01    4.520E+01    4.527E+01    4.535E+01
     4.542E+01    4.549E+01    4.556E+01    4.563E+01    4.570E+01    4.576E+01    4.583E+01    4.590E+01    4.596E+01    4.603E+01
     4.609E+01    4.615E+01    4.622E+01    4.628E+01    4.634E+01    4.640E+01    4.646E+01    4.652E+01    4.658E+01    4.664E+01
     4.670E+01    4.676E+01    4.681E+01    4.687E+01    4.693E+01    4.698E+01    4.704E+01    4.709E+01    4.715E+01    4.720E+01
     4.725E+01    4.731E+01    4.736E+01    4.741E+01    4.746E+01    4.751E+01    4.756E+01    4.762E+01    4.767E+01    4.772E+01
     4.777E+01    4.782E+01    4.787E+01    4.792E+01    4.796E+01    4.801E+01    4.806E+01    4.811E+01    4.816E+01    4.821E+01
     4.825E+01    4.830E+01    4.835E+01    4.840E+01    4.844E+01    4.849E+01    4.854E+01    4.858E+01    4.863E+01    4.867E+01
     4.872E+01    4.877E+01    4.881E+01    4.885E+01    4.890E+01    4.894E+01    4.899E+01    4.903E+01    4.907E+01    4.912E+01
     4.916E+01    4.920E+01    4.924E+01    4.928E+01    4.932E+01    4.936E+01    4.940E+01    4.944E+01    4.948E+01    4.952E+01
     4.956E+01    4.960E+01    4.964E+01    4.967E+01    4.971E+01    4.975E+01    4.978E+01    4.982E+01    4.985E+01    4.989E+01
     4.992E+01    4.995E+01    4.999E+01    5.002E+01    5.005E+01    5.008E+01    5.011E+01    5.014E+01    5.017E+01    5.020E+01
     5.023E+01    5.026E+01    5.029E+01    5.032E+01    5.034E+01    5.037E+01    5.040E+01    5.042E+01    5.045E+01    5.047E+01
     5.050E+01    5.052E+01    5.055E+01    5.057E+01    5.060E+01    5.062E+01    5.064E+01    5.067E+01    5.069E+01    5.071E+01
     5.074E+01    5.076E+01    5.078E+01    5.080E+01    5.082E+01    5.084E+01    5.087E+01    5.089E+01    5.091E+01    5.093E+01
     5.095E+01    5.097E+01    5.099E+01    5.101E+01    5.103E+01    5.105E+01    5.107E+01    5.109E+01
 Ala      Conc. = 9.68E+02
