 LCModel (Version 6.3-1L) Copyright: S.W. Provencher.          Ref.: Magn. Reson. Med. 30:672-679 (1993).                
 Slice#3 Row#3 Col#2  PD_24_press_2_raw_act
 36 lines in following concentration table = NCONC+1
    Conc.  %SD /Cr+PCr  Metabolite                                         
   71.571 114%   0.342 Ala                                                 
   54.290 128%   0.259 Asp                                                 
  209.531  28%   1.000 Cr                                                  
    0.000 999%   0.000 PCr                                                 
   24.820 166%   0.118 GABA                                                
   36.510 115%   0.174 Glc                                                 
    0.000 999%   0.000 Gln                                                 
  434.891  44%   2.076 Glu                                                 
    0.000 999%   0.000 GPC                                                 
  106.238  23%   0.507 PCh                                                 
  153.314  45%   0.732 GSH                                                 
  571.595  41%   2.728 Ins                                                 
   29.054 297%   0.139 Lac                                                 
  151.804  40%   0.724 NAA                                                 
  210.035  34%   1.002 NAAG                                                
   17.842  72% 8.5E-02 Scyllo                                              
   68.089 101%   0.325 Tau                                                 
  143.193  48%   0.683 -CrCH2                                              
  106.238  23%   0.507 GPC+PCh                                             
  361.839  24%   1.727 NAA+NAAG                                            
  209.531  28%   1.000 Cr+PCr                                              
  434.891  44%   2.076 Glu+Gln                                             
 5.08E+03  18%  24.236 Lip13a                                              
    0.000 999%   0.000 Lip13b                                              
 1.10E+03  47%   5.268 Lip09                                               
  382.157  99%   1.824 MM09                                                
  589.146  66%   2.812 Lip20                                               
   52.572 999%   0.251 MM20                                                
  161.262 132%   0.770 MM12                                                
 1.54E+03  23%   7.365 MM14                                                
 1.85E+03  16%   8.829 MM17                                                
 5.08E+03  18%  24.236 Lip13a+Lip13b                                       
 6.78E+03  12%  32.370 MM14+Lip13a+Lip13b+MM12                             
 1.49E+03  24%   7.092 MM09+Lip09                                          
  641.718  85%   3.063 MM20+Lip20                                          
   6 lines in following misc. output table
  FWHM = 0.054 ppm    S/N =   2                                            
  Data shift =-0.023 ppm                                                   
  Ph: -79 deg      50.3 deg/ppm                                            
  alphaB,S = 4.3E-01,   5.7E+00                                            
   14 spline knots.   Ns = 5(1)                                            
   2 inflections.     1 extrema                                            
  498 points on ppm-axis = NY
      4.000000     3.992357     3.984714     3.977070     3.969427     3.961784     3.954141     3.946497     3.938854     3.931211
      3.923568     3.915925     3.908281     3.900638     3.892995     3.885352     3.877708     3.870065     3.862422     3.854779
      3.847136     3.839492     3.831849     3.824206     3.816563     3.808919     3.801276     3.793633     3.785990     3.778347
      3.770703     3.763060     3.755417     3.747774     3.740130     3.732487     3.724844     3.717201     3.709558     3.701914
      3.694271     3.686628     3.678985     3.671341     3.663698     3.656055     3.648412     3.640769     3.633125     3.625482
      3.617839     3.610196     3.602552     3.594909     3.587266     3.579623     3.571980     3.564336     3.556693     3.549050
      3.541407     3.533763     3.526120     3.518477     3.510834     3.503191     3.495547     3.487904     3.480261     3.472618
      3.464974     3.457331     3.449688     3.442045     3.434402     3.426758     3.419115     3.411472     3.403829     3.396185
      3.388542     3.380899     3.373256     3.365613     3.357969     3.350326     3.342683     3.335040     3.327396     3.319753
      3.312110     3.304467     3.296824     3.289180     3.281537     3.273894     3.266251     3.258607     3.250964     3.243321
      3.235678     3.228034     3.220391     3.212748     3.205105     3.197462     3.189818     3.182175     3.174532     3.166889
      3.159245     3.151602     3.143959     3.136316     3.128673     3.121029     3.113386     3.105743     3.098100     3.090456
      3.082813     3.075170     3.067527     3.059884     3.052240     3.044597     3.036954     3.029311     3.021667     3.014024
      3.006381     2.998738     2.991095     2.983451     2.975808     2.968165     2.960522     2.952878     2.945235     2.937592
      2.929949     2.922306     2.914662     2.907019     2.899376     2.891733     2.884089     2.876446     2.868803     2.861160
      2.853517     2.845873     2.838230     2.830587     2.822944     2.815300     2.807657     2.800014     2.792371     2.784728
      2.777084     2.769441     2.761798     2.754155     2.746511     2.738868     2.731225     2.723582     2.715939     2.708295
      2.700652     2.693009     2.685366     2.677722     2.670079     2.662436     2.654793     2.647150     2.639506     2.631863
      2.624220     2.616577     2.608933     2.601290     2.593647     2.586004     2.578361     2.570717     2.563074     2.555431
      2.547788     2.540144     2.532501     2.524858     2.517215     2.509572     2.501928     2.494285     2.486642     2.478999
      2.471355     2.463712     2.456069     2.448426     2.440783     2.433139     2.425496     2.417853     2.410210     2.402566
      2.394923     2.387280     2.379637     2.371994     2.364350     2.356707     2.349064     2.341421     2.333777     2.326134
      2.318491     2.310848     2.303205     2.295561     2.287918     2.280275     2.272632     2.264988     2.257345     2.249702
      2.242059     2.234416     2.226772     2.219129     2.211486     2.203843     2.196199     2.188556     2.180913     2.173270
      2.165627     2.157983     2.150340     2.142697     2.135054     2.127410     2.119767     2.112124     2.104481     2.096838
      2.089194     2.081551     2.073908     2.066265     2.058621     2.050978     2.043335     2.035692     2.028049     2.020405
      2.012762     2.005119     1.997476     1.989833     1.982190     1.974546     1.966903     1.959260     1.951617     1.943974
      1.936331     1.928688     1.921045     1.913402     1.905759     1.898115     1.890472     1.882829     1.875186     1.867543
      1.859900     1.852257     1.844614     1.836971     1.829327     1.821684     1.814041     1.806398     1.798755     1.791112
      1.783469     1.775826     1.768183     1.760540     1.752896     1.745253     1.737610     1.729967     1.722324     1.714681
      1.707038     1.699395     1.691752     1.684108     1.676465     1.668822     1.661179     1.653536     1.645893     1.638250
      1.630607     1.622964     1.615321     1.607677     1.600034     1.592391     1.584748     1.577105     1.569462     1.561819
      1.554176     1.546533     1.538890     1.531246     1.523603     1.515960     1.508317     1.500674     1.493031     1.485388
      1.477745     1.470102     1.462458     1.454815     1.447172     1.439529     1.431886     1.424243     1.416600     1.408957
      1.401314     1.393671     1.386027     1.378384     1.370741     1.363098     1.355455     1.347812     1.340169     1.332526
      1.324883     1.317240     1.309596     1.301953     1.294310     1.286667     1.279024     1.271381     1.263738     1.256095
      1.248452     1.240808     1.233165     1.225522     1.217879     1.210236     1.202593     1.194950     1.187307     1.179664
      1.172021     1.164377     1.156734     1.149091     1.141448     1.133805     1.126162     1.118519     1.110876     1.103233
      1.095590     1.087946     1.080303     1.072660     1.065017     1.057374     1.049731     1.042088     1.034445     1.026802
      1.019158     1.011515     1.003872     0.996229     0.988586     0.980943     0.973300     0.965657     0.958014     0.950371
      0.942727     0.935084     0.927441     0.919798     0.912155     0.904512     0.896869     0.889226     0.881583     0.873940
      0.866296     0.858653     0.851010     0.843367     0.835724     0.828081     0.820438     0.812795     0.805152     0.797508
      0.789865     0.782222     0.774579     0.766936     0.759293     0.751650     0.744007     0.736364     0.728721     0.721077
      0.713434     0.705791     0.698148     0.690505     0.682862     0.675219     0.667576     0.659933     0.652290     0.644646
      0.637003     0.629360     0.621717     0.614074     0.606431     0.598788     0.591145     0.583502     0.575858     0.568215
      0.560572     0.552929     0.545286     0.537643     0.530000     0.522357     0.514714     0.507071     0.499427     0.491784
      0.484141     0.476498     0.468855     0.461212     0.453569     0.445925     0.438282     0.430639     0.422996     0.415353
      0.407710     0.400067     0.392424     0.384780     0.377137     0.369494     0.361851     0.354208     0.346565     0.338922
      0.331278     0.323635     0.315992     0.308349     0.300706     0.293063     0.285420     0.277777     0.270133     0.262490
      0.254847     0.247204     0.239561     0.231918     0.224275     0.216631     0.208988     0.201345
 NY phased data points follow
  -1.33009E+02 -1.40170E+02 -1.29734E+02 -1.26903E+02 -1.27317E+02 -1.23669E+02 -1.15514E+02 -1.12590E+02 -1.10505E+02 -1.13692E+02
  -9.91994E+01 -9.32653E+01 -1.04837E+02 -1.00670E+02 -1.03708E+02 -1.07815E+02 -1.10613E+02 -1.02901E+02 -9.61154E+01 -1.00135E+02
  -1.02436E+02 -9.49352E+01 -9.61713E+01 -9.05774E+01 -9.35582E+01 -9.29454E+01 -9.24634E+01 -8.29019E+01 -8.11661E+01 -7.30165E+01
  -8.28298E+01 -7.79087E+01 -7.86855E+01 -7.29666E+01 -8.38610E+01 -7.50020E+01 -7.83135E+01 -7.97206E+01 -7.46056E+01 -8.59526E+01
  -7.63341E+01 -7.22614E+01 -6.26479E+01 -7.13516E+01 -6.53429E+01 -6.75656E+01 -6.71831E+01 -6.70470E+01 -6.63576E+01 -6.24178E+01
  -7.10261E+01 -5.76867E+01 -6.09503E+01 -6.70986E+01 -6.04585E+01 -6.15643E+01 -5.88965E+01 -5.18674E+01 -5.69590E+01 -5.20416E+01
  -6.21886E+01 -5.03509E+01 -6.22724E+01 -4.93255E+01 -5.76731E+01 -6.58687E+01 -4.99643E+01 -5.18015E+01 -5.96556E+01 -4.64042E+01
  -5.36947E+01 -5.12231E+01 -5.41797E+01 -4.41555E+01 -4.85696E+01 -4.55687E+01 -4.23105E+01 -4.09050E+01 -4.67667E+01 -4.28163E+01
  -4.87705E+01 -4.48764E+01 -4.28461E+01 -4.40856E+01 -4.45015E+01 -3.83581E+01 -4.21359E+01 -3.77132E+01 -3.69231E+01 -4.38252E+01
  -4.33693E+01 -4.21545E+01 -4.20261E+01 -4.56820E+01 -4.47528E+01 -3.73601E+01 -4.18763E+01 -3.76889E+01 -3.87228E+01 -2.96280E+01
  -3.20739E+01 -1.99182E+01 -2.57564E+01 -2.16328E+01 -2.08423E+01 -1.67219E+01 -3.08369E+01 -3.05154E+01 -3.05957E+01 -3.90070E+01
  -4.17187E+01 -3.38103E+01 -4.40384E+01 -2.84125E+01 -2.92551E+01 -2.91598E+01 -3.78657E+01 -2.33185E+01 -3.44529E+01 -2.60638E+01
  -2.58078E+01 -3.08923E+01 -1.90054E+01 -2.78350E+01 -2.35877E+01 -1.64919E+01 -1.69010E+01 -1.63385E+01 -1.29421E+01 -1.96460E+01
  -2.03093E+01 -3.19837E+01 -2.33385E+01 -2.84020E+01 -2.07354E+01 -2.16298E+01 -3.58619E+01 -2.29132E+01 -2.89007E+01 -2.01638E+01
  -2.72951E+01 -1.98046E+01 -2.25401E+01 -1.84447E+01 -2.69249E+01 -2.51009E+01 -2.13643E+01 -2.28569E+01 -1.96705E+01 -2.58828E+01
  -2.37975E+01 -2.59315E+01 -2.68761E+01 -2.77881E+01 -1.51162E+01 -2.24618E+01 -2.40503E+01 -1.64374E+01 -2.25991E+01 -2.00173E+01
  -1.57641E+01 -1.69446E+01 -1.68586E+01 -1.44759E+01 -2.39222E+01 -1.80752E+01 -1.08585E+01 -1.78221E+01 -2.07449E+01 -1.67266E+01
  -1.47699E+01 -1.31126E+01 -1.45565E+01 -1.37930E+01 -1.89348E+01 -7.51941E+00 -1.75908E+01 -1.24923E+01 -1.91451E+01 -9.17477E+00
  -1.72692E+01 -1.39849E+01 -1.66573E+01 -8.67486E+00 -8.53562E+00 -1.63507E+01 -8.06504E+00 -1.52433E+01 -1.40356E+01 -9.54794E+00
  -1.65242E+01 -1.95924E+01 -1.60850E+01 -1.96762E+01 -1.37985E+01 -1.17307E+01 -1.81236E+01 -1.47646E+01 -1.80553E+01 -1.50785E+01
  -2.12337E+01 -1.30642E+01 -1.54242E+01 -1.20713E+01 -2.35114E+01 -1.75469E+01 -1.59908E+01 -2.01133E+01 -1.71859E+01 -8.58700E+00
  -1.67332E+01 -1.66587E+01 -1.96134E+01 -1.62512E+01 -2.48858E+01 -1.12698E+01 -2.07653E+01 -1.44376E+01 -2.66749E+01 -1.71704E+01
  -2.25226E+01 -3.10283E+01 -2.78427E+01 -2.20126E+01 -2.93833E+01 -2.26975E+01 -2.34606E+01 -1.89674E+01 -2.32364E+01 -1.47874E+01
  -1.97967E+01 -2.49039E+01 -2.49163E+01 -2.70028E+01 -2.50733E+01 -1.27815E+01 -2.33151E+01 -2.01404E+01 -2.33154E+01 -2.18308E+01
  -2.02630E+01 -1.67965E+01 -1.55102E+01 -2.53201E+01 -2.11470E+01 -2.03645E+01 -2.31636E+01 -1.65251E+01 -1.33937E+01 -2.10382E+01
  -1.95051E+01 -2.61164E+01 -1.90085E+01 -8.12124E+00 -1.30178E+01 -7.16802E+00 -1.58301E+01 -2.73886E+00 -2.98183E+00 -1.99551E+00
   2.89342E+00 -1.54180E+01 -1.47116E+01 -1.42038E+01 -1.65231E+01 -1.90487E+01 -2.37275E+01 -2.17992E+01 -1.28912E+01 -1.50197E+01
  -1.32362E+01 -3.20210E+00 -1.12206E+01 -4.77661E+00 -7.74868E+00 -9.28597E+00  7.06887E-01 -5.33446E+00 -8.56502E-01  7.42134E+00
  -2.05863E+00 -5.58146E+00 -4.87533E+00 -7.00429E+00 -1.49681E+01  2.61475E-01  2.46974E+00 -8.32963E+00 -6.82032E+00  1.03004E+00
  -8.38603E-01 -3.46236E+00  5.01949E+00  2.12869E+00 -3.50955E+00 -5.24178E+00  1.34551E+00 -2.39907E+00 -2.25369E+00 -7.38911E+00
   4.51003E+00 -6.20544E+00 -7.61360E+00 -1.01731E+01 -2.54963E+00 -7.81781E+00 -9.60550E+00 -1.69372E+00 -9.28027E+00 -9.26164E+00
  -8.78275E+00 -1.23457E+01 -6.54192E+00 -1.50353E+01 -6.71156E+00 -1.50051E+01 -1.76346E+01 -1.38842E+01 -1.83301E+01 -1.75763E+01
  -2.56175E+01 -2.21394E+01 -1.87976E+01 -1.20874E+01 -1.20833E+01 -1.63268E+01 -8.79321E+00 -4.83269E+00 -1.90787E+01 -6.36565E+00
  -1.08101E+01 -8.00392E+00 -1.01801E+01 -5.45584E+00 -7.98530E+00 -1.17458E+00 -1.81987E+00  7.99741E+00  4.26776E+00  1.24692E+01
   3.85990E+00  1.36127E+00  5.68943E+00  1.23554E+01  3.52030E+00  1.50775E+01 -7.33871E-02  1.41136E+01  1.15348E+01  6.53594E+00
   1.24338E+01  9.79556E+00  4.27516E+00  1.64517E+01  1.86024E+01  1.90635E+01  1.75515E+01  6.08145E+00  1.59337E+01  1.37508E+01
   1.56122E+01  1.41002E+01  1.86215E+01  2.23918E+01  1.76547E+01  1.47270E+01  1.21464E+01  9.52757E+00  1.80859E+01  1.65096E+01
   1.47030E+01  2.68465E+01  1.56501E+01  2.05869E+01  1.59804E+01  1.94861E+01  2.06627E+01  1.45387E+01  8.08942E+00  1.36073E+01
   1.23178E+01  1.05225E+01  2.61487E+01  1.36135E+01  1.41958E+01  1.68314E+01  1.59300E+01  2.19402E+01  1.30311E+01  1.10342E+01
   2.93120E+01  2.15395E+01  1.35032E+01  5.64143E+00  1.34738E+01  1.01427E+01  1.76282E+01  1.64998E+01  1.53607E+01  1.55028E+01
   1.55249E+01  1.71086E+01  2.21291E+01  1.38731E+01  1.70201E+01  1.76582E+01  1.36991E+01  1.37691E+01  1.57884E+01  1.64654E+01
   2.01851E+01  2.30221E+01  2.05968E+01  2.10452E+01  1.84219E+01  1.72266E+01  2.64448E+01  3.14444E+01  1.04787E+01  2.12695E+01
   2.09384E+01  1.67720E+01  2.07066E+01  2.44989E+01  1.98492E+01  2.67609E+01  1.55112E+01  2.19771E+01  1.82757E+01  2.12234E+01
   1.79661E+01  2.28064E+01  1.33986E+01  2.04212E+01  1.64861E+01  1.88157E+01  2.23465E+01  2.13574E+01  2.00737E+01  1.82994E+01
   1.74627E+01  2.50512E+01  1.36401E+01  2.28183E+01  1.95349E+01  2.39735E+01  2.31366E+01  2.10143E+01  1.01119E+01  2.35332E+01
   1.77951E+01  2.17596E+01  2.53274E+01  1.92590E+01  3.16827E+01  2.55566E+01  2.87318E+01  3.09607E+01  2.06904E+01  2.32047E+01
   2.21384E+01  2.25561E+01  2.05698E+01  2.06057E+01  2.17695E+01  2.23633E+01  1.92865E+01  1.92944E+01  1.51034E+01  1.56094E+01
   2.20070E+01  1.59206E+01  1.52677E+01  2.52239E+01  1.73662E+01  2.28391E+01  1.45545E+01  2.09543E+01  1.63697E+01  2.28832E+01
   2.57377E+01  1.53328E+01  2.09971E+01  2.02184E+01  2.16050E+01  1.99776E+01  1.71973E+01  2.11181E+01  2.27536E+01  2.15034E+01
   2.26847E+01  2.13293E+01  2.01915E+01  2.45934E+01  1.30029E+01  2.04858E+01  1.88832E+01  2.01832E+01
 NY points of the fit to the data follow
  -1.18700E+02 -1.17967E+02 -1.16715E+02 -1.16381E+02 -1.16952E+02 -1.16510E+02 -1.13862E+02 -1.10820E+02 -1.08643E+02 -1.06601E+02
  -1.04245E+02 -1.01960E+02 -1.00285E+02 -9.94107E+01 -1.00687E+02 -1.03490E+02 -1.04417E+02 -1.02115E+02 -9.96085E+01 -9.81645E+01
  -9.69388E+01 -9.56805E+01 -9.43963E+01 -9.35814E+01 -9.28948E+01 -9.09948E+01 -8.84443E+01 -8.65268E+01 -8.46846E+01 -8.26117E+01
  -8.08104E+01 -7.99443E+01 -7.95900E+01 -7.95847E+01 -8.10723E+01 -8.27770E+01 -8.22389E+01 -8.09267E+01 -8.04913E+01 -7.98334E+01
  -7.85911E+01 -7.71022E+01 -7.51345E+01 -7.19270E+01 -6.86997E+01 -6.69491E+01 -6.60824E+01 -6.54294E+01 -6.52174E+01 -6.58725E+01
  -6.71570E+01 -6.87299E+01 -7.00638E+01 -6.96663E+01 -6.71045E+01 -6.41351E+01 -6.19592E+01 -6.04031E+01 -5.93136E+01 -5.84669E+01
  -5.79537E+01 -5.77687E+01 -5.76259E+01 -5.76377E+01 -5.77952E+01 -5.75000E+01 -5.66157E+01 -5.51682E+01 -5.34956E+01 -5.22073E+01
  -5.12153E+01 -5.03717E+01 -4.97296E+01 -4.92529E+01 -4.89116E+01 -4.85444E+01 -4.83747E+01 -4.82581E+01 -4.77259E+01 -4.71516E+01
  -4.66800E+01 -4.57705E+01 -4.46652E+01 -4.40923E+01 -4.39780E+01 -4.39373E+01 -4.39218E+01 -4.39311E+01 -4.38589E+01 -4.35999E+01
  -4.32444E+01 -4.25401E+01 -4.11638E+01 -3.99442E+01 -3.94375E+01 -3.94638E+01 -3.96538E+01 -3.97697E+01 -3.86418E+01 -3.36499E+01
  -2.84556E+01 -2.50994E+01 -2.28464E+01 -2.09834E+01 -2.03225E+01 -2.16285E+01 -2.48504E+01 -2.91859E+01 -3.49044E+01 -3.81701E+01
  -3.54350E+01 -3.27678E+01 -3.18517E+01 -3.14163E+01 -3.10533E+01 -3.08195E+01 -3.06743E+01 -3.05510E+01 -3.04571E+01 -3.03993E+01
  -3.02899E+01 -2.94407E+01 -2.59554E+01 -2.21146E+01 -1.95186E+01 -1.77984E+01 -1.64781E+01 -1.58747E+01 -1.64994E+01 -1.81924E+01
  -2.07788E+01 -2.47271E+01 -2.74686E+01 -2.62097E+01 -2.48501E+01 -2.46755E+01 -2.47150E+01 -2.45287E+01 -2.42219E+01 -2.35071E+01
  -2.22865E+01 -2.12282E+01 -2.06438E+01 -2.04254E+01 -2.05904E+01 -2.08477E+01 -2.09717E+01 -2.10031E+01 -2.07663E+01 -2.05828E+01
  -2.05562E+01 -2.05297E+01 -2.03815E+01 -2.01790E+01 -1.99448E+01 -1.96887E+01 -1.94945E+01 -1.93398E+01 -1.91616E+01 -1.89637E+01
  -1.88566E+01 -1.89394E+01 -1.89933E+01 -1.89410E+01 -1.88015E+01 -1.85947E+01 -1.84900E+01 -1.84454E+01 -1.83667E+01 -1.82521E+01
  -1.81519E+01 -1.81229E+01 -1.81509E+01 -1.81138E+01 -1.80236E+01 -1.80040E+01 -1.82040E+01 -1.84719E+01 -1.86067E+01 -1.85519E+01
  -1.83136E+01 -1.81919E+01 -1.83629E+01 -1.85351E+01 -1.84395E+01 -1.81192E+01 -1.76229E+01 -1.70213E+01 -1.64979E+01 -1.62584E+01
  -1.60178E+01 -1.58254E+01 -1.60018E+01 -1.67615E+01 -1.77403E+01 -1.84124E+01 -1.87633E+01 -1.88189E+01 -1.84728E+01 -1.77918E+01
  -1.71162E+01 -1.64789E+01 -1.59150E+01 -1.57522E+01 -1.62095E+01 -1.69571E+01 -1.75111E+01 -1.80698E+01 -1.87365E+01 -1.92544E+01
  -1.93411E+01 -1.85179E+01 -1.68847E+01 -1.55615E+01 -1.46241E+01 -1.38930E+01 -1.38621E+01 -1.49314E+01 -1.72304E+01 -1.98823E+01
  -2.19509E+01 -2.32844E+01 -2.30403E+01 -2.15909E+01 -2.00250E+01 -1.82249E+01 -1.65540E+01 -1.54736E+01 -1.54965E+01 -1.67081E+01
  -1.78503E+01 -1.81845E+01 -1.80853E+01 -1.75445E+01 -1.67915E+01 -1.61875E+01 -1.57949E+01 -1.59933E+01 -1.71529E+01 -1.86308E+01
  -1.99158E+01 -2.06265E+01 -2.08215E+01 -2.03989E+01 -1.93324E+01 -1.81485E+01 -1.75321E+01 -1.75578E+01 -1.80064E+01 -1.91077E+01
  -2.04090E+01 -1.95361E+01 -1.61941E+01 -1.34752E+01 -1.16701E+01 -9.14837E+00 -5.09285E+00 -2.54879E+00 -2.39663E+00 -3.56705E+00
  -5.98838E+00 -9.60056E+00 -1.08625E+01 -1.03622E+01 -1.19581E+01 -1.52052E+01 -1.68219E+01 -1.57724E+01 -1.51252E+01 -1.48579E+01
  -1.43977E+01 -1.37722E+01 -1.32302E+01 -1.25644E+01 -1.17799E+01 -1.09674E+01 -1.02082E+01 -9.49516E+00 -8.80851E+00 -8.08070E+00
  -7.26646E+00 -6.34351E+00 -5.37242E+00 -4.48494E+00 -3.72831E+00 -3.07891E+00 -2.57248E+00 -2.24398E+00 -2.06717E+00 -1.99893E+00
  -2.01643E+00 -2.15635E+00 -2.37788E+00 -2.67210E+00 -3.06593E+00 -3.54700E+00 -4.08993E+00 -4.70649E+00 -5.32981E+00 -5.91880E+00
  -6.48309E+00 -7.01589E+00 -7.51268E+00 -7.96571E+00 -8.37602E+00 -8.77573E+00 -9.16669E+00 -9.52441E+00 -9.85517E+00 -1.01588E+01
  -1.04358E+01 -1.06894E+01 -1.09206E+01 -1.11294E+01 -1.13146E+01 -1.14733E+01 -1.16017E+01 -1.16940E+01 -1.17418E+01 -1.17327E+01
  -1.16470E+01 -1.14257E+01 -1.08698E+01 -1.01001E+01 -9.60512E+00 -9.27700E+00 -8.97606E+00 -8.69466E+00 -8.56691E+00 -8.67606E+00
  -8.76709E+00 -8.30508E+00 -7.34362E+00 -5.64613E+00 -3.62696E+00 -1.87695E+00 -1.85440E-01  1.39516E+00  2.79353E+00  3.92176E+00
   4.47363E+00  4.86879E+00  5.86693E+00  7.02899E+00  7.97471E+00  8.74884E+00  9.41993E+00  1.00024E+01  1.04418E+01  1.07080E+01
   1.09876E+01  1.14322E+01  1.19922E+01  1.28119E+01  1.37756E+01  1.46084E+01  1.53698E+01  1.60477E+01  1.66304E+01  1.70400E+01
   1.71983E+01  1.73614E+01  1.76612E+01  1.79161E+01  1.80987E+01  1.82129E+01  1.82616E+01  1.82477E+01  1.81751E+01  1.80485E+01
   1.78735E+01  1.76560E+01  1.74025E+01  1.71201E+01  1.68157E+01  1.64959E+01  1.61670E+01  1.58349E+01  1.55052E+01  1.51834E+01
   1.48741E+01  1.45816E+01  1.43097E+01  1.40620E+01  1.38420E+01  1.36531E+01  1.34982E+01  1.33801E+01  1.33015E+01  1.32649E+01
   1.32727E+01  1.33268E+01  1.34289E+01  1.35796E+01  1.37791E+01  1.40271E+01  1.43220E+01  1.46614E+01  1.50415E+01  1.54576E+01
   1.59040E+01  1.63743E+01  1.68610E+01  1.73563E+01  1.78518E+01  1.83393E+01  1.88109E+01  1.92592E+01  1.96777E+01  2.00604E+01
   2.04030E+01  2.07022E+01  2.09560E+01  2.11641E+01  2.13269E+01  2.14460E+01  2.15239E+01  2.15640E+01  2.15703E+01  2.15470E+01
   2.14984E+01  2.14290E+01  2.13429E+01  2.12443E+01  2.11370E+01  2.10242E+01  2.09088E+01  2.07931E+01  2.06793E+01  2.05692E+01
   2.04639E+01  2.03645E+01  2.02716E+01  2.01855E+01  2.01066E+01  2.00351E+01  1.99708E+01  1.99135E+01  1.98630E+01  1.98190E+01
   1.97812E+01  1.97493E+01  1.97230E+01  1.97018E+01  1.96854E+01  1.96734E+01  1.96656E+01  1.96616E+01  1.96612E+01  1.96640E+01
   1.96697E+01  1.96780E+01  1.96890E+01  1.97022E+01  1.97174E+01  1.97345E+01  1.97532E+01  1.97735E+01  1.97953E+01  1.98183E+01
   1.98424E+01  1.98674E+01  1.98933E+01  1.99201E+01  1.99475E+01  1.99755E+01  2.00040E+01  2.00327E+01  2.00619E+01  2.00914E+01
   2.01210E+01  2.01507E+01  2.01804E+01  2.02101E+01  2.02398E+01  2.02694E+01  2.02988E+01  2.03279E+01  2.03567E+01  2.03851E+01
   2.04133E+01  2.04410E+01  2.04683E+01  2.04950E+01  2.05212E+01  2.05468E+01  2.05718E+01  2.05962E+01  2.06198E+01  2.06426E+01
   2.06647E+01  2.06859E+01  2.07064E+01  2.07258E+01  2.07443E+01  2.07617E+01  2.07781E+01  2.07934E+01
 NY background values follow
    -1.182E+02   -1.171E+02   -1.161E+02   -1.150E+02   -1.139E+02   -1.128E+02   -1.118E+02   -1.107E+02   -1.096E+02   -1.086E+02
    -1.075E+02   -1.064E+02   -1.054E+02   -1.043E+02   -1.032E+02   -1.022E+02   -1.011E+02   -1.001E+02   -9.904E+01   -9.799E+01
    -9.695E+01   -9.591E+01   -9.488E+01   -9.385E+01   -9.282E+01   -9.180E+01   -9.079E+01   -8.977E+01   -8.877E+01   -8.776E+01
    -8.677E+01   -8.577E+01   -8.479E+01   -8.381E+01   -8.283E+01   -8.187E+01   -8.091E+01   -7.995E+01   -7.900E+01   -7.806E+01
    -7.713E+01   -7.620E+01   -7.528E+01   -7.437E+01   -7.347E+01   -7.257E+01   -7.168E+01   -7.081E+01   -6.994E+01   -6.907E+01
    -6.822E+01   -6.737E+01   -6.653E+01   -6.571E+01   -6.488E+01   -6.407E+01   -6.327E+01   -6.247E+01   -6.168E+01   -6.090E+01
    -6.013E+01   -5.936E+01   -5.861E+01   -5.786E+01   -5.712E+01   -5.639E+01   -5.566E+01   -5.495E+01   -5.424E+01   -5.354E+01
    -5.285E+01   -5.217E+01   -5.149E+01   -5.082E+01   -5.016E+01   -4.951E+01   -4.887E+01   -4.823E+01   -4.761E+01   -4.699E+01
    -4.637E+01   -4.577E+01   -4.518E+01   -4.459E+01   -4.401E+01   -4.343E+01   -4.287E+01   -4.231E+01   -4.176E+01   -4.122E+01
    -4.069E+01   -4.017E+01   -3.965E+01   -3.914E+01   -3.863E+01   -3.814E+01   -3.765E+01   -3.717E+01   -3.670E+01   -3.623E+01
    -3.577E+01   -3.532E+01   -3.487E+01   -3.444E+01   -3.400E+01   -3.358E+01   -3.316E+01   -3.275E+01   -3.234E+01   -3.194E+01
    -3.155E+01   -3.116E+01   -3.078E+01   -3.041E+01   -3.004E+01   -2.967E+01   -2.931E+01   -2.896E+01   -2.862E+01   -2.827E+01
    -2.794E+01   -2.761E+01   -2.728E+01   -2.696E+01   -2.665E+01   -2.634E+01   -2.603E+01   -2.573E+01   -2.544E+01   -2.514E+01
    -2.486E+01   -2.458E+01   -2.430E+01   -2.402E+01   -2.376E+01   -2.349E+01   -2.323E+01   -2.297E+01   -2.272E+01   -2.247E+01
    -2.223E+01   -2.199E+01   -2.175E+01   -2.152E+01   -2.129E+01   -2.107E+01   -2.085E+01   -2.063E+01   -2.042E+01   -2.021E+01
    -2.001E+01   -1.981E+01   -1.961E+01   -1.942E+01   -1.923E+01   -1.905E+01   -1.887E+01   -1.870E+01   -1.853E+01   -1.836E+01
    -1.820E+01   -1.804E+01   -1.789E+01   -1.774E+01   -1.759E+01   -1.745E+01   -1.732E+01   -1.718E+01   -1.706E+01   -1.693E+01
    -1.681E+01   -1.670E+01   -1.658E+01   -1.648E+01   -1.637E+01   -1.628E+01   -1.618E+01   -1.609E+01   -1.600E+01   -1.592E+01
    -1.585E+01   -1.577E+01   -1.570E+01   -1.564E+01   -1.558E+01   -1.552E+01   -1.546E+01   -1.541E+01   -1.537E+01   -1.532E+01
    -1.528E+01   -1.524E+01   -1.521E+01   -1.518E+01   -1.515E+01   -1.512E+01   -1.509E+01   -1.507E+01   -1.505E+01   -1.502E+01
    -1.501E+01   -1.499E+01   -1.497E+01   -1.496E+01   -1.494E+01   -1.493E+01   -1.492E+01   -1.491E+01   -1.490E+01   -1.489E+01
    -1.488E+01   -1.487E+01   -1.486E+01   -1.485E+01   -1.484E+01   -1.482E+01   -1.481E+01   -1.480E+01   -1.479E+01   -1.477E+01
    -1.476E+01   -1.474E+01   -1.473E+01   -1.471E+01   -1.469E+01   -1.466E+01   -1.464E+01   -1.462E+01   -1.459E+01   -1.456E+01
    -1.453E+01   -1.449E+01   -1.446E+01   -1.442E+01   -1.439E+01   -1.435E+01   -1.431E+01   -1.426E+01   -1.422E+01   -1.417E+01
    -1.412E+01   -1.408E+01   -1.403E+01   -1.397E+01   -1.392E+01   -1.387E+01   -1.381E+01   -1.375E+01   -1.370E+01   -1.364E+01
    -1.358E+01   -1.351E+01   -1.345E+01   -1.339E+01   -1.332E+01   -1.326E+01   -1.319E+01   -1.312E+01   -1.305E+01   -1.298E+01
    -1.291E+01   -1.284E+01   -1.277E+01   -1.269E+01   -1.262E+01   -1.254E+01   -1.247E+01   -1.239E+01   -1.231E+01   -1.223E+01
    -1.216E+01   -1.208E+01   -1.200E+01   -1.192E+01   -1.183E+01   -1.175E+01   -1.167E+01   -1.159E+01   -1.150E+01   -1.142E+01
    -1.133E+01   -1.125E+01   -1.116E+01   -1.107E+01   -1.098E+01   -1.089E+01   -1.080E+01   -1.071E+01   -1.062E+01   -1.053E+01
    -1.044E+01   -1.034E+01   -1.025E+01   -1.015E+01   -1.005E+01   -9.954E+00   -9.855E+00   -9.755E+00   -9.653E+00   -9.551E+00
    -9.448E+00   -9.344E+00   -9.238E+00   -9.132E+00   -9.025E+00   -8.916E+00   -8.806E+00   -8.696E+00   -8.584E+00   -8.471E+00
    -8.357E+00   -8.241E+00   -8.125E+00   -8.007E+00   -7.889E+00   -7.769E+00   -7.647E+00   -7.525E+00   -7.401E+00   -7.277E+00
    -7.151E+00   -7.023E+00   -6.895E+00   -6.766E+00   -6.635E+00   -6.504E+00   -6.371E+00   -6.237E+00   -6.102E+00   -5.966E+00
    -5.829E+00   -5.691E+00   -5.552E+00   -5.412E+00   -5.271E+00   -5.129E+00   -4.986E+00   -4.842E+00   -4.697E+00   -4.551E+00
    -4.405E+00   -4.257E+00   -4.109E+00   -3.959E+00   -3.809E+00   -3.658E+00   -3.506E+00   -3.354E+00   -3.200E+00   -3.046E+00
    -2.891E+00   -2.735E+00   -2.579E+00   -2.421E+00   -2.263E+00   -2.105E+00   -1.945E+00   -1.785E+00   -1.625E+00   -1.463E+00
    -1.301E+00   -1.139E+00   -9.756E-01   -8.119E-01   -6.476E-01   -4.827E-01   -3.174E-01   -1.516E-01    1.457E-02    1.812E-01
     3.482E-01    5.155E-01    6.832E-01    8.512E-01    1.019E+00    1.188E+00    1.357E+00    1.525E+00    1.694E+00    1.864E+00
     2.033E+00    2.202E+00    2.371E+00    2.541E+00    2.710E+00    2.880E+00    3.049E+00    3.218E+00    3.387E+00    3.556E+00
     3.725E+00    3.894E+00    4.062E+00    4.230E+00    4.398E+00    4.566E+00    4.733E+00    4.900E+00    5.067E+00    5.233E+00
     5.399E+00    5.564E+00    5.729E+00    5.894E+00    6.058E+00    6.221E+00    6.384E+00    6.546E+00    6.708E+00    6.869E+00
     7.030E+00    7.190E+00    7.349E+00    7.507E+00    7.665E+00    7.822E+00    7.979E+00    8.134E+00    8.289E+00    8.443E+00
     8.596E+00    8.748E+00    8.900E+00    9.050E+00    9.200E+00    9.349E+00    9.496E+00    9.643E+00    9.789E+00    9.934E+00
     1.008E+01    1.022E+01    1.036E+01    1.050E+01    1.064E+01    1.078E+01    1.092E+01    1.105E+01    1.119E+01    1.132E+01
     1.146E+01    1.159E+01    1.172E+01    1.185E+01    1.198E+01    1.210E+01    1.223E+01    1.235E+01    1.247E+01    1.260E+01
     1.272E+01    1.283E+01    1.295E+01    1.307E+01    1.318E+01    1.330E+01    1.341E+01    1.352E+01    1.363E+01    1.374E+01
     1.384E+01    1.395E+01    1.405E+01    1.415E+01    1.426E+01    1.436E+01    1.445E+01    1.455E+01    1.465E+01    1.474E+01
     1.483E+01    1.493E+01    1.502E+01    1.511E+01    1.519E+01    1.528E+01    1.536E+01    1.545E+01    1.553E+01    1.561E+01
     1.569E+01    1.577E+01    1.584E+01    1.592E+01    1.599E+01    1.607E+01    1.614E+01    1.621E+01    1.628E+01    1.634E+01
     1.641E+01    1.647E+01    1.654E+01    1.660E+01    1.666E+01    1.672E+01    1.678E+01    1.683E+01
 Ala      Conc. = 7.16E+01
