 LCModel (Version 6.3-1L) Copyright: S.W. Provencher.          Ref.: Magn. Reson. Med. 30:672-679 (1993).                
 Slice#2 Row#2 Col#3  PD_24_press_2_raw_act
 36 lines in following concentration table = NCONC+1
    Conc.  %SD /Cr+PCr  Metabolite                                         
   56.246 209%   0.208 Ala                                                 
   46.218  72%   0.171 Asp                                                 
  270.737  24%   1.000 Cr                                                  
    0.000 999%   0.000 PCr                                                 
   24.386  82% 9.0E-02 GABA                                                
   27.712  72%   0.102 Glc                                                 
  338.775  68%   1.251 Gln                                                 
  140.118 177%   0.518 Glu                                                 
   81.359  32%   0.301 GPC                                                 
    0.000 999%   0.000 PCh                                                 
  147.989  59%   0.547 GSH                                                 
  840.364  34%   3.104 Ins                                                 
    0.000 999%   0.000 Lac                                                 
  362.921  21%   1.340 NAA                                                 
    0.000 999%   0.000 NAAG                                                
   10.938  60% 4.0E-02 Scyllo                                              
   43.492  76%   0.161 Tau                                                 
    0.000 999%   0.000 -CrCH2                                              
   81.359  32%   0.301 GPC+PCh                                             
  362.921  21%   1.340 NAA+NAAG                                            
  270.737  24%   1.000 Cr+PCr                                              
  478.893  66%   1.769 Glu+Gln                                             
 4.38E+03  13%  16.191 Lip13a                                              
    0.000 999%   0.000 Lip13b                                              
 1.17E+03  14%   4.311 Lip09                                               
  442.926  45%   1.636 MM09                                                
  647.576  15%   2.392 Lip20                                               
    0.000 999%   0.000 MM20                                                
  104.209 128%   0.385 MM12                                                
 3.31E+03   8%  12.207+MM14                                                
    0.000 999%   0.000 MM17                                                
 4.38E+03  13%  16.191 Lip13a+Lip13b                                       
 7.79E+03   6%  28.783 MM14+Lip13a+Lip13b+MM12                             
 1.61E+03  12%   5.947 MM09+Lip09                                          
  647.576  15%   2.392 MM20+Lip20                                          
   6 lines in following misc. output table
  FWHM = 0.046 ppm    S/N =   3                                            
  Data shift =-0.008 ppm                                                   
  Ph: -14 deg      16.4 deg/ppm                                            
  alphaB,S = 8.5E+01,   1.5E+01                                            
   14 spline knots.   Ns = 5(1)                                            
   2 inflections.     2 extrema                                            
  498 points on ppm-axis = NY
      4.000000     3.992357     3.984714     3.977070     3.969427     3.961784     3.954141     3.946497     3.938854     3.931211
      3.923568     3.915925     3.908281     3.900638     3.892995     3.885352     3.877708     3.870065     3.862422     3.854779
      3.847136     3.839492     3.831849     3.824206     3.816563     3.808919     3.801276     3.793633     3.785990     3.778347
      3.770703     3.763060     3.755417     3.747774     3.740130     3.732487     3.724844     3.717201     3.709558     3.701914
      3.694271     3.686628     3.678985     3.671341     3.663698     3.656055     3.648412     3.640769     3.633125     3.625482
      3.617839     3.610196     3.602552     3.594909     3.587266     3.579623     3.571980     3.564336     3.556693     3.549050
      3.541407     3.533763     3.526120     3.518477     3.510834     3.503191     3.495547     3.487904     3.480261     3.472618
      3.464974     3.457331     3.449688     3.442045     3.434402     3.426758     3.419115     3.411472     3.403829     3.396185
      3.388542     3.380899     3.373256     3.365613     3.357969     3.350326     3.342683     3.335040     3.327396     3.319753
      3.312110     3.304467     3.296824     3.289180     3.281537     3.273894     3.266251     3.258607     3.250964     3.243321
      3.235678     3.228034     3.220391     3.212748     3.205105     3.197462     3.189818     3.182175     3.174532     3.166889
      3.159245     3.151602     3.143959     3.136316     3.128673     3.121029     3.113386     3.105743     3.098100     3.090456
      3.082813     3.075170     3.067527     3.059884     3.052240     3.044597     3.036954     3.029311     3.021667     3.014024
      3.006381     2.998738     2.991095     2.983451     2.975808     2.968165     2.960522     2.952878     2.945235     2.937592
      2.929949     2.922306     2.914662     2.907019     2.899376     2.891733     2.884089     2.876446     2.868803     2.861160
      2.853517     2.845873     2.838230     2.830587     2.822944     2.815300     2.807657     2.800014     2.792371     2.784728
      2.777084     2.769441     2.761798     2.754155     2.746511     2.738868     2.731225     2.723582     2.715939     2.708295
      2.700652     2.693009     2.685366     2.677722     2.670079     2.662436     2.654793     2.647150     2.639506     2.631863
      2.624220     2.616577     2.608933     2.601290     2.593647     2.586004     2.578361     2.570717     2.563074     2.555431
      2.547788     2.540144     2.532501     2.524858     2.517215     2.509572     2.501928     2.494285     2.486642     2.478999
      2.471355     2.463712     2.456069     2.448426     2.440783     2.433139     2.425496     2.417853     2.410210     2.402566
      2.394923     2.387280     2.379637     2.371994     2.364350     2.356707     2.349064     2.341421     2.333777     2.326134
      2.318491     2.310848     2.303205     2.295561     2.287918     2.280275     2.272632     2.264988     2.257345     2.249702
      2.242059     2.234416     2.226772     2.219129     2.211486     2.203843     2.196199     2.188556     2.180913     2.173270
      2.165627     2.157983     2.150340     2.142697     2.135054     2.127410     2.119767     2.112124     2.104481     2.096838
      2.089194     2.081551     2.073908     2.066265     2.058621     2.050978     2.043335     2.035692     2.028049     2.020405
      2.012762     2.005119     1.997476     1.989833     1.982190     1.974546     1.966903     1.959260     1.951617     1.943974
      1.936331     1.928688     1.921045     1.913402     1.905759     1.898115     1.890472     1.882829     1.875186     1.867543
      1.859900     1.852257     1.844614     1.836971     1.829327     1.821684     1.814041     1.806398     1.798755     1.791112
      1.783469     1.775826     1.768183     1.760540     1.752896     1.745253     1.737610     1.729967     1.722324     1.714681
      1.707038     1.699395     1.691752     1.684108     1.676465     1.668822     1.661179     1.653536     1.645893     1.638250
      1.630607     1.622964     1.615321     1.607677     1.600034     1.592391     1.584748     1.577105     1.569462     1.561819
      1.554176     1.546533     1.538890     1.531246     1.523603     1.515960     1.508317     1.500674     1.493031     1.485388
      1.477745     1.470102     1.462458     1.454815     1.447172     1.439529     1.431886     1.424243     1.416600     1.408957
      1.401314     1.393671     1.386027     1.378384     1.370741     1.363098     1.355455     1.347812     1.340169     1.332526
      1.324883     1.317240     1.309596     1.301953     1.294310     1.286667     1.279024     1.271381     1.263738     1.256095
      1.248452     1.240808     1.233165     1.225522     1.217879     1.210236     1.202593     1.194950     1.187307     1.179664
      1.172021     1.164377     1.156734     1.149091     1.141448     1.133805     1.126162     1.118519     1.110876     1.103233
      1.095590     1.087946     1.080303     1.072660     1.065017     1.057374     1.049731     1.042088     1.034445     1.026802
      1.019158     1.011515     1.003872     0.996229     0.988586     0.980943     0.973300     0.965657     0.958014     0.950371
      0.942727     0.935084     0.927441     0.919798     0.912155     0.904512     0.896869     0.889226     0.881583     0.873940
      0.866296     0.858653     0.851010     0.843367     0.835724     0.828081     0.820438     0.812795     0.805152     0.797508
      0.789865     0.782222     0.774579     0.766936     0.759293     0.751650     0.744007     0.736364     0.728721     0.721077
      0.713434     0.705791     0.698148     0.690505     0.682862     0.675219     0.667576     0.659933     0.652290     0.644646
      0.637003     0.629360     0.621717     0.614074     0.606431     0.598788     0.591145     0.583502     0.575858     0.568215
      0.560572     0.552929     0.545286     0.537643     0.530000     0.522357     0.514714     0.507071     0.499427     0.491784
      0.484141     0.476498     0.468855     0.461212     0.453569     0.445925     0.438282     0.430639     0.422996     0.415353
      0.407710     0.400067     0.392424     0.384780     0.377137     0.369494     0.361851     0.354208     0.346565     0.338922
      0.331278     0.323635     0.315992     0.308349     0.300706     0.293063     0.285420     0.277777     0.270133     0.262490
      0.254847     0.247204     0.239561     0.231918     0.224275     0.216631     0.208988     0.201345
 NY phased data points follow
   1.56330E+01  1.22804E+01  9.60656E+00  7.33496E+00  4.14044E+00  6.66034E+00  4.17371E-01  3.87673E+00  2.50572E+00  6.38853E+00
   7.45762E+00  1.52840E+01  1.95816E+01  1.82529E+01  1.25665E+01  6.31780E+00  5.30539E+00 -3.50754E+00  6.82696E+00 -4.54329E+00
  -1.43379E+01  8.97239E+00  3.43474E+00 -2.96827E+00  2.17321E+00 -6.52193E-01  5.66185E+00  8.13099E+00  2.75673E+00  3.65897E+00
  -7.60537E-01  4.95978E+00  1.19067E+01  1.46690E+01  7.02041E+00  8.47351E+00  4.01599E-01 -1.90352E+00  4.88081E+00  3.79609E+00
   1.42946E+01  7.32380E+00  9.23140E+00  3.20520E+00  9.52403E+00 -2.77829E+00  5.20153E-01  1.18618E+01  1.19667E+01 -4.05411E+00
  -7.33456E+00  1.38402E+01  1.31106E+00  2.57263E+00  1.91507E+00 -5.28481E+00  4.61803E+00 -7.57242E-01  6.22780E-01  1.94823E+01
   4.89800E+00  9.71190E+00  2.91634E+00  8.23722E+00  4.15915E+00  9.27496E-02 -1.30252E+00  3.72041E+00  2.30374E+00 -1.44799E+00
   7.51212E+00  2.79604E+00  9.00356E+00  9.19237E+00  1.10175E+01 -9.55725E+00  4.61059E-01  6.76816E+00 -1.64745E+00 -1.42340E+00
  -8.57290E-01 -3.02397E+00  2.41040E+00  6.47505E+00 -1.43658E+00  2.70068E+00  4.10754E+00  3.75597E+00  3.74712E+00  2.45286E+00
   7.84085E+00 -1.53492E+00 -4.51629E+00  7.49203E+00  4.19010E+00 -9.00324E+00  7.20192E-01 -1.09519E+01 -1.90175E+00 -9.39224E+00
  -4.15722E+00 -7.39613E+00  1.23906E-01  1.07916E+01  7.47738E+00  1.60386E+01  2.26605E+00  2.87445E-01  1.05162E+00  2.59358E+00
   6.67656E+00  2.16703E+00 -5.26055E+00 -3.86198E+00 -9.31716E+00 -1.20601E+00 -1.24635E+00 -1.31410E+01 -4.25624E-01 -4.37987E+00
   3.22290E+00 -1.01418E+01  1.64346E+00 -1.28915E+01  1.67041E+00  3.84743E+00  7.90734E+00  9.84700E+00  9.52980E-01  5.00084E+00
   8.94350E+00  2.50696E+00  6.74545E-02  1.32201E-01  1.08259E+01 -2.01779E-01  7.13642E-02 -3.67076E+00 -2.38801E+00 -1.44175E+00
   3.64668E+00 -1.31453E+00 -7.95821E+00 -8.16914E+00  6.46582E+00 -8.12416E-01 -2.13801E+00  6.37766E+00 -1.18392E+01  6.61627E-02
  -1.99268E-01 -2.58224E+00 -9.26147E+00 -6.12762E+00  2.57513E+00 -8.22534E+00 -4.84310E-02  5.90526E+00 -1.45444E+01  1.37566E+00
  -5.26220E+00  3.62938E+00  1.23206E+00 -2.34001E+00  3.32243E+00 -1.14488E+00 -1.36035E+00  1.44061E+00  2.75229E+00  1.18927E+00
  -1.24641E+01 -2.65167E+00 -1.40806E+01 -2.98108E+00 -7.24727E+00  7.61626E+00 -4.08847E+00 -5.27017E+00 -1.36723E+01 -3.13630E+00
  -9.70314E+00 -4.46779E+00 -8.67688E+00 -3.29347E+00 -5.70819E+00 -8.97512E+00  4.45973E+00 -1.17160E+01 -2.51965E+00  5.24224E+00
  -6.61572E+00 -8.38617E+00 -1.17938E+01 -1.15372E-01 -6.68955E+00 -1.01518E+01 -7.09885E+00 -7.96176E+00 -6.80488E+00 -1.28606E+01
  -1.57383E+01 -6.49490E+00 -3.98258E+00 -6.78267E+00 -9.98297E+00  1.03921E+01 -8.85680E-01 -1.87676E+00 -4.89169E+00 -1.26685E+01
  -4.49822E-01 -1.06169E+00 -4.32531E+00 -3.94723E+00 -1.79537E+00 -2.99687E+00 -1.86226E+00 -1.89746E-01 -1.16798E+01  7.58804E+00
  -3.88995E+00 -1.27033E-01 -2.69855E+00 -4.35707E+00 -1.21065E+01  2.51015E+00 -4.38947E+00 -1.59001E+00 -7.34990E+00  1.16165E+00
   3.08119E+00 -4.79929E+00 -3.09904E-01  6.11053E+00  5.33287E+00 -1.32999E+00 -4.38875E-01  4.84658E-02 -3.05399E+00 -3.30174E-01
   4.49107E+00  5.65854E+00  1.99669E+00 -3.93018E-01  5.64198E+00 -1.84225E+00  4.39902E-01 -1.20105E+00 -3.88628E+00  9.53907E+00
  -5.06271E-01  3.33999E+00  9.10518E+00 -7.28419E+00  2.93683E+00 -5.09610E+00 -1.05762E+01 -6.56640E+00  3.55416E+00  1.15293E+01
   1.09998E+01  2.24560E+01  1.09707E+01  9.34896E+00  1.05599E+01  8.77542E+00 -8.25813E+00  5.93666E+00 -4.69405E+00 -1.24667E+01
  -6.91049E+00  4.13283E+00 -1.20329E+01 -3.73700E+00 -8.10035E+00 -1.24071E+01 -4.46442E+00 -1.42691E+01  8.03758E-03 -1.00810E+01
  -6.14144E+00 -1.21786E+00 -5.53593E-01  6.35835E+00 -7.36151E+00  1.88019E+00 -7.29742E+00 -2.89496E+00  2.21495E+00 -6.24112E-01
  -5.40478E+00 -9.61373E+00 -2.24647E+00  2.52385E+00  3.69071E+00  1.45520E+00 -6.37256E+00  1.30329E+00 -3.81615E-01  3.85644E+00
   1.87593E-01 -3.83835E+00  1.11972E+00 -1.41068E+00 -7.44160E+00 -6.08731E+00 -5.32150E+00  7.80790E-01 -7.28051E+00 -8.21298E+00
  -9.47674E+00 -2.80870E+00 -9.91868E-01  2.91517E+00  3.80865E+00  4.88044E+00  9.98083E+00  1.57972E+01  5.35855E+00  1.10300E+01
   1.71020E+01  2.04325E+01  1.99903E+01  2.61509E+01  2.04293E+01  2.39611E+01  2.12468E+01  2.34916E+01  2.94345E+01  2.71206E+01
   2.63007E+01  3.26019E+01  3.05250E+01  3.04525E+01  3.00964E+01  3.00451E+01  3.14869E+01  3.48058E+01  2.21536E+01  3.33722E+01
   2.36916E+01  2.62044E+01  2.99483E+01  3.43966E+01  2.70010E+01  2.29562E+01  2.66958E+01  2.26805E+01  1.42423E+01  1.65031E+01
   1.93519E+01  1.70126E+01  1.37268E+01  2.11818E+01  1.77380E+01  1.19457E+01  1.73167E+01  9.27500E+00  9.80214E+00  6.14237E+00
   5.34635E+00  5.57127E+00  9.77511E+00  1.07890E+01  7.47666E+00 -8.10786E+00 -1.48535E-01  5.82502E+00 -7.78481E+00  8.49382E+00
  -7.72870E+00 -9.66922E-01 -3.61151E+00  2.34414E+00  4.37782E+00 -2.70716E+00  5.06187E+00  5.17859E+00  1.10628E+01  1.73446E+00
   4.63335E+00  1.76012E+01  1.06629E+01  1.04293E+01 -1.88253E+00  1.72013E+00 -6.01151E+00  1.32795E+00 -4.48881E+00 -1.53513E+00
   6.88017E+00  6.60705E+00  1.00813E+01  8.35598E+00  3.62753E+00 -1.50237E+00  5.49513E+00  4.29975E+00  7.84929E+00 -4.84193E+00
   7.60270E-01  9.23002E+00  2.74514E+00  3.00696E+00  5.23781E+00 -7.68925E+00  1.41315E+01 -3.42402E+00  9.35051E+00  2.40348E+00
   1.42265E+00  1.64337E-01 -7.51299E+00  1.47454E+00 -3.13211E+00 -4.43892E+00 -1.48575E+00  7.31092E+00 -8.60937E+00 -9.27349E-01
   4.06364E+00  5.38133E+00 -2.95605E+00 -1.01121E+01 -3.97870E+00 -1.32817E+00 -5.51888E-01  3.52732E+00 -9.29177E-01  5.21629E+00
   2.49122E+00 -7.26458E+00 -1.38680E+00 -3.83793E+00 -9.34488E+00 -2.36622E+00  8.87579E+00 -7.97817E+00 -9.33064E+00 -7.70403E+00
  -5.93531E+00 -5.76912E-01 -3.18167E+00  7.01598E+00 -4.11086E+00  4.04243E+00 -3.52068E+00 -3.63160E-01 -6.65649E+00 -1.46457E+01
  -3.45285E+00 -3.41250E-01 -1.42590E+01 -9.00855E+00 -3.06263E+00 -8.27059E+00 -7.53601E+00 -4.46385E+00 -6.13331E+00 -3.06195E+00
  -6.43006E+00 -2.75300E+00 -1.18527E+01 -1.35839E+01 -3.23281E+00  5.45014E+00 -1.77611E+01 -3.52553E+00 -7.87527E+00 -6.30071E+00
  -9.40788E-01 -1.16911E+00 -1.32124E+01 -1.13729E+01 -3.78864E-01 -6.11834E+00 -9.49306E+00 -4.20216E+00 -6.53659E+00 -6.24727E+00
  -7.23583E+00  2.51263E+00 -2.85775E+00 -5.68776E+00 -6.78264E+00 -1.20080E+01 -1.05272E+01 -2.47349E+00 -1.19124E+01 -6.21814E+00
  -5.21188E+00 -5.27554E+00  7.11185E+00 -1.03282E+01 -1.91250E+00 -9.06415E+00 -1.62616E+00 -7.88897E+00
 NY points of the fit to the data follow
   3.10040E+00  2.39809E+00  1.84933E+00  1.60725E+00  1.54956E+00  1.46816E+00  1.08663E+00  1.01682E+00  2.15617E+00  4.52616E+00
   7.27779E+00  9.23912E+00  9.74000E+00  9.07588E+00  7.83237E+00  6.19607E+00  4.23142E+00  2.48050E+00  1.65405E+00  1.48136E+00
   1.51084E+00  1.65519E+00  1.87673E+00  2.03649E+00  1.91135E+00  1.25018E+00  4.36917E-01  2.50083E-01  1.12275E+00  2.91521E+00
   4.95632E+00  6.52873E+00  7.29749E+00  7.16973E+00  6.25044E+00  4.83690E+00  3.42506E+00  2.45928E+00  1.78575E+00  1.24835E+00
   9.02748E-01  6.36980E-01  2.10841E-01 -1.86375E-01  3.46639E-01  2.42845E+00  5.53006E+00  8.31545E+00  9.58695E+00  9.11720E+00
   7.49658E+00  5.29647E+00  2.83989E+00  6.37798E-01 -6.93004E-01 -1.00844E+00 -6.44559E-01  1.29153E-01  1.28504E+00  2.61087E+00
   3.65890E+00  4.07754E+00  3.80211E+00  3.02787E+00  1.99303E+00  9.95878E-01  3.66830E-01  1.63184E-01  3.59987E-01  9.12645E-01
   1.61263E+00  2.25389E+00  2.66880E+00  2.79712E+00  2.72888E+00  2.55171E+00  2.28006E+00  1.88192E+00  1.46680E+00  1.19208E+00
   1.01089E+00  8.71445E-01  8.79597E-01  1.05413E+00  1.17905E+00  9.62644E-01  2.83045E-01 -7.00751E-01 -1.62521E+00 -2.19897E+00
  -2.34256E+00 -2.12777E+00 -1.57628E+00 -7.34080E-01  9.18506E-02  6.18801E-01  7.21786E-01  3.57982E-01 -6.47049E-01 -1.55144E+00
  -9.40470E-01  1.52631E+00  4.95604E+00  7.87705E+00  9.13306E+00  8.73131E+00  7.37865E+00  5.41818E+00  2.96600E+00  6.58346E-01
  -5.22137E-01 -7.61706E-01 -7.95375E-01 -7.82797E-01 -7.65768E-01 -7.40835E-01 -7.30566E-01 -7.54874E-01 -8.10765E-01 -8.86230E-01
  -9.89258E-01 -1.28207E+00 -1.99183E+00 -1.93780E+00  1.28952E-01  3.97800E+00  8.17049E+00  1.09616E+01  1.15135E+01  1.03872E+01
   8.52090E+00  6.22097E+00  3.60116E+00  1.41190E+00  3.44302E-01 -3.42539E-01 -1.03496E+00 -1.59809E+00 -1.87594E+00 -1.79771E+00
  -1.38722E+00 -7.96436E-01 -2.68200E-01  7.35770E-02  2.12588E-01  1.69504E-01  1.93489E-02 -1.52467E-01 -2.97129E-01 -3.77882E-01
  -4.40631E-01 -5.10032E-01 -5.85349E-01 -6.49241E-01 -6.91059E-01 -6.93051E-01 -6.39138E-01 -5.96424E-01 -6.49379E-01 -8.11953E-01
  -1.03563E+00 -1.19913E+00 -1.22605E+00 -1.14730E+00 -1.04270E+00 -9.74616E-01 -9.59444E-01 -9.99810E-01 -1.10890E+00 -1.26037E+00
  -1.40692E+00 -1.49631E+00 -1.54539E+00 -1.67563E+00 -1.89173E+00 -2.09536E+00 -2.18285E+00 -2.15949E+00 -2.13315E+00 -2.18054E+00
  -2.25242E+00 -2.25679E+00 -2.20166E+00 -2.22492E+00 -2.39062E+00 -2.59739E+00 -2.71328E+00 -2.62820E+00 -2.31198E+00 -1.79380E+00
  -1.21464E+00 -7.39627E-01 -5.11609E-01 -6.00062E-01 -1.05134E+00 -1.79459E+00 -2.64758E+00 -3.34825E+00 -3.59930E+00 -3.26371E+00
  -2.47932E+00 -1.46573E+00 -3.72132E-01  5.87385E-01  1.19882E+00  1.35514E+00  8.51347E-01 -4.45470E-01 -2.15489E+00 -3.69822E+00
  -4.62913E+00 -4.77734E+00 -4.21678E+00 -3.16530E+00 -1.83566E+00 -4.86666E-01  4.60946E-01  7.32540E-01  5.58636E-01  1.43090E-01
  -4.98610E-01 -1.15488E+00 -1.54569E+00 -1.52578E+00 -1.22192E+00 -8.12851E-01 -3.70959E-01  4.08500E-02  2.35925E-01  6.70128E-02
  -3.35738E-01 -6.69047E-01 -9.00820E-01 -1.16628E+00 -1.38630E+00 -1.38171E+00 -1.06005E+00 -4.67953E-01  2.10006E-01  6.79969E-01
   8.25334E-01  6.00968E-01 -3.02637E-02 -9.07444E-01 -1.58975E+00 -1.89212E+00 -1.97378E+00 -1.87037E+00 -1.51023E+00 -9.97464E-01
  -5.29699E-01 -1.18482E-01  2.24470E-01  4.63902E-01  4.74684E-01 -2.51268E-01 -1.15833E+00 -1.11216E-01  3.72689E+00  9.13178E+00
   1.38108E+01  1.58746E+01  1.52133E+01  1.29567E+01  9.78909E+00  5.84546E+00  1.93023E+00 -3.82167E-01 -1.05553E+00 -1.34060E+00
  -1.53794E+00 -1.66765E+00 -1.74454E+00 -1.77880E+00 -1.77432E+00 -1.75157E+00 -1.73302E+00 -1.73672E+00 -1.76928E+00 -1.82751E+00
  -1.89792E+00 -1.96735E+00 -2.02617E+00 -2.06366E+00 -2.07647E+00 -2.07084E+00 -2.05293E+00 -2.02819E+00 -2.00208E+00 -1.97560E+00
  -1.95106E+00 -1.93029E+00 -1.91026E+00 -1.88752E+00 -1.86173E+00 -1.83231E+00 -1.79673E+00 -1.75326E+00 -1.70196E+00 -1.64176E+00
  -1.57066E+00 -1.48737E+00 -1.38916E+00 -1.27250E+00 -1.13319E+00 -9.66103E-01 -7.65053E-01 -5.22801E-01 -2.31057E-01  1.19462E-01
   5.38894E-01  1.03788E+00  1.62742E+00  2.31855E+00  3.12136E+00  4.04452E+00  5.09459E+00  6.27517E+00  7.58620E+00  9.02297E+00
   1.05748E+01  1.22216E+01  1.39433E+01  1.58093E+01  1.78486E+01  1.99135E+01  2.17912E+01  2.33308E+01  2.45204E+01  2.54608E+01
   2.61719E+01  2.66300E+01  2.69746E+01  2.74137E+01  2.80150E+01  2.85748E+01  2.88548E+01  2.87808E+01  2.83945E+01  2.77481E+01
   2.68522E+01  2.57557E+01  2.46195E+01  2.35508E+01  2.25324E+01  2.15595E+01  2.06363E+01  1.97661E+01  1.89488E+01  1.81807E+01
   1.74551E+01  1.67631E+01  1.60946E+01  1.54395E+01  1.47880E+01  1.41316E+01  1.34641E+01  1.27810E+01  1.20804E+01  1.13627E+01
   1.06301E+01  9.88654E+00  9.13743E+00  8.38904E+00  7.64812E+00  6.92149E+00  6.21572E+00  5.53691E+00  4.89050E+00  4.28113E+00
   3.71256E+00  3.18765E+00  2.70842E+00  2.27620E+00  1.89175E+00  1.55526E+00  1.26653E+00  1.02503E+00  8.30061E-01  6.80840E-01
   5.76533E-01  5.16240E-01  4.98994E-01  5.23748E-01  5.89362E-01  6.94533E-01  8.37659E-01  1.01672E+00  1.22916E+00  1.47182E+00
   1.74087E+00  2.03175E+00  2.33904E+00  2.65654E+00  2.97731E+00  3.29381E+00  3.59811E+00  3.88208E+00  4.13760E+00  4.35687E+00
   4.53276E+00  4.65908E+00  4.73085E+00  4.74451E+00  4.69801E+00  4.59095E+00  4.42455E+00  4.20167E+00  3.92654E+00  3.60457E+00
   3.24211E+00  2.84615E+00  2.42404E+00  1.98326E+00  1.53105E+00  1.07424E+00  6.19010E-01  1.70843E-01 -2.65585E-01 -6.86438E-01
  -1.08875E+00 -1.47039E+00 -1.82996E+00 -2.16672E+00 -2.48046E+00 -2.77146E+00 -3.04036E+00 -3.28814E+00 -3.51593E+00 -3.72500E+00
  -3.91665E+00 -4.09223E+00 -4.25309E+00 -4.40054E+00 -4.53582E+00 -4.66006E+00 -4.77432E+00 -4.87956E+00 -4.97672E+00 -5.06661E+00
  -5.14996E+00 -5.22741E+00 -5.29953E+00 -5.36686E+00 -5.42988E+00 -5.48903E+00 -5.54466E+00 -5.59709E+00 -5.64661E+00 -5.69350E+00
  -5.73801E+00 -5.78037E+00 -5.82073E+00 -5.85925E+00 -5.89609E+00 -5.93140E+00 -5.96533E+00 -5.99796E+00 -6.02939E+00 -6.05970E+00
  -6.08898E+00 -6.11734E+00 -6.14484E+00 -6.17152E+00 -6.19743E+00 -6.22261E+00 -6.24714E+00 -6.27108E+00 -6.29445E+00 -6.31728E+00
  -6.33960E+00 -6.36143E+00 -6.38284E+00 -6.40385E+00 -6.42448E+00 -6.44472E+00 -6.46459E+00 -6.48414E+00 -6.50339E+00 -6.52238E+00
  -6.54107E+00 -6.55949E+00 -6.57764E+00 -6.59557E+00 -6.61329E+00 -6.63080E+00 -6.64809E+00 -6.66517E+00 -6.68205E+00 -6.69876E+00
  -6.71532E+00 -6.73171E+00 -6.74791E+00 -6.76393E+00 -6.77980E+00 -6.79554E+00 -6.81114E+00 -6.82658E+00
 NY background values follow
     2.578E-01    2.437E-01    2.297E-01    2.156E-01    2.015E-01    1.874E-01    1.733E-01    1.592E-01    1.452E-01    1.311E-01
     1.170E-01    1.029E-01    8.881E-02    7.473E-02    6.065E-02    4.656E-02    3.248E-02    1.840E-02    4.314E-03   -9.769E-03
    -2.385E-02   -3.793E-02   -5.202E-02   -6.610E-02   -8.018E-02   -9.426E-02   -1.083E-01   -1.224E-01   -1.365E-01   -1.506E-01
    -1.647E-01   -1.788E-01   -1.928E-01   -2.069E-01   -2.210E-01   -2.351E-01   -2.492E-01   -2.632E-01   -2.773E-01   -2.914E-01
    -3.055E-01   -3.196E-01   -3.336E-01   -3.477E-01   -3.618E-01   -3.759E-01   -3.899E-01   -4.040E-01   -4.181E-01   -4.322E-01
    -4.463E-01   -4.603E-01   -4.744E-01   -4.885E-01   -5.026E-01   -5.166E-01   -5.307E-01   -5.448E-01   -5.589E-01   -5.729E-01
    -5.870E-01   -6.011E-01   -6.152E-01   -6.293E-01   -6.433E-01   -6.574E-01   -6.715E-01   -6.856E-01   -6.996E-01   -7.137E-01
    -7.278E-01   -7.418E-01   -7.559E-01   -7.700E-01   -7.841E-01   -7.981E-01   -8.122E-01   -8.263E-01   -8.404E-01   -8.544E-01
    -8.685E-01   -8.826E-01   -8.966E-01   -9.107E-01   -9.248E-01   -9.389E-01   -9.529E-01   -9.670E-01   -9.811E-01   -9.951E-01
    -1.009E+00   -1.023E+00   -1.037E+00   -1.051E+00   -1.065E+00   -1.080E+00   -1.094E+00   -1.108E+00   -1.122E+00   -1.136E+00
    -1.150E+00   -1.164E+00   -1.178E+00   -1.192E+00   -1.206E+00   -1.220E+00   -1.234E+00   -1.248E+00   -1.262E+00   -1.276E+00
    -1.291E+00   -1.305E+00   -1.319E+00   -1.333E+00   -1.347E+00   -1.361E+00   -1.375E+00   -1.389E+00   -1.403E+00   -1.417E+00
    -1.431E+00   -1.445E+00   -1.459E+00   -1.473E+00   -1.487E+00   -1.502E+00   -1.516E+00   -1.530E+00   -1.544E+00   -1.558E+00
    -1.572E+00   -1.586E+00   -1.600E+00   -1.614E+00   -1.628E+00   -1.642E+00   -1.656E+00   -1.670E+00   -1.684E+00   -1.698E+00
    -1.712E+00   -1.726E+00   -1.741E+00   -1.755E+00   -1.769E+00   -1.783E+00   -1.797E+00   -1.811E+00   -1.825E+00   -1.839E+00
    -1.853E+00   -1.867E+00   -1.881E+00   -1.895E+00   -1.909E+00   -1.923E+00   -1.937E+00   -1.951E+00   -1.965E+00   -1.979E+00
    -1.994E+00   -2.008E+00   -2.022E+00   -2.036E+00   -2.050E+00   -2.064E+00   -2.078E+00   -2.092E+00   -2.106E+00   -2.120E+00
    -2.134E+00   -2.148E+00   -2.162E+00   -2.176E+00   -2.190E+00   -2.204E+00   -2.218E+00   -2.232E+00   -2.246E+00   -2.261E+00
    -2.275E+00   -2.289E+00   -2.303E+00   -2.317E+00   -2.331E+00   -2.345E+00   -2.359E+00   -2.373E+00   -2.387E+00   -2.401E+00
    -2.415E+00   -2.429E+00   -2.443E+00   -2.457E+00   -2.471E+00   -2.485E+00   -2.499E+00   -2.513E+00   -2.527E+00   -2.541E+00
    -2.555E+00   -2.570E+00   -2.584E+00   -2.598E+00   -2.612E+00   -2.626E+00   -2.640E+00   -2.654E+00   -2.668E+00   -2.682E+00
    -2.696E+00   -2.710E+00   -2.724E+00   -2.738E+00   -2.752E+00   -2.766E+00   -2.780E+00   -2.794E+00   -2.808E+00   -2.822E+00
    -2.836E+00   -2.850E+00   -2.864E+00   -2.878E+00   -2.892E+00   -2.907E+00   -2.921E+00   -2.935E+00   -2.949E+00   -2.963E+00
    -2.977E+00   -2.991E+00   -3.005E+00   -3.019E+00   -3.033E+00   -3.047E+00   -3.061E+00   -3.075E+00   -3.089E+00   -3.103E+00
    -3.117E+00   -3.131E+00   -3.145E+00   -3.159E+00   -3.173E+00   -3.187E+00   -3.201E+00   -3.215E+00   -3.229E+00   -3.243E+00
    -3.257E+00   -3.271E+00   -3.285E+00   -3.299E+00   -3.313E+00   -3.327E+00   -3.342E+00   -3.356E+00   -3.370E+00   -3.384E+00
    -3.398E+00   -3.412E+00   -3.426E+00   -3.440E+00   -3.454E+00   -3.468E+00   -3.482E+00   -3.496E+00   -3.510E+00   -3.524E+00
    -3.538E+00   -3.552E+00   -3.566E+00   -3.580E+00   -3.594E+00   -3.608E+00   -3.622E+00   -3.636E+00   -3.650E+00   -3.664E+00
    -3.678E+00   -3.692E+00   -3.706E+00   -3.720E+00   -3.734E+00   -3.748E+00   -3.762E+00   -3.776E+00   -3.790E+00   -3.804E+00
    -3.818E+00   -3.832E+00   -3.846E+00   -3.860E+00   -3.874E+00   -3.888E+00   -3.902E+00   -3.916E+00   -3.930E+00   -3.944E+00
    -3.958E+00   -3.972E+00   -3.987E+00   -4.001E+00   -4.015E+00   -4.029E+00   -4.043E+00   -4.057E+00   -4.071E+00   -4.085E+00
    -4.099E+00   -4.113E+00   -4.127E+00   -4.141E+00   -4.155E+00   -4.169E+00   -4.183E+00   -4.197E+00   -4.211E+00   -4.225E+00
    -4.239E+00   -4.253E+00   -4.267E+00   -4.281E+00   -4.295E+00   -4.309E+00   -4.323E+00   -4.337E+00   -4.351E+00   -4.365E+00
    -4.379E+00   -4.393E+00   -4.407E+00   -4.421E+00   -4.435E+00   -4.449E+00   -4.463E+00   -4.477E+00   -4.491E+00   -4.505E+00
    -4.519E+00   -4.533E+00   -4.547E+00   -4.561E+00   -4.575E+00   -4.589E+00   -4.603E+00   -4.617E+00   -4.631E+00   -4.645E+00
    -4.659E+00   -4.673E+00   -4.687E+00   -4.701E+00   -4.715E+00   -4.729E+00   -4.743E+00   -4.757E+00   -4.771E+00   -4.785E+00
    -4.799E+00   -4.813E+00   -4.827E+00   -4.841E+00   -4.855E+00   -4.869E+00   -4.883E+00   -4.897E+00   -4.911E+00   -4.925E+00
    -4.939E+00   -4.953E+00   -4.967E+00   -4.981E+00   -4.995E+00   -5.009E+00   -5.023E+00   -5.037E+00   -5.051E+00   -5.065E+00
    -5.079E+00   -5.093E+00   -5.107E+00   -5.121E+00   -5.135E+00   -5.149E+00   -5.163E+00   -5.177E+00   -5.191E+00   -5.205E+00
    -5.219E+00   -5.233E+00   -5.247E+00   -5.261E+00   -5.275E+00   -5.289E+00   -5.303E+00   -5.317E+00   -5.331E+00   -5.345E+00
    -5.359E+00   -5.373E+00   -5.387E+00   -5.401E+00   -5.415E+00   -5.429E+00   -5.443E+00   -5.457E+00   -5.471E+00   -5.485E+00
    -5.499E+00   -5.513E+00   -5.527E+00   -5.540E+00   -5.554E+00   -5.568E+00   -5.582E+00   -5.596E+00   -5.610E+00   -5.624E+00
    -5.638E+00   -5.652E+00   -5.666E+00   -5.680E+00   -5.694E+00   -5.708E+00   -5.722E+00   -5.736E+00   -5.750E+00   -5.764E+00
    -5.778E+00   -5.792E+00   -5.806E+00   -5.820E+00   -5.834E+00   -5.848E+00   -5.862E+00   -5.876E+00   -5.890E+00   -5.904E+00
    -5.918E+00   -5.932E+00   -5.946E+00   -5.960E+00   -5.974E+00   -5.988E+00   -6.002E+00   -6.016E+00   -6.030E+00   -6.044E+00
    -6.058E+00   -6.072E+00   -6.086E+00   -6.100E+00   -6.114E+00   -6.128E+00   -6.142E+00   -6.156E+00   -6.169E+00   -6.183E+00
    -6.197E+00   -6.211E+00   -6.225E+00   -6.239E+00   -6.253E+00   -6.267E+00   -6.281E+00   -6.295E+00   -6.309E+00   -6.323E+00
    -6.337E+00   -6.351E+00   -6.365E+00   -6.379E+00   -6.393E+00   -6.407E+00   -6.421E+00   -6.435E+00   -6.449E+00   -6.463E+00
    -6.477E+00   -6.491E+00   -6.505E+00   -6.519E+00   -6.533E+00   -6.547E+00   -6.561E+00   -6.575E+00   -6.588E+00   -6.602E+00
    -6.616E+00   -6.630E+00   -6.644E+00   -6.658E+00   -6.672E+00   -6.686E+00   -6.700E+00   -6.714E+00
 Ala      Conc. = 5.62E+01
