 LCModel (Version 6.3-1L) Copyright: S.W. Provencher.          Ref.: Magn. Reson. Med. 30:672-679 (1993).                
 Slice#3 Row#12 Col#8  PD_24_press_2_raw_act
 36 lines in following concentration table = NCONC+1
    Conc.  %SD /Cr+PCr  Metabolite                                         
   72.144  74%   1.535 Ala                                                 
    5.692  60%   0.121 Asp                                                 
   46.988  43%   1.000 Cr                                                  
    0.000 999%   0.000 PCr                                                 
    3.419  60% 7.3E-02 GABA                                                
    3.446  60% 7.3E-02 Glc                                                 
    0.000 999%   0.000 Gln                                                 
   14.477 775%   0.308 Glu                                                 
   22.614  35%   0.481 GPC                                                 
    0.000 999%   0.000 PCh                                                 
   19.101 158%   0.406 GSH                                                 
   92.242 101%   1.963 Ins                                                 
   66.934  88%   1.424 Lac                                                 
    0.000 999%   0.000 NAA                                                 
    0.000 999%   0.000 NAAG                                                
    1.162  59% 2.5E-02 Scyllo                                              
    5.800  59%   0.123 Tau                                                 
    4.941 107%   0.105 -CrCH2                                              
   22.614  35%   0.481 GPC+PCh                                             
    0.000 999%   0.000 NAA+NAAG                                            
   46.988  43%   1.000 Cr+PCr                                              
   14.477 775%   0.308 Glu+Gln                                             
  857.635  22%  18.252 Lip13a                                              
    0.000 999%   0.000 Lip13b                                              
  193.678  49%   4.122 Lip09                                               
   71.062 101%   1.512 MM09                                                
   99.070  68%   2.108 Lip20                                               
    0.000 999%   0.000 MM20                                                
   18.036 230%   0.384 MM12                                                
  404.394  30%   8.606 MM14                                                
  100.628  71%   2.142 MM17                                                
  857.635  22%  18.252 Lip13a+Lip13b                                       
 1.28E+03  11%  27.242 MM14+Lip13a+Lip13b+MM12                             
  264.740  25%   5.634 MM09+Lip09                                          
   99.070  68%   2.108 MM20+Lip20                                          
   6 lines in following misc. output table
  FWHM = 0.061 ppm    S/N =   2                                            
  Data shift =-0.023 ppm                                                   
  Ph:-114 deg      29.8 deg/ppm                                            
  alphaB,S = 8.5E+01,   5.1E+01                                            
   14 spline knots.   Ns = 7(1)                                            
   2 inflections.     1 extrema                                            
  498 points on ppm-axis = NY
      4.000000     3.992357     3.984714     3.977070     3.969427     3.961784     3.954141     3.946497     3.938854     3.931211
      3.923568     3.915925     3.908281     3.900638     3.892995     3.885352     3.877708     3.870065     3.862422     3.854779
      3.847136     3.839492     3.831849     3.824206     3.816563     3.808919     3.801276     3.793633     3.785990     3.778347
      3.770703     3.763060     3.755417     3.747774     3.740130     3.732487     3.724844     3.717201     3.709558     3.701914
      3.694271     3.686628     3.678985     3.671341     3.663698     3.656055     3.648412     3.640769     3.633125     3.625482
      3.617839     3.610196     3.602552     3.594909     3.587266     3.579623     3.571980     3.564336     3.556693     3.549050
      3.541407     3.533763     3.526120     3.518477     3.510834     3.503191     3.495547     3.487904     3.480261     3.472618
      3.464974     3.457331     3.449688     3.442045     3.434402     3.426758     3.419115     3.411472     3.403829     3.396185
      3.388542     3.380899     3.373256     3.365613     3.357969     3.350326     3.342683     3.335040     3.327396     3.319753
      3.312110     3.304467     3.296824     3.289180     3.281537     3.273894     3.266251     3.258607     3.250964     3.243321
      3.235678     3.228034     3.220391     3.212748     3.205105     3.197462     3.189818     3.182175     3.174532     3.166889
      3.159245     3.151602     3.143959     3.136316     3.128673     3.121029     3.113386     3.105743     3.098100     3.090456
      3.082813     3.075170     3.067527     3.059884     3.052240     3.044597     3.036954     3.029311     3.021667     3.014024
      3.006381     2.998738     2.991095     2.983451     2.975808     2.968165     2.960522     2.952878     2.945235     2.937592
      2.929949     2.922306     2.914662     2.907019     2.899376     2.891733     2.884089     2.876446     2.868803     2.861160
      2.853517     2.845873     2.838230     2.830587     2.822944     2.815300     2.807657     2.800014     2.792371     2.784728
      2.777084     2.769441     2.761798     2.754155     2.746511     2.738868     2.731225     2.723582     2.715939     2.708295
      2.700652     2.693009     2.685366     2.677722     2.670079     2.662436     2.654793     2.647150     2.639506     2.631863
      2.624220     2.616577     2.608933     2.601290     2.593647     2.586004     2.578361     2.570717     2.563074     2.555431
      2.547788     2.540144     2.532501     2.524858     2.517215     2.509572     2.501928     2.494285     2.486642     2.478999
      2.471355     2.463712     2.456069     2.448426     2.440783     2.433139     2.425496     2.417853     2.410210     2.402566
      2.394923     2.387280     2.379637     2.371994     2.364350     2.356707     2.349064     2.341421     2.333777     2.326134
      2.318491     2.310848     2.303205     2.295561     2.287918     2.280275     2.272632     2.264988     2.257345     2.249702
      2.242059     2.234416     2.226772     2.219129     2.211486     2.203843     2.196199     2.188556     2.180913     2.173270
      2.165627     2.157983     2.150340     2.142697     2.135054     2.127410     2.119767     2.112124     2.104481     2.096838
      2.089194     2.081551     2.073908     2.066265     2.058621     2.050978     2.043335     2.035692     2.028049     2.020405
      2.012762     2.005119     1.997476     1.989833     1.982190     1.974546     1.966903     1.959260     1.951617     1.943974
      1.936331     1.928688     1.921045     1.913402     1.905759     1.898115     1.890472     1.882829     1.875186     1.867543
      1.859900     1.852257     1.844614     1.836971     1.829327     1.821684     1.814041     1.806398     1.798755     1.791112
      1.783469     1.775826     1.768183     1.760540     1.752896     1.745253     1.737610     1.729967     1.722324     1.714681
      1.707038     1.699395     1.691752     1.684108     1.676465     1.668822     1.661179     1.653536     1.645893     1.638250
      1.630607     1.622964     1.615321     1.607677     1.600034     1.592391     1.584748     1.577105     1.569462     1.561819
      1.554176     1.546533     1.538890     1.531246     1.523603     1.515960     1.508317     1.500674     1.493031     1.485388
      1.477745     1.470102     1.462458     1.454815     1.447172     1.439529     1.431886     1.424243     1.416600     1.408957
      1.401314     1.393671     1.386027     1.378384     1.370741     1.363098     1.355455     1.347812     1.340169     1.332526
      1.324883     1.317240     1.309596     1.301953     1.294310     1.286667     1.279024     1.271381     1.263738     1.256095
      1.248452     1.240808     1.233165     1.225522     1.217879     1.210236     1.202593     1.194950     1.187307     1.179664
      1.172021     1.164377     1.156734     1.149091     1.141448     1.133805     1.126162     1.118519     1.110876     1.103233
      1.095590     1.087946     1.080303     1.072660     1.065017     1.057374     1.049731     1.042088     1.034445     1.026802
      1.019158     1.011515     1.003872     0.996229     0.988586     0.980943     0.973300     0.965657     0.958014     0.950371
      0.942727     0.935084     0.927441     0.919798     0.912155     0.904512     0.896869     0.889226     0.881583     0.873940
      0.866296     0.858653     0.851010     0.843367     0.835724     0.828081     0.820438     0.812795     0.805152     0.797508
      0.789865     0.782222     0.774579     0.766936     0.759293     0.751650     0.744007     0.736364     0.728721     0.721077
      0.713434     0.705791     0.698148     0.690505     0.682862     0.675219     0.667576     0.659933     0.652290     0.644646
      0.637003     0.629360     0.621717     0.614074     0.606431     0.598788     0.591145     0.583502     0.575858     0.568215
      0.560572     0.552929     0.545286     0.537643     0.530000     0.522357     0.514714     0.507071     0.499427     0.491784
      0.484141     0.476498     0.468855     0.461212     0.453569     0.445925     0.438282     0.430639     0.422996     0.415353
      0.407710     0.400067     0.392424     0.384780     0.377137     0.369494     0.361851     0.354208     0.346565     0.338922
      0.331278     0.323635     0.315992     0.308349     0.300706     0.293063     0.285420     0.277777     0.270133     0.262490
      0.254847     0.247204     0.239561     0.231918     0.224275     0.216631     0.208988     0.201345
 NY phased data points follow
  -1.34641E+00 -2.18116E+00  6.36269E-02 -6.16967E-01  6.39692E-01 -5.97690E-01 -1.95247E+00  2.17130E+00  2.44690E+00 -8.25598E-01
   1.55082E+00  1.51700E+00  3.16631E-01  4.22246E-01 -1.21942E+00  1.84183E+00 -1.32231E+00 -1.44772E+00  4.16414E+00 -1.12022E+00
   3.04632E-01  4.90093E-02 -1.51937E+00 -2.66733E+00 -1.68679E-01  3.77408E-01 -1.02257E+00  2.63027E+00  1.97603E-01  8.05090E-01
   1.01150E-01  1.58232E+00 -9.07967E-01 -5.99517E-01 -8.68869E-01  3.25770E+00  2.39274E+00 -2.00425E-01 -1.16763E+00 -2.27313E+00
  -4.48343E-01  5.16554E-01  3.80947E-01  4.41515E-01 -1.18228E+00  1.17396E+00 -1.54078E+00  2.81965E-01  3.11948E+00  5.81064E-01
   5.10785E-01 -1.01608E+00  1.98788E+00  2.82681E+00 -1.72140E+00 -1.15978E+00 -1.89595E+00  3.61415E-01 -8.03874E-02  1.46182E+00
   2.30232E+00  1.70807E+00 -8.43986E-02  1.55815E+00  3.58668E-02  7.01084E-01 -4.59686E-02  3.53206E-01  6.72486E-01  5.22043E-01
   3.97880E-01  2.69846E+00  1.68684E+00 -2.66896E+00 -2.08023E+00  4.36940E-01  9.44561E-01  1.53236E+00  1.01858E+00  7.63061E-01
   6.79779E-01  7.93645E-01 -4.96702E-01  4.64470E-01 -1.84937E-01  2.12438E-01 -1.79477E+00  5.05045E-01  3.10103E-01  2.18641E+00
   8.45419E-01  1.75967E+00 -1.29724E+00  9.07234E-01 -8.87158E-01  1.90465E+00  8.68455E-01  2.52154E+00  1.89298E+00  1.48181E+00
   1.14445E+00  1.75983E+00  1.99828E+00  2.63693E+00  3.15782E-01  4.00012E+00 -9.51247E-01 -6.63442E-01  4.29418E-01 -2.58689E+00
  -1.81532E+00  2.50240E-01  1.31732E+00 -1.17031E-01  1.28755E+00 -1.52214E+00 -1.82526E+00 -4.64339E-01  2.75666E-01 -9.71782E-01
   1.00171E+00  1.04101E+00 -6.55732E-01  2.66030E+00  1.46821E+00  1.12891E+00 -3.87856E-01  1.56928E+00  4.48793E+00  1.81859E+00
   2.01981E+00 -1.32198E+00 -1.90942E+00 -5.21013E-01 -1.22033E+00  9.18601E-01  7.02941E-01  1.43104E+00 -1.12458E+00  1.73446E+00
  -1.03836E+00 -5.63295E-03  3.34279E-01  1.02529E+00  6.17275E-01  2.27434E-01 -1.66737E+00  3.05044E+00  7.32317E-01 -1.09519E+00
   2.01222E+00  9.86035E-01  9.88877E-01 -3.09867E-01  1.30730E+00 -7.44316E-01  7.08875E-02  9.12167E-01 -5.41993E-01  7.39934E-01
   4.91008E-01  7.11824E-01  2.31770E+00  1.74574E+00  7.03590E-01  1.96127E+00 -9.50739E-01  1.46469E+00 -1.04918E+00  4.34469E-01
   2.60105E+00 -6.06841E-01  6.91719E-01  1.20584E+00 -3.01481E+00 -7.68561E-02  4.52390E-01  2.11953E-01  3.17636E+00  1.68029E+00
   8.57017E-01  3.53217E+00  2.48307E+00  1.77308E+00  1.45030E+00  3.33471E-01  9.49446E-01 -6.44980E-01  7.80891E-01  6.43384E-01
   4.63297E-01  3.20196E+00  3.41421E-01  1.03277E+00 -1.55333E+00  1.20472E+00 -2.76974E-01  7.90571E-01  2.54821E+00 -1.21419E+00
  -3.18148E+00 -9.89556E-01  1.83201E+00 -9.84963E-01 -2.64942E-01  6.62036E-01  1.05916E+00  4.08717E-01  2.49742E+00 -6.61613E-01
  -1.00640E+00  6.50054E-01  1.68914E+00 -5.83938E-02  1.29395E+00  1.45001E+00 -2.84617E+00  4.81569E-01 -1.79463E+00  1.64224E+00
  -3.36447E+00  1.52201E+00  1.32300E-01  4.81489E-01  2.39589E+00  2.14642E+00  1.69541E+00  5.74975E-01  1.08735E+00  1.92461E+00
   2.92304E+00  1.99087E+00 -2.97517E-01 -1.95770E-01  2.33517E+00 -1.49202E-01  5.84635E-02  2.18639E+00 -4.09676E-01  1.84464E+00
  -8.23333E-02  1.59881E+00 -6.94502E-01  6.22774E-01 -3.63055E-01  6.56142E-01 -6.51311E-02  9.26477E-01  1.00159E+00 -1.03005E+00
   1.85308E+00 -5.98659E-01  1.41722E+00  2.41790E+00 -5.77887E-01  3.72723E-01 -1.39005E+00  1.81574E+00  1.86397E+00 -5.44300E-01
  -3.77574E-01  2.79930E-01 -8.27560E-01 -1.21064E+00 -7.09989E-02 -2.53196E+00 -4.86145E+00 -2.36435E-01  1.16085E+00  2.45941E+00
  -2.78495E-01 -1.33636E+00 -1.21212E+00  2.14242E+00 -8.19542E-01  3.78661E+00 -1.55911E+00  3.55501E-01 -1.56552E+00  1.69086E+00
   1.44620E+00  1.52656E+00 -5.38777E-01  1.39848E+00  1.34529E+00  1.40459E+00 -5.56843E-01 -4.62826E-02  1.37064E-01  7.72542E-01
   2.59751E+00  1.35599E-01 -1.28887E-01  7.31800E-01  1.56673E+00  2.47409E-01  1.18823E+00  4.53159E+00  1.42409E+00  2.65075E+00
   2.92146E+00  3.94363E+00  9.36533E-01 -3.05795E-01  4.23808E-01  2.26995E+00 -1.37676E-01  1.49909E+00  2.84704E+00  2.68162E+00
   1.34266E-01  1.75851E+00  2.58688E+00 -1.67139E+00 -5.77639E-01  1.92298E+00  3.13708E+00 -4.33063E-01  6.15407E-03  2.83178E+00
   1.59422E+00  2.92310E+00  3.34768E+00 -9.17241E-01  1.81707E+00  1.69814E+00  1.60229E+00  9.80298E-01  3.52380E+00  7.11363E-01
   1.40277E+00  4.54662E+00  3.29329E+00  2.58755E+00  2.15082E+00  6.53402E+00  5.36588E+00  4.28477E+00  2.91365E+00  7.19730E+00
   6.91457E+00  8.91338E+00  7.08189E+00  7.27312E+00  8.54802E+00  5.34541E+00  6.70354E+00  5.35915E+00  4.89078E+00  5.53190E+00
   6.50261E+00  6.97784E+00  5.68001E+00  3.83601E+00  5.94421E+00  4.13337E+00  3.50330E+00  7.54438E+00  5.06589E+00  1.85872E+00
   4.54912E+00  2.47218E+00  3.59465E+00  2.86111E+00  5.22023E+00  2.83840E+00  2.45229E+00  3.33456E+00  2.23346E+00  1.65202E+00
   3.98095E+00  1.69696E+00  1.13015E+00  3.22599E+00  3.23164E+00  2.12690E+00  3.89217E+00  2.82782E+00  2.16399E+00  3.56680E+00
   1.83338E+00  2.28450E+00  1.91758E+00  2.23436E+00  2.53359E+00  1.30549E+00  1.56309E+00  6.58848E-01  2.78573E+00  4.10247E+00
   2.83996E+00  2.83052E+00  3.87088E+00  1.08369E+00  1.89821E+00 -1.44042E+00  3.06351E+00  6.95449E+00  2.14909E+00  7.04811E-01
   3.10879E+00  2.75864E+00  1.47666E+00  2.81388E+00  3.84279E+00  7.78237E-01  2.37090E+00  1.57717E+00 -2.16506E-01  3.42049E+00
   1.21819E+00  1.12450E+00  3.38380E+00  1.54471E+00  1.82186E+00  2.54855E+00  3.01248E+00  1.45359E+00  1.87396E+00  2.60972E+00
   2.78313E+00  9.29248E-01  2.32480E+00  2.14569E-01  1.80150E+00  8.15253E-01  1.39227E+00  7.28711E-01  4.18494E+00  3.30555E-02
  -6.41602E-01  1.59455E+00 -1.52292E+00  1.01123E+00  2.88441E-01  2.10679E+00 -1.09902E+00  1.62246E+00 -6.41391E-01  1.82483E+00
  -2.73842E-01  3.60638E+00  1.62032E+00 -1.26404E+00  6.22676E-02  1.54738E+00  1.88658E+00 -2.42709E-01  5.48655E-01  1.43794E+00
   1.02747E+00  3.14724E+00 -6.41328E-01 -8.39650E-02  7.09930E-01  5.66577E-01 -9.08487E-01  9.91001E-01  2.31867E+00  5.07576E-01
   1.04712E+00 -2.10531E-01  8.04285E-01  1.46849E+00  2.64383E+00  1.02945E+00  1.55814E+00 -8.28298E-02  1.75703E-01 -7.39399E-01
   1.88283E+00 -1.28479E-01  2.45129E+00  8.18579E-01 -4.32204E-02  1.51770E+00 -1.93238E+00  3.58264E+00  1.59556E+00  7.15176E-01
   1.61175E-01  3.16856E-01  6.37979E-01  3.22603E+00 -1.85639E+00  1.73368E+00 -4.91474E-01  2.24341E+00  4.33100E+00  8.21531E-02
  -8.69384E-01 -8.16525E-02  9.40888E-01  2.76542E-01  3.73709E-01  3.09592E+00 -6.26530E-01 -7.38543E-01
 NY points of the fit to the data follow
   1.65950E-02  1.22670E-02  1.61974E-02  3.68825E-02  1.29709E-01  3.07364E-01  5.10128E-01  6.84126E-01  8.03188E-01  8.69776E-01
   8.94795E-01  8.75023E-01  8.05815E-01  6.90426E-01  5.43661E-01  3.90415E-01  2.56261E-01  1.62434E-01  1.27549E-01  1.35224E-01
   1.43461E-01  1.30771E-01  1.08449E-01  1.10691E-01  1.40566E-01  1.68462E-01  1.88737E-01  2.15561E-01  2.53900E-01  3.01202E-01
   3.52562E-01  4.03496E-01  4.43407E-01  4.51898E-01  4.15396E-01  3.48236E-01  2.75772E-01  2.11713E-01  1.58544E-01  1.19738E-01
   1.20296E-01  1.87833E-01  3.07541E-01  4.36654E-01  5.40116E-01  6.04504E-01  6.28481E-01  6.13081E-01  5.60055E-01  4.75845E-01
   3.71160E-01  2.57735E-01  1.58991E-01  1.02626E-01  9.95236E-02  1.41963E-01  2.02118E-01  2.51497E-01  2.77142E-01  2.79496E-01
   2.65915E-01  2.42609E-01  2.14760E-01  1.85729E-01  1.59180E-01  1.46111E-01  1.51983E-01  1.74611E-01  2.07182E-01  2.41452E-01
   2.69709E-01  2.86331E-01  2.89987E-01  2.81560E-01  2.64250E-01  2.42912E-01  2.21225E-01  2.01422E-01  1.85433E-01  1.76396E-01
   1.67244E-01  1.46485E-01  1.10311E-01  6.56510E-02  2.21190E-02 -1.33003E-02 -3.78199E-02 -5.03002E-02 -5.04620E-02 -3.59866E-02
  -6.55186E-03  3.11314E-02  7.08134E-02  1.08394E-01  1.51611E-01  2.68803E-01  5.69190E-01  9.76154E-01  1.36291E+00  1.65149E+00
   1.82243E+00  1.89643E+00  1.88952E+00  1.79442E+00  1.60067E+00  1.31789E+00  9.84165E-01  6.55505E-01  3.82480E-01  2.01280E-01
   1.22160E-01  1.08608E-01  1.05996E-01  1.02946E-01  1.00293E-01  9.85433E-02  9.86434E-02  1.02588E-01  1.16407E-01  1.65969E-01
   3.34650E-01  6.21776E-01  9.33692E-01  1.19482E+00  1.37241E+00  1.47132E+00  1.50919E+00  1.48932E+00  1.39623E+00  1.22237E+00
   9.85016E-01  7.22603E-01  4.81160E-01  2.99792E-01  1.98917E-01  1.69630E-01  1.70088E-01  1.77633E-01  1.92234E-01  2.13935E-01
   2.40699E-01  2.68001E-01  2.90038E-01  3.02108E-01  3.04119E-01  2.98847E-01  2.90078E-01  2.81503E-01  2.74897E-01  2.70993E-01
   2.70014E-01  2.70784E-01  2.72577E-01  2.74490E-01  2.76374E-01  2.78436E-01  2.80790E-01  2.82995E-01  2.84229E-01  2.84209E-01
   2.83895E-01  2.84080E-01  2.84842E-01  2.85958E-01  2.87191E-01  2.88313E-01  2.89303E-01  2.90111E-01  2.90300E-01  2.89168E-01
   2.86187E-01  2.81353E-01  2.75084E-01  2.67922E-01  2.60295E-01  2.52525E-01  2.44656E-01  2.37646E-01  2.31097E-01  2.24102E-01
   2.17139E-01  2.11020E-01  2.07229E-01  2.08759E-01  2.18134E-01  2.34947E-01  2.54958E-01  2.72939E-01  2.85773E-01  2.91758E-01
   2.88306E-01  2.72748E-01  2.50865E-01  2.30429E-01  2.15805E-01  2.08356E-01  2.08008E-01  2.15176E-01  2.30500E-01  2.52838E-01
   2.77925E-01  3.01245E-01  3.19771E-01  3.31016E-01  3.34751E-01  3.32988E-01  3.29990E-01  3.30459E-01  3.36204E-01  3.49810E-01
   3.68382E-01  3.86691E-01  4.01419E-01  4.11029E-01  4.14385E-01  4.09421E-01  3.96992E-01  3.82906E-01  3.73328E-01  3.70749E-01
   3.75809E-01  3.88097E-01  4.06821E-01  4.29937E-01  4.51374E-01  4.64660E-01  4.71363E-01  4.75783E-01  4.80923E-01  4.88884E-01
   5.02996E-01  5.26386E-01  5.53295E-01  5.74350E-01  5.84633E-01  5.84309E-01  5.74416E-01  5.56751E-01  5.35513E-01  5.17689E-01
   5.08391E-01  5.10517E-01  5.23781E-01  5.45850E-01  5.73676E-01  6.03065E-01  6.29254E-01  6.48066E-01  6.59091E-01  6.63854E-01
   6.64299E-01  6.61977E-01  6.59821E-01  6.60744E-01  6.65637E-01  6.73178E-01  6.81772E-01  6.90170E-01  6.96831E-01  7.00730E-01
   7.02120E-01  7.01379E-01  6.98276E-01  6.92290E-01  6.83304E-01  6.71734E-01  6.58892E-01  6.46711E-01  6.36380E-01  6.28450E-01
   6.23091E-01  6.20000E-01  6.18596E-01  6.18262E-01  6.18561E-01  6.19266E-01  6.20144E-01  6.21155E-01  6.22776E-01  6.25876E-01
   6.31224E-01  6.39400E-01  6.50776E-01  6.65541E-01  6.83725E-01  7.05156E-01  7.29607E-01  7.56835E-01  7.86634E-01  8.18825E-01
   8.53265E-01  8.89746E-01  9.27989E-01  9.67633E-01  1.00816E+00  1.04890E+00  1.08916E+00  1.12823E+00  1.16534E+00  1.19977E+00
   1.23090E+00  1.25823E+00  1.28143E+00  1.30037E+00  1.31515E+00  1.32608E+00  1.33370E+00  1.33878E+00  1.34230E+00  1.34545E+00
   1.34961E+00  1.35632E+00  1.36728E+00  1.38441E+00  1.40985E+00  1.44613E+00  1.49644E+00  1.56529E+00  1.66050E+00  1.80000E+00
   2.00982E+00  2.23391E+00  2.39038E+00  2.45654E+00  2.44929E+00  2.39798E+00  2.31806E+00  2.20924E+00  2.13435E+00  2.18175E+00
   2.36834E+00  2.67352E+00  3.06300E+00  3.50648E+00  3.98001E+00  4.44681E+00  4.85979E+00  5.19706E+00  5.45864E+00  5.66349E+00
   5.85754E+00  6.02762E+00  6.11994E+00  6.12648E+00  6.05155E+00  5.90515E+00  5.70004E+00  5.44384E+00  5.20822E+00  5.05634E+00
   4.99304E+00  5.00142E+00  5.05935E+00  5.14993E+00  5.25815E+00  5.35201E+00  5.38573E+00  5.33631E+00  5.20610E+00  5.00713E+00
   4.76150E+00  4.49714E+00  4.24464E+00  4.02228E+00  3.82031E+00  3.62746E+00  3.44217E+00  3.26443E+00  3.09468E+00  2.93348E+00
   2.78147E+00  2.63918E+00  2.50706E+00  2.38543E+00  2.27452E+00  2.17441E+00  2.08510E+00  2.00651E+00  1.93850E+00  1.88090E+00
   1.83352E+00  1.79616E+00  1.76863E+00  1.75071E+00  1.74223E+00  1.74297E+00  1.75271E+00  1.77117E+00  1.79800E+00  1.83276E+00
   1.87489E+00  1.92371E+00  1.97833E+00  2.03772E+00  2.10064E+00  2.16571E+00  2.23138E+00  2.29598E+00  2.35776E+00  2.41496E+00
   2.46585E+00  2.50883E+00  2.54245E+00  2.56553E+00  2.57715E+00  2.57673E+00  2.56406E+00  2.53927E+00  2.50287E+00  2.45566E+00
   2.39873E+00  2.33338E+00  2.26108E+00  2.18338E+00  2.10187E+00  2.01806E+00  1.93342E+00  1.84926E+00  1.76674E+00  1.68682E+00
   1.61029E+00  1.53772E+00  1.46953E+00  1.40596E+00  1.34712E+00  1.29299E+00  1.24346E+00  1.19833E+00  1.15737E+00  1.12029E+00
   1.08682E+00  1.05663E+00  1.02945E+00  1.00497E+00  9.82940E-01  9.63097E-01  9.45215E-01  9.29083E-01  9.14511E-01  9.01332E-01
   8.89398E-01  8.78578E-01  8.68754E-01  8.59819E-01  8.51684E-01  8.44269E-01  8.37505E-01  8.31329E-01  8.25686E-01  8.20524E-01
   8.15800E-01  8.11479E-01  8.07527E-01  8.03912E-01  8.00606E-01  7.97582E-01  7.94821E-01  7.92303E-01  7.90012E-01  7.87928E-01
   7.86037E-01  7.84324E-01  7.82780E-01  7.81394E-01  7.80155E-01  7.79052E-01  7.78077E-01  7.77221E-01  7.76480E-01  7.75846E-01
   7.75314E-01  7.74874E-01  7.74523E-01  7.74256E-01  7.74072E-01  7.73963E-01  7.73926E-01  7.73955E-01  7.74048E-01  7.74204E-01
   7.74420E-01  7.74691E-01  7.75014E-01  7.75387E-01  7.75809E-01  7.76277E-01  7.76792E-01  7.77347E-01  7.77942E-01  7.78576E-01
   7.79249E-01  7.79958E-01  7.80703E-01  7.81480E-01  7.82289E-01  7.83130E-01  7.84003E-01  7.84907E-01
 NY background values follow
    -1.852E-01   -1.834E-01   -1.815E-01   -1.797E-01   -1.778E-01   -1.760E-01   -1.742E-01   -1.723E-01   -1.705E-01   -1.686E-01
    -1.668E-01   -1.650E-01   -1.631E-01   -1.613E-01   -1.594E-01   -1.576E-01   -1.558E-01   -1.539E-01   -1.521E-01   -1.502E-01
    -1.484E-01   -1.466E-01   -1.447E-01   -1.429E-01   -1.410E-01   -1.392E-01   -1.374E-01   -1.355E-01   -1.337E-01   -1.318E-01
    -1.300E-01   -1.282E-01   -1.263E-01   -1.245E-01   -1.226E-01   -1.208E-01   -1.190E-01   -1.171E-01   -1.153E-01   -1.134E-01
    -1.116E-01   -1.098E-01   -1.079E-01   -1.061E-01   -1.042E-01   -1.024E-01   -1.005E-01   -9.871E-02   -9.687E-02   -9.503E-02
    -9.319E-02   -9.135E-02   -8.951E-02   -8.767E-02   -8.583E-02   -8.399E-02   -8.215E-02   -8.030E-02   -7.846E-02   -7.662E-02
    -7.478E-02   -7.294E-02   -7.110E-02   -6.926E-02   -6.742E-02   -6.558E-02   -6.374E-02   -6.190E-02   -6.006E-02   -5.822E-02
    -5.638E-02   -5.454E-02   -5.270E-02   -5.086E-02   -4.902E-02   -4.718E-02   -4.534E-02   -4.350E-02   -4.166E-02   -3.982E-02
    -3.798E-02   -3.614E-02   -3.430E-02   -3.246E-02   -3.062E-02   -2.878E-02   -2.694E-02   -2.510E-02   -2.325E-02   -2.141E-02
    -1.957E-02   -1.773E-02   -1.589E-02   -1.405E-02   -1.221E-02   -1.037E-02   -8.533E-03   -6.692E-03   -4.852E-03   -3.012E-03
    -1.171E-03    6.689E-04    2.509E-03    4.349E-03    6.190E-03    8.030E-03    9.870E-03    1.171E-02    1.355E-02    1.539E-02
     1.723E-02    1.907E-02    2.091E-02    2.275E-02    2.459E-02    2.643E-02    2.827E-02    3.011E-02    3.195E-02    3.379E-02
     3.563E-02    3.747E-02    3.931E-02    4.115E-02    4.299E-02    4.484E-02    4.668E-02    4.852E-02    5.036E-02    5.220E-02
     5.404E-02    5.588E-02    5.772E-02    5.956E-02    6.140E-02    6.324E-02    6.508E-02    6.692E-02    6.876E-02    7.060E-02
     7.244E-02    7.428E-02    7.612E-02    7.796E-02    7.980E-02    8.164E-02    8.348E-02    8.532E-02    8.716E-02    8.900E-02
     9.084E-02    9.268E-02    9.452E-02    9.636E-02    9.820E-02    1.000E-01    1.019E-01    1.037E-01    1.056E-01    1.074E-01
     1.092E-01    1.111E-01    1.129E-01    1.148E-01    1.166E-01    1.184E-01    1.203E-01    1.221E-01    1.240E-01    1.258E-01
     1.276E-01    1.295E-01    1.313E-01    1.332E-01    1.350E-01    1.368E-01    1.387E-01    1.405E-01    1.424E-01    1.442E-01
     1.460E-01    1.479E-01    1.497E-01    1.516E-01    1.534E-01    1.552E-01    1.571E-01    1.589E-01    1.608E-01    1.626E-01
     1.644E-01    1.663E-01    1.681E-01    1.700E-01    1.718E-01    1.736E-01    1.755E-01    1.773E-01    1.792E-01    1.810E-01
     1.828E-01    1.847E-01    1.865E-01    1.884E-01    1.902E-01    1.920E-01    1.939E-01    1.957E-01    1.976E-01    1.994E-01
     2.012E-01    2.031E-01    2.049E-01    2.068E-01    2.086E-01    2.104E-01    2.123E-01    2.141E-01    2.160E-01    2.178E-01
     2.196E-01    2.215E-01    2.233E-01    2.252E-01    2.270E-01    2.288E-01    2.307E-01    2.325E-01    2.344E-01    2.362E-01
     2.380E-01    2.399E-01    2.417E-01    2.436E-01    2.454E-01    2.473E-01    2.491E-01    2.509E-01    2.528E-01    2.546E-01
     2.565E-01    2.583E-01    2.601E-01    2.620E-01    2.638E-01    2.657E-01    2.675E-01    2.693E-01    2.712E-01    2.730E-01
     2.749E-01    2.767E-01    2.785E-01    2.804E-01    2.822E-01    2.841E-01    2.859E-01    2.877E-01    2.896E-01    2.914E-01
     2.933E-01    2.951E-01    2.969E-01    2.988E-01    3.006E-01    3.025E-01    3.043E-01    3.061E-01    3.080E-01    3.098E-01
     3.117E-01    3.135E-01    3.153E-01    3.172E-01    3.190E-01    3.209E-01    3.227E-01    3.245E-01    3.264E-01    3.282E-01
     3.301E-01    3.319E-01    3.337E-01    3.356E-01    3.374E-01    3.393E-01    3.411E-01    3.429E-01    3.448E-01    3.466E-01
     3.485E-01    3.503E-01    3.521E-01    3.540E-01    3.558E-01    3.577E-01    3.595E-01    3.613E-01    3.632E-01    3.650E-01
     3.669E-01    3.687E-01    3.705E-01    3.724E-01    3.742E-01    3.761E-01    3.779E-01    3.797E-01    3.816E-01    3.834E-01
     3.853E-01    3.871E-01    3.889E-01    3.908E-01    3.926E-01    3.945E-01    3.963E-01    3.981E-01    4.000E-01    4.018E-01
     4.037E-01    4.055E-01    4.073E-01    4.092E-01    4.110E-01    4.129E-01    4.147E-01    4.165E-01    4.184E-01    4.202E-01
     4.221E-01    4.239E-01    4.257E-01    4.276E-01    4.294E-01    4.313E-01    4.331E-01    4.349E-01    4.368E-01    4.386E-01
     4.405E-01    4.423E-01    4.441E-01    4.460E-01    4.478E-01    4.497E-01    4.515E-01    4.533E-01    4.552E-01    4.570E-01
     4.589E-01    4.607E-01    4.625E-01    4.644E-01    4.662E-01    4.681E-01    4.699E-01    4.717E-01    4.736E-01    4.754E-01
     4.773E-01    4.791E-01    4.809E-01    4.828E-01    4.846E-01    4.865E-01    4.883E-01    4.901E-01    4.920E-01    4.938E-01
     4.957E-01    4.975E-01    4.993E-01    5.012E-01    5.030E-01    5.049E-01    5.067E-01    5.085E-01    5.104E-01    5.122E-01
     5.141E-01    5.159E-01    5.177E-01    5.196E-01    5.214E-01    5.233E-01    5.251E-01    5.269E-01    5.288E-01    5.306E-01
     5.325E-01    5.343E-01    5.361E-01    5.380E-01    5.398E-01    5.417E-01    5.435E-01    5.453E-01    5.472E-01    5.490E-01
     5.509E-01    5.527E-01    5.545E-01    5.564E-01    5.582E-01    5.601E-01    5.619E-01    5.637E-01    5.656E-01    5.674E-01
     5.693E-01    5.711E-01    5.729E-01    5.748E-01    5.766E-01    5.785E-01    5.803E-01    5.821E-01    5.840E-01    5.858E-01
     5.876E-01    5.895E-01    5.913E-01    5.932E-01    5.950E-01    5.968E-01    5.987E-01    6.005E-01    6.024E-01    6.042E-01
     6.060E-01    6.079E-01    6.097E-01    6.116E-01    6.134E-01    6.152E-01    6.171E-01    6.189E-01    6.208E-01    6.226E-01
     6.244E-01    6.263E-01    6.281E-01    6.300E-01    6.318E-01    6.336E-01    6.355E-01    6.373E-01    6.392E-01    6.410E-01
     6.428E-01    6.447E-01    6.465E-01    6.484E-01    6.502E-01    6.520E-01    6.539E-01    6.557E-01    6.576E-01    6.594E-01
     6.612E-01    6.631E-01    6.649E-01    6.668E-01    6.686E-01    6.704E-01    6.723E-01    6.741E-01    6.760E-01    6.778E-01
     6.796E-01    6.815E-01    6.833E-01    6.852E-01    6.870E-01    6.888E-01    6.907E-01    6.925E-01    6.944E-01    6.962E-01
     6.980E-01    6.999E-01    7.017E-01    7.036E-01    7.054E-01    7.072E-01    7.091E-01    7.109E-01    7.128E-01    7.146E-01
     7.164E-01    7.183E-01    7.201E-01    7.220E-01    7.238E-01    7.256E-01    7.275E-01    7.293E-01
 Ala      Conc. = 7.21E+01
