 LCModel (Version 6.3-1L) Copyright: S.W. Provencher.          Ref.: Magn. Reson. Med. 30:672-679 (1993).                
 Slice#3 Row#6 Col#9  PD_24_press_2_raw_act
 36 lines in following concentration table = NCONC+1
    Conc.  %SD /Cr+PCr  Metabolite                                         
   62.028 375% 5.9E-02 Ala                                                 
   46.201 611% 4.4E-02 Asp                                                 
    0.000 999%   0.000 Cr                                                  
 1.06E+03  11%   1.000 PCr                                                 
  152.014 116%   0.144 GABA                                                
  220.193  79%   0.209 Glc                                                 
  267.175 183%   0.253 Gln                                                 
  899.308  61%   0.852 Glu                                                 
  580.551   8%   0.550 GPC                                                 
    0.000 999%   0.000 PCh                                                 
  452.673  34%   0.429 GSH                                                 
 1.47E+03  32%   1.393 Ins                                                 
    0.000 999%   0.000 Lac                                                 
  903.349  19%   0.856 NAA                                                 
  920.950  19%   0.872 NAAG                                                
   77.196  56% 7.3E-02 Scyllo                                              
   40.401 663% 3.8E-02 Tau                                                 
  513.129  35%   0.486 -CrCH2                                              
  580.551   8%   0.550 GPC+PCh                                             
 1.82E+03   7%   1.728 NAA+NAAG                                            
 1.06E+03  11%   1.000 Cr+PCr                                              
 1.17E+03  66%   1.105 Glu+Gln                                             
    0.000 999%   0.000 Lip13a                                              
    0.000 999%   0.000 Lip13b                                              
    0.000 999%   0.000 Lip09                                               
  116.698 107%   0.111 MM09                                                
    8.604 735% 8.1E-03 Lip20                                               
  197.719 104%   0.187 MM20                                                
   32.661 137% 3.1E-02 MM12                                                
    0.000 999%   0.000 MM14                                                
  206.626  41%   0.196 MM17                                                
    0.000 999%   0.000 Lip13a+Lip13b                                       
   32.661 137% 3.1E-02 MM14+Lip13a+Lip13b+MM12                             
  116.698 107%   0.111 MM09+Lip09                                          
  206.323 104%   0.195 MM20+Lip20                                          
   6 lines in following misc. output table
  FWHM = 0.061 ppm    S/N =   3                                            
  Data shift = 0.023 ppm                                                   
  Ph:  -3 deg       8.7 deg/ppm                                            
  alphaB,S = 8.5E+01,   8.7E+01                                            
   14 spline knots.   Ns = 7(1)                                            
   2 inflections.     1 extrema                                            
  498 points on ppm-axis = NY
      4.000000     3.992357     3.984714     3.977070     3.969427     3.961784     3.954141     3.946497     3.938854     3.931211
      3.923568     3.915925     3.908281     3.900638     3.892995     3.885352     3.877708     3.870065     3.862422     3.854779
      3.847136     3.839492     3.831849     3.824206     3.816563     3.808919     3.801276     3.793633     3.785990     3.778347
      3.770703     3.763060     3.755417     3.747774     3.740130     3.732487     3.724844     3.717201     3.709558     3.701914
      3.694271     3.686628     3.678985     3.671341     3.663698     3.656055     3.648412     3.640769     3.633125     3.625482
      3.617839     3.610196     3.602552     3.594909     3.587266     3.579623     3.571980     3.564336     3.556693     3.549050
      3.541407     3.533763     3.526120     3.518477     3.510834     3.503191     3.495547     3.487904     3.480261     3.472618
      3.464974     3.457331     3.449688     3.442045     3.434402     3.426758     3.419115     3.411472     3.403829     3.396185
      3.388542     3.380899     3.373256     3.365613     3.357969     3.350326     3.342683     3.335040     3.327396     3.319753
      3.312110     3.304467     3.296824     3.289180     3.281537     3.273894     3.266251     3.258607     3.250964     3.243321
      3.235678     3.228034     3.220391     3.212748     3.205105     3.197462     3.189818     3.182175     3.174532     3.166889
      3.159245     3.151602     3.143959     3.136316     3.128673     3.121029     3.113386     3.105743     3.098100     3.090456
      3.082813     3.075170     3.067527     3.059884     3.052240     3.044597     3.036954     3.029311     3.021667     3.014024
      3.006381     2.998738     2.991095     2.983451     2.975808     2.968165     2.960522     2.952878     2.945235     2.937592
      2.929949     2.922306     2.914662     2.907019     2.899376     2.891733     2.884089     2.876446     2.868803     2.861160
      2.853517     2.845873     2.838230     2.830587     2.822944     2.815300     2.807657     2.800014     2.792371     2.784728
      2.777084     2.769441     2.761798     2.754155     2.746511     2.738868     2.731225     2.723582     2.715939     2.708295
      2.700652     2.693009     2.685366     2.677722     2.670079     2.662436     2.654793     2.647150     2.639506     2.631863
      2.624220     2.616577     2.608933     2.601290     2.593647     2.586004     2.578361     2.570717     2.563074     2.555431
      2.547788     2.540144     2.532501     2.524858     2.517215     2.509572     2.501928     2.494285     2.486642     2.478999
      2.471355     2.463712     2.456069     2.448426     2.440783     2.433139     2.425496     2.417853     2.410210     2.402566
      2.394923     2.387280     2.379637     2.371994     2.364350     2.356707     2.349064     2.341421     2.333777     2.326134
      2.318491     2.310848     2.303205     2.295561     2.287918     2.280275     2.272632     2.264988     2.257345     2.249702
      2.242059     2.234416     2.226772     2.219129     2.211486     2.203843     2.196199     2.188556     2.180913     2.173270
      2.165627     2.157983     2.150340     2.142697     2.135054     2.127410     2.119767     2.112124     2.104481     2.096838
      2.089194     2.081551     2.073908     2.066265     2.058621     2.050978     2.043335     2.035692     2.028049     2.020405
      2.012762     2.005119     1.997476     1.989833     1.982190     1.974546     1.966903     1.959260     1.951617     1.943974
      1.936331     1.928688     1.921045     1.913402     1.905759     1.898115     1.890472     1.882829     1.875186     1.867543
      1.859900     1.852257     1.844614     1.836971     1.829327     1.821684     1.814041     1.806398     1.798755     1.791112
      1.783469     1.775826     1.768183     1.760540     1.752896     1.745253     1.737610     1.729967     1.722324     1.714681
      1.707038     1.699395     1.691752     1.684108     1.676465     1.668822     1.661179     1.653536     1.645893     1.638250
      1.630607     1.622964     1.615321     1.607677     1.600034     1.592391     1.584748     1.577105     1.569462     1.561819
      1.554176     1.546533     1.538890     1.531246     1.523603     1.515960     1.508317     1.500674     1.493031     1.485388
      1.477745     1.470102     1.462458     1.454815     1.447172     1.439529     1.431886     1.424243     1.416600     1.408957
      1.401314     1.393671     1.386027     1.378384     1.370741     1.363098     1.355455     1.347812     1.340169     1.332526
      1.324883     1.317240     1.309596     1.301953     1.294310     1.286667     1.279024     1.271381     1.263738     1.256095
      1.248452     1.240808     1.233165     1.225522     1.217879     1.210236     1.202593     1.194950     1.187307     1.179664
      1.172021     1.164377     1.156734     1.149091     1.141448     1.133805     1.126162     1.118519     1.110876     1.103233
      1.095590     1.087946     1.080303     1.072660     1.065017     1.057374     1.049731     1.042088     1.034445     1.026802
      1.019158     1.011515     1.003872     0.996229     0.988586     0.980943     0.973300     0.965657     0.958014     0.950371
      0.942727     0.935084     0.927441     0.919798     0.912155     0.904512     0.896869     0.889226     0.881583     0.873940
      0.866296     0.858653     0.851010     0.843367     0.835724     0.828081     0.820438     0.812795     0.805152     0.797508
      0.789865     0.782222     0.774579     0.766936     0.759293     0.751650     0.744007     0.736364     0.728721     0.721077
      0.713434     0.705791     0.698148     0.690505     0.682862     0.675219     0.667576     0.659933     0.652290     0.644646
      0.637003     0.629360     0.621717     0.614074     0.606431     0.598788     0.591145     0.583502     0.575858     0.568215
      0.560572     0.552929     0.545286     0.537643     0.530000     0.522357     0.514714     0.507071     0.499427     0.491784
      0.484141     0.476498     0.468855     0.461212     0.453569     0.445925     0.438282     0.430639     0.422996     0.415353
      0.407710     0.400067     0.392424     0.384780     0.377137     0.369494     0.361851     0.354208     0.346565     0.338922
      0.331278     0.323635     0.315992     0.308349     0.300706     0.293063     0.285420     0.277777     0.270133     0.262490
      0.254847     0.247204     0.239561     0.231918     0.224275     0.216631     0.208988     0.201345
 NY phased data points follow
  -5.29023E+00  5.34975E+00  2.66543E+00  1.49177E+01  1.49950E+01  7.48853E+00  1.24126E+01  1.87181E+01  2.15020E+01  3.34179E+01
   1.86598E+01  1.65934E+01  1.09745E+01  8.00789E+00  8.95749E+00  5.49696E+00  2.98266E+00  5.92710E-01  1.48212E+01  1.21562E+01
   1.17738E+01  1.95662E+01  1.35919E+01  2.73714E+01  2.19755E+01  1.73395E+01  1.87653E+01  1.91623E+01  1.92025E+01  9.09248E+00
   1.37913E+01  1.37458E+01  1.75543E+01  4.64989E+00  1.14513E+01  8.36778E+00  1.76857E+01  1.92008E+01  1.69138E+01  1.04352E+01
   1.80145E+01  1.03348E+01  1.59374E+01  1.25964E+01  1.18056E+01  2.10026E+01  2.25948E+01  2.48847E+01  1.63610E+01  1.53075E+01
   2.16266E+01  1.35855E+01  1.49653E+01  1.52259E+01  1.55508E+01  2.91354E+00  7.64025E+00  2.36853E+01  4.01379E+00  8.38907E+00
   1.76721E+00 -7.79785E+00  2.02233E+00 -3.09880E+00  2.62978E+00 -6.38425E-01 -1.81704E+00  5.82577E+00  1.49705E+01  9.02479E-01
   7.40646E+00  7.79642E+00  7.62713E+00  1.81697E+01  8.57773E+00  9.22857E+00  7.37585E+00  1.33857E+00  8.33196E+00  8.84697E+00
  -1.07433E-01  1.16633E+01  2.77790E+00  9.98253E+00 -2.86051E+00  1.98634E+01  4.75477E+00  7.27815E+00  6.35060E+00 -5.65398E-01
   1.10523E+01  6.47949E+00  1.83886E+00  8.51415E+00  4.78258E+00 -4.23040E+00  1.17381E+01  1.85923E+01  2.20956E+01  3.52028E+01
   3.61066E+01  5.25846E+01  5.02515E+01  6.62925E+01  5.90538E+01  3.55489E+01  2.94191E+01  1.96682E+01  1.27538E+01  6.88305E+00
   7.11883E+00 -5.78372E-02  7.90831E+00  9.76259E+00 -7.11646E+00 -4.77095E-01  1.52279E+00  1.80562E+00  1.02350E+01  2.68687E-01
  -2.24952E-01  5.29130E+00  1.03321E+01  1.84643E+01  1.29042E+01  3.65596E+01  3.25795E+01  3.50825E+01  4.38499E+01  3.26986E+01
   3.44075E+01  2.24328E+01  2.31457E+01  6.78876E+00  3.91212E+00  2.34488E+00  9.01709E+00 -4.22586E+00  6.50812E+00 -3.73114E+00
   5.81284E+00  1.75021E+00  1.49092E+01  2.33287E+00 -2.98891E+00  1.96302E+00  8.78041E+00  5.79853E+00  1.10210E+01 -5.16149E+00
   1.62848E+01 -4.60956E+00  1.05119E+01  5.61773E+00 -2.37498E+00 -3.72799E+00  8.18882E+00 -3.07506E-01  7.32677E+00  3.39382E-01
   2.86120E+00 -5.41469E-01 -6.08404E+00 -4.13355E+00 -1.54893E+00  1.01627E+01  9.66177E-01 -9.48172E+00 -7.97545E+00 -1.75944E+01
   2.16493E+00 -1.24949E+01 -5.84404E+00 -7.44306E+00 -7.80858E+00 -7.65140E+00 -2.52271E+00 -6.19213E+00 -7.20855E+00  5.42885E+00
  -1.64214E+01 -8.31392E+00 -9.18662E+00 -4.10528E+00 -5.07523E+00 -2.56043E+00 -1.07692E+01 -4.13859E+00 -6.56312E+00 -8.38220E+00
  -6.54904E-01 -3.89206E-01 -2.34590E+00  4.93965E+00  3.89999E+00  1.83075E+00 -1.78619E+01 -5.41823E+00 -4.70013E-01 -6.41824E+00
   4.77240E+00 -4.90954E+00  9.51743E+00 -2.14899E+00 -3.76549E+00  1.03008E+00 -1.90945E+00 -4.27322E+00  2.78310E+00  4.84636E+00
   6.72854E+00  6.67739E+00  4.03232E-01 -4.63286E+00  6.42650E+00  2.23029E+00  9.64973E+00  8.04366E+00  9.91177E+00  6.68173E+00
   7.13443E+00 -1.37558E+00 -4.99156E+00 -2.70985E+00 -8.98851E-01  1.33736E+01  9.32381E+00  5.90453E+00 -7.10129E+00  6.33251E+00
   1.64067E+01 -9.63752E-01  2.50297E-01 -5.01999E+00  9.84114E+00 -2.63787E+00  2.70397E+00 -8.25180E+00  7.16011E+00  4.79468E+00
  -1.58306E+00 -3.18600E+00  1.56862E+00  4.76655E+00 -7.01208E-01  5.47598E+00  5.67876E+00  1.16484E+00  1.14329E+00  2.58515E+00
   7.87763E+00  1.26496E+01  1.62156E+01  2.73525E+01  3.26887E+01  4.21678E+01  3.94982E+01  3.48611E+01  3.57937E+01  4.42844E+01
   5.84816E+01  3.49997E+01  3.11496E+01  2.63591E+01  1.70397E+01  7.72509E+00  7.03488E+00 -4.01994E+00 -1.86180E+00  2.13593E+00
   3.51597E-01 -4.72279E+00  7.21106E+00 -2.76300E+00 -8.05572E-01  1.38262E+01 -1.04265E+00 -6.06059E+00  1.94081E+00 -1.36830E+01
   1.17750E+01 -8.80170E-01  9.76371E+00  4.64083E+00  3.14081E+00  1.23370E+01  1.04881E+00  4.78129E+00  7.38045E-02  1.40051E+01
   1.03141E+01  1.51675E+01  5.90439E+00  9.36940E+00  4.64822E+00  5.80819E+00  1.53917E+01  1.68434E+01  7.14418E+00  6.37118E+00
   1.88607E+01  1.29975E+01  1.91077E+01  2.24225E+01  2.11527E+01  1.76851E+01  2.72509E+01  2.08330E+01  1.47509E+01  8.00176E+00
   1.61308E+01  9.64739E-01  1.41360E+01  1.43691E+01  1.36743E+01 -5.29972E+00  7.61992E+00  5.52170E+00  6.75671E-01 -7.33705E+00
  -4.68218E+00 -1.17613E+01 -4.98875E+00 -1.31360E+01  7.93007E+00 -1.05061E+01 -5.77820E+00 -8.44990E+00 -8.79307E+00 -1.58579E+01
  -1.48778E+01 -9.02805E+00 -9.07254E+00 -2.35849E+01 -1.39970E+01 -1.11074E+01 -1.29007E+01 -1.83276E+01 -1.64458E+01 -2.11529E+01
  -8.97873E+00 -1.27462E+01 -1.12044E+01 -1.27654E+01 -1.86832E+00 -1.05239E+00  4.91259E+00 -3.49582E+00 -4.59834E+00  1.69321E+00
  -1.10811E+01 -7.19846E+00 -1.28208E+01  9.85610E-01 -7.34212E+00 -2.20646E+00  1.27470E+01 -1.38138E+00 -4.90311E+00 -8.82042E+00
  -5.60848E+00 -4.10364E+00  6.29976E-01  1.12397E+01  4.50158E+00  7.12738E+00 -9.49273E+00 -7.15893E+00  1.63140E+00 -6.70306E-01
  -9.82703E+00 -9.12130E+00  5.25336E+00  1.15253E+00 -3.46967E+00 -8.96794E+00 -1.48791E-02 -1.36161E+01 -4.72629E+00 -9.05876E+00
  -7.99116E+00 -1.40334E+01 -1.18176E+01 -5.14798E+00 -4.46052E+00 -9.23417E+00 -8.71937E+00 -1.06994E+01 -7.69386E+00 -1.27682E+01
  -3.93166E+00 -5.83410E+00 -3.11889E+00  5.81442E-01 -2.50551E+00 -4.23442E-01 -5.53848E+00 -1.04915E+01 -3.00755E+00 -9.24556E-01
  -1.42445E+01  2.71335E+00 -1.34026E+01  6.14695E-01 -9.84686E+00 -5.38809E+00 -3.98595E+00 -1.31286E+00 -1.08323E+01 -6.41376E+00
  -1.07237E+01 -1.55578E+00  9.85750E+00 -9.73720E+00 -4.17131E+00 -6.41835E+00 -2.79500E+00 -6.31432E+00 -5.57785E+00 -5.76361E+00
  -5.90475E+00 -1.31870E+01 -6.09740E+00 -1.16244E+01 -5.60956E+00 -2.00356E+00 -1.20626E+01 -8.02592E+00 -3.44863E+00 -1.17092E+01
  -4.45065E+00 -3.07674E+00 -4.97210E+00 -4.59573E+00 -2.10156E+00 -8.65606E+00  2.82965E+00 -2.07810E+00 -3.56420E+00 -6.11232E+00
  -1.03015E+00 -9.18604E+00 -8.51223E+00 -5.03382E+00 -1.02120E+01 -4.34195E+00 -2.42430E+00 -2.93597E+00 -1.44109E+01 -1.05907E+01
  -8.71771E+00 -2.64374E+00 -4.21071E+00 -5.40201E+00 -7.73144E+00 -2.80276E+00 -1.22333E+01 -9.70602E+00 -5.55359E+00 -2.26476E+00
  -1.17546E+01 -1.09552E+01 -4.66852E+00 -3.67896E-01 -4.20753E+00 -3.67433E+00 -1.03993E+01  1.46068E+00  1.95471E+00  1.57983E+00
  -6.50222E+00  1.44607E+00 -8.09373E+00 -5.79542E+00 -2.75561E-01 -2.85686E+00 -6.71044E+00 -4.09725E+00 -1.09623E+01 -3.56134E+00
   8.14847E-02  6.00012E+00  8.82454E+00 -1.65264E+00 -7.08727E+00  1.06137E+01  1.43362E+00  1.03641E+01 -6.49390E-01 -1.67057E-01
  -2.86847E+00  2.31640E+00 -7.80499E+00  1.45314E-01  2.99603E+00 -2.35029E+00 -1.50918E+00 -5.62135E+00
 NY points of the fit to the data follow
   9.02528E+00  8.86310E+00  9.23324E+00  1.04812E+01  1.22728E+01  1.42735E+01  1.64021E+01  1.85497E+01  2.03902E+01  2.14224E+01
   2.12914E+01  1.99912E+01  1.79538E+01  1.57373E+01  1.36902E+01  1.19741E+01  1.06799E+01  9.80478E+00  9.27036E+00  8.93700E+00
   8.69304E+00  8.46418E+00  8.50600E+00  9.13787E+00  1.01448E+01  1.13979E+01  1.29815E+01  1.48675E+01  1.67312E+01  1.80651E+01
   1.85395E+01  1.81220E+01  1.70237E+01  1.55185E+01  1.37772E+01  1.20499E+01  1.06571E+01  9.64702E+00  8.90858E+00  8.52385E+00
   8.75785E+00  9.69038E+00  1.10830E+01  1.27067E+01  1.44517E+01  1.61692E+01  1.74817E+01  1.79016E+01  1.71793E+01  1.54923E+01
   1.32852E+01  1.10076E+01  9.08063E+00  7.80616E+00  7.27886E+00  7.39439E+00  7.90190E+00  8.55667E+00  9.15475E+00  9.50703E+00
   9.47639E+00  9.01379E+00  8.23808E+00  7.34949E+00  6.57572E+00  6.12897E+00  6.06571E+00  6.32970E+00  6.82105E+00  7.42509E+00
   8.00895E+00  8.44463E+00  8.66094E+00  8.65227E+00  8.46753E+00  8.17445E+00  7.82046E+00  7.43963E+00  7.10123E+00  6.95847E+00
   6.99869E+00  7.04541E+00  7.04274E+00  7.02896E+00  6.96159E+00  6.69339E+00  6.11298E+00  5.28095E+00  4.41368E+00  3.78288E+00
   3.49832E+00  3.49104E+00  3.68455E+00  4.03947E+00  4.59850E+00  6.15923E+00  1.04677E+01  1.67721E+01  2.40062E+01  3.22750E+01
   4.15914E+01  5.05048E+01  5.63675E+01  5.69788E+01  5.20153E+01  4.32633E+01  3.32166E+01  2.35706E+01  1.53085E+01  9.26056E+00
   5.75831E+00  4.23869E+00  3.69927E+00  3.44957E+00  3.26962E+00  3.11590E+00  2.96616E+00  2.83252E+00  2.78122E+00  3.05481E+00
   4.66570E+00  8.16515E+00  1.26904E+01  1.78341E+01  2.37018E+01  2.99467E+01  3.52978E+01  3.80661E+01  3.72130E+01  3.31239E+01
   2.72137E+01  2.08017E+01  1.46679E+01  9.36669E+00  5.46075E+00  3.12897E+00  2.05812E+00  1.80676E+00  2.08240E+00  2.68086E+00
   3.36790E+00  3.91933E+00  4.19970E+00  4.18643E+00  3.94975E+00  3.58991E+00  3.19018E+00  2.78304E+00  2.38755E+00  2.03400E+00
   1.72186E+00  1.44877E+00  1.23657E+00  1.08500E+00  9.88321E-01  9.60313E-01  9.88067E-01  9.98146E-01  9.26096E-01  7.35475E-01
   4.52732E-01  1.60359E-01 -8.27305E-02 -2.94956E-01 -4.89851E-01 -6.69302E-01 -8.48801E-01 -1.03650E+00 -1.23468E+00 -1.42651E+00
  -1.56442E+00 -1.62396E+00 -1.67601E+00 -1.80802E+00 -2.03822E+00 -2.29961E+00 -2.49194E+00 -2.55572E+00 -2.55158E+00 -2.55056E+00
  -2.56364E+00 -2.51168E+00 -2.28950E+00 -1.86623E+00 -1.25692E+00 -4.65812E-01  4.65997E-01  1.46409E+00  2.42825E+00  3.18802E+00
   3.53118E+00  3.34956E+00  2.73637E+00  1.86293E+00  9.15552E-01  1.24139E-01 -2.82026E-01 -1.55681E-01  4.79048E-01  1.43539E+00
   2.43347E+00  3.22872E+00  3.67961E+00  3.65810E+00  3.14371E+00  2.23108E+00  1.03100E+00 -2.62715E-01 -1.36441E+00 -1.92859E+00
  -1.81776E+00 -1.14065E+00 -3.58819E-02  1.30428E+00  2.56676E+00  3.30744E+00  3.18463E+00  2.23677E+00  7.96856E-01 -7.97805E-01
  -2.22913E+00 -3.17876E+00 -3.36201E+00 -2.72837E+00 -1.60482E+00 -4.21112E-01  5.30647E-01  1.10995E+00  1.30310E+00  1.18756E+00
   1.00145E+00  1.00053E+00  1.30011E+00  1.83506E+00  2.39351E+00  2.71903E+00  2.57847E+00  1.94648E+00  9.79033E-01 -1.15003E-01
  -1.12042E+00 -1.80191E+00 -1.98687E+00 -1.65523E+00 -9.63351E-01 -1.66969E-01  5.16540E-01  1.03482E+00  1.82371E+00  3.91021E+00
   7.13699E+00  1.10226E+01  1.57377E+01  2.20605E+01  2.98851E+01  3.71442E+01  4.21854E+01  4.48192E+01  4.57098E+01  4.51638E+01
   4.27307E+01  3.80082E+01  3.15624E+01  2.46850E+01  1.83435E+01  1.27967E+01  8.20081E+00  4.88794E+00  2.94124E+00  1.99997E+00
   1.58346E+00  1.41567E+00  1.38317E+00  1.39795E+00  1.37536E+00  1.26536E+00  1.07072E+00  8.24331E-01  5.65982E-01  3.38018E-01
   1.69009E-01  7.04195E-02  3.71939E-02  4.05181E-02  4.56572E-02  4.34790E-02  3.66292E-02  2.51942E-02  1.61741E-02  2.85674E-02
   8.04649E-02  1.69838E-01  2.72520E-01  3.67504E-01  4.43779E-01  4.96366E-01  5.24967E-01  5.34576E-01  5.38409E-01  5.52439E-01
   5.85185E-01  6.31264E-01  6.77911E-01  7.13525E-01  7.29924E-01  7.20470E-01  6.81943E-01  6.15490E-01  5.26028E-01  4.18796E-01
   2.98500E-01  1.69010E-01  3.41287E-02 -1.02689E-01 -2.37689E-01 -3.67382E-01 -4.88121E-01 -5.96401E-01 -6.87326E-01 -7.51822E-01
  -7.73197E-01 -7.68634E-01 -7.74978E-01 -8.00378E-01 -8.48187E-01 -9.42122E-01 -1.11853E+00 -1.39725E+00 -1.73443E+00 -2.04072E+00
  -2.26499E+00 -2.38924E+00 -2.40057E+00 -2.28806E+00 -2.07010E+00 -1.80911E+00 -1.58395E+00 -1.44649E+00 -1.40115E+00 -1.42644E+00
  -1.50096E+00 -1.60477E+00 -1.71307E+00 -1.80532E+00 -1.87554E+00 -1.92968E+00 -1.97433E+00 -2.01309E+00 -2.04762E+00 -2.07912E+00
  -2.10818E+00 -2.13543E+00 -2.16108E+00 -2.18552E+00 -2.20888E+00 -2.23150E+00 -2.25349E+00 -2.27514E+00 -2.29648E+00 -2.31776E+00
  -2.33904E+00 -2.36059E+00 -2.38246E+00 -2.40481E+00 -2.42760E+00 -2.45098E+00 -2.47488E+00 -2.49942E+00 -2.52447E+00 -2.55003E+00
  -2.57588E+00 -2.60201E+00 -2.62819E+00 -2.65437E+00 -2.68025E+00 -2.70569E+00 -2.73035E+00 -2.75412E+00 -2.77666E+00 -2.79783E+00
  -2.81722E+00 -2.83463E+00 -2.84969E+00 -2.86222E+00 -2.87187E+00 -2.87846E+00 -2.88162E+00 -2.88125E+00 -2.87711E+00 -2.86929E+00
  -2.85771E+00 -2.84264E+00 -2.82424E+00 -2.80306E+00 -2.77962E+00 -2.75482E+00 -2.72945E+00 -2.70462E+00 -2.68132E+00 -2.66084E+00
  -2.64426E+00 -2.63281E+00 -2.62738E+00 -2.62890E+00 -2.63790E+00 -2.65492E+00 -2.68001E+00 -2.71317E+00 -2.75390E+00 -2.80169E+00
  -2.85565E+00 -2.91494E+00 -2.97845E+00 -3.04515E+00 -3.11383E+00 -3.18355E+00 -3.25326E+00 -3.32224E+00 -3.38970E+00 -3.45516E+00
  -3.51809E+00 -3.57830E+00 -3.63557E+00 -3.68996E+00 -3.74140E+00 -3.79009E+00 -3.83606E+00 -3.87961E+00 -3.92088E+00 -3.96019E+00
  -3.99764E+00 -4.03350E+00 -4.06787E+00 -4.10103E+00 -4.13306E+00 -4.16419E+00 -4.19443E+00 -4.22396E+00 -4.25279E+00 -4.28111E+00
  -4.30891E+00 -4.33633E+00 -4.36331E+00 -4.38997E+00 -4.41627E+00 -4.44237E+00 -4.46819E+00 -4.49384E+00 -4.51923E+00 -4.54448E+00
  -4.56952E+00 -4.59449E+00 -4.61928E+00 -4.64399E+00 -4.66851E+00 -4.69297E+00 -4.71730E+00 -4.74160E+00 -4.76578E+00 -4.78991E+00
  -4.81392E+00 -4.83791E+00 -4.86182E+00 -4.88573E+00 -4.90954E+00 -4.93334E+00 -4.95703E+00 -4.98075E+00 -5.00441E+00 -5.02809E+00
  -5.05168E+00 -5.07528E+00 -5.09880E+00 -5.12237E+00 -5.14589E+00 -5.16944E+00 -5.19292E+00 -5.21642E+00 -5.23988E+00 -5.26340E+00
  -5.28689E+00 -5.31041E+00 -5.33389E+00 -5.35741E+00 -5.38092E+00 -5.40451E+00 -5.42808E+00 -5.45170E+00 -5.47530E+00 -5.49898E+00
  -5.52268E+00 -5.54649E+00 -5.57030E+00 -5.59420E+00 -5.61812E+00 -5.64217E+00 -5.66629E+00 -5.69056E+00
 NY background values follow
     4.548E+00    4.527E+00    4.505E+00    4.484E+00    4.463E+00    4.441E+00    4.420E+00    4.399E+00    4.377E+00    4.356E+00
     4.335E+00    4.313E+00    4.292E+00    4.271E+00    4.249E+00    4.228E+00    4.207E+00    4.185E+00    4.164E+00    4.143E+00
     4.121E+00    4.100E+00    4.078E+00    4.057E+00    4.036E+00    4.014E+00    3.993E+00    3.972E+00    3.950E+00    3.929E+00
     3.908E+00    3.886E+00    3.865E+00    3.844E+00    3.822E+00    3.801E+00    3.780E+00    3.758E+00    3.737E+00    3.716E+00
     3.694E+00    3.673E+00    3.652E+00    3.630E+00    3.609E+00    3.588E+00    3.566E+00    3.545E+00    3.523E+00    3.502E+00
     3.481E+00    3.459E+00    3.438E+00    3.417E+00    3.395E+00    3.374E+00    3.353E+00    3.331E+00    3.310E+00    3.289E+00
     3.267E+00    3.246E+00    3.225E+00    3.203E+00    3.182E+00    3.160E+00    3.139E+00    3.118E+00    3.096E+00    3.075E+00
     3.054E+00    3.032E+00    3.011E+00    2.990E+00    2.968E+00    2.947E+00    2.926E+00    2.904E+00    2.883E+00    2.861E+00
     2.840E+00    2.819E+00    2.797E+00    2.776E+00    2.755E+00    2.733E+00    2.712E+00    2.691E+00    2.669E+00    2.648E+00
     2.627E+00    2.605E+00    2.584E+00    2.562E+00    2.541E+00    2.520E+00    2.498E+00    2.477E+00    2.456E+00    2.434E+00
     2.413E+00    2.392E+00    2.370E+00    2.349E+00    2.327E+00    2.306E+00    2.285E+00    2.263E+00    2.242E+00    2.221E+00
     2.199E+00    2.178E+00    2.157E+00    2.135E+00    2.114E+00    2.093E+00    2.071E+00    2.050E+00    2.028E+00    2.007E+00
     1.986E+00    1.964E+00    1.943E+00    1.922E+00    1.900E+00    1.879E+00    1.858E+00    1.836E+00    1.815E+00    1.794E+00
     1.772E+00    1.751E+00    1.729E+00    1.708E+00    1.687E+00    1.665E+00    1.644E+00    1.623E+00    1.601E+00    1.580E+00
     1.559E+00    1.537E+00    1.516E+00    1.495E+00    1.473E+00    1.452E+00    1.431E+00    1.409E+00    1.388E+00    1.366E+00
     1.345E+00    1.324E+00    1.302E+00    1.281E+00    1.260E+00    1.238E+00    1.217E+00    1.196E+00    1.174E+00    1.153E+00
     1.132E+00    1.110E+00    1.089E+00    1.068E+00    1.046E+00    1.025E+00    1.004E+00    9.822E-01    9.609E-01    9.395E-01
     9.182E-01    8.969E-01    8.755E-01    8.542E-01    8.328E-01    8.115E-01    7.902E-01    7.688E-01    7.475E-01    7.261E-01
     7.048E-01    6.835E-01    6.621E-01    6.408E-01    6.195E-01    5.981E-01    5.768E-01    5.555E-01    5.341E-01    5.128E-01
     4.915E-01    4.701E-01    4.488E-01    4.275E-01    4.061E-01    3.848E-01    3.635E-01    3.422E-01    3.208E-01    2.995E-01
     2.782E-01    2.569E-01    2.355E-01    2.142E-01    1.929E-01    1.716E-01    1.502E-01    1.289E-01    1.076E-01    8.628E-02
     6.496E-02    4.364E-02    2.232E-02    1.005E-03   -2.031E-02   -4.163E-02   -6.294E-02   -8.426E-02   -1.056E-01   -1.269E-01
    -1.482E-01   -1.695E-01   -1.908E-01   -2.121E-01   -2.334E-01   -2.547E-01   -2.760E-01   -2.974E-01   -3.187E-01   -3.400E-01
    -3.613E-01   -3.826E-01   -4.039E-01   -4.252E-01   -4.465E-01   -4.678E-01   -4.891E-01   -5.104E-01   -5.317E-01   -5.530E-01
    -5.743E-01   -5.956E-01   -6.168E-01   -6.381E-01   -6.594E-01   -6.807E-01   -7.020E-01   -7.233E-01   -7.446E-01   -7.659E-01
    -7.872E-01   -8.085E-01   -8.297E-01   -8.510E-01   -8.723E-01   -8.936E-01   -9.149E-01   -9.361E-01   -9.574E-01   -9.787E-01
    -1.000E+00   -1.021E+00   -1.043E+00   -1.064E+00   -1.085E+00   -1.106E+00   -1.128E+00   -1.149E+00   -1.170E+00   -1.191E+00
    -1.213E+00   -1.234E+00   -1.255E+00   -1.276E+00   -1.298E+00   -1.319E+00   -1.340E+00   -1.362E+00   -1.383E+00   -1.404E+00
    -1.425E+00   -1.447E+00   -1.468E+00   -1.489E+00   -1.510E+00   -1.532E+00   -1.553E+00   -1.574E+00   -1.595E+00   -1.617E+00
    -1.638E+00   -1.659E+00   -1.680E+00   -1.702E+00   -1.723E+00   -1.744E+00   -1.765E+00   -1.786E+00   -1.808E+00   -1.829E+00
    -1.850E+00   -1.871E+00   -1.893E+00   -1.914E+00   -1.935E+00   -1.956E+00   -1.978E+00   -1.999E+00   -2.020E+00   -2.041E+00
    -2.062E+00   -2.084E+00   -2.105E+00   -2.126E+00   -2.147E+00   -2.168E+00   -2.190E+00   -2.211E+00   -2.232E+00   -2.253E+00
    -2.275E+00   -2.296E+00   -2.317E+00   -2.338E+00   -2.359E+00   -2.381E+00   -2.402E+00   -2.423E+00   -2.444E+00   -2.465E+00
    -2.487E+00   -2.508E+00   -2.529E+00   -2.550E+00   -2.571E+00   -2.592E+00   -2.614E+00   -2.635E+00   -2.656E+00   -2.677E+00
    -2.698E+00   -2.720E+00   -2.741E+00   -2.762E+00   -2.783E+00   -2.804E+00   -2.825E+00   -2.847E+00   -2.868E+00   -2.889E+00
    -2.910E+00   -2.931E+00   -2.952E+00   -2.973E+00   -2.995E+00   -3.016E+00   -3.037E+00   -3.058E+00   -3.079E+00   -3.100E+00
    -3.122E+00   -3.143E+00   -3.164E+00   -3.185E+00   -3.206E+00   -3.227E+00   -3.248E+00   -3.269E+00   -3.291E+00   -3.312E+00
    -3.333E+00   -3.354E+00   -3.375E+00   -3.396E+00   -3.417E+00   -3.438E+00   -3.460E+00   -3.481E+00   -3.502E+00   -3.523E+00
    -3.544E+00   -3.565E+00   -3.586E+00   -3.607E+00   -3.628E+00   -3.650E+00   -3.671E+00   -3.692E+00   -3.713E+00   -3.734E+00
    -3.755E+00   -3.776E+00   -3.797E+00   -3.818E+00   -3.839E+00   -3.860E+00   -3.882E+00   -3.903E+00   -3.924E+00   -3.945E+00
    -3.966E+00   -3.987E+00   -4.008E+00   -4.029E+00   -4.050E+00   -4.071E+00   -4.092E+00   -4.113E+00   -4.134E+00   -4.155E+00
    -4.177E+00   -4.198E+00   -4.219E+00   -4.240E+00   -4.261E+00   -4.282E+00   -4.303E+00   -4.324E+00   -4.345E+00   -4.366E+00
    -4.387E+00   -4.408E+00   -4.429E+00   -4.450E+00   -4.471E+00   -4.492E+00   -4.513E+00   -4.534E+00   -4.555E+00   -4.576E+00
    -4.597E+00   -4.618E+00   -4.639E+00   -4.660E+00   -4.681E+00   -4.702E+00   -4.723E+00   -4.744E+00   -4.765E+00   -4.786E+00
    -4.807E+00   -4.828E+00   -4.849E+00   -4.870E+00   -4.891E+00   -4.912E+00   -4.933E+00   -4.954E+00   -4.975E+00   -4.996E+00
    -5.017E+00   -5.038E+00   -5.059E+00   -5.080E+00   -5.101E+00   -5.122E+00   -5.143E+00   -5.164E+00   -5.185E+00   -5.206E+00
    -5.227E+00   -5.247E+00   -5.268E+00   -5.289E+00   -5.310E+00   -5.331E+00   -5.352E+00   -5.373E+00   -5.394E+00   -5.415E+00
    -5.436E+00   -5.457E+00   -5.478E+00   -5.499E+00   -5.520E+00   -5.540E+00   -5.561E+00   -5.582E+00   -5.603E+00   -5.624E+00
    -5.645E+00   -5.666E+00   -5.687E+00   -5.708E+00   -5.729E+00   -5.749E+00   -5.770E+00   -5.791E+00   -5.812E+00   -5.833E+00
    -5.854E+00   -5.875E+00   -5.896E+00   -5.916E+00   -5.937E+00   -5.958E+00   -5.979E+00   -6.000E+00
 Ala      Conc. = 6.20E+01
