 LCModel (Version 6.3-1L) Copyright: S.W. Provencher.          Ref.: Magn. Reson. Med. 30:672-679 (1993).                
 Slice#3 Row#3 Col#8  PD_24_press_2_raw_act
 36 lines in following concentration table = NCONC+1
    Conc.  %SD /Cr+PCr  Metabolite                                         
    0.000 999%   0.000 Ala                                                 
  118.348 236% 7.8E-02 Asp                                                 
    0.000 999%   0.000 Cr                                                  
 1.52E+03   9%   1.000 PCr                                                 
  117.967 149% 7.8E-02 GABA                                                
  136.897 126% 9.0E-02 Glc                                                 
  117.132 836% 7.7E-02 Gln                                                 
  837.326 130%   0.553 Glu                                                 
    0.000 999%   0.000 GPC                                                 
  633.965   8%   0.418 PCh                                                 
  126.925 167% 8.4E-02 GSH                                                 
 1.45E+03  48%   0.956 Ins                                                 
 1.39E+03  34%   0.914 Lac                                                 
 1.81E+03   9%   1.194 NAA                                                 
    0.000 999%   0.000 NAAG                                                
  211.188  23%   0.139 Scyllo                                              
  577.391  47%   0.381 Tau                                                 
  958.098  26%   0.632 -CrCH2                                              
  633.965   8%   0.418 GPC+PCh                                             
 1.81E+03   9%   1.194 NAA+NAAG                                            
 1.52E+03   9%   1.000 Cr+PCr                                              
  954.458 192%   0.630 Glu+Gln                                             
    0.000 999%   0.000 Lip13a                                              
    0.000 999%   0.000 Lip13b                                              
 1.80E-02 999% 1.2E-05 Lip09                                               
 1.27E+03  23%   0.841 MM09                                                
    0.000 999%   0.000 Lip20                                               
 1.35E+03  43%   0.892 MM20                                                
  266.776  73%   0.176 MM12                                                
 1.30E+03  31%   0.860 MM14                                                
  387.788  90%   0.256 MM17                                                
    0.000 999%   0.000 Lip13a+Lip13b                                       
 1.57E+03  31%   1.036 MM14+Lip13a+Lip13b+MM12                             
 1.27E+03  23%   0.841 MM09+Lip09                                          
 1.35E+03  43%   0.892 MM20+Lip20                                          
   6 lines in following misc. output table
  FWHM = 0.099 ppm    S/N =   3                                            
  Data shift = 0.008 ppm                                                   
  Ph: -99 deg     -26.5 deg/ppm                                            
  alphaB,S = 8.4E-01,   1.1E+02                                            
   14 spline knots.   Ns =10(1)                                            
  ( 9) 4 infls.   ( 6) 3 extrs.                                            
  498 points on ppm-axis = NY
      4.000000     3.992357     3.984714     3.977070     3.969427     3.961784     3.954141     3.946497     3.938854     3.931211
      3.923568     3.915925     3.908281     3.900638     3.892995     3.885352     3.877708     3.870065     3.862422     3.854779
      3.847136     3.839492     3.831849     3.824206     3.816563     3.808919     3.801276     3.793633     3.785990     3.778347
      3.770703     3.763060     3.755417     3.747774     3.740130     3.732487     3.724844     3.717201     3.709558     3.701914
      3.694271     3.686628     3.678985     3.671341     3.663698     3.656055     3.648412     3.640769     3.633125     3.625482
      3.617839     3.610196     3.602552     3.594909     3.587266     3.579623     3.571980     3.564336     3.556693     3.549050
      3.541407     3.533763     3.526120     3.518477     3.510834     3.503191     3.495547     3.487904     3.480261     3.472618
      3.464974     3.457331     3.449688     3.442045     3.434402     3.426758     3.419115     3.411472     3.403829     3.396185
      3.388542     3.380899     3.373256     3.365613     3.357969     3.350326     3.342683     3.335040     3.327396     3.319753
      3.312110     3.304467     3.296824     3.289180     3.281537     3.273894     3.266251     3.258607     3.250964     3.243321
      3.235678     3.228034     3.220391     3.212748     3.205105     3.197462     3.189818     3.182175     3.174532     3.166889
      3.159245     3.151602     3.143959     3.136316     3.128673     3.121029     3.113386     3.105743     3.098100     3.090456
      3.082813     3.075170     3.067527     3.059884     3.052240     3.044597     3.036954     3.029311     3.021667     3.014024
      3.006381     2.998738     2.991095     2.983451     2.975808     2.968165     2.960522     2.952878     2.945235     2.937592
      2.929949     2.922306     2.914662     2.907019     2.899376     2.891733     2.884089     2.876446     2.868803     2.861160
      2.853517     2.845873     2.838230     2.830587     2.822944     2.815300     2.807657     2.800014     2.792371     2.784728
      2.777084     2.769441     2.761798     2.754155     2.746511     2.738868     2.731225     2.723582     2.715939     2.708295
      2.700652     2.693009     2.685366     2.677722     2.670079     2.662436     2.654793     2.647150     2.639506     2.631863
      2.624220     2.616577     2.608933     2.601290     2.593647     2.586004     2.578361     2.570717     2.563074     2.555431
      2.547788     2.540144     2.532501     2.524858     2.517215     2.509572     2.501928     2.494285     2.486642     2.478999
      2.471355     2.463712     2.456069     2.448426     2.440783     2.433139     2.425496     2.417853     2.410210     2.402566
      2.394923     2.387280     2.379637     2.371994     2.364350     2.356707     2.349064     2.341421     2.333777     2.326134
      2.318491     2.310848     2.303205     2.295561     2.287918     2.280275     2.272632     2.264988     2.257345     2.249702
      2.242059     2.234416     2.226772     2.219129     2.211486     2.203843     2.196199     2.188556     2.180913     2.173270
      2.165627     2.157983     2.150340     2.142697     2.135054     2.127410     2.119767     2.112124     2.104481     2.096838
      2.089194     2.081551     2.073908     2.066265     2.058621     2.050978     2.043335     2.035692     2.028049     2.020405
      2.012762     2.005119     1.997476     1.989833     1.982190     1.974546     1.966903     1.959260     1.951617     1.943974
      1.936331     1.928688     1.921045     1.913402     1.905759     1.898115     1.890472     1.882829     1.875186     1.867543
      1.859900     1.852257     1.844614     1.836971     1.829327     1.821684     1.814041     1.806398     1.798755     1.791112
      1.783469     1.775826     1.768183     1.760540     1.752896     1.745253     1.737610     1.729967     1.722324     1.714681
      1.707038     1.699395     1.691752     1.684108     1.676465     1.668822     1.661179     1.653536     1.645893     1.638250
      1.630607     1.622964     1.615321     1.607677     1.600034     1.592391     1.584748     1.577105     1.569462     1.561819
      1.554176     1.546533     1.538890     1.531246     1.523603     1.515960     1.508317     1.500674     1.493031     1.485388
      1.477745     1.470102     1.462458     1.454815     1.447172     1.439529     1.431886     1.424243     1.416600     1.408957
      1.401314     1.393671     1.386027     1.378384     1.370741     1.363098     1.355455     1.347812     1.340169     1.332526
      1.324883     1.317240     1.309596     1.301953     1.294310     1.286667     1.279024     1.271381     1.263738     1.256095
      1.248452     1.240808     1.233165     1.225522     1.217879     1.210236     1.202593     1.194950     1.187307     1.179664
      1.172021     1.164377     1.156734     1.149091     1.141448     1.133805     1.126162     1.118519     1.110876     1.103233
      1.095590     1.087946     1.080303     1.072660     1.065017     1.057374     1.049731     1.042088     1.034445     1.026802
      1.019158     1.011515     1.003872     0.996229     0.988586     0.980943     0.973300     0.965657     0.958014     0.950371
      0.942727     0.935084     0.927441     0.919798     0.912155     0.904512     0.896869     0.889226     0.881583     0.873940
      0.866296     0.858653     0.851010     0.843367     0.835724     0.828081     0.820438     0.812795     0.805152     0.797508
      0.789865     0.782222     0.774579     0.766936     0.759293     0.751650     0.744007     0.736364     0.728721     0.721077
      0.713434     0.705791     0.698148     0.690505     0.682862     0.675219     0.667576     0.659933     0.652290     0.644646
      0.637003     0.629360     0.621717     0.614074     0.606431     0.598788     0.591145     0.583502     0.575858     0.568215
      0.560572     0.552929     0.545286     0.537643     0.530000     0.522357     0.514714     0.507071     0.499427     0.491784
      0.484141     0.476498     0.468855     0.461212     0.453569     0.445925     0.438282     0.430639     0.422996     0.415353
      0.407710     0.400067     0.392424     0.384780     0.377137     0.369494     0.361851     0.354208     0.346565     0.338922
      0.331278     0.323635     0.315992     0.308349     0.300706     0.293063     0.285420     0.277777     0.270133     0.262490
      0.254847     0.247204     0.239561     0.231918     0.224275     0.216631     0.208988     0.201345
 NY phased data points follow
  -1.24249E+02 -1.16378E+02 -1.19807E+02 -1.06355E+02 -1.12340E+02 -8.74449E+01 -9.91041E+01 -8.92894E+01 -1.00818E+02 -9.01560E+01
  -8.49121E+01 -8.42794E+01 -1.02424E+02 -8.58552E+01 -9.99195E+01 -9.85565E+01 -1.01595E+02 -1.02000E+02 -1.00286E+02 -1.10412E+02
  -1.10353E+02 -9.09529E+01 -1.10681E+02 -9.83057E+01 -9.64817E+01 -8.92227E+01 -9.25302E+01 -7.93213E+01 -8.95871E+01 -8.31433E+01
  -9.40720E+01 -9.16294E+01 -8.30141E+01 -6.94377E+01 -9.44623E+01 -7.38342E+01 -8.51892E+01 -8.33774E+01 -8.43252E+01 -8.10339E+01
  -7.70885E+01 -8.03823E+01 -8.79137E+01 -7.22759E+01 -8.14400E+01 -7.08951E+01 -7.09209E+01 -6.83046E+01 -6.34089E+01 -6.84753E+01
  -6.10572E+01 -6.95330E+01 -7.67306E+01 -7.20774E+01 -8.24407E+01 -6.42492E+01 -7.70548E+01 -6.68698E+01 -7.76350E+01 -6.87675E+01
  -7.51721E+01 -5.67194E+01 -7.38487E+01 -6.85360E+01 -7.68094E+01 -7.07747E+01 -6.77528E+01 -6.33894E+01 -6.35498E+01 -6.46586E+01
  -6.22907E+01 -5.93789E+01 -5.57019E+01 -6.45747E+01 -6.75317E+01 -5.99749E+01 -5.80789E+01 -6.02949E+01 -6.73276E+01 -4.70504E+01
  -5.14928E+01 -4.75997E+01 -5.45753E+01 -3.82518E+01 -4.96632E+01 -5.10938E+01 -5.69616E+01 -5.35144E+01 -4.12175E+01 -4.71440E+01
  -4.29952E+01 -3.62628E+01 -4.50015E+01 -3.45303E+01 -4.19222E+01 -2.34166E+01 -3.97054E+01 -1.95481E+01 -1.90905E+01 -1.18615E+01
  -2.14386E+01 -2.32522E+01 -3.03569E+01 -1.32075E+01 -9.54988E+00 -1.05057E+01 -2.28344E+01 -2.34756E+01 -3.01133E+01 -2.33643E+01
  -4.06538E+01 -4.39204E+01 -5.08031E+01 -4.81214E+01 -2.94659E+01 -5.05791E+01 -5.01789E+01 -4.06733E+01 -3.67967E+01 -3.60150E+01
  -3.85898E+01 -2.48666E+01 -2.46676E+01 -1.27088E+01 -1.29603E+01 -1.79772E+01 -5.89117E+00 -1.16750E+01 -1.86269E+00 -4.36004E+00
  -1.09792E+01 -2.33876E+01 -2.13804E+01 -2.05181E+01 -2.84524E+01 -2.53218E+01 -3.98946E+01 -3.83375E+01 -4.50506E+01 -3.58558E+01
  -3.91994E+01 -3.64200E+01 -3.64888E+01 -3.55117E+01 -3.50785E+01 -2.90457E+01 -4.20375E+01 -3.05355E+01 -3.93632E+01 -2.96440E+01
  -3.56410E+01 -4.17824E+01 -2.29277E+01 -2.73509E+01 -2.91124E+01 -3.73092E+01 -2.36233E+01 -3.72836E+01 -2.89432E+01 -3.29745E+01
  -2.83788E+01 -2.30143E+01 -3.11891E+01 -2.68853E+01 -3.29955E+01 -2.76979E+01 -3.66135E+01 -2.13889E+01 -2.95109E+01 -2.74917E+01
  -2.88095E+01 -3.03108E+01 -3.10051E+01 -3.67893E+01 -3.73843E+01 -3.11383E+01 -4.16296E+01 -2.57032E+01 -3.53739E+01 -3.68959E+01
  -3.11981E+01 -3.01208E+01 -2.07690E+01 -2.10090E+01 -2.52908E+01 -2.54787E+01 -3.50616E+01 -2.38041E+01 -1.38591E+01 -1.81330E+01
  -2.30595E+01 -1.34940E+01 -1.74569E+01 -1.09441E+01 -1.13792E+01 -9.93366E+00 -1.32289E+01 -1.96732E+01 -1.29810E+01 -2.29429E+01
   2.78202E+00 -1.38344E+01 -7.92187E+00 -1.69502E+01 -1.03385E+01 -1.24298E+01 -9.93624E+00 -1.26223E+01 -1.67070E+01 -7.65105E+00
  -1.32169E+01 -8.53366E+00 -1.75920E+01 -3.98366E+00 -1.38827E+01 -6.89072E+00 -5.86735E+00 -1.36718E+01 -1.45175E+01  1.01489E+00
  -1.24307E+01 -1.38935E+00 -1.00220E+01 -1.27195E+01 -1.51480E+01 -1.30793E+01 -1.36629E+01 -7.50720E+00 -1.93896E+01  3.86463E-01
  -1.02643E+01 -5.94576E+00 -6.79122E+00 -5.03035E+00 -2.62264E+00 -6.40040E+00 -6.44266E+00  9.84962E+00 -8.81137E+00 -2.66441E+00
  -8.30071E+00 -1.15724E+01 -1.28911E+01  3.56431E+00 -8.73145E+00 -2.77647E+00  7.15113E-01 -9.28926E+00 -9.93070E+00  1.12074E+01
   1.61815E+00  5.88770E+00  1.77347E+01  1.10404E+01  1.64304E+01  4.03756E+01  3.85748E+01  3.79435E+01  2.20435E+01  3.57022E+01
   3.91855E+01  4.25719E+01  4.05816E+01  3.46575E+01  2.83472E+01  2.83836E+01  2.64231E+01  1.38895E+01  4.32087E+00  5.49839E+00
  -2.88421E+00 -7.69843E-01  5.10620E+00  7.04968E+00  5.15836E+00 -2.43081E-01  8.09851E+00  5.50073E+00  1.63534E+00  4.12791E+00
   4.70986E-01  1.51950E+01  1.50818E+01  9.46216E+00  5.65234E+00  6.69342E+00  4.01619E+00  9.57358E+00  5.72651E+00  1.32386E+01
   4.93287E+00  4.79357E+00  2.37458E+00  1.63011E+01  1.13258E+01  6.98322E+00 -6.34574E+00  9.88749E+00  4.39775E-01  8.62753E+00
   5.20715E+00  4.73737E+00  4.30435E+00  7.39469E+00  8.74524E+00  1.01888E+01  9.47106E+00  1.26071E+01  1.26984E+01  1.60755E+01
   8.15787E+00  1.70617E+01  5.96209E+00 -6.78604E-01  7.72833E+00  1.17979E+00 -7.18108E+00 -6.94008E+00  7.82286E+00  1.04406E+01
   1.06381E+01  7.67177E+00  4.12235E+00  3.36152E+00  1.00771E+01  1.57369E+01  6.49408E+00  1.68668E+01  1.29071E+01  2.16725E+01
  -1.71459E+00  1.78173E+01  1.25954E+01  2.86770E+01  1.25974E+01  3.54589E+01  2.96749E+01  3.80741E+01  2.95832E+01  2.66112E+01
   1.38847E+01  4.02323E+01  3.22464E+01  1.97631E+01  1.38632E+01  1.70583E+01  1.89670E+01  8.80115E+00  1.00602E+01  1.12550E+01
   1.04170E+01  1.56596E+01  1.08707E+01  1.38883E+01  1.50793E+01  9.39948E+00  1.57571E+01  9.22775E+00  7.76243E+00  1.63462E+01
   1.72252E+01  1.72326E+01  1.72581E+01  1.92090E+01  2.19979E+01  1.63333E+01  1.64164E+01  2.09263E+01  9.80727E+00  1.59215E+01
   1.48521E+01  8.90385E+00  1.77228E+01  8.31021E+00  9.61913E+00  1.45167E+01  1.35578E+01  1.30541E+01  1.83019E+01  1.86103E+01
   1.30764E+01  2.40952E+01  2.12019E+01  1.29573E+01  2.03827E+01  2.72598E+01  2.28269E+01  1.90730E+01  2.47568E+01  2.07171E+01
   2.13218E+01  3.27572E+01  2.77356E+01  5.63945E+00  9.95712E+00  2.55733E+01  2.64985E+01  2.96612E+01  1.85681E+01  3.10653E+01
   3.56057E+01  2.42839E+01  2.16270E+01  2.81223E+01  1.94770E+01  1.37585E+01  2.95877E+01  3.15116E+01  3.62970E+01  2.96528E+01
   3.22413E+01  2.68568E+01  2.76093E+01  2.38185E+01  2.86492E+01  1.29107E+01  1.86769E+01  2.77605E+01  2.15518E+01  1.81179E+01
   3.13770E+01  3.22265E+01  1.90526E+01  2.44464E+01  2.45122E+01  2.59938E+01  1.85060E+01  2.00950E+01  2.90994E+01  2.34356E+01
   2.46666E+01  2.26222E+01  2.16341E+01  2.10446E+01  2.53925E+01  2.28422E+01  2.05556E+01  2.57784E+01  2.81848E+01  1.45057E+01
   2.11801E+01  1.62347E+01  1.16961E+01  1.89601E+01  2.56582E+01  1.77680E+01  2.15912E+01  1.67712E+01  2.77080E+01  2.53500E+01
   2.44877E+01  2.31355E+01  1.94563E+01  3.79724E+01  2.04384E+01  1.92578E+01  2.78814E+01  2.44834E+01  2.17121E+01  2.65055E+01
   2.30313E+01  1.06043E+01  2.24550E+01  2.34316E+01  1.38641E+01  2.62012E+01  2.51961E+01  2.67626E+01  1.11273E+01  2.30934E+01
   2.51987E+01  2.29764E+01  2.37857E+01  1.16124E+01  1.93116E+01  4.55109E+00  5.56652E+00  2.42599E+01  2.18814E+01  1.94434E+01
   1.95532E+01  2.76707E+01  1.85592E+01  1.58653E+01  1.86128E+01  1.20799E+01  2.71283E+01  2.55875E+01  1.50752E+01  2.21638E+01
   2.96273E+01  2.76216E+01  2.73576E+01  1.94871E+01  1.25249E+01  2.13751E+01  1.82140E+01  1.59138E+01
 NY points of the fit to the data follow
  -1.06384E+02 -1.05898E+02 -1.04936E+02 -1.03234E+02 -1.00703E+02 -9.82290E+01 -9.68037E+01 -9.64907E+01 -9.63652E+01 -9.55636E+01
  -9.40979E+01 -9.28211E+01 -9.23463E+01 -9.24891E+01 -9.27345E+01 -9.29153E+01 -9.33207E+01 -9.42480E+01 -9.55011E+01 -9.63795E+01
  -9.60198E+01 -9.48061E+01 -9.37824E+01 -9.27935E+01 -9.16743E+01 -9.04704E+01 -8.93465E+01 -8.83810E+01 -8.75627E+01 -8.68792E+01
  -8.62684E+01 -8.56799E+01 -8.51662E+01 -8.47604E+01 -8.44391E+01 -8.41710E+01 -8.38966E+01 -8.34763E+01 -8.28214E+01 -8.19453E+01
  -8.08469E+01 -7.95736E+01 -7.83566E+01 -7.74943E+01 -7.70682E+01 -7.68017E+01 -7.62942E+01 -7.54645E+01 -7.46136E+01 -7.40588E+01
  -7.38282E+01 -7.37074E+01 -7.35522E+01 -7.34002E+01 -7.33201E+01 -7.33128E+01 -7.32041E+01 -7.27370E+01 -7.18793E+01 -7.08178E+01
  -6.98069E+01 -6.89569E+01 -6.82208E+01 -6.76004E+01 -6.71118E+01 -6.66225E+01 -6.60120E+01 -6.53463E+01 -6.47024E+01 -6.40356E+01
  -6.33141E+01 -6.26404E+01 -6.20913E+01 -6.16584E+01 -6.12631E+01 -6.07643E+01 -5.99589E+01 -5.87806E+01 -5.75894E+01 -5.64984E+01
  -5.53710E+01 -5.42968E+01 -5.35640E+01 -5.32976E+01 -5.31999E+01 -5.27831E+01 -5.19400E+01 -5.11323E+01 -5.08332E+01 -5.09904E+01
  -5.12790E+01 -5.13225E+01 -5.03703E+01 -4.73855E+01 -4.31399E+01 -3.80490E+01 -3.17568E+01 -2.48632E+01 -1.95312E+01 -1.72998E+01
  -1.71127E+01 -1.67458E+01 -1.51687E+01 -1.33433E+01 -1.31043E+01 -1.52679E+01 -1.90880E+01 -2.35178E+01 -2.82684E+01 -3.35930E+01
  -3.93443E+01 -4.44404E+01 -4.74478E+01 -4.78066E+01 -4.67360E+01 -4.59568E+01 -4.52120E+01 -4.33565E+01 -3.96849E+01 -3.50648E+01
  -2.98536E+01 -2.40448E+01 -1.85006E+01 -1.48164E+01 -1.35395E+01 -1.33952E+01 -1.26709E+01 -1.10152E+01 -9.60002E+00 -9.85062E+00
  -1.20430E+01 -1.53549E+01 -1.90432E+01 -2.30768E+01 -2.76736E+01 -3.24542E+01 -3.63216E+01 -3.81916E+01 -3.79592E+01 -3.70055E+01
  -3.64889E+01 -3.61048E+01 -3.57238E+01 -3.53379E+01 -3.49484E+01 -3.45778E+01 -3.42517E+01 -3.39700E+01 -3.37217E+01 -3.34793E+01
  -3.32270E+01 -3.30055E+01 -3.28234E+01 -3.26623E+01 -3.25108E+01 -3.23221E+01 -3.20740E+01 -3.17452E+01 -3.13463E+01 -3.09586E+01
  -3.06812E+01 -3.05323E+01 -3.04163E+01 -3.02229E+01 -2.99396E+01 -2.96451E+01 -2.94354E+01 -2.93105E+01 -2.91718E+01 -2.90038E+01
  -2.88573E+01 -2.87742E+01 -2.86866E+01 -2.85054E+01 -2.82700E+01 -2.80406E+01 -2.78064E+01 -2.75310E+01 -2.71389E+01 -2.66568E+01
  -2.61860E+01 -2.57139E+01 -2.51157E+01 -2.43272E+01 -2.34574E+01 -2.26863E+01 -2.20777E+01 -2.15187E+01 -2.08796E+01 -2.01361E+01
  -1.94002E+01 -1.87831E+01 -1.83152E+01 -1.78978E+01 -1.74197E+01 -1.68973E+01 -1.63987E+01 -1.59816E+01 -1.56401E+01 -1.53382E+01
  -1.51333E+01 -1.50363E+01 -1.49935E+01 -1.50004E+01 -1.50078E+01 -1.49368E+01 -1.46956E+01 -1.43176E+01 -1.38935E+01 -1.34566E+01
  -1.30561E+01 -1.28553E+01 -1.29798E+01 -1.33057E+01 -1.35088E+01 -1.34162E+01 -1.31398E+01 -1.27842E+01 -1.23605E+01 -1.18678E+01
  -1.14324E+01 -1.12311E+01 -1.12630E+01 -1.13560E+01 -1.12663E+01 -1.08249E+01 -1.00622E+01 -9.09932E+00 -8.09052E+00 -7.13221E+00
  -6.31737E+00 -5.74794E+00 -5.44496E+00 -5.36220E+00 -5.33616E+00 -5.22174E+00 -4.99159E+00 -4.66780E+00 -4.23289E+00 -3.72793E+00
  -3.25495E+00 -2.89834E+00 -2.65433E+00 -2.43997E+00 -2.18875E+00 -1.87391E+00 -1.46956E+00 -9.49884E-01 -3.16858E-01  5.77440E-01
   2.79973E+00  6.96033E+00  1.20942E+01  1.79561E+01  2.45824E+01  3.08784E+01  3.49098E+01  3.61176E+01  3.60981E+01  3.68114E+01
   3.85429E+01  3.98736E+01  3.92078E+01  3.63214E+01  3.21710E+01  2.75240E+01  2.23603E+01  1.64622E+01  1.03590E+01  5.38439E+00
   2.81416E+00  2.66399E+00  3.22248E+00  3.30727E+00  3.29116E+00  3.30023E+00  3.32799E+00  3.37309E+00  3.43666E+00  3.49954E+00
   3.55066E+00  3.58895E+00  3.62259E+00  3.66654E+00  3.74059E+00  3.85356E+00  4.00251E+00  4.18281E+00  4.38617E+00  4.60339E+00
   4.82952E+00  5.05938E+00  5.28840E+00  5.51604E+00  5.74127E+00  5.96444E+00  6.18685E+00  6.40644E+00  6.61927E+00  6.82300E+00
   7.01646E+00  7.19755E+00  7.36437E+00  7.51681E+00  7.65543E+00  7.78074E+00  7.89503E+00  8.00096E+00  8.10198E+00  8.20216E+00
   8.30594E+00  8.41769E+00  8.54182E+00  8.68283E+00  8.84541E+00  9.03390E+00  9.25220E+00  9.50348E+00  9.79025E+00  1.01145E+01
   1.04777E+01  1.08806E+01  1.13226E+01  1.18020E+01  1.23162E+01  1.28617E+01  1.34346E+01  1.40305E+01  1.46441E+01  1.52704E+01
   1.59053E+01  1.65470E+01  1.71976E+01  1.78653E+01  1.85711E+01  1.93641E+01  2.03787E+01  2.18789E+01  2.35592E+01  2.48896E+01
   2.58006E+01  2.61246E+01  2.53544E+01  2.31936E+01  2.01858E+01  1.77580E+01  1.65047E+01  1.58440E+01  1.52290E+01  1.47036E+01
   1.44261E+01  1.41202E+01  1.34098E+01  1.24838E+01  1.20835E+01  1.29103E+01  1.49940E+01  1.76669E+01  2.00303E+01  2.14512E+01
   2.20842E+01  2.21633E+01  2.15077E+01  2.01454E+01  1.85143E+01  1.72915E+01  1.68155E+01  1.66568E+01  1.65155E+01  1.64035E+01
   1.63238E+01  1.62720E+01  1.62439E+01  1.62368E+01  1.62489E+01  1.62792E+01  1.63274E+01  1.63938E+01  1.64795E+01  1.65862E+01
   1.67156E+01  1.68698E+01  1.70510E+01  1.72617E+01  1.75044E+01  1.77818E+01  1.80960E+01  1.84490E+01  1.88418E+01  1.92750E+01
   1.97479E+01  2.02589E+01  2.08046E+01  2.13799E+01  2.19783E+01  2.25915E+01  2.32099E+01  2.38223E+01  2.44166E+01  2.49802E+01
   2.55005E+01  2.59656E+01  2.63646E+01  2.66884E+01  2.69299E+01  2.70848E+01  2.71513E+01  2.71307E+01  2.70269E+01  2.68463E+01
   2.65975E+01  2.62906E+01  2.59369E+01  2.55481E+01  2.51361E+01  2.47120E+01  2.42861E+01  2.38675E+01  2.34638E+01  2.30811E+01
   2.27239E+01  2.23953E+01  2.20970E+01  2.18296E+01  2.15927E+01  2.13853E+01  2.12056E+01  2.10517E+01  2.09214E+01  2.08124E+01
   2.07223E+01  2.06491E+01  2.05907E+01  2.05452E+01  2.05110E+01  2.04865E+01  2.04704E+01  2.04617E+01  2.04592E+01  2.04622E+01
   2.04699E+01  2.04817E+01  2.04970E+01  2.05154E+01  2.05364E+01  2.05597E+01  2.05851E+01  2.06122E+01  2.06408E+01  2.06708E+01
   2.07019E+01  2.07340E+01  2.07670E+01  2.08007E+01  2.08350E+01  2.08700E+01  2.09055E+01  2.09413E+01  2.09776E+01  2.10141E+01
   2.10510E+01  2.10881E+01  2.11254E+01  2.11629E+01  2.12006E+01  2.12384E+01  2.12763E+01  2.13143E+01  2.13524E+01  2.13905E+01
   2.14287E+01  2.14670E+01  2.15053E+01  2.15437E+01  2.15821E+01  2.16205E+01  2.16590E+01  2.16975E+01  2.17360E+01  2.17746E+01
   2.18131E+01  2.18517E+01  2.18904E+01  2.19290E+01  2.19678E+01  2.20065E+01  2.20453E+01  2.20841E+01  2.21229E+01  2.21618E+01
   2.22008E+01  2.22398E+01  2.22788E+01  2.23179E+01  2.23570E+01  2.23962E+01  2.24353E+01  2.24745E+01
 NY background values follow
    -1.095E+02   -1.089E+02   -1.083E+02   -1.077E+02   -1.071E+02   -1.066E+02   -1.060E+02   -1.054E+02   -1.048E+02   -1.042E+02
    -1.037E+02   -1.031E+02   -1.025E+02   -1.019E+02   -1.014E+02   -1.008E+02   -1.002E+02   -9.962E+01   -9.904E+01   -9.847E+01
    -9.789E+01   -9.731E+01   -9.674E+01   -9.616E+01   -9.559E+01   -9.501E+01   -9.444E+01   -9.386E+01   -9.329E+01   -9.272E+01
    -9.215E+01   -9.157E+01   -9.100E+01   -9.043E+01   -8.986E+01   -8.930E+01   -8.873E+01   -8.816E+01   -8.759E+01   -8.703E+01
    -8.646E+01   -8.590E+01   -8.534E+01   -8.478E+01   -8.422E+01   -8.366E+01   -8.310E+01   -8.254E+01   -8.198E+01   -8.143E+01
    -8.088E+01   -8.032E+01   -7.977E+01   -7.922E+01   -7.867E+01   -7.812E+01   -7.758E+01   -7.703E+01   -7.649E+01   -7.594E+01
    -7.540E+01   -7.486E+01   -7.432E+01   -7.379E+01   -7.325E+01   -7.272E+01   -7.218E+01   -7.165E+01   -7.112E+01   -7.059E+01
    -7.007E+01   -6.954E+01   -6.902E+01   -6.850E+01   -6.798E+01   -6.746E+01   -6.694E+01   -6.643E+01   -6.592E+01   -6.541E+01
    -6.490E+01   -6.439E+01   -6.388E+01   -6.338E+01   -6.288E+01   -6.238E+01   -6.188E+01   -6.138E+01   -6.089E+01   -6.040E+01
    -5.991E+01   -5.942E+01   -5.893E+01   -5.845E+01   -5.797E+01   -5.749E+01   -5.701E+01   -5.654E+01   -5.606E+01   -5.559E+01
    -5.512E+01   -5.465E+01   -5.419E+01   -5.373E+01   -5.326E+01   -5.281E+01   -5.235E+01   -5.189E+01   -5.144E+01   -5.099E+01
    -5.054E+01   -5.009E+01   -4.965E+01   -4.920E+01   -4.876E+01   -4.832E+01   -4.788E+01   -4.745E+01   -4.701E+01   -4.658E+01
    -4.615E+01   -4.572E+01   -4.530E+01   -4.487E+01   -4.445E+01   -4.403E+01   -4.361E+01   -4.319E+01   -4.278E+01   -4.236E+01
    -4.195E+01   -4.154E+01   -4.113E+01   -4.073E+01   -4.032E+01   -3.992E+01   -3.952E+01   -3.912E+01   -3.873E+01   -3.833E+01
    -3.794E+01   -3.755E+01   -3.716E+01   -3.677E+01   -3.638E+01   -3.600E+01   -3.562E+01   -3.524E+01   -3.486E+01   -3.448E+01
    -3.410E+01   -3.373E+01   -3.336E+01   -3.299E+01   -3.262E+01   -3.225E+01   -3.189E+01   -3.153E+01   -3.117E+01   -3.081E+01
    -3.045E+01   -3.009E+01   -2.974E+01   -2.939E+01   -2.904E+01   -2.869E+01   -2.834E+01   -2.800E+01   -2.765E+01   -2.731E+01
    -2.697E+01   -2.663E+01   -2.630E+01   -2.596E+01   -2.563E+01   -2.530E+01   -2.497E+01   -2.464E+01   -2.431E+01   -2.399E+01
    -2.367E+01   -2.335E+01   -2.303E+01   -2.271E+01   -2.240E+01   -2.208E+01   -2.177E+01   -2.146E+01   -2.115E+01   -2.084E+01
    -2.054E+01   -2.024E+01   -1.993E+01   -1.963E+01   -1.934E+01   -1.904E+01   -1.874E+01   -1.845E+01   -1.816E+01   -1.787E+01
    -1.758E+01   -1.730E+01   -1.701E+01   -1.673E+01   -1.645E+01   -1.617E+01   -1.589E+01   -1.561E+01   -1.534E+01   -1.507E+01
    -1.480E+01   -1.453E+01   -1.426E+01   -1.399E+01   -1.373E+01   -1.347E+01   -1.321E+01   -1.295E+01   -1.269E+01   -1.243E+01
    -1.218E+01   -1.193E+01   -1.167E+01   -1.143E+01   -1.118E+01   -1.093E+01   -1.069E+01   -1.045E+01   -1.020E+01   -9.965E+00
    -9.727E+00   -9.491E+00   -9.257E+00   -9.024E+00   -8.792E+00   -8.563E+00   -8.334E+00   -8.108E+00   -7.883E+00   -7.659E+00
    -7.437E+00   -7.217E+00   -6.998E+00   -6.780E+00   -6.564E+00   -6.350E+00   -6.137E+00   -5.925E+00   -5.715E+00   -5.506E+00
    -5.299E+00   -5.093E+00   -4.888E+00   -4.685E+00   -4.483E+00   -4.283E+00   -4.084E+00   -3.886E+00   -3.690E+00   -3.495E+00
    -3.301E+00   -3.109E+00   -2.917E+00   -2.728E+00   -2.539E+00   -2.352E+00   -2.166E+00   -1.981E+00   -1.798E+00   -1.615E+00
    -1.434E+00   -1.254E+00   -1.076E+00   -8.981E-01   -7.217E-01   -5.465E-01   -3.725E-01   -1.996E-01   -2.787E-02    1.428E-01
     3.123E-01    4.808E-01    6.482E-01    8.145E-01    9.798E-01    1.144E+00    1.307E+00    1.469E+00    1.631E+00    1.791E+00
     1.950E+00    2.108E+00    2.266E+00    2.422E+00    2.577E+00    2.732E+00    2.885E+00    3.038E+00    3.190E+00    3.341E+00
     3.491E+00    3.640E+00    3.788E+00    3.936E+00    4.083E+00    4.229E+00    4.374E+00    4.518E+00    4.662E+00    4.804E+00
     4.947E+00    5.088E+00    5.229E+00    5.369E+00    5.508E+00    5.646E+00    5.784E+00    5.922E+00    6.058E+00    6.194E+00
     6.329E+00    6.464E+00    6.598E+00    6.732E+00    6.864E+00    6.997E+00    7.128E+00    7.259E+00    7.390E+00    7.520E+00
     7.649E+00    7.778E+00    7.906E+00    8.034E+00    8.161E+00    8.288E+00    8.414E+00    8.539E+00    8.664E+00    8.789E+00
     8.913E+00    9.037E+00    9.160E+00    9.283E+00    9.405E+00    9.527E+00    9.648E+00    9.769E+00    9.889E+00    1.001E+01
     1.013E+01    1.025E+01    1.037E+01    1.049E+01    1.060E+01    1.072E+01    1.084E+01    1.095E+01    1.107E+01    1.119E+01
     1.130E+01    1.142E+01    1.153E+01    1.165E+01    1.176E+01    1.188E+01    1.199E+01    1.210E+01    1.222E+01    1.233E+01
     1.244E+01    1.255E+01    1.266E+01    1.278E+01    1.289E+01    1.300E+01    1.311E+01    1.321E+01    1.332E+01    1.343E+01
     1.354E+01    1.365E+01    1.375E+01    1.386E+01    1.396E+01    1.407E+01    1.417E+01    1.428E+01    1.438E+01    1.448E+01
     1.458E+01    1.468E+01    1.478E+01    1.488E+01    1.498E+01    1.508E+01    1.518E+01    1.528E+01    1.537E+01    1.547E+01
     1.557E+01    1.566E+01    1.575E+01    1.585E+01    1.594E+01    1.603E+01    1.612E+01    1.621E+01    1.630E+01    1.639E+01
     1.647E+01    1.656E+01    1.665E+01    1.673E+01    1.682E+01    1.690E+01    1.698E+01    1.706E+01    1.715E+01    1.723E+01
     1.731E+01    1.739E+01    1.746E+01    1.754E+01    1.762E+01    1.769E+01    1.777E+01    1.784E+01    1.792E+01    1.799E+01
     1.806E+01    1.814E+01    1.821E+01    1.828E+01    1.835E+01    1.842E+01    1.849E+01    1.855E+01    1.862E+01    1.869E+01
     1.875E+01    1.882E+01    1.888E+01    1.895E+01    1.901E+01    1.907E+01    1.914E+01    1.920E+01    1.926E+01    1.932E+01
     1.938E+01    1.944E+01    1.950E+01    1.955E+01    1.961E+01    1.967E+01    1.972E+01    1.978E+01    1.984E+01    1.989E+01
     1.994E+01    2.000E+01    2.005E+01    2.010E+01    2.016E+01    2.021E+01    2.026E+01    2.031E+01    2.036E+01    2.041E+01
     2.046E+01    2.051E+01    2.056E+01    2.061E+01    2.066E+01    2.071E+01    2.076E+01    2.081E+01    2.086E+01    2.091E+01
     2.095E+01    2.100E+01    2.105E+01    2.110E+01    2.114E+01    2.119E+01    2.124E+01    2.129E+01    2.133E+01    2.138E+01
     2.143E+01    2.147E+01    2.152E+01    2.157E+01    2.162E+01    2.166E+01    2.171E+01    2.176E+01
 Asp      Conc. = 1.18E+02
