 LCModel (Version 6.3-1L) Copyright: S.W. Provencher.          Ref.: Magn. Reson. Med. 30:672-679 (1993).                
 Slice#1 Row#3 Col#5  PD_24_press_2_raw_act
 36 lines in following concentration table = NCONC+1
    Conc.  %SD /Cr+PCr  Metabolite                                         
    0.000 999%   0.000 Ala                                                 
   36.743 962% 2.9E-02 Asp                                                 
 1.26E+03  11%   1.000 Cr                                                  
    0.000 999%   0.000 PCr                                                 
  170.397 131%   0.135 GABA                                                
  177.873 124%   0.141 Glc                                                 
 2.33E+03  38%   1.849 Gln                                                 
    0.000 999%   0.000 Glu                                                 
  633.160   9%   0.503 GPC                                                 
    0.000 999%   0.000 PCh                                                 
  728.410  30%   0.579 GSH                                                 
 3.59E+03  17%   2.853 Ins                                                 
  200.666 248%   0.160 Lac                                                 
 3.27E+03   6%   2.601 NAA                                                 
    0.000 999%   0.000 NAAG                                                
  141.883  39%   0.113 Scyllo                                              
  475.369  70%   0.378 Tau                                                 
   38.627 647% 3.1E-02 -CrCH2                                              
  633.160   9%   0.503 GPC+PCh                                             
 3.27E+03   6%   2.601 NAA+NAAG                                            
 1.26E+03  11%   1.000 Cr+PCr                                              
 2.33E+03  38%   1.849 Glu+Gln                                             
 1.47E+03  53%   1.171 Lip13a                                              
    0.000 999%   0.000 Lip13b                                              
  433.586  65%   0.345 Lip09                                               
 1.39E+03  28%   1.104 MM09                                                
  231.168  76%   0.184 Lip20                                               
 1.38E+03  49%   1.096 MM20                                                
  386.217  79%   0.307 MM12                                                
 2.03E+03  28%   1.616 MM14                                                
    0.000 999%   0.000 MM17                                                
 1.47E+03  53%   1.171 Lip13a+Lip13b                                       
 3.89E+03  17%   3.094 MM14+Lip13a+Lip13b+MM12                             
 1.82E+03  17%   1.449 MM09+Lip09                                          
 1.61E+03  41%   1.280 MM20+Lip20                                          
   6 lines in following misc. output table
  FWHM = 0.076 ppm    S/N =   5                                            
  Data shift = 0.031 ppm                                                   
  Ph:   4 deg       7.7 deg/ppm                                            
  alphaB,S = 1.1E+01,   9.5E+01                                            
   14 spline knots.   Ns = 9(1)                                            
  ( 8) 4 infls.   ( 3) 1 extrs.                                            
  498 points on ppm-axis = NY
      4.000000     3.992357     3.984714     3.977070     3.969427     3.961784     3.954141     3.946497     3.938854     3.931211
      3.923568     3.915925     3.908281     3.900638     3.892995     3.885352     3.877708     3.870065     3.862422     3.854779
      3.847136     3.839492     3.831849     3.824206     3.816563     3.808919     3.801276     3.793633     3.785990     3.778347
      3.770703     3.763060     3.755417     3.747774     3.740130     3.732487     3.724844     3.717201     3.709558     3.701914
      3.694271     3.686628     3.678985     3.671341     3.663698     3.656055     3.648412     3.640769     3.633125     3.625482
      3.617839     3.610196     3.602552     3.594909     3.587266     3.579623     3.571980     3.564336     3.556693     3.549050
      3.541407     3.533763     3.526120     3.518477     3.510834     3.503191     3.495547     3.487904     3.480261     3.472618
      3.464974     3.457331     3.449688     3.442045     3.434402     3.426758     3.419115     3.411472     3.403829     3.396185
      3.388542     3.380899     3.373256     3.365613     3.357969     3.350326     3.342683     3.335040     3.327396     3.319753
      3.312110     3.304467     3.296824     3.289180     3.281537     3.273894     3.266251     3.258607     3.250964     3.243321
      3.235678     3.228034     3.220391     3.212748     3.205105     3.197462     3.189818     3.182175     3.174532     3.166889
      3.159245     3.151602     3.143959     3.136316     3.128673     3.121029     3.113386     3.105743     3.098100     3.090456
      3.082813     3.075170     3.067527     3.059884     3.052240     3.044597     3.036954     3.029311     3.021667     3.014024
      3.006381     2.998738     2.991095     2.983451     2.975808     2.968165     2.960522     2.952878     2.945235     2.937592
      2.929949     2.922306     2.914662     2.907019     2.899376     2.891733     2.884089     2.876446     2.868803     2.861160
      2.853517     2.845873     2.838230     2.830587     2.822944     2.815300     2.807657     2.800014     2.792371     2.784728
      2.777084     2.769441     2.761798     2.754155     2.746511     2.738868     2.731225     2.723582     2.715939     2.708295
      2.700652     2.693009     2.685366     2.677722     2.670079     2.662436     2.654793     2.647150     2.639506     2.631863
      2.624220     2.616577     2.608933     2.601290     2.593647     2.586004     2.578361     2.570717     2.563074     2.555431
      2.547788     2.540144     2.532501     2.524858     2.517215     2.509572     2.501928     2.494285     2.486642     2.478999
      2.471355     2.463712     2.456069     2.448426     2.440783     2.433139     2.425496     2.417853     2.410210     2.402566
      2.394923     2.387280     2.379637     2.371994     2.364350     2.356707     2.349064     2.341421     2.333777     2.326134
      2.318491     2.310848     2.303205     2.295561     2.287918     2.280275     2.272632     2.264988     2.257345     2.249702
      2.242059     2.234416     2.226772     2.219129     2.211486     2.203843     2.196199     2.188556     2.180913     2.173270
      2.165627     2.157983     2.150340     2.142697     2.135054     2.127410     2.119767     2.112124     2.104481     2.096838
      2.089194     2.081551     2.073908     2.066265     2.058621     2.050978     2.043335     2.035692     2.028049     2.020405
      2.012762     2.005119     1.997476     1.989833     1.982190     1.974546     1.966903     1.959260     1.951617     1.943974
      1.936331     1.928688     1.921045     1.913402     1.905759     1.898115     1.890472     1.882829     1.875186     1.867543
      1.859900     1.852257     1.844614     1.836971     1.829327     1.821684     1.814041     1.806398     1.798755     1.791112
      1.783469     1.775826     1.768183     1.760540     1.752896     1.745253     1.737610     1.729967     1.722324     1.714681
      1.707038     1.699395     1.691752     1.684108     1.676465     1.668822     1.661179     1.653536     1.645893     1.638250
      1.630607     1.622964     1.615321     1.607677     1.600034     1.592391     1.584748     1.577105     1.569462     1.561819
      1.554176     1.546533     1.538890     1.531246     1.523603     1.515960     1.508317     1.500674     1.493031     1.485388
      1.477745     1.470102     1.462458     1.454815     1.447172     1.439529     1.431886     1.424243     1.416600     1.408957
      1.401314     1.393671     1.386027     1.378384     1.370741     1.363098     1.355455     1.347812     1.340169     1.332526
      1.324883     1.317240     1.309596     1.301953     1.294310     1.286667     1.279024     1.271381     1.263738     1.256095
      1.248452     1.240808     1.233165     1.225522     1.217879     1.210236     1.202593     1.194950     1.187307     1.179664
      1.172021     1.164377     1.156734     1.149091     1.141448     1.133805     1.126162     1.118519     1.110876     1.103233
      1.095590     1.087946     1.080303     1.072660     1.065017     1.057374     1.049731     1.042088     1.034445     1.026802
      1.019158     1.011515     1.003872     0.996229     0.988586     0.980943     0.973300     0.965657     0.958014     0.950371
      0.942727     0.935084     0.927441     0.919798     0.912155     0.904512     0.896869     0.889226     0.881583     0.873940
      0.866296     0.858653     0.851010     0.843367     0.835724     0.828081     0.820438     0.812795     0.805152     0.797508
      0.789865     0.782222     0.774579     0.766936     0.759293     0.751650     0.744007     0.736364     0.728721     0.721077
      0.713434     0.705791     0.698148     0.690505     0.682862     0.675219     0.667576     0.659933     0.652290     0.644646
      0.637003     0.629360     0.621717     0.614074     0.606431     0.598788     0.591145     0.583502     0.575858     0.568215
      0.560572     0.552929     0.545286     0.537643     0.530000     0.522357     0.514714     0.507071     0.499427     0.491784
      0.484141     0.476498     0.468855     0.461212     0.453569     0.445925     0.438282     0.430639     0.422996     0.415353
      0.407710     0.400067     0.392424     0.384780     0.377137     0.369494     0.361851     0.354208     0.346565     0.338922
      0.331278     0.323635     0.315992     0.308349     0.300706     0.293063     0.285420     0.277777     0.270133     0.262490
      0.254847     0.247204     0.239561     0.231918     0.224275     0.216631     0.208988     0.201345
 NY phased data points follow
   1.68905E+01  2.22519E+01  1.80215E+01 -3.79728E+00 -3.83168E+00  8.96778E+00  1.69977E+01  4.71755E+00  8.66692E+00  1.37463E+01
   1.58973E+01  2.37348E+01  3.47461E+01  3.27315E+01  2.02413E+01  2.25103E+01  2.20870E+01  3.66014E+00 -1.23845E+01  5.13346E+00
   1.31862E+01  1.22283E+01  1.98296E+01  4.81010E+00  1.65473E+01 -5.52862E-01  5.55240E+00 -2.24190E+00  1.02445E+01  1.68502E+01
   2.15841E+01  1.50413E+01  1.41374E+01  2.62601E+01  5.62264E+00  1.09747E+01 -6.01436E+00  7.68776E+00  9.44843E+00  6.35921E+00
   1.45139E+01  5.00451E+00  8.16987E+00  1.59048E+01  6.07566E+00  1.63525E+01  1.65333E+01  5.81425E+00  1.72965E+01  1.26509E+01
   1.59769E+01  1.72723E+01  7.92642E+00  8.87667E+00  6.95121E+00  9.10106E+00  6.50478E+00  1.91965E+01  2.20983E+01  1.83278E+01
   2.51103E+00  1.55620E+01  8.59219E+00  1.39050E+01  8.48059E+00  1.15156E+01 -1.93024E+00  3.60317E+00 -4.52862E-01 -2.94333E+00
   5.36841E+00  3.31197E+00 -8.17644E-01 -6.53926E+00  5.82181E+00  1.26348E+01 -9.32340E-01  1.77201E+01 -1.61027E+00  1.52270E+01
   1.40785E+01  1.40810E+00 -1.23869E+01  6.46882E+00 -3.42595E-01 -4.28204E+00 -1.73268E+00  7.17674E-01  3.58184E+00  6.33597E+00
   1.15027E+01  5.85009E+00  8.74733E+00  1.79042E+01  7.69235E+00  6.74873E+00  4.27935E-01  1.28984E+01  1.75305E+01  1.06979E+01
   1.90512E+01  2.03442E+01  3.08828E+01  5.78245E+01  3.95831E+01  3.93475E+01  2.67357E+01  2.34433E+01  2.01772E+01  1.54648E+01
   2.45727E+01  1.50105E+01  1.67115E+01 -8.50500E-01  2.52399E+01  1.30986E-02 -2.16136E+00  3.52757E-01 -4.61935E+00  1.34397E+01
   7.74196E-01  3.12627E+00  2.39289E+00  1.11136E+01  1.36504E+01  2.36950E+01  2.93799E+01  2.31838E+01  1.78396E+01  2.89423E+01
   1.79012E+01  2.29887E+01  2.29688E+01  1.70055E+01  1.07388E+01  1.21695E+01  2.58260E+00  8.76127E+00  2.90307E+00 -2.96610E+00
  -5.72671E+00  2.77114E+00  1.79965E+01 -1.01222E+01  2.96771E+00 -7.96162E+00 -3.77910E+00 -3.14490E+00  8.30121E+00  7.25116E+00
  -3.67296E+00  1.05350E+00  7.45291E+00 -1.18006E+00 -1.24175E+01  2.64963E-01  6.30518E+00 -8.93744E+00  9.58105E-01  1.18222E+01
  -6.86387E+00 -5.32741E+00 -2.82152E+00  3.31378E+00  2.48190E+00 -1.82068E+01  1.90135E+00 -1.03914E+01 -7.17898E+00 -2.45019E-01
   9.91987E+00  1.45684E+00 -1.22279E+01 -1.53697E+01 -1.75542E+01 -1.35459E+01 -1.52661E+01 -1.29521E+01 -1.74641E+01 -1.21763E+01
  -1.77669E+01 -8.32753E+00 -1.28448E+01 -1.47506E+01 -2.25657E+01 -1.37634E+01 -1.18051E+01 -3.72110E+00 -1.30668E+01 -1.54993E+01
  -6.57263E+00 -4.71442E+00 -1.91296E+01 -1.86729E+01 -1.56059E+01 -9.78969E+00 -1.06204E+01 -4.36580E+00  9.27576E-02 -2.08945E+01
  -2.63516E+00 -4.91008E-01 -5.48734E+00 -1.69858E+01 -5.01797E+00 -1.02228E+01 -7.15401E+00 -4.50919E+00 -1.59451E+01  2.73235E-01
  -3.41593E+00  7.80196E+00 -5.71485E+00  1.19339E+00 -7.10905E-02 -1.07769E+01  1.15249E+01  1.58125E+00 -9.77542E+00  9.11961E+00
  -2.48451E+00 -3.97405E+00  1.01564E+01 -1.21585E+00 -6.37143E+00 -5.33080E+00  5.78833E+00  5.12543E+00  7.35859E+00  1.30402E-01
   7.15749E+00  8.53559E+00 -1.86706E+00 -1.06832E+00  2.76954E-01  1.12364E+00  1.03778E+00  2.04096E+00  1.15744E+01  2.92178E+00
   1.73283E+01  1.64662E+01  1.28432E+01  3.26325E+00  4.87322E+00 -9.31809E+00 -2.59257E+00  9.13314E-01 -1.50388E+01 -6.45895E+00
  -1.06071E+01  5.57406E+00 -1.20393E+01  1.25698E+01  2.92589E+01  3.48639E+01  6.11439E+01  7.32874E+01  6.33872E+01  7.41509E+01
   8.38030E+01  7.72230E+01  7.10655E+01  5.78034E+01  6.65707E+01  3.96717E+01  2.44593E+01  2.81017E+01  2.97828E+01  1.15270E+01
   1.03283E+01  1.20579E+01 -9.52007E+00 -2.45890E+00  2.55241E+00 -3.88908E-01 -5.15551E+00 -1.41645E+01 -1.28019E+01 -1.59392E+01
  -1.12267E+01 -4.06602E+00 -9.31495E+00 -1.15643E+01 -1.03304E+01 -1.36433E+01 -1.99916E+01 -1.18538E+01 -1.19986E+01 -1.89111E+00
  -7.87053E+00 -4.85662E+00 -9.98739E+00 -8.29122E+00 -3.15785E+00 -8.72151E+00 -1.63778E+01 -9.16372E+00 -6.45812E+00 -1.49647E+01
  -1.81089E+01 -9.61558E+00 -1.70069E+01 -2.26894E+00 -1.68941E+01 -2.18752E+01 -8.29958E+00 -3.34608E+00 -1.12786E+01 -5.34657E+00
  -7.01397E+00 -3.48750E+00 -1.70639E+00 -1.41704E+01 -1.17481E-01 -5.48007E+00 -2.91767E+00  1.15541E+00 -5.00793E+00  1.45994E+01
   4.04619E+00  3.60485E+00 -1.84046E+00  5.77727E+00 -1.00989E+01  5.95160E+00 -3.13036E+00  1.00721E+01  8.65221E+00  7.70490E+00
   1.38285E+01  1.30109E+01  5.34692E+00  2.03094E+01  1.12926E+01  1.45795E+01  8.53885E+00  1.99050E+01  6.75854E+00  1.37283E+01
   6.63389E+00  5.17298E-01  1.07068E+01  2.26173E+01  1.83557E+01  1.50880E+01  1.19560E+01 -4.88042E-01  8.46764E+00 -2.54086E+00
   1.20028E+01  6.70502E+00  9.22101E+00  1.61613E+01  5.75132E+00  2.70142E+00  1.15569E+01  4.15788E+00  4.58032E+00  1.35905E+01
   8.30622E-01  8.26089E+00 -6.18998E-01  5.02085E+00  3.39622E+00  1.32434E+01  3.36074E+00  1.26596E+01  1.20628E+01  2.74703E+00
   3.14561E+00 -6.89315E-01  3.05583E+00 -2.62899E+00  2.90814E+00  1.03279E+01 -3.11364E+00 -8.35806E+00 -9.17073E-01  5.16893E+00
  -1.02038E+01 -8.48991E+00  8.44652E+00 -2.51948E+00 -1.64685E+00  6.09042E+00 -2.68697E+00  1.10909E+01 -6.65483E+00  1.08033E+00
   1.98017E+01 -5.03648E+00 -4.84510E+00 -1.91350E+00  1.87614E+01 -2.55169E+00  9.18097E+00  4.15330E+00  1.61479E+01 -3.46527E+00
   7.89318E+00  7.27296E+00  1.41388E+01  1.07766E+01  2.29515E+01  6.69076E+00  5.01677E+00  1.17099E+01 -7.07965E-01  1.30844E+01
   1.56006E+01  8.77376E+00  7.53921E+00  2.27446E+00  1.18637E+01  1.13366E+01  1.52554E+01  4.02245E+00  1.32536E+01  5.37808E+00
   8.98168E+00 -4.25303E+00  5.94320E+00 -2.51352E+00  3.39269E+00 -2.87099E+00 -5.88995E+00  2.52227E+00  2.29572E+00  2.01426E+00
   4.01513E+00  5.51231E+00  1.45659E+00  1.96641E+00  4.71390E+00  2.09358E+00 -3.47345E+00 -7.52691E+00 -7.84942E+00 -1.17915E+01
  -8.04375E+00 -6.66513E+00 -5.31100E-01 -1.85721E-01 -2.19691E+00  1.94058E+00  8.08318E-01  1.42691E+01  5.31673E+00  2.75017E+00
   5.55051E+00  6.74319E+00  1.72169E+00  1.22327E+01  2.12939E+00  2.33580E+00  7.12182E+00  1.65589E+01  1.20510E+01 -2.82929E+00
  -3.89765E+00  1.78346E+00  4.78154E+00 -5.68061E+00  5.63564E+00  9.17529E+00  1.76970E+00 -3.63272E+00 -1.95673E+01  6.45853E+00
  -1.48360E+00 -1.21384E+00  1.38056E+00  3.96649E+00 -9.82344E+00 -8.87029E+00 -3.20130E+00  6.99397E+00  1.12265E+00  1.22646E+00
  -1.55467E+00 -9.84860E+00 -6.64124E+00 -1.18011E+01 -2.03199E+00 -5.76462E+00 -3.21769E+00  1.01862E+01 -5.01598E+00 -2.71391E+00
  -6.93482E+00  6.15327E+00  4.77054E+00 -3.09071E+00  7.17368E+00 -1.46663E+01 -6.10894E+00  1.10112E+00
 NY points of the fit to the data follow
   7.50224E+00  6.28972E+00  5.14984E+00  4.63723E+00  5.36417E+00  7.02538E+00  9.22138E+00  1.19001E+01  1.47393E+01  1.73744E+01
   1.96606E+01  2.13337E+01  2.19129E+01  2.12640E+01  1.97262E+01  1.77179E+01  1.54512E+01  1.32302E+01  1.15469E+01  1.02735E+01
   8.54299E+00  6.03233E+00  3.75910E+00  3.33777E+00  4.35367E+00  6.01356E+00  8.01994E+00  1.01872E+01  1.24146E+01  1.44800E+01
   1.59399E+01  1.65020E+01  1.60915E+01  1.47921E+01  1.28950E+01  1.08871E+01  9.40885E+00  8.54421E+00  7.86762E+00  7.21466E+00
   6.85302E+00  7.50204E+00  9.10793E+00  1.13075E+01  1.38057E+01  1.60711E+01  1.77692E+01  1.84316E+01  1.77384E+01  1.59444E+01
   1.36776E+01  1.13776E+01  9.29309E+00  7.85275E+00  7.47463E+00  7.75673E+00  7.56195E+00  6.54887E+00  5.71030E+00  5.75261E+00
   6.16845E+00  6.29506E+00  6.08471E+00  5.70389E+00  5.28908E+00  5.02336E+00  5.09504E+00  5.54458E+00  6.12651E+00  6.48540E+00
   6.65206E+00  6.81599E+00  6.96827E+00  7.11444E+00  7.15184E+00  7.03509E+00  6.69029E+00  6.15576E+00  5.68703E+00  5.41836E+00
   5.24331E+00  4.89846E+00  4.35556E+00  3.81717E+00  3.19680E+00  2.40762E+00  1.50842E+00  5.96597E-01 -2.07070E-01 -7.32437E-01
  -9.66982E-01 -1.03575E+00 -9.18217E-01 -5.63217E-01  4.29382E-02  1.28827E+00  3.90358E+00  8.48916E+00  1.43802E+01  2.05417E+01
   2.63733E+01  3.15354E+01  3.58606E+01  3.86726E+01  3.89678E+01  3.67042E+01  3.27217E+01  2.79101E+01  2.27594E+01  1.81462E+01
   1.50784E+01  1.27437E+01  9.20476E+00  4.02012E+00 -4.92769E-01 -2.14357E+00 -2.61098E+00 -2.75845E+00 -2.57932E+00 -1.64014E+00
   4.47062E-01  3.80420E+00  7.95022E+00  1.24198E+01  1.69062E+01  2.10933E+01  2.47639E+01  2.74099E+01  2.82538E+01  2.71206E+01
   2.45204E+01  2.10554E+01  1.71275E+01  1.33612E+01  1.05020E+01  8.33612E+00  5.68275E+00  2.06828E+00 -1.13820E+00 -2.15854E+00
  -2.03900E+00 -1.73701E+00 -1.60762E+00 -1.73363E+00 -1.93590E+00 -2.00599E+00 -2.00930E+00 -2.03364E+00 -2.11012E+00 -2.31238E+00
  -2.64762E+00 -3.02938E+00 -3.42488E+00 -3.74834E+00 -4.07300E+00 -4.39784E+00 -4.67370E+00 -4.88719E+00 -5.05177E+00 -5.22075E+00
  -5.39139E+00 -5.51830E+00 -5.59099E+00 -5.63011E+00 -5.70579E+00 -5.89770E+00 -6.24576E+00 -6.76923E+00 -7.42539E+00 -8.07878E+00
  -8.54662E+00 -8.79943E+00 -9.10086E+00 -9.55795E+00 -1.01172E+01 -1.05617E+01 -1.06692E+01 -1.05964E+01 -1.05375E+01 -1.05729E+01
  -1.06643E+01 -1.06754E+01 -1.05407E+01 -1.02091E+01 -9.54892E+00 -8.52465E+00 -7.32987E+00 -6.28110E+00 -5.42970E+00 -4.65763E+00
  -4.05911E+00 -3.81918E+00 -4.11021E+00 -4.74644E+00 -5.30198E+00 -5.38009E+00 -4.88037E+00 -3.94789E+00 -2.74446E+00 -1.30525E+00
   1.17301E-01  1.13724E+00  1.50144E+00  1.08026E+00 -1.07414E-01 -1.90960E+00 -3.97653E+00 -5.89815E+00 -7.45854E+00 -8.64137E+00
  -9.18150E+00 -8.99610E+00 -8.28007E+00 -7.21329E+00 -5.90322E+00 -4.50666E+00 -3.24921E+00 -2.12998E+00 -8.34690E-01  7.98834E-01
   2.32231E+00  3.03916E+00  3.15418E+00  3.17081E+00  2.92454E+00  2.44362E+00  1.87518E+00  1.24518E+00  5.30486E-01 -2.34247E-01
  -8.89629E-01 -1.27725E+00 -1.33907E+00 -1.05829E+00 -5.08851E-01  1.71877E-01  8.75792E-01  1.48428E+00  1.78476E+00  1.69930E+00
   1.37545E+00  8.22944E-01 -1.39110E-01 -1.34310E+00 -2.13325E+00 -2.13712E+00 -1.64202E+00 -1.10969E+00 -4.32780E-01  5.12003E-01
   1.59296E+00  3.63493E+00  8.13882E+00  1.59972E+01  2.62671E+01  3.74457E+01  4.86622E+01  5.91754E+01  6.84594E+01  7.58366E+01
   7.94134E+01  7.78704E+01  7.21094E+01  6.39557E+01  5.45461E+01  4.48451E+01  3.69877E+01  3.19551E+01  2.70369E+01  1.90388E+01
   8.92687E+00  2.48479E+00  6.86150E-01 -2.01826E-03 -4.34478E-01 -7.63833E-01 -1.04697E+00 -1.31165E+00 -1.55697E+00 -1.77102E+00
  -1.96219E+00 -2.14399E+00 -2.30543E+00 -2.43633E+00 -2.53918E+00 -2.62432E+00 -2.70026E+00 -2.76046E+00 -2.79999E+00 -2.83020E+00
  -2.85931E+00 -2.88340E+00 -2.90123E+00 -2.91464E+00 -2.92811E+00 -2.94596E+00 -2.96255E+00 -2.97109E+00 -2.97306E+00 -2.97021E+00
  -2.95977E+00 -2.93959E+00 -2.91084E+00 -2.87294E+00 -2.82313E+00 -2.76231E+00 -2.68946E+00 -2.60295E+00 -2.50088E+00 -2.38104E+00
  -2.24072E+00 -2.07684E+00 -1.88602E+00 -1.66492E+00 -1.41043E+00 -1.11960E+00 -7.89345E-01 -4.16590E-01  7.26629E-04  4.63667E-01
   9.72425E-01  1.52611E+00  2.12259E+00  2.75817E+00  3.42749E+00  4.12353E+00  4.83795E+00  5.56126E+00  6.28303E+00  6.99205E+00
   7.67684E+00  8.32623E+00  8.93007E+00  9.47968E+00  9.96851E+00  1.03927E+01  1.07527E+01  1.10560E+01  1.13230E+01  1.15697E+01
   1.17864E+01  1.19274E+01  1.19447E+01  1.18244E+01  1.15576E+01  1.11420E+01  1.05928E+01  9.93320E+00  9.24090E+00  8.61755E+00
   8.12557E+00  7.78425E+00  7.59340E+00  7.57073E+00  7.67490E+00  7.74622E+00  7.66859E+00  7.50439E+00  7.39689E+00  7.28780E+00
   7.04935E+00  6.74948E+00  6.47364E+00  6.19375E+00  5.79969E+00  5.25180E+00  4.70548E+00  4.24148E+00  3.82108E+00  3.42782E+00
   3.05733E+00  2.70910E+00  2.38420E+00  2.08433E+00  1.81135E+00  1.56712E+00  1.35347E+00  1.17224E+00  1.02525E+00  9.14298E-01
   8.41213E-01  8.07857E-01  8.16261E-01  8.68590E-01  9.67120E-01  1.11409E+00  1.31165E+00  1.56174E+00  1.86592E+00  2.22515E+00
   2.63949E+00  3.10776E+00  3.62735E+00  4.19397E+00  4.80148E+00  5.44172E+00  6.10445E+00  6.77744E+00  7.44678E+00  8.09722E+00
   8.71275E+00  9.27709E+00  9.77444E+00  1.01901E+01  1.05115E+01  1.07284E+01  1.08340E+01  1.08245E+01  1.07001E+01  1.04644E+01
   1.01244E+01  9.69017E+00  9.17423E+00  8.59073E+00  7.95486E+00  7.28217E+00  6.58790E+00  5.88635E+00  5.19043E+00  4.51122E+00
   3.85789E+00  3.23758E+00  2.65551E+00  2.11499E+00  1.61767E+00  1.16375E+00  7.52328E-01  3.81617E-01  4.92378E-02 -2.47638E-01
  -5.12064E-01 -7.47184E-01 -9.56033E-01 -1.14150E+00 -1.30627E+00 -1.45283E+00 -1.58344E+00 -1.70011E+00 -1.80456E+00 -1.89831E+00
  -1.98266E+00 -2.05880E+00 -2.12775E+00 -2.19037E+00 -2.24738E+00 -2.29938E+00 -2.34694E+00 -2.39057E+00 -2.43070E+00 -2.46767E+00
  -2.50178E+00 -2.53328E+00 -2.56244E+00 -2.58949E+00 -2.61463E+00 -2.63801E+00 -2.65975E+00 -2.67999E+00 -2.69886E+00 -2.71650E+00
  -2.73299E+00 -2.74840E+00 -2.76277E+00 -2.77622E+00 -2.78881E+00 -2.80062E+00 -2.81169E+00 -2.82205E+00 -2.83174E+00 -2.84082E+00
  -2.84934E+00 -2.85736E+00 -2.86486E+00 -2.87187E+00 -2.87842E+00 -2.88457E+00 -2.89035E+00 -2.89577E+00 -2.90082E+00 -2.90552E+00
  -2.90990E+00 -2.91402E+00 -2.91787E+00 -2.92146E+00 -2.92477E+00 -2.92784E+00 -2.93069E+00 -2.93335E+00 -2.93582E+00 -2.93809E+00
  -2.94016E+00 -2.94205E+00 -2.94380E+00 -2.94542E+00 -2.94689E+00 -2.94820E+00 -2.94936E+00 -2.95041E+00
 NY background values follow
    -5.090E+00   -5.089E+00   -5.088E+00   -5.086E+00   -5.085E+00   -5.084E+00   -5.083E+00   -5.081E+00   -5.080E+00   -5.079E+00
    -5.077E+00   -5.076E+00   -5.075E+00   -5.074E+00   -5.072E+00   -5.071E+00   -5.070E+00   -5.069E+00   -5.067E+00   -5.066E+00
    -5.065E+00   -5.063E+00   -5.062E+00   -5.061E+00   -5.060E+00   -5.058E+00   -5.057E+00   -5.056E+00   -5.054E+00   -5.053E+00
    -5.052E+00   -5.051E+00   -5.049E+00   -5.048E+00   -5.047E+00   -5.045E+00   -5.044E+00   -5.043E+00   -5.042E+00   -5.040E+00
    -5.039E+00   -5.038E+00   -5.036E+00   -5.035E+00   -5.034E+00   -5.032E+00   -5.031E+00   -5.030E+00   -5.029E+00   -5.027E+00
    -5.026E+00   -5.025E+00   -5.023E+00   -5.022E+00   -5.021E+00   -5.019E+00   -5.018E+00   -5.017E+00   -5.015E+00   -5.014E+00
    -5.013E+00   -5.012E+00   -5.010E+00   -5.009E+00   -5.008E+00   -5.006E+00   -5.005E+00   -5.004E+00   -5.002E+00   -5.001E+00
    -5.000E+00   -4.998E+00   -4.997E+00   -4.996E+00   -4.994E+00   -4.993E+00   -4.992E+00   -4.990E+00   -4.989E+00   -4.987E+00
    -4.986E+00   -4.985E+00   -4.983E+00   -4.982E+00   -4.981E+00   -4.979E+00   -4.978E+00   -4.977E+00   -4.975E+00   -4.974E+00
    -4.972E+00   -4.971E+00   -4.970E+00   -4.968E+00   -4.967E+00   -4.966E+00   -4.964E+00   -4.963E+00   -4.961E+00   -4.960E+00
    -4.959E+00   -4.957E+00   -4.956E+00   -4.954E+00   -4.953E+00   -4.952E+00   -4.950E+00   -4.949E+00   -4.947E+00   -4.946E+00
    -4.944E+00   -4.943E+00   -4.942E+00   -4.940E+00   -4.939E+00   -4.937E+00   -4.936E+00   -4.934E+00   -4.933E+00   -4.931E+00
    -4.930E+00   -4.928E+00   -4.927E+00   -4.926E+00   -4.924E+00   -4.923E+00   -4.921E+00   -4.920E+00   -4.918E+00   -4.917E+00
    -4.915E+00   -4.914E+00   -4.912E+00   -4.910E+00   -4.909E+00   -4.907E+00   -4.906E+00   -4.904E+00   -4.903E+00   -4.901E+00
    -4.900E+00   -4.898E+00   -4.896E+00   -4.895E+00   -4.893E+00   -4.892E+00   -4.890E+00   -4.889E+00   -4.887E+00   -4.885E+00
    -4.884E+00   -4.882E+00   -4.880E+00   -4.879E+00   -4.877E+00   -4.875E+00   -4.874E+00   -4.872E+00   -4.870E+00   -4.869E+00
    -4.867E+00   -4.865E+00   -4.864E+00   -4.862E+00   -4.860E+00   -4.858E+00   -4.857E+00   -4.855E+00   -4.853E+00   -4.851E+00
    -4.850E+00   -4.848E+00   -4.846E+00   -4.844E+00   -4.842E+00   -4.840E+00   -4.839E+00   -4.837E+00   -4.835E+00   -4.833E+00
    -4.831E+00   -4.829E+00   -4.827E+00   -4.825E+00   -4.823E+00   -4.821E+00   -4.819E+00   -4.817E+00   -4.815E+00   -4.813E+00
    -4.811E+00   -4.809E+00   -4.807E+00   -4.805E+00   -4.803E+00   -4.801E+00   -4.799E+00   -4.797E+00   -4.795E+00   -4.793E+00
    -4.790E+00   -4.788E+00   -4.786E+00   -4.784E+00   -4.782E+00   -4.779E+00   -4.777E+00   -4.775E+00   -4.773E+00   -4.770E+00
    -4.768E+00   -4.766E+00   -4.764E+00   -4.761E+00   -4.759E+00   -4.757E+00   -4.754E+00   -4.752E+00   -4.749E+00   -4.747E+00
    -4.745E+00   -4.742E+00   -4.740E+00   -4.737E+00   -4.735E+00   -4.732E+00   -4.730E+00   -4.727E+00   -4.725E+00   -4.722E+00
    -4.720E+00   -4.717E+00   -4.714E+00   -4.712E+00   -4.709E+00   -4.706E+00   -4.704E+00   -4.701E+00   -4.698E+00   -4.696E+00
    -4.693E+00   -4.690E+00   -4.687E+00   -4.685E+00   -4.682E+00   -4.679E+00   -4.676E+00   -4.673E+00   -4.670E+00   -4.668E+00
    -4.665E+00   -4.662E+00   -4.659E+00   -4.656E+00   -4.653E+00   -4.650E+00   -4.647E+00   -4.644E+00   -4.641E+00   -4.638E+00
    -4.635E+00   -4.632E+00   -4.628E+00   -4.625E+00   -4.622E+00   -4.619E+00   -4.616E+00   -4.613E+00   -4.609E+00   -4.606E+00
    -4.603E+00   -4.600E+00   -4.596E+00   -4.593E+00   -4.590E+00   -4.586E+00   -4.583E+00   -4.579E+00   -4.576E+00   -4.573E+00
    -4.569E+00   -4.566E+00   -4.562E+00   -4.559E+00   -4.555E+00   -4.551E+00   -4.548E+00   -4.544E+00   -4.541E+00   -4.537E+00
    -4.533E+00   -4.530E+00   -4.526E+00   -4.522E+00   -4.518E+00   -4.515E+00   -4.511E+00   -4.507E+00   -4.503E+00   -4.500E+00
    -4.496E+00   -4.492E+00   -4.488E+00   -4.484E+00   -4.480E+00   -4.476E+00   -4.472E+00   -4.468E+00   -4.464E+00   -4.460E+00
    -4.456E+00   -4.452E+00   -4.448E+00   -4.444E+00   -4.440E+00   -4.436E+00   -4.431E+00   -4.427E+00   -4.423E+00   -4.419E+00
    -4.415E+00   -4.410E+00   -4.406E+00   -4.402E+00   -4.398E+00   -4.393E+00   -4.389E+00   -4.385E+00   -4.380E+00   -4.376E+00
    -4.371E+00   -4.367E+00   -4.363E+00   -4.358E+00   -4.354E+00   -4.349E+00   -4.345E+00   -4.340E+00   -4.336E+00   -4.331E+00
    -4.327E+00   -4.322E+00   -4.317E+00   -4.313E+00   -4.308E+00   -4.304E+00   -4.299E+00   -4.294E+00   -4.290E+00   -4.285E+00
    -4.280E+00   -4.276E+00   -4.271E+00   -4.266E+00   -4.261E+00   -4.256E+00   -4.252E+00   -4.247E+00   -4.242E+00   -4.237E+00
    -4.232E+00   -4.228E+00   -4.223E+00   -4.218E+00   -4.213E+00   -4.208E+00   -4.203E+00   -4.198E+00   -4.193E+00   -4.188E+00
    -4.183E+00   -4.178E+00   -4.173E+00   -4.168E+00   -4.163E+00   -4.158E+00   -4.153E+00   -4.148E+00   -4.143E+00   -4.138E+00
    -4.133E+00   -4.128E+00   -4.123E+00   -4.118E+00   -4.113E+00   -4.108E+00   -4.103E+00   -4.098E+00   -4.092E+00   -4.087E+00
    -4.082E+00   -4.077E+00   -4.072E+00   -4.067E+00   -4.061E+00   -4.056E+00   -4.051E+00   -4.046E+00   -4.041E+00   -4.035E+00
    -4.030E+00   -4.025E+00   -4.020E+00   -4.014E+00   -4.009E+00   -4.004E+00   -3.999E+00   -3.993E+00   -3.988E+00   -3.983E+00
    -3.977E+00   -3.972E+00   -3.967E+00   -3.961E+00   -3.956E+00   -3.951E+00   -3.945E+00   -3.940E+00   -3.935E+00   -3.929E+00
    -3.924E+00   -3.919E+00   -3.913E+00   -3.908E+00   -3.903E+00   -3.897E+00   -3.892E+00   -3.886E+00   -3.881E+00   -3.876E+00
    -3.870E+00   -3.865E+00   -3.859E+00   -3.854E+00   -3.849E+00   -3.843E+00   -3.838E+00   -3.832E+00   -3.827E+00   -3.821E+00
    -3.816E+00   -3.811E+00   -3.805E+00   -3.800E+00   -3.794E+00   -3.789E+00   -3.783E+00   -3.778E+00   -3.772E+00   -3.767E+00
    -3.762E+00   -3.756E+00   -3.751E+00   -3.745E+00   -3.740E+00   -3.734E+00   -3.729E+00   -3.723E+00   -3.718E+00   -3.712E+00
    -3.707E+00   -3.702E+00   -3.696E+00   -3.691E+00   -3.685E+00   -3.680E+00   -3.674E+00   -3.669E+00   -3.663E+00   -3.658E+00
    -3.652E+00   -3.647E+00   -3.641E+00   -3.636E+00   -3.631E+00   -3.625E+00   -3.620E+00   -3.614E+00   -3.609E+00   -3.603E+00
    -3.598E+00   -3.592E+00   -3.587E+00   -3.581E+00   -3.576E+00   -3.570E+00   -3.565E+00   -3.559E+00   -3.554E+00   -3.549E+00
    -3.543E+00   -3.538E+00   -3.532E+00   -3.527E+00   -3.521E+00   -3.516E+00   -3.510E+00   -3.505E+00
 Asp      Conc. = 3.67E+01
