 LCModel (Version 6.3-1L) Copyright: S.W. Provencher.          Ref.: Magn. Reson. Med. 30:672-679 (1993).                
 Slice#3 Row#11 Col#3  PD_24_press_2_raw_act
 36 lines in following concentration table = NCONC+1
    Conc.  %SD /Cr+PCr  Metabolite                                         
 4.95E+03  10%   0.000 Ala                                                 
   18.642 164%   0.000 Asp                                                 
    0.000 999%   0.000 Cr                                                  
    0.000 999%   0.000 PCr                                                 
   11.274 163%   0.000 GABA                                                
   14.602 127%   0.000 Glc                                                 
 2.12E+03  36%   0.000 Gln                                                 
 2.72E+03  33%   0.000 Glu                                                 
   89.367 101%   0.000 GPC                                                 
    5.418 999%   0.000 PCh                                                 
  453.706  27%   0.000 GSH                                                 
 1.06E+03  30%   0.000 Ins                                                 
 6.22E+03   6%   0.000 Lac                                                 
    0.000 999%   0.000 NAA                                                 
   71.954  88%   0.000 NAAG                                                
    8.912  69%   0.000 Scyllo                                              
   33.506  91%   0.000 Tau                                                 
   78.630  74%   0.000 -CrCH2                                              
   94.785  25%   0.000 GPC+PCh                                             
   71.954  88%   0.000 NAA+NAAG                                            
    0.000 999%   0.000 Cr+PCr                                              
 4.84E+03  31%   0.000 Glu+Gln                                             
    0.000 999%   0.000 Lip13a                                              
 1.61E+03   7%   0.000 Lip13b                                              
  424.004   8%   0.000 Lip09                                               
    0.000 999%   0.000 MM09                                                
  240.705   9%   0.000 Lip20                                               
    0.140 999%   0.000 MM20                                                
 2.29E-03 999%   0.000 MM12                                                
    0.000 999%   0.000 MM14                                                
    0.471 999%   0.000 MM17                                                
 1.61E+03   7%   0.000 Lip13a+Lip13b                                       
 1.61E+03   7%   0.000 MM14+Lip13a+Lip13b+MM12                             
  424.004   8%   0.000 MM09+Lip09                                          
  240.845  10%   0.000 MM20+Lip20                                          
   6 lines in following misc. output table
  FWHM = 0.153 ppm    S/N =   8                                            
  Data shift =-0.038 ppm                                                   
  Ph:-133 deg      10.6 deg/ppm                                            
  alphaB,S = 1.4E+00,   3.8E+02                                            
   11 spline knots.   Ns = 9(2)                                            
  (11) 2 infls.   ( 1) 1 extrs.                                            
  498 points on ppm-axis = NY
      4.000000     3.992357     3.984714     3.977070     3.969427     3.961784     3.954141     3.946497     3.938854     3.931211
      3.923568     3.915925     3.908281     3.900638     3.892995     3.885352     3.877708     3.870065     3.862422     3.854779
      3.847136     3.839492     3.831849     3.824206     3.816563     3.808919     3.801276     3.793633     3.785990     3.778347
      3.770703     3.763060     3.755417     3.747774     3.740130     3.732487     3.724844     3.717201     3.709558     3.701914
      3.694271     3.686628     3.678985     3.671341     3.663698     3.656055     3.648412     3.640769     3.633125     3.625482
      3.617839     3.610196     3.602552     3.594909     3.587266     3.579623     3.571980     3.564336     3.556693     3.549050
      3.541407     3.533763     3.526120     3.518477     3.510834     3.503191     3.495547     3.487904     3.480261     3.472618
      3.464974     3.457331     3.449688     3.442045     3.434402     3.426758     3.419115     3.411472     3.403829     3.396185
      3.388542     3.380899     3.373256     3.365613     3.357969     3.350326     3.342683     3.335040     3.327396     3.319753
      3.312110     3.304467     3.296824     3.289180     3.281537     3.273894     3.266251     3.258607     3.250964     3.243321
      3.235678     3.228034     3.220391     3.212748     3.205105     3.197462     3.189818     3.182175     3.174532     3.166889
      3.159245     3.151602     3.143959     3.136316     3.128673     3.121029     3.113386     3.105743     3.098100     3.090456
      3.082813     3.075170     3.067527     3.059884     3.052240     3.044597     3.036954     3.029311     3.021667     3.014024
      3.006381     2.998738     2.991095     2.983451     2.975808     2.968165     2.960522     2.952878     2.945235     2.937592
      2.929949     2.922306     2.914662     2.907019     2.899376     2.891733     2.884089     2.876446     2.868803     2.861160
      2.853517     2.845873     2.838230     2.830587     2.822944     2.815300     2.807657     2.800014     2.792371     2.784728
      2.777084     2.769441     2.761798     2.754155     2.746511     2.738868     2.731225     2.723582     2.715939     2.708295
      2.700652     2.693009     2.685366     2.677722     2.670079     2.662436     2.654793     2.647150     2.639506     2.631863
      2.624220     2.616577     2.608933     2.601290     2.593647     2.586004     2.578361     2.570717     2.563074     2.555431
      2.547788     2.540144     2.532501     2.524858     2.517215     2.509572     2.501928     2.494285     2.486642     2.478999
      2.471355     2.463712     2.456069     2.448426     2.440783     2.433139     2.425496     2.417853     2.410210     2.402566
      2.394923     2.387280     2.379637     2.371994     2.364350     2.356707     2.349064     2.341421     2.333777     2.326134
      2.318491     2.310848     2.303205     2.295561     2.287918     2.280275     2.272632     2.264988     2.257345     2.249702
      2.242059     2.234416     2.226772     2.219129     2.211486     2.203843     2.196199     2.188556     2.180913     2.173270
      2.165627     2.157983     2.150340     2.142697     2.135054     2.127410     2.119767     2.112124     2.104481     2.096838
      2.089194     2.081551     2.073908     2.066265     2.058621     2.050978     2.043335     2.035692     2.028049     2.020405
      2.012762     2.005119     1.997476     1.989833     1.982190     1.974546     1.966903     1.959260     1.951617     1.943974
      1.936331     1.928688     1.921045     1.913402     1.905759     1.898115     1.890472     1.882829     1.875186     1.867543
      1.859900     1.852257     1.844614     1.836971     1.829327     1.821684     1.814041     1.806398     1.798755     1.791112
      1.783469     1.775826     1.768183     1.760540     1.752896     1.745253     1.737610     1.729967     1.722324     1.714681
      1.707038     1.699395     1.691752     1.684108     1.676465     1.668822     1.661179     1.653536     1.645893     1.638250
      1.630607     1.622964     1.615321     1.607677     1.600034     1.592391     1.584748     1.577105     1.569462     1.561819
      1.554176     1.546533     1.538890     1.531246     1.523603     1.515960     1.508317     1.500674     1.493031     1.485388
      1.477745     1.470102     1.462458     1.454815     1.447172     1.439529     1.431886     1.424243     1.416600     1.408957
      1.401314     1.393671     1.386027     1.378384     1.370741     1.363098     1.355455     1.347812     1.340169     1.332526
      1.324883     1.317240     1.309596     1.301953     1.294310     1.286667     1.279024     1.271381     1.263738     1.256095
      1.248452     1.240808     1.233165     1.225522     1.217879     1.210236     1.202593     1.194950     1.187307     1.179664
      1.172021     1.164377     1.156734     1.149091     1.141448     1.133805     1.126162     1.118519     1.110876     1.103233
      1.095590     1.087946     1.080303     1.072660     1.065017     1.057374     1.049731     1.042088     1.034445     1.026802
      1.019158     1.011515     1.003872     0.996229     0.988586     0.980943     0.973300     0.965657     0.958014     0.950371
      0.942727     0.935084     0.927441     0.919798     0.912155     0.904512     0.896869     0.889226     0.881583     0.873940
      0.866296     0.858653     0.851010     0.843367     0.835724     0.828081     0.820438     0.812795     0.805152     0.797508
      0.789865     0.782222     0.774579     0.766936     0.759293     0.751650     0.744007     0.736364     0.728721     0.721077
      0.713434     0.705791     0.698148     0.690505     0.682862     0.675219     0.667576     0.659933     0.652290     0.644646
      0.637003     0.629360     0.621717     0.614074     0.606431     0.598788     0.591145     0.583502     0.575858     0.568215
      0.560572     0.552929     0.545286     0.537643     0.530000     0.522357     0.514714     0.507071     0.499427     0.491784
      0.484141     0.476498     0.468855     0.461212     0.453569     0.445925     0.438282     0.430639     0.422996     0.415353
      0.407710     0.400067     0.392424     0.384780     0.377137     0.369494     0.361851     0.354208     0.346565     0.338922
      0.331278     0.323635     0.315992     0.308349     0.300706     0.293063     0.285420     0.277777     0.270133     0.262490
      0.254847     0.247204     0.239561     0.231918     0.224275     0.216631     0.208988     0.201345
 NY phased data points follow
  -8.12235E+01 -7.73062E+01 -7.85370E+01 -7.44638E+01 -7.26014E+01 -7.01093E+01 -7.23656E+01 -6.72429E+01 -6.73757E+01 -6.65518E+01
  -6.51195E+01 -6.07425E+01 -6.18966E+01 -6.02564E+01 -6.15014E+01 -5.95176E+01 -5.55503E+01 -5.50909E+01 -5.51392E+01 -4.99840E+01
  -5.37470E+01 -4.96511E+01 -5.29563E+01 -5.32006E+01 -4.79690E+01 -4.51059E+01 -4.87248E+01 -4.35829E+01 -4.71768E+01 -4.67364E+01
  -4.42839E+01 -4.07087E+01 -4.11301E+01 -4.08840E+01 -3.80705E+01 -3.64116E+01 -4.10608E+01 -3.68166E+01 -3.71305E+01 -3.74652E+01
  -3.35375E+01 -3.20210E+01 -3.29637E+01 -3.03556E+01 -3.15510E+01 -3.18828E+01 -3.22432E+01 -2.88566E+01 -3.24507E+01 -3.10741E+01
  -3.41280E+01 -3.27992E+01 -3.20330E+01 -2.90160E+01 -3.11846E+01 -2.86992E+01 -2.75967E+01 -2.75257E+01 -2.75050E+01 -2.65010E+01
  -2.77981E+01 -2.62206E+01 -2.92274E+01 -2.34078E+01 -2.75302E+01 -2.27674E+01 -2.40455E+01 -2.51306E+01 -2.25129E+01 -1.83945E+01
  -2.49103E+01 -2.01930E+01 -2.21204E+01 -1.59065E+01 -1.72051E+01 -1.69899E+01 -1.77248E+01 -1.63620E+01 -1.89156E+01 -1.83385E+01
  -1.59856E+01 -1.50800E+01 -1.83497E+01 -1.71696E+01 -1.40289E+01 -1.70418E+01 -1.50312E+01 -1.42614E+01 -1.44777E+01 -1.25456E+01
  -1.27365E+01 -1.38716E+01 -1.46207E+01 -1.23118E+01 -1.11357E+01 -1.27580E+01 -1.32990E+01 -1.02105E+01 -1.11926E+01 -1.06878E+01
  -1.09152E+01 -1.06117E+01 -9.93449E+00 -1.15156E+01 -5.84972E+00 -1.02474E+01 -9.21001E+00 -8.84382E+00 -1.06954E+01 -7.78678E+00
  -1.05004E+01 -6.30683E+00 -7.64676E+00 -6.89366E+00 -1.03548E+01 -7.37738E+00 -8.18699E+00 -6.79522E+00 -7.03868E+00 -6.75645E+00
  -9.75145E+00 -6.63581E+00 -7.27309E+00 -1.03914E+01 -7.63117E+00 -6.13656E+00 -5.59530E+00 -6.97984E+00 -3.93793E+00 -8.01962E+00
  -6.23201E+00 -6.93982E+00 -6.07275E+00 -3.82763E+00 -5.13233E+00 -8.71667E-01 -2.85597E+00  1.24960E+00 -4.97155E+00 -4.94444E+00
  -5.18318E+00 -5.06043E+00 -9.17255E+00 -5.62652E+00 -6.20104E+00 -4.80245E+00  7.41793E-01 -3.37529E+00 -1.23964E+00 -1.79503E+00
  -2.03571E+00 -5.11666E+00 -3.39289E+00 -8.78391E-01  5.90114E-01 -3.37964E-01  8.96572E-02 -3.06181E+00 -5.45174E+00  1.07104E+00
   4.60261E-01 -2.24629E+00 -6.66515E-01  1.27883E+00 -7.88883E-01  1.02185E+00 -2.58262E+00  8.92821E-01 -3.60236E+00  1.76820E+00
  -3.91421E+00 -1.87133E+00  6.30670E-01  1.33813E+00 -7.91216E-01 -1.93097E+00 -2.49401E+00 -5.59160E-01 -2.88372E-01 -1.28636E-01
  -2.58502E+00 -2.03425E+00  2.28632E+00 -2.93811E-01  1.32354E+00  4.12068E+00  2.15254E+00 -3.97604E-01  2.85804E+00  4.53762E+00
   3.57509E+00  2.79719E+00  2.87194E+00  2.51636E+00  3.55036E+00  2.98124E+00  3.98803E+00  4.81032E+00  4.66670E+00  5.87083E-01
   9.99310E-01  8.18046E+00  4.39162E+00  3.93692E+00  4.77017E+00  2.78900E+00  6.79402E+00  4.35477E+00  6.94062E+00  4.56496E+00
   4.43363E+00  5.71391E+00  5.48966E+00  4.12120E+00  4.35621E+00  6.14168E+00  4.48931E+00  7.73509E+00  7.08527E+00  5.09062E+00
   5.10745E+00  7.56110E+00  6.90701E+00  4.97412E+00  6.58593E+00  7.84965E+00  6.84790E+00  8.97373E+00  6.19209E+00  9.83980E+00
   7.07220E+00  5.93991E+00  8.86324E+00  8.23087E+00  9.53529E+00  9.64066E+00  1.24611E+01  1.11948E+01  8.03796E+00  7.05505E+00
   1.06270E+01  7.99859E+00  1.01642E+01  9.02028E+00  8.52432E+00  7.85958E+00  7.67373E+00  8.96817E+00  5.77381E+00  4.51643E+00
   7.02971E+00  6.40755E+00  7.80323E+00  7.57541E+00  8.06115E+00  9.14961E+00  9.79581E+00  9.55504E+00  7.65915E+00  1.19484E+01
   8.39421E+00  1.08596E+01  1.18910E+01  9.15063E+00  8.98571E+00  9.15387E+00  5.87489E+00  1.01713E+01  1.07330E+01  1.29809E+01
   8.24923E+00  8.49397E+00  6.69784E+00  8.76408E+00  8.13124E+00  9.24291E+00  7.70654E+00  8.10794E+00  7.73334E+00  8.95497E+00
   6.18340E+00  9.44553E+00  8.05581E+00  5.82832E+00  6.75661E+00  6.89365E+00  6.52716E+00  8.96467E+00  1.09693E+01  1.01011E+01
   6.82063E+00  1.02540E+01  8.78645E+00  1.21108E+01  7.28901E+00  1.12346E+01  9.30802E+00  1.04980E+01  1.03895E+01  1.49069E+01
   1.07425E+01  1.24285E+01  1.57313E+01  1.51811E+01  1.70875E+01  1.88842E+01  1.66706E+01  1.46792E+01  1.40328E+01  2.02524E+01
   1.62666E+01  2.13470E+01  1.94829E+01  1.83657E+01  1.77955E+01  1.97403E+01  1.86659E+01  2.09139E+01  2.16231E+01  1.98725E+01
   1.62213E+01  1.79276E+01  1.54825E+01  1.91981E+01  1.67397E+01  1.96900E+01  1.70480E+01  1.80986E+01  1.80419E+01  2.22857E+01
   1.92155E+01  2.24042E+01  2.19937E+01  2.46109E+01  2.91871E+01  2.92597E+01  3.39659E+01  3.40552E+01  3.91209E+01  3.73341E+01
   3.88176E+01  4.06745E+01  4.14539E+01  3.86881E+01  4.25922E+01  4.29550E+01  3.92758E+01  4.21619E+01  4.07230E+01  4.15710E+01
   4.22160E+01  4.12349E+01  3.67640E+01  3.69378E+01  3.69033E+01  3.53682E+01  3.26872E+01  3.18371E+01  2.62271E+01  2.75650E+01
   2.15893E+01  2.73336E+01  2.51726E+01  2.27610E+01  1.95260E+01  2.14797E+01  1.70595E+01  2.14075E+01  1.62393E+01  1.82294E+01
   1.99566E+01  1.69592E+01  1.63536E+01  1.54420E+01  1.42830E+01  1.71278E+01  1.79442E+01  1.74326E+01  1.58877E+01  1.20354E+01
   1.35462E+01  1.33247E+01  1.23532E+01  1.41724E+01  1.54874E+01  1.53723E+01  1.21905E+01  1.60811E+01  1.34152E+01  1.68071E+01
   1.57642E+01  1.17797E+01  1.02805E+01  1.37097E+01  1.18686E+01  1.01826E+01  1.24533E+01  1.13172E+01  1.10602E+01  1.25912E+01
   1.11728E+01  1.25418E+01  1.20375E+01  1.23899E+01  1.43560E+01  1.27728E+01  1.18870E+01  1.09249E+01  1.40823E+01  1.33934E+01
   1.50056E+01  1.45359E+01  1.24970E+01  1.40277E+01  1.36302E+01  1.40896E+01  1.41402E+01  1.32614E+01  1.39961E+01  1.69460E+01
   1.42120E+01  1.36025E+01  1.56963E+01  1.49079E+01  1.17626E+01  1.42879E+01  1.47041E+01  1.43642E+01  1.47247E+01  1.46458E+01
   1.32857E+01  1.53984E+01  1.37178E+01  1.01263E+01  1.59356E+01  1.44517E+01  1.35113E+01  1.22264E+01  1.20872E+01  1.45980E+01
   1.37730E+01  1.35407E+01  1.16881E+01  1.12657E+01  1.45520E+01  1.36663E+01  1.40523E+01  1.64582E+01  1.33185E+01  1.47175E+01
   1.36572E+01  1.63417E+01  1.53959E+01  1.49344E+01  1.75373E+01  1.25370E+01  1.19071E+01  1.46448E+01  1.49180E+01  1.19743E+01
   1.24125E+01  1.68210E+01  1.25700E+01  1.34902E+01  1.44181E+01  1.46622E+01  1.29753E+01  1.13565E+01  1.52108E+01  1.35888E+01
   1.36516E+01  1.37276E+01  1.34936E+01  1.59536E+01  1.43295E+01  1.43207E+01  1.34804E+01  1.12668E+01  1.09310E+01  1.18809E+01
   1.23141E+01  1.04266E+01  1.26131E+01  1.35563E+01  1.09132E+01  1.20471E+01  1.16481E+01  1.37042E+01  1.09072E+01  1.13111E+01
   1.18923E+01  1.18977E+01  1.27616E+01  1.43474E+01  1.00965E+01  7.90353E+00  1.07507E+01  1.00741E+01
 NY points of the fit to the data follow
  -7.40646E+01 -7.23429E+01 -7.27057E+01 -7.10492E+01 -7.09644E+01 -6.91897E+01 -6.88317E+01 -6.70528E+01 -6.67590E+01 -6.52270E+01
  -6.51015E+01 -6.36797E+01 -6.35109E+01 -6.17620E+01 -6.15271E+01 -5.92516E+01 -5.89826E+01 -5.64791E+01 -5.63883E+01 -5.38356E+01
  -5.40455E+01 -5.13817E+01 -5.17435E+01 -4.90530E+01 -4.95492E+01 -4.69714E+01 -4.75535E+01 -4.51376E+01 -4.55831E+01 -4.32198E+01
  -4.34497E+01 -4.12489E+01 -4.13155E+01 -3.94854E+01 -3.94338E+01 -3.81028E+01 -3.79314E+01 -3.70756E+01 -3.67491E+01 -3.62656E+01
  -3.58033E+01 -3.55178E+01 -3.48528E+01 -3.45905E+01 -3.37612E+01 -3.34359E+01 -3.25448E+01 -3.21326E+01 -3.14431E+01 -3.12352E+01
  -3.07862E+01 -3.06616E+01 -3.02431E+01 -3.00267E+01 -2.95910E+01 -2.90657E+01 -2.85489E+01 -2.78957E+01 -2.74654E+01 -2.67678E+01
  -2.64595E+01 -2.57537E+01 -2.55180E+01 -2.48602E+01 -2.46347E+01 -2.39901E+01 -2.37501E+01 -2.31100E+01 -2.28306E+01 -2.21890E+01
  -2.19132E+01 -2.13528E+01 -2.11096E+01 -2.06292E+01 -2.04129E+01 -2.00055E+01 -1.98130E+01 -1.94612E+01 -1.92682E+01 -1.89694E+01
  -1.87635E+01 -1.84734E+01 -1.82402E+01 -1.79441E+01 -1.76084E+01 -1.71911E+01 -1.68464E+01 -1.63613E+01 -1.60125E+01 -1.54307E+01
  -1.50787E+01 -1.43736E+01 -1.40565E+01 -1.32252E+01 -1.29933E+01 -1.20804E+01 -1.19806E+01 -1.10202E+01 -1.10655E+01 -1.00884E+01
  -1.02723E+01 -9.31112E+00 -9.64161E+00 -8.77083E+00 -9.20584E+00 -8.47521E+00 -8.94386E+00 -8.35601E+00 -8.79203E+00 -8.33025E+00
  -8.70353E+00 -8.33473E+00 -8.61064E+00 -8.29083E+00 -8.45251E+00 -8.13405E+00 -8.16282E+00 -7.87362E+00 -7.84845E+00 -7.62792E+00
  -7.55512E+00 -7.38071E+00 -7.21491E+00 -7.05895E+00 -6.74828E+00 -6.56906E+00 -6.22091E+00 -6.09116E+00 -5.71589E+00 -5.64164E+00
  -5.22904E+00 -5.20583E+00 -4.75493E+00 -4.79213E+00 -4.32254E+00 -4.41071E+00 -3.92851E+00 -4.04608E+00 -3.54400E+00 -3.66364E+00
  -3.15466E+00 -3.27486E+00 -2.80466E+00 -2.92137E+00 -2.51508E+00 -2.61645E+00 -2.27921E+00 -2.35182E+00 -2.07971E+00 -2.12583E+00
  -1.91540E+00 -1.92679E+00 -1.75625E+00 -1.72488E+00 -1.57059E+00 -1.48965E+00 -1.34044E+00 -1.24893E+00 -1.14529E+00 -1.04913E+00
  -9.78992E-01 -8.73027E-01 -8.03638E-01 -6.87196E-01 -6.04479E-01 -4.90941E-01 -4.03151E-01 -3.03608E-01 -2.22475E-01 -1.31606E-01
  -5.06011E-02  3.85658E-02  1.36575E-01  2.40232E-01  3.62184E-01  4.70778E-01  5.70104E-01  6.60491E-01  7.30347E-01  7.56951E-01
   8.01698E-01  8.10360E-01  8.77268E-01  9.06463E-01  1.07151E+00  1.12764E+00  1.35667E+00  1.45308E+00  1.79300E+00  1.85442E+00
   2.23829E+00  2.22247E+00  2.40141E+00  2.29849E+00  2.55252E+00  2.45065E+00  2.80446E+00  2.78208E+00  3.37981E+00  3.37760E+00
   3.97742E+00  3.92442E+00  4.49463E+00  4.31166E+00  4.72686E+00  4.33730E+00  4.77209E+00  4.38423E+00  4.80656E+00  4.47770E+00
   4.97138E+00  4.75040E+00  5.31950E+00  5.20124E+00  5.70660E+00  5.67325E+00  5.93705E+00  5.93511E+00  5.82905E+00  5.87526E+00
   5.63391E+00  5.84912E+00  5.66141E+00  6.15451E+00  6.14957E+00  6.65738E+00  6.85450E+00  7.28982E+00  7.63284E+00  7.73737E+00
   8.16394E+00  7.83111E+00  8.16918E+00  7.40713E+00  7.96912E+00  6.94662E+00  7.84366E+00  6.68657E+00  8.00573E+00  6.70433E+00
   8.10343E+00  6.62970E+00  8.03427E+00  6.54618E+00  7.85669E+00  6.47719E+00  7.78816E+00  6.72117E+00  7.93437E+00  7.18275E+00
   8.26565E+00  7.78242E+00  8.71506E+00  8.39413E+00  9.08884E+00  8.88346E+00  9.34908E+00  9.22992E+00  9.43463E+00  9.46322E+00
   9.52964E+00  9.70795E+00  9.62756E+00  9.91016E+00  9.70441E+00  9.94881E+00  9.67027E+00  9.91775E+00  9.62032E+00  9.82920E+00
   9.56132E+00  9.72554E+00  9.47720E+00  9.61263E+00  9.42917E+00  9.56179E+00  9.44493E+00  9.56065E+00  9.49675E+00  9.56137E+00
   9.49966E+00  9.51833E+00  9.49630E+00  9.51239E+00  9.53207E+00  9.54917E+00  9.61091E+00  9.63043E+00  9.70563E+00  9.74531E+00
   9.83196E+00  9.88753E+00  9.98542E+00  1.00608E+01  1.01726E+01  1.02807E+01  1.04283E+01  1.05794E+01  1.07659E+01  1.09659E+01
   1.12025E+01  1.14654E+01  1.17711E+01  1.21212E+01  1.25389E+01  1.30377E+01  1.36620E+01  1.44811E+01  1.56982E+01  1.74066E+01
   1.79733E+01  1.95162E+01  1.95098E+01  2.09836E+01  2.02765E+01  2.15185E+01  1.97000E+01  2.17448E+01  1.96524E+01  2.17110E+01
   1.90789E+01  2.09451E+01  1.79861E+01  1.97929E+01  1.69945E+01  1.88786E+01  1.66725E+01  1.85326E+01  1.79201E+01  2.06222E+01
   2.09083E+01  2.30172E+01  2.44718E+01  2.63660E+01  2.86977E+01  2.97123E+01  3.21081E+01  3.35834E+01  3.57994E+01  3.67653E+01
   3.81118E+01  3.87919E+01  3.93064E+01  4.00786E+01  4.01578E+01  4.14629E+01  4.10389E+01  4.23512E+01  4.14532E+01  4.26673E+01
   4.06376E+01  4.09366E+01  3.81072E+01  3.81994E+01  3.49442E+01  3.46554E+01  3.13267E+01  3.12657E+01  2.86561E+01  2.83183E+01
   2.61704E+01  2.56806E+01  2.38546E+01  2.30050E+01  2.16048E+01  2.07800E+01  1.98728E+01  1.93702E+01  1.90583E+01  1.92683E+01
   1.87469E+01  1.82161E+01  1.75311E+01  1.65194E+01  1.57459E+01  1.44554E+01  1.37476E+01  1.33313E+01  1.30557E+01  1.28676E+01
   1.27385E+01  1.26542E+01  1.26030E+01  1.25798E+01  1.25780E+01  1.25956E+01  1.26279E+01  1.26743E+01  1.27312E+01  1.27986E+01
   1.28734E+01  1.29560E+01  1.30434E+01  1.31359E+01  1.32307E+01  1.33282E+01  1.34257E+01  1.35234E+01  1.36186E+01  1.37116E+01
   1.37997E+01  1.38835E+01  1.39603E+01  1.40309E+01  1.40929E+01  1.41473E+01  1.41920E+01  1.42286E+01  1.42552E+01  1.42736E+01
   1.42824E+01  1.42838E+01  1.42767E+01  1.42636E+01  1.42435E+01  1.42190E+01  1.41892E+01  1.41569E+01  1.41213E+01  1.40848E+01
   1.40466E+01  1.40089E+01  1.39709E+01  1.39346E+01  1.38989E+01  1.38657E+01  1.38336E+01  1.38044E+01  1.37765E+01  1.37516E+01
   1.37280E+01  1.37073E+01  1.36876E+01  1.36705E+01  1.36541E+01  1.36400E+01  1.36262E+01  1.36143E+01  1.36023E+01  1.35920E+01
   1.35812E+01  1.35717E+01  1.35616E+01  1.35524E+01  1.35423E+01  1.35330E+01  1.35225E+01  1.35127E+01  1.35014E+01  1.34907E+01
   1.34784E+01  1.34664E+01  1.34529E+01  1.34396E+01  1.34245E+01  1.34096E+01  1.33929E+01  1.33762E+01  1.33578E+01  1.33393E+01
   1.33189E+01  1.32985E+01  1.32762E+01  1.32539E+01  1.32296E+01  1.32053E+01  1.31789E+01  1.31525E+01  1.31241E+01  1.30957E+01
   1.30652E+01  1.30347E+01  1.30022E+01  1.29696E+01  1.29350E+01  1.29004E+01  1.28639E+01  1.28272E+01  1.27887E+01  1.27501E+01
   1.27096E+01  1.26691E+01  1.26267E+01  1.25844E+01  1.25402E+01  1.24962E+01  1.24503E+01  1.24047E+01  1.23573E+01  1.23101E+01
   1.22614E+01  1.22130E+01  1.21632E+01  1.21139E+01  1.20633E+01  1.20136E+01  1.19629E+01  1.19135E+01
 NY background values follow
    -7.607E+01   -7.521E+01   -7.436E+01   -7.350E+01   -7.264E+01   -7.179E+01   -7.093E+01   -7.008E+01   -6.922E+01   -6.837E+01
    -6.752E+01   -6.667E+01   -6.582E+01   -6.497E+01   -6.413E+01   -6.328E+01   -6.244E+01   -6.161E+01   -6.077E+01   -5.994E+01
    -5.911E+01   -5.828E+01   -5.746E+01   -5.663E+01   -5.582E+01   -5.500E+01   -5.419E+01   -5.339E+01   -5.259E+01   -5.179E+01
    -5.100E+01   -5.021E+01   -4.942E+01   -4.864E+01   -4.787E+01   -4.710E+01   -4.634E+01   -4.558E+01   -4.483E+01   -4.408E+01
    -4.334E+01   -4.260E+01   -4.187E+01   -4.115E+01   -4.044E+01   -3.973E+01   -3.902E+01   -3.833E+01   -3.764E+01   -3.696E+01
    -3.629E+01   -3.562E+01   -3.496E+01   -3.431E+01   -3.367E+01   -3.304E+01   -3.241E+01   -3.180E+01   -3.119E+01   -3.059E+01
    -3.000E+01   -2.942E+01   -2.884E+01   -2.828E+01   -2.773E+01   -2.719E+01   -2.665E+01   -2.613E+01   -2.561E+01   -2.510E+01
    -2.460E+01   -2.411E+01   -2.363E+01   -2.315E+01   -2.269E+01   -2.223E+01   -2.178E+01   -2.134E+01   -2.091E+01   -2.048E+01
    -2.006E+01   -1.965E+01   -1.924E+01   -1.885E+01   -1.846E+01   -1.807E+01   -1.770E+01   -1.733E+01   -1.696E+01   -1.661E+01
    -1.625E+01   -1.591E+01   -1.557E+01   -1.524E+01   -1.491E+01   -1.459E+01   -1.428E+01   -1.397E+01   -1.366E+01   -1.336E+01
    -1.307E+01   -1.278E+01   -1.250E+01   -1.222E+01   -1.194E+01   -1.167E+01   -1.141E+01   -1.114E+01   -1.089E+01   -1.063E+01
    -1.038E+01   -1.014E+01   -9.896E+00   -9.658E+00   -9.423E+00   -9.192E+00   -8.964E+00   -8.739E+00   -8.517E+00   -8.297E+00
    -8.081E+00   -7.867E+00   -7.656E+00   -7.447E+00   -7.241E+00   -7.036E+00   -6.834E+00   -6.634E+00   -6.436E+00   -6.240E+00
    -6.046E+00   -5.854E+00   -5.664E+00   -5.477E+00   -5.291E+00   -5.107E+00   -4.925E+00   -4.745E+00   -4.567E+00   -4.391E+00
    -4.217E+00   -4.045E+00   -3.874E+00   -3.706E+00   -3.539E+00   -3.374E+00   -3.211E+00   -3.050E+00   -2.891E+00   -2.733E+00
    -2.577E+00   -2.423E+00   -2.270E+00   -2.119E+00   -1.970E+00   -1.822E+00   -1.676E+00   -1.532E+00   -1.389E+00   -1.248E+00
    -1.109E+00   -9.709E-01   -8.345E-01   -6.996E-01   -5.663E-01   -4.344E-01   -3.040E-01   -1.751E-01   -4.762E-02    7.843E-02
     2.031E-01    3.263E-01    4.482E-01    5.686E-01    6.878E-01    8.056E-01    9.221E-01    1.037E+00    1.151E+00    1.264E+00
     1.375E+00    1.485E+00    1.594E+00    1.702E+00    1.809E+00    1.914E+00    2.018E+00    2.121E+00    2.223E+00    2.324E+00
     2.424E+00    2.522E+00    2.620E+00    2.716E+00    2.811E+00    2.905E+00    2.997E+00    3.088E+00    3.179E+00    3.268E+00
     3.355E+00    3.442E+00    3.527E+00    3.611E+00    3.693E+00    3.775E+00    3.855E+00    3.934E+00    4.011E+00    4.088E+00
     4.162E+00    4.236E+00    4.308E+00    4.379E+00    4.449E+00    4.517E+00    4.584E+00    4.649E+00    4.713E+00    4.776E+00
     4.837E+00    4.897E+00    4.955E+00    5.012E+00    5.068E+00    5.122E+00    5.175E+00    5.226E+00    5.276E+00    5.324E+00
     5.371E+00    5.417E+00    5.460E+00    5.503E+00    5.544E+00    5.583E+00    5.621E+00    5.657E+00    5.692E+00    5.725E+00
     5.757E+00    5.787E+00    5.815E+00    5.842E+00    5.867E+00    5.891E+00    5.913E+00    5.933E+00    5.952E+00    5.969E+00
     5.985E+00    5.999E+00    6.012E+00    6.023E+00    6.032E+00    6.041E+00    6.048E+00    6.054E+00    6.059E+00    6.062E+00
     6.065E+00    6.067E+00    6.067E+00    6.067E+00    6.066E+00    6.065E+00    6.063E+00    6.060E+00    6.056E+00    6.052E+00
     6.048E+00    6.043E+00    6.037E+00    6.032E+00    6.026E+00    6.020E+00    6.014E+00    6.008E+00    6.002E+00    5.996E+00
     5.990E+00    5.985E+00    5.979E+00    5.974E+00    5.969E+00    5.965E+00    5.961E+00    5.957E+00    5.954E+00    5.952E+00
     5.951E+00    5.950E+00    5.950E+00    5.951E+00    5.953E+00    5.955E+00    5.959E+00    5.964E+00    5.970E+00    5.977E+00
     5.986E+00    5.996E+00    6.007E+00    6.020E+00    6.034E+00    6.050E+00    6.067E+00    6.086E+00    6.107E+00    6.130E+00
     6.154E+00    6.180E+00    6.208E+00    6.238E+00    6.270E+00    6.304E+00    6.340E+00    6.377E+00    6.416E+00    6.457E+00
     6.499E+00    6.543E+00    6.588E+00    6.635E+00    6.683E+00    6.733E+00    6.785E+00    6.837E+00    6.891E+00    6.947E+00
     7.003E+00    7.061E+00    7.120E+00    7.181E+00    7.242E+00    7.304E+00    7.368E+00    7.433E+00    7.498E+00    7.565E+00
     7.632E+00    7.700E+00    7.770E+00    7.839E+00    7.910E+00    7.982E+00    8.054E+00    8.127E+00    8.200E+00    8.274E+00
     8.349E+00    8.424E+00    8.500E+00    8.576E+00    8.653E+00    8.729E+00    8.807E+00    8.884E+00    8.962E+00    9.040E+00
     9.119E+00    9.197E+00    9.276E+00    9.354E+00    9.433E+00    9.512E+00    9.591E+00    9.670E+00    9.748E+00    9.827E+00
     9.905E+00    9.984E+00    1.006E+01    1.014E+01    1.022E+01    1.029E+01    1.037E+01    1.045E+01    1.052E+01    1.060E+01
     1.067E+01    1.075E+01    1.082E+01    1.090E+01    1.097E+01    1.104E+01    1.112E+01    1.119E+01    1.126E+01    1.133E+01
     1.140E+01    1.147E+01    1.154E+01    1.161E+01    1.167E+01    1.174E+01    1.181E+01    1.187E+01    1.194E+01    1.200E+01
     1.206E+01    1.212E+01    1.219E+01    1.225E+01    1.231E+01    1.236E+01    1.242E+01    1.248E+01    1.253E+01    1.259E+01
     1.264E+01    1.269E+01    1.274E+01    1.279E+01    1.284E+01    1.289E+01    1.294E+01    1.298E+01    1.303E+01    1.307E+01
     1.311E+01    1.315E+01    1.319E+01    1.323E+01    1.327E+01    1.330E+01    1.334E+01    1.337E+01    1.340E+01    1.343E+01
     1.346E+01    1.349E+01    1.351E+01    1.354E+01    1.356E+01    1.358E+01    1.360E+01    1.362E+01    1.363E+01    1.365E+01
     1.366E+01    1.367E+01    1.368E+01    1.369E+01    1.370E+01    1.370E+01    1.371E+01    1.371E+01    1.371E+01    1.371E+01
     1.371E+01    1.370E+01    1.370E+01    1.369E+01    1.369E+01    1.368E+01    1.367E+01    1.366E+01    1.364E+01    1.363E+01
     1.361E+01    1.359E+01    1.358E+01    1.356E+01    1.354E+01    1.351E+01    1.349E+01    1.346E+01    1.344E+01    1.341E+01
     1.338E+01    1.335E+01    1.332E+01    1.328E+01    1.325E+01    1.321E+01    1.318E+01    1.314E+01    1.310E+01    1.306E+01
     1.302E+01    1.297E+01    1.293E+01    1.289E+01    1.284E+01    1.279E+01    1.274E+01    1.269E+01    1.264E+01    1.259E+01
     1.253E+01    1.248E+01    1.242E+01    1.237E+01    1.231E+01    1.225E+01    1.219E+01    1.213E+01
 Ala      Conc. = 4.95E+03
