 LCModel (Version 6.3-1L) Copyright: S.W. Provencher.          Ref.: Magn. Reson. Med. 30:672-679 (1993).                
 Slice#2 Row#9 Col#3  PD_24_press_2_raw_act
 36 lines in following concentration table = NCONC+1
    Conc.  %SD /Cr+PCr  Metabolite                                         
  459.308  59%   0.170 Ala                                                 
    0.000 999%   0.000 Asp                                                 
  908.889  49%   0.337 Cr                                                  
 1.79E+03  25%   0.663 PCr                                                 
    0.000 999%   0.000 GABA                                                
   32.789 914% 1.2E-02 Glc                                                 
 1.48E+03  37%   0.547 Gln                                                 
 2.29E+03  27%   0.850 Glu                                                 
  965.307   4%   0.358 GPC                                                 
    0.000 999%   0.000 PCh                                                 
 1.27E+03  12%   0.471 GSH                                                 
 4.14E+03  15%   1.533 Ins                                                 
   56.864 503% 2.1E-02 Lac                                                 
 4.39E+03   6%   1.627 NAA                                                 
  295.556  90%   0.110 NAAG                                                
  407.794  14%   0.151 Scyllo                                              
  183.258 236% 6.8E-02 Tau                                                 
   55.044 395% 2.0E-02 -CrCH2                                              
  965.307   4%   0.358 GPC+PCh                                             
 4.68E+03   3%   1.736 NAA+NAAG                                            
 2.70E+03   4%   1.000 Cr+PCr                                              
 3.77E+03  27%   1.397 Glu+Gln                                             
 2.35E+03  47%   0.872 Lip13a                                              
   69.321 340% 2.6E-02 Lip13b                                              
  447.831 106%   0.166 Lip09                                               
 1.96E+03  25%   0.727 MM09                                                
  369.400  81%   0.137 Lip20                                               
 3.22E+03  22%   1.192 MM20                                                
  872.154  40%   0.323 MM12                                                
 1.20E+03  53%   0.443 MM14                                                
 1.61E+03  29%   0.598 MM17                                                
 2.42E+03  41%   0.898 Lip13a+Lip13b                                       
 4.49E+03  22%   1.664 MM14+Lip13a+Lip13b+MM12                             
 2.41E+03  17%   0.893 MM09+Lip09                                          
 3.59E+03  19%   1.329 MM20+Lip20                                          
   6 lines in following misc. output table
  FWHM = 0.084 ppm    S/N =  15                                            
  Data shift = 0.008 ppm                                                   
  Ph: -47 deg     -18.8 deg/ppm                                            
  alphaB,S = 5.0E-01,   2.0E+02                                            
   14 spline knots.   Ns =11(1)                                            
  (18) 6 infls.   (17) 1 extrs.                                            
  498 points on ppm-axis = NY
      4.000000     3.992357     3.984714     3.977070     3.969427     3.961784     3.954141     3.946497     3.938854     3.931211
      3.923568     3.915925     3.908281     3.900638     3.892995     3.885352     3.877708     3.870065     3.862422     3.854779
      3.847136     3.839492     3.831849     3.824206     3.816563     3.808919     3.801276     3.793633     3.785990     3.778347
      3.770703     3.763060     3.755417     3.747774     3.740130     3.732487     3.724844     3.717201     3.709558     3.701914
      3.694271     3.686628     3.678985     3.671341     3.663698     3.656055     3.648412     3.640769     3.633125     3.625482
      3.617839     3.610196     3.602552     3.594909     3.587266     3.579623     3.571980     3.564336     3.556693     3.549050
      3.541407     3.533763     3.526120     3.518477     3.510834     3.503191     3.495547     3.487904     3.480261     3.472618
      3.464974     3.457331     3.449688     3.442045     3.434402     3.426758     3.419115     3.411472     3.403829     3.396185
      3.388542     3.380899     3.373256     3.365613     3.357969     3.350326     3.342683     3.335040     3.327396     3.319753
      3.312110     3.304467     3.296824     3.289180     3.281537     3.273894     3.266251     3.258607     3.250964     3.243321
      3.235678     3.228034     3.220391     3.212748     3.205105     3.197462     3.189818     3.182175     3.174532     3.166889
      3.159245     3.151602     3.143959     3.136316     3.128673     3.121029     3.113386     3.105743     3.098100     3.090456
      3.082813     3.075170     3.067527     3.059884     3.052240     3.044597     3.036954     3.029311     3.021667     3.014024
      3.006381     2.998738     2.991095     2.983451     2.975808     2.968165     2.960522     2.952878     2.945235     2.937592
      2.929949     2.922306     2.914662     2.907019     2.899376     2.891733     2.884089     2.876446     2.868803     2.861160
      2.853517     2.845873     2.838230     2.830587     2.822944     2.815300     2.807657     2.800014     2.792371     2.784728
      2.777084     2.769441     2.761798     2.754155     2.746511     2.738868     2.731225     2.723582     2.715939     2.708295
      2.700652     2.693009     2.685366     2.677722     2.670079     2.662436     2.654793     2.647150     2.639506     2.631863
      2.624220     2.616577     2.608933     2.601290     2.593647     2.586004     2.578361     2.570717     2.563074     2.555431
      2.547788     2.540144     2.532501     2.524858     2.517215     2.509572     2.501928     2.494285     2.486642     2.478999
      2.471355     2.463712     2.456069     2.448426     2.440783     2.433139     2.425496     2.417853     2.410210     2.402566
      2.394923     2.387280     2.379637     2.371994     2.364350     2.356707     2.349064     2.341421     2.333777     2.326134
      2.318491     2.310848     2.303205     2.295561     2.287918     2.280275     2.272632     2.264988     2.257345     2.249702
      2.242059     2.234416     2.226772     2.219129     2.211486     2.203843     2.196199     2.188556     2.180913     2.173270
      2.165627     2.157983     2.150340     2.142697     2.135054     2.127410     2.119767     2.112124     2.104481     2.096838
      2.089194     2.081551     2.073908     2.066265     2.058621     2.050978     2.043335     2.035692     2.028049     2.020405
      2.012762     2.005119     1.997476     1.989833     1.982190     1.974546     1.966903     1.959260     1.951617     1.943974
      1.936331     1.928688     1.921045     1.913402     1.905759     1.898115     1.890472     1.882829     1.875186     1.867543
      1.859900     1.852257     1.844614     1.836971     1.829327     1.821684     1.814041     1.806398     1.798755     1.791112
      1.783469     1.775826     1.768183     1.760540     1.752896     1.745253     1.737610     1.729967     1.722324     1.714681
      1.707038     1.699395     1.691752     1.684108     1.676465     1.668822     1.661179     1.653536     1.645893     1.638250
      1.630607     1.622964     1.615321     1.607677     1.600034     1.592391     1.584748     1.577105     1.569462     1.561819
      1.554176     1.546533     1.538890     1.531246     1.523603     1.515960     1.508317     1.500674     1.493031     1.485388
      1.477745     1.470102     1.462458     1.454815     1.447172     1.439529     1.431886     1.424243     1.416600     1.408957
      1.401314     1.393671     1.386027     1.378384     1.370741     1.363098     1.355455     1.347812     1.340169     1.332526
      1.324883     1.317240     1.309596     1.301953     1.294310     1.286667     1.279024     1.271381     1.263738     1.256095
      1.248452     1.240808     1.233165     1.225522     1.217879     1.210236     1.202593     1.194950     1.187307     1.179664
      1.172021     1.164377     1.156734     1.149091     1.141448     1.133805     1.126162     1.118519     1.110876     1.103233
      1.095590     1.087946     1.080303     1.072660     1.065017     1.057374     1.049731     1.042088     1.034445     1.026802
      1.019158     1.011515     1.003872     0.996229     0.988586     0.980943     0.973300     0.965657     0.958014     0.950371
      0.942727     0.935084     0.927441     0.919798     0.912155     0.904512     0.896869     0.889226     0.881583     0.873940
      0.866296     0.858653     0.851010     0.843367     0.835724     0.828081     0.820438     0.812795     0.805152     0.797508
      0.789865     0.782222     0.774579     0.766936     0.759293     0.751650     0.744007     0.736364     0.728721     0.721077
      0.713434     0.705791     0.698148     0.690505     0.682862     0.675219     0.667576     0.659933     0.652290     0.644646
      0.637003     0.629360     0.621717     0.614074     0.606431     0.598788     0.591145     0.583502     0.575858     0.568215
      0.560572     0.552929     0.545286     0.537643     0.530000     0.522357     0.514714     0.507071     0.499427     0.491784
      0.484141     0.476498     0.468855     0.461212     0.453569     0.445925     0.438282     0.430639     0.422996     0.415353
      0.407710     0.400067     0.392424     0.384780     0.377137     0.369494     0.361851     0.354208     0.346565     0.338922
      0.331278     0.323635     0.315992     0.308349     0.300706     0.293063     0.285420     0.277777     0.270133     0.262490
      0.254847     0.247204     0.239561     0.231918     0.224275     0.216631     0.208988     0.201345
 NY phased data points follow
  -2.47337E+02 -2.39013E+02 -2.33792E+02 -2.24361E+02 -2.19056E+02 -2.06981E+02 -2.04970E+02 -1.97092E+02 -1.95980E+02 -1.87626E+02
  -1.80703E+02 -1.84445E+02 -1.91482E+02 -1.94178E+02 -1.97234E+02 -1.92986E+02 -2.00604E+02 -2.01679E+02 -2.11317E+02 -1.99875E+02
  -2.04466E+02 -1.95069E+02 -1.94904E+02 -1.87940E+02 -1.88988E+02 -1.81869E+02 -1.81261E+02 -1.74734E+02 -1.75210E+02 -1.69659E+02
  -1.69858E+02 -1.65403E+02 -1.71710E+02 -1.60563E+02 -1.63746E+02 -1.58700E+02 -1.63832E+02 -1.63459E+02 -1.60846E+02 -1.52665E+02
  -1.52873E+02 -1.50260E+02 -1.48734E+02 -1.46416E+02 -1.49096E+02 -1.44289E+02 -1.40285E+02 -1.39108E+02 -1.42740E+02 -1.33927E+02
  -1.42250E+02 -1.40433E+02 -1.37654E+02 -1.37407E+02 -1.38816E+02 -1.32665E+02 -1.39517E+02 -1.39007E+02 -1.34439E+02 -1.29371E+02
  -1.34461E+02 -1.32725E+02 -1.34376E+02 -1.31223E+02 -1.30460E+02 -1.28493E+02 -1.30554E+02 -1.21521E+02 -1.27116E+02 -1.21919E+02
  -1.24450E+02 -1.18841E+02 -1.22931E+02 -1.18805E+02 -1.21058E+02 -1.15471E+02 -1.12974E+02 -1.14641E+02 -1.13689E+02 -1.08369E+02
  -1.06283E+02 -9.89130E+01 -1.08886E+02 -1.05371E+02 -1.05865E+02 -9.99173E+01 -1.01438E+02 -9.47147E+01 -9.16260E+01 -9.49384E+01
  -9.15431E+01 -8.62122E+01 -8.99301E+01 -8.61460E+01 -8.54957E+01 -7.32432E+01 -7.35566E+01 -6.35309E+01 -6.44848E+01 -5.97518E+01
  -5.10847E+01 -3.88272E+01 -4.01777E+01 -3.34819E+01 -4.06517E+01 -4.07516E+01 -4.84361E+01 -6.22807E+01 -6.78095E+01 -7.27344E+01
  -7.28144E+01 -6.92166E+01 -7.74521E+01 -7.39714E+01 -7.68260E+01 -7.32391E+01 -7.07008E+01 -6.85532E+01 -6.71666E+01 -5.61511E+01
  -5.75160E+01 -4.72880E+01 -4.85992E+01 -3.60775E+01 -3.08625E+01 -2.29756E+01 -2.41335E+01 -1.64332E+01 -1.11066E+01 -1.48189E+01
  -2.84101E+01 -3.57349E+01 -4.60377E+01 -5.10027E+01 -5.86446E+01 -5.89997E+01 -6.73414E+01 -6.54824E+01 -6.88586E+01 -6.66338E+01
  -6.78942E+01 -6.77201E+01 -6.64150E+01 -6.43257E+01 -6.83055E+01 -6.51640E+01 -6.44520E+01 -6.81304E+01 -6.67212E+01 -6.33034E+01
  -6.42073E+01 -6.82579E+01 -6.48063E+01 -6.19815E+01 -6.55681E+01 -6.29188E+01 -6.30542E+01 -6.17164E+01 -5.85739E+01 -5.73255E+01
  -5.87792E+01 -6.54523E+01 -5.70967E+01 -6.47259E+01 -6.66006E+01 -5.81729E+01 -6.45200E+01 -5.69770E+01 -6.33667E+01 -6.18382E+01
  -6.52341E+01 -6.49411E+01 -6.22951E+01 -6.62292E+01 -6.89972E+01 -7.10949E+01 -6.89613E+01 -7.17018E+01 -6.51945E+01 -6.49568E+01
  -6.47471E+01 -6.29415E+01 -6.01870E+01 -5.86304E+01 -6.09754E+01 -5.54836E+01 -5.26448E+01 -5.42194E+01 -4.67797E+01 -4.92736E+01
  -4.78573E+01 -4.41992E+01 -3.96932E+01 -3.87099E+01 -3.65166E+01 -3.51206E+01 -4.02220E+01 -3.58279E+01 -3.74829E+01 -3.65225E+01
  -3.63088E+01 -4.30114E+01 -3.99785E+01 -3.74888E+01 -3.53813E+01 -3.40254E+01 -3.25680E+01 -3.19870E+01 -3.26652E+01 -3.01520E+01
  -3.31747E+01 -3.33131E+01 -3.44787E+01 -3.23055E+01 -2.62491E+01 -2.11609E+01 -2.37775E+01 -2.10872E+01 -2.04993E+01 -2.05895E+01
  -2.43237E+01 -2.89288E+01 -3.15272E+01 -2.48253E+01 -2.70753E+01 -2.42192E+01 -2.29911E+01 -1.78294E+01 -1.52564E+01 -1.85058E+01
  -1.62208E+01 -1.51146E+01 -2.11993E+01 -1.59466E+01 -1.62331E+01 -2.24637E+01 -1.64768E+01 -1.68511E+01 -1.81420E+01 -1.36497E+01
  -1.68197E+01 -1.87109E+01 -1.88118E+01 -1.53631E+01 -1.84170E+01 -8.50560E+00 -6.09396E+00 -5.61068E+00 -1.93388E+00  2.88697E+00
   4.90239E+00  1.52210E+01  1.77821E+01  3.37979E+01  4.09872E+01  5.31342E+01  6.11663E+01  6.76171E+01  7.51629E+01  7.95451E+01
   8.92295E+01  9.22865E+01  9.14922E+01  8.29530E+01  6.78086E+01  4.29853E+01  3.11453E+01  2.12138E+01  1.32596E+01  7.36063E+00
   6.89808E+00  3.84773E+00 -5.29064E+00 -5.64290E+00 -4.81194E+00 -9.22647E+00 -1.00338E+01 -7.65932E+00 -9.88211E+00 -8.56328E+00
  -1.12146E+01 -1.62131E+01 -1.69681E+01 -1.21803E+01 -6.72414E+00 -1.26955E+01 -1.40619E+01 -1.31082E+01 -1.17916E+01 -1.48184E+01
  -1.31488E+01 -1.16978E+01 -1.51963E+01 -1.17551E+01 -1.69686E+01 -1.31929E+01 -1.20552E+01 -1.63376E+01 -1.72208E+01 -1.97914E+01
  -1.01616E+01 -1.16312E+01 -1.10691E+01 -8.01779E+00 -9.15869E+00 -3.62398E+00 -6.52662E+00 -8.63784E+00 -4.35186E+00 -5.17082E-01
  -6.58683E+00 -2.10948E+00  1.62252E+00 -3.44863E-01 -1.73202E-01  6.11805E-01  2.35638E+00  3.41684E+00  4.13430E+00  1.02577E+01
   8.42086E+00  8.49631E+00  7.11868E+00  8.53879E+00  1.23819E+01  9.49641E+00  1.02209E+01  5.48289E+00  4.40359E+00  4.42841E+00
   2.98305E+00  2.76474E+00  9.12054E+00  3.48318E+00 -3.70450E-01  2.86019E+00  3.86587E+00  8.94720E+00  1.36903E+01  1.09527E+01
   6.40869E+00  5.57397E+00  4.68866E+00  7.52597E+00  3.83242E+00  6.44427E+00  7.41461E+00  8.13467E+00  4.75234E+00  7.84169E+00
   1.20905E+01  1.05601E+01  9.76306E+00  1.56120E+01  1.52931E+01  6.43630E+00  1.73665E+01  1.26390E+01  1.56625E+01  1.47662E+01
   1.08128E+01  1.82683E+01  1.28236E+01  1.71125E+01  1.92901E+01  1.09833E+01  1.23705E+01  1.41483E+01  1.37434E+01  7.91436E+00
   1.40467E+01  1.62044E+01  9.19139E+00  1.35441E+01  1.28133E+01  1.24378E+01  9.46530E+00  1.38850E+01  1.17504E+01  1.25720E+01
   1.26748E+01  7.73605E+00  8.32519E+00  6.67732E+00  1.03659E+01  1.03067E+01  1.17113E+01  1.07967E+01  1.32842E+01  1.34143E+01
   1.29687E+01  1.37953E+01  1.40256E+01  1.05657E+01  1.88807E+01  1.66368E+01  1.33848E+01  1.50160E+01  1.85368E+01  2.27155E+01
   2.53515E+01  2.29846E+01  2.55458E+01  2.04375E+01  2.26801E+01  2.60427E+01  2.58824E+01  2.49085E+01  2.71314E+01  2.91902E+01
   2.76724E+01  2.24999E+01  2.64948E+01  2.24239E+01  2.69945E+01  2.06336E+01  2.24532E+01  1.81884E+01  2.10745E+01  1.51785E+01
   1.92661E+01  1.63763E+01  1.75161E+01  1.79324E+01  1.69623E+01  1.70007E+01  1.29244E+01  1.38700E+01  1.84502E+01  1.61069E+01
   1.09910E+01  1.49425E+01  1.29791E+01  1.06771E+01  1.03540E+01  1.21552E+01  1.33343E+01  1.54645E+01  1.36193E+01  1.35061E+01
   1.58063E+01  9.01052E+00  1.47758E+01  1.21173E+01  8.87063E+00  1.35027E+01  1.28516E+01  1.33006E+01  1.44428E+01  1.25544E+01
   1.31260E+01  1.40530E+01  1.28885E+01  1.16172E+01  1.15961E+01  1.30226E+01  1.38812E+01  1.23344E+01  1.81485E+01  1.37922E+01
   1.20292E+01  1.49922E+01  1.02878E+01  1.62893E+01  1.55417E+01  9.57581E+00  2.01327E+01  1.40017E+01  1.31879E+01  1.63733E+01
   1.53022E+01  9.83578E+00  7.65917E+00  1.13825E+01  1.29673E+01  1.18602E+01  1.76523E+01  1.16632E+01  1.40509E+01  1.20411E+01
   1.30225E+01  1.07736E+01  1.11809E+01  1.27439E+01  1.21107E+01  1.07913E+01  1.03925E+01  1.16048E+01  1.52163E+01  1.50417E+01
   1.18412E+01  1.66245E+01  1.52074E+01  1.09244E+01  1.24728E+01  1.42940E+01  1.34168E+01  1.46601E+01
 NY points of the fit to the data follow
  -2.36826E+02 -2.32199E+02 -2.27217E+02 -2.22210E+02 -2.17055E+02 -2.11642E+02 -2.06121E+02 -2.00521E+02 -1.95045E+02 -1.90314E+02
  -1.87205E+02 -1.86389E+02 -1.87940E+02 -1.91156E+02 -1.94742E+02 -1.97780E+02 -1.99804E+02 -2.00814E+02 -2.00918E+02 -2.00013E+02
  -1.98885E+02 -1.97388E+02 -1.94870E+02 -1.91799E+02 -1.88444E+02 -1.85107E+02 -1.81784E+02 -1.78376E+02 -1.74719E+02 -1.70808E+02
  -1.66957E+02 -1.63706E+02 -1.61730E+02 -1.61495E+02 -1.62472E+02 -1.63326E+02 -1.63482E+02 -1.63014E+02 -1.61745E+02 -1.59655E+02
  -1.57191E+02 -1.54861E+02 -1.52499E+02 -1.49556E+02 -1.46330E+02 -1.43343E+02 -1.40920E+02 -1.39288E+02 -1.38881E+02 -1.39820E+02
  -1.41537E+02 -1.43098E+02 -1.43659E+02 -1.43110E+02 -1.41835E+02 -1.40168E+02 -1.38441E+02 -1.36956E+02 -1.35669E+02 -1.34185E+02
  -1.32596E+02 -1.31423E+02 -1.30786E+02 -1.30356E+02 -1.29737E+02 -1.28669E+02 -1.27126E+02 -1.25220E+02 -1.23181E+02 -1.21343E+02
  -1.19871E+02 -1.18674E+02 -1.17675E+02 -1.16816E+02 -1.16126E+02 -1.15461E+02 -1.14257E+02 -1.12793E+02 -1.11426E+02 -1.09934E+02
  -1.08289E+02 -1.06654E+02 -1.05144E+02 -1.03607E+02 -1.01814E+02 -9.98914E+01 -9.80354E+01 -9.63741E+01 -9.50953E+01 -9.44728E+01
  -9.44046E+01 -9.34004E+01 -9.03405E+01 -8.64944E+01 -8.18664E+01 -7.63119E+01 -7.07182E+01 -6.58083E+01 -6.14801E+01 -5.68324E+01
  -5.10584E+01 -4.46708E+01 -3.89412E+01 -3.53289E+01 -3.54427E+01 -4.01684E+01 -4.87346E+01 -5.85482E+01 -6.66812E+01 -7.19859E+01
  -7.49470E+01 -7.65881E+01 -7.78641E+01 -7.94487E+01 -8.12955E+01 -8.11682E+01 -7.72974E+01 -7.23662E+01 -6.70294E+01 -6.08583E+01
  -5.44696E+01 -4.85606E+01 -4.30034E+01 -3.71035E+01 -3.06947E+01 -2.41853E+01 -1.84395E+01 -1.47897E+01 -1.47624E+01 -1.92852E+01
  -2.77349E+01 -3.76377E+01 -4.61341E+01 -5.19253E+01 -5.54780E+01 -5.79247E+01 -6.02394E+01 -6.28890E+01 -6.57685E+01 -6.76064E+01
  -6.73237E+01 -6.61299E+01 -6.49617E+01 -6.42372E+01 -6.40831E+01 -6.43284E+01 -6.46241E+01 -6.47100E+01 -6.45967E+01 -6.43819E+01
  -6.42392E+01 -6.42614E+01 -6.43551E+01 -6.44565E+01 -6.44404E+01 -6.42551E+01 -6.39909E+01 -6.36576E+01 -6.33448E+01 -6.31726E+01
  -6.31623E+01 -6.32242E+01 -6.32238E+01 -6.30707E+01 -6.27621E+01 -6.24217E+01 -6.22430E+01 -6.22817E+01 -6.25841E+01 -6.30349E+01
  -6.34222E+01 -6.35869E+01 -6.34804E+01 -6.32646E+01 -6.31712E+01 -6.32016E+01 -6.32487E+01 -6.31453E+01 -6.26254E+01 -6.17120E+01
  -6.05558E+01 -5.92747E+01 -5.80037E+01 -5.67595E+01 -5.54239E+01 -5.39918E+01 -5.25026E+01 -5.10220E+01 -4.94015E+01 -4.75948E+01
  -4.57282E+01 -4.39360E+01 -4.24667E+01 -4.14349E+01 -4.08787E+01 -4.06491E+01 -4.03722E+01 -3.97503E+01 -3.87769E+01 -3.77068E+01
  -3.65050E+01 -3.52838E+01 -3.43523E+01 -3.37894E+01 -3.34691E+01 -3.32453E+01 -3.33228E+01 -3.38088E+01 -3.43750E+01 -3.47395E+01
  -3.47708E+01 -3.44566E+01 -3.36153E+01 -3.21049E+01 -3.01961E+01 -2.84825E+01 -2.72276E+01 -2.64572E+01 -2.63370E+01 -2.69522E+01
  -2.80892E+01 -2.91424E+01 -2.95312E+01 -2.91633E+01 -2.79491E+01 -2.59626E+01 -2.34759E+01 -2.10893E+01 -1.93892E+01 -1.83145E+01
  -1.76378E+01 -1.73161E+01 -1.72429E+01 -1.70279E+01 -1.64111E+01 -1.55482E+01 -1.47682E+01 -1.41236E+01 -1.36332E+01 -1.34784E+01
  -1.37455E+01 -1.43261E+01 -1.48235E+01 -1.48384E+01 -1.41692E+01 -1.26781E+01 -1.05535E+01 -8.14035E+00 -5.49945E+00 -1.09009E+00
   6.54819E+00  1.46063E+01  2.30642E+01  3.29271E+01  4.31348E+01  5.22373E+01  6.00656E+01  6.76102E+01  7.53937E+01  8.29615E+01
   8.91996E+01  9.24771E+01  9.04385E+01  8.13338E+01  6.58756E+01  4.78918E+01  3.22068E+01  2.10615E+01  1.39376E+01  9.35253E+00
   5.61755E+00  1.41020E+00 -3.76092E+00 -8.10016E+00 -9.79210E+00 -1.04197E+01 -1.08208E+01 -1.11524E+01 -1.14757E+01 -1.18098E+01
  -1.21070E+01 -1.23460E+01 -1.25262E+01 -1.26539E+01 -1.27412E+01 -1.28125E+01 -1.28777E+01 -1.29290E+01 -1.29595E+01 -1.29660E+01
  -1.29461E+01 -1.28955E+01 -1.28090E+01 -1.26897E+01 -1.25462E+01 -1.23793E+01 -1.21857E+01 -1.19595E+01 -1.16937E+01 -1.13787E+01
  -1.10050E+01 -1.05650E+01 -1.00530E+01 -9.46566E+00 -8.80128E+00 -8.05716E+00 -7.23228E+00 -6.32772E+00 -5.34667E+00 -4.29500E+00
  -3.18175E+00 -2.01989E+00 -8.25291E-01  3.87835E-01  1.60998E+00  2.84867E+00  4.13824E+00  5.34827E+00  6.33254E+00  7.14548E+00
   7.76581E+00  8.11567E+00  8.18563E+00  8.02389E+00  7.77936E+00  7.55637E+00  7.19830E+00  6.64925E+00  5.93962E+00  5.07185E+00
   4.11648E+00  3.28699E+00  2.86852E+00  2.99769E+00  3.59048E+00  4.48222E+00  5.50869E+00  6.45811E+00  7.11743E+00  7.42039E+00
   7.51105E+00  7.53602E+00  7.57166E+00  7.71061E+00  7.98955E+00  8.36838E+00  8.75768E+00  9.07638E+00  9.37917E+00  9.77416E+00
   1.02325E+01  1.07433E+01  1.13151E+01  1.19372E+01  1.25722E+01  1.31749E+01  1.37021E+01  1.41150E+01  1.43863E+01  1.45170E+01
   1.45414E+01  1.44886E+01  1.43732E+01  1.42114E+01  1.40113E+01  1.37753E+01  1.35006E+01  1.31884E+01  1.28590E+01  1.25247E+01
   1.21868E+01  1.18496E+01  1.15189E+01  1.12013E+01  1.09034E+01  1.06319E+01  1.03928E+01  1.01921E+01  1.00347E+01  9.92542E+00
   9.86839E+00  9.86744E+00  9.92608E+00  1.00475E+01  1.02348E+01  1.04905E+01  1.08173E+01  1.12173E+01  1.16920E+01  1.22423E+01
   1.28680E+01  1.35675E+01  1.43376E+01  1.51732E+01  1.60667E+01  1.70083E+01  1.79853E+01  1.89830E+01  1.99839E+01  2.09689E+01
   2.19174E+01  2.28084E+01  2.36208E+01  2.43348E+01  2.49328E+01  2.53998E+01  2.57248E+01  2.59009E+01  2.59259E+01  2.58022E+01
   2.55371E+01  2.51417E+01  2.46308E+01  2.40218E+01  2.33343E+01  2.25885E+01  2.18046E+01  2.10020E+01  2.01987E+01  1.94103E+01
   1.86501E+01  1.79290E+01  1.72549E+01  1.66332E+01  1.60671E+01  1.55576E+01  1.51041E+01  1.47046E+01  1.43564E+01  1.40555E+01
   1.37980E+01  1.35798E+01  1.33965E+01  1.32441E+01  1.31189E+01  1.30172E+01  1.29359E+01  1.28720E+01  1.28232E+01  1.27871E+01
   1.27618E+01  1.27456E+01  1.27370E+01  1.27349E+01  1.27381E+01  1.27457E+01  1.27568E+01  1.27708E+01  1.27870E+01  1.28049E+01
   1.28241E+01  1.28440E+01  1.28644E+01  1.28849E+01  1.29054E+01  1.29257E+01  1.29457E+01  1.29653E+01  1.29843E+01  1.30028E+01
   1.30206E+01  1.30378E+01  1.30543E+01  1.30701E+01  1.30852E+01  1.30996E+01  1.31133E+01  1.31263E+01  1.31386E+01  1.31503E+01
   1.31613E+01  1.31718E+01  1.31818E+01  1.31913E+01  1.32003E+01  1.32089E+01  1.32172E+01  1.32251E+01  1.32329E+01  1.32404E+01
   1.32478E+01  1.32551E+01  1.32624E+01  1.32698E+01  1.32773E+01  1.32850E+01  1.32929E+01  1.33012E+01  1.33099E+01  1.33191E+01
   1.33288E+01  1.33392E+01  1.33502E+01  1.33621E+01  1.33749E+01  1.33887E+01  1.34035E+01  1.34196E+01
 NY background values follow
    -2.552E+02   -2.532E+02   -2.512E+02   -2.492E+02   -2.471E+02   -2.451E+02   -2.431E+02   -2.411E+02   -2.391E+02   -2.370E+02
    -2.350E+02   -2.330E+02   -2.310E+02   -2.290E+02   -2.270E+02   -2.250E+02   -2.231E+02   -2.211E+02   -2.191E+02   -2.171E+02
    -2.152E+02   -2.132E+02   -2.113E+02   -2.093E+02   -2.074E+02   -2.055E+02   -2.036E+02   -2.017E+02   -1.998E+02   -1.979E+02
    -1.960E+02   -1.941E+02   -1.923E+02   -1.904E+02   -1.886E+02   -1.868E+02   -1.850E+02   -1.832E+02   -1.814E+02   -1.796E+02
    -1.779E+02   -1.761E+02   -1.744E+02   -1.727E+02   -1.710E+02   -1.693E+02   -1.676E+02   -1.660E+02   -1.643E+02   -1.627E+02
    -1.611E+02   -1.595E+02   -1.579E+02   -1.563E+02   -1.548E+02   -1.533E+02   -1.517E+02   -1.502E+02   -1.488E+02   -1.473E+02
    -1.458E+02   -1.444E+02   -1.430E+02   -1.415E+02   -1.401E+02   -1.388E+02   -1.374E+02   -1.360E+02   -1.347E+02   -1.334E+02
    -1.321E+02   -1.308E+02   -1.295E+02   -1.283E+02   -1.270E+02   -1.258E+02   -1.246E+02   -1.234E+02   -1.222E+02   -1.210E+02
    -1.198E+02   -1.187E+02   -1.176E+02   -1.165E+02   -1.154E+02   -1.143E+02   -1.132E+02   -1.122E+02   -1.111E+02   -1.101E+02
    -1.091E+02   -1.081E+02   -1.071E+02   -1.061E+02   -1.052E+02   -1.042E+02   -1.033E+02   -1.024E+02   -1.015E+02   -1.006E+02
    -9.976E+01   -9.890E+01   -9.805E+01   -9.722E+01   -9.640E+01   -9.559E+01   -9.479E+01   -9.400E+01   -9.323E+01   -9.246E+01
    -9.171E+01   -9.096E+01   -9.023E+01   -8.951E+01   -8.879E+01   -8.809E+01   -8.740E+01   -8.671E+01   -8.604E+01   -8.537E+01
    -8.471E+01   -8.406E+01   -8.342E+01   -8.279E+01   -8.216E+01   -8.155E+01   -8.094E+01   -8.033E+01   -7.974E+01   -7.915E+01
    -7.857E+01   -7.799E+01   -7.742E+01   -7.686E+01   -7.630E+01   -7.575E+01   -7.520E+01   -7.466E+01   -7.412E+01   -7.359E+01
    -7.306E+01   -7.254E+01   -7.202E+01   -7.150E+01   -7.099E+01   -7.048E+01   -6.998E+01   -6.948E+01   -6.898E+01   -6.848E+01
    -6.798E+01   -6.749E+01   -6.700E+01   -6.651E+01   -6.602E+01   -6.553E+01   -6.505E+01   -6.456E+01   -6.408E+01   -6.359E+01
    -6.311E+01   -6.262E+01   -6.214E+01   -6.165E+01   -6.116E+01   -6.067E+01   -6.019E+01   -5.969E+01   -5.920E+01   -5.871E+01
    -5.821E+01   -5.771E+01   -5.721E+01   -5.670E+01   -5.620E+01   -5.568E+01   -5.517E+01   -5.465E+01   -5.413E+01   -5.360E+01
    -5.307E+01   -5.253E+01   -5.199E+01   -5.145E+01   -5.090E+01   -5.035E+01   -4.979E+01   -4.923E+01   -4.867E+01   -4.811E+01
    -4.754E+01   -4.697E+01   -4.641E+01   -4.584E+01   -4.527E+01   -4.470E+01   -4.413E+01   -4.356E+01   -4.299E+01   -4.243E+01
    -4.186E+01   -4.130E+01   -4.074E+01   -4.018E+01   -3.963E+01   -3.908E+01   -3.853E+01   -3.799E+01   -3.745E+01   -3.692E+01
    -3.639E+01   -3.587E+01   -3.535E+01   -3.485E+01   -3.434E+01   -3.385E+01   -3.336E+01   -3.288E+01   -3.241E+01   -3.194E+01
    -3.149E+01   -3.104E+01   -3.061E+01   -3.018E+01   -2.976E+01   -2.936E+01   -2.896E+01   -2.858E+01   -2.821E+01   -2.785E+01
    -2.750E+01   -2.716E+01   -2.683E+01   -2.651E+01   -2.620E+01   -2.590E+01   -2.560E+01   -2.532E+01   -2.505E+01   -2.478E+01
    -2.452E+01   -2.427E+01   -2.403E+01   -2.380E+01   -2.357E+01   -2.335E+01   -2.313E+01   -2.292E+01   -2.272E+01   -2.253E+01
    -2.234E+01   -2.215E+01   -2.197E+01   -2.180E+01   -2.163E+01   -2.146E+01   -2.130E+01   -2.115E+01   -2.099E+01   -2.084E+01
    -2.070E+01   -2.055E+01   -2.041E+01   -2.027E+01   -2.014E+01   -2.000E+01   -1.987E+01   -1.974E+01   -1.961E+01   -1.948E+01
    -1.935E+01   -1.923E+01   -1.910E+01   -1.897E+01   -1.885E+01   -1.872E+01   -1.859E+01   -1.847E+01   -1.834E+01   -1.821E+01
    -1.808E+01   -1.796E+01   -1.783E+01   -1.770E+01   -1.757E+01   -1.744E+01   -1.731E+01   -1.718E+01   -1.704E+01   -1.691E+01
    -1.677E+01   -1.664E+01   -1.650E+01   -1.636E+01   -1.622E+01   -1.608E+01   -1.594E+01   -1.579E+01   -1.564E+01   -1.549E+01
    -1.534E+01   -1.519E+01   -1.504E+01   -1.488E+01   -1.472E+01   -1.456E+01   -1.440E+01   -1.423E+01   -1.406E+01   -1.389E+01
    -1.372E+01   -1.354E+01   -1.336E+01   -1.318E+01   -1.299E+01   -1.280E+01   -1.261E+01   -1.242E+01   -1.222E+01   -1.202E+01
    -1.182E+01   -1.161E+01   -1.140E+01   -1.119E+01   -1.097E+01   -1.076E+01   -1.054E+01   -1.032E+01   -1.009E+01   -9.868E+00
    -9.641E+00   -9.412E+00   -9.182E+00   -8.950E+00   -8.717E+00   -8.482E+00   -8.247E+00   -8.010E+00   -7.772E+00   -7.534E+00
    -7.295E+00   -7.055E+00   -6.815E+00   -6.575E+00   -6.334E+00   -6.093E+00   -5.852E+00   -5.611E+00   -5.370E+00   -5.130E+00
    -4.890E+00   -4.650E+00   -4.411E+00   -4.173E+00   -3.936E+00   -3.700E+00   -3.465E+00   -3.231E+00   -2.998E+00   -2.767E+00
    -2.537E+00   -2.309E+00   -2.082E+00   -1.858E+00   -1.635E+00   -1.414E+00   -1.194E+00   -9.767E-01   -7.608E-01   -5.467E-01
    -3.343E-01   -1.236E-01    8.543E-02    2.928E-01    4.984E-01    7.024E-01    9.048E-01    1.106E+00    1.305E+00    1.502E+00
     1.698E+00    1.892E+00    2.085E+00    2.276E+00    2.466E+00    2.654E+00    2.840E+00    3.025E+00    3.209E+00    3.391E+00
     3.571E+00    3.750E+00    3.928E+00    4.104E+00    4.278E+00    4.451E+00    4.623E+00    4.794E+00    4.962E+00    5.130E+00
     5.296E+00    5.461E+00    5.624E+00    5.786E+00    5.947E+00    6.107E+00    6.265E+00    6.421E+00    6.577E+00    6.731E+00
     6.884E+00    7.035E+00    7.185E+00    7.333E+00    7.480E+00    7.626E+00    7.770E+00    7.912E+00    8.052E+00    8.191E+00
     8.329E+00    8.464E+00    8.598E+00    8.730E+00    8.860E+00    8.988E+00    9.115E+00    9.239E+00    9.362E+00    9.482E+00
     9.601E+00    9.717E+00    9.831E+00    9.944E+00    1.005E+01    1.016E+01    1.027E+01    1.037E+01    1.047E+01    1.057E+01
     1.067E+01    1.076E+01    1.085E+01    1.094E+01    1.103E+01    1.111E+01    1.120E+01    1.127E+01    1.135E+01    1.142E+01
     1.150E+01    1.156E+01    1.163E+01    1.169E+01    1.175E+01    1.181E+01    1.187E+01    1.192E+01    1.197E+01    1.202E+01
     1.207E+01    1.211E+01    1.215E+01    1.219E+01    1.223E+01    1.227E+01    1.230E+01    1.233E+01    1.237E+01    1.240E+01
     1.242E+01    1.245E+01    1.248E+01    1.250E+01    1.253E+01    1.255E+01    1.257E+01    1.259E+01    1.261E+01    1.263E+01
     1.265E+01    1.267E+01    1.269E+01    1.271E+01    1.273E+01    1.274E+01    1.276E+01    1.278E+01    1.280E+01    1.281E+01
     1.283E+01    1.285E+01    1.287E+01    1.289E+01    1.291E+01    1.293E+01    1.295E+01    1.297E+01
 Ala      Conc. = 4.59E+02
