 LCModel (Version 6.3-1L) Copyright: S.W. Provencher.          Ref.: Magn. Reson. Med. 30:672-679 (1993).                
 Slice#1 Row#10 Col#9  PD_24_press_2_raw_act
 36 lines in following concentration table = NCONC+1
    Conc.  %SD /Cr+PCr  Metabolite                                         
  159.056 124%   0.162 Ala                                                 
    0.000 999%   0.000 Asp                                                 
  983.461   8%   1.000 Cr                                                  
    0.000 999%   0.000 PCr                                                 
   34.447 413% 3.5E-02 GABA                                                
    0.000 999%   0.000 Glc                                                 
    0.000 999%   0.000 Gln                                                 
  150.192 273%   0.153 Glu                                                 
  260.417  10%   0.265 GPC                                                 
    0.000 999%   0.000 PCh                                                 
  414.687  22%   0.422 GSH                                                 
 1.77E+03  19%   1.804 Ins                                                 
  362.697  82%   0.369 Lac                                                 
 1.42E+03  12%   1.442 NAA                                                 
  253.711  63%   0.258 NAAG                                                
   79.830  34% 8.1E-02 Scyllo                                              
    0.000 999%   0.000 Tau                                                 
  382.208  31%   0.389 -CrCH2                                              
  260.417  10%   0.265 GPC+PCh                                             
 1.67E+03   7%   1.700 NAA+NAAG                                            
  983.461   8%   1.000 Cr+PCr                                              
  150.192 273%   0.153 Glu+Gln                                             
 3.18E+03  21%   3.237 Lip13a                                              
    9.402 999% 9.6E-03 Lip13b                                              
    0.000 999%   0.000 Lip09                                               
 2.20E+03  10%   2.240 MM09                                                
 1.46E+03  14%   1.481+Lip20                                               
 4.38E+03  10%   4.450 MM20                                                
  686.025  26%   0.698 MM12                                                
 3.23E+03   7%   3.284 MM14                                                
    0.000 999%   0.000 MM17                                                
 3.19E+03  18%   3.247 Lip13a+Lip13b                                       
 7.11E+03   6%   7.228 MM14+Lip13a+Lip13b+MM12                             
 2.20E+03  10%   2.240 MM09+Lip09                                          
 5.83E+03   6%   5.931 MM20+Lip20                                          
   6 lines in following misc. output table
  FWHM = 0.092 ppm    S/N =  10                                            
  Data shift =-0.023 ppm                                                   
  Ph:  32 deg      21.0 deg/ppm                                            
  alphaB,S = 7.0E-01,   5.5E+01                                            
   14 spline knots.   Ns = 8(2)                                            
  ( 7) 6 infls.   ( 8) 3 extrs.                                            
  498 points on ppm-axis = NY
      4.000000     3.992357     3.984714     3.977070     3.969427     3.961784     3.954141     3.946497     3.938854     3.931211
      3.923568     3.915925     3.908281     3.900638     3.892995     3.885352     3.877708     3.870065     3.862422     3.854779
      3.847136     3.839492     3.831849     3.824206     3.816563     3.808919     3.801276     3.793633     3.785990     3.778347
      3.770703     3.763060     3.755417     3.747774     3.740130     3.732487     3.724844     3.717201     3.709558     3.701914
      3.694271     3.686628     3.678985     3.671341     3.663698     3.656055     3.648412     3.640769     3.633125     3.625482
      3.617839     3.610196     3.602552     3.594909     3.587266     3.579623     3.571980     3.564336     3.556693     3.549050
      3.541407     3.533763     3.526120     3.518477     3.510834     3.503191     3.495547     3.487904     3.480261     3.472618
      3.464974     3.457331     3.449688     3.442045     3.434402     3.426758     3.419115     3.411472     3.403829     3.396185
      3.388542     3.380899     3.373256     3.365613     3.357969     3.350326     3.342683     3.335040     3.327396     3.319753
      3.312110     3.304467     3.296824     3.289180     3.281537     3.273894     3.266251     3.258607     3.250964     3.243321
      3.235678     3.228034     3.220391     3.212748     3.205105     3.197462     3.189818     3.182175     3.174532     3.166889
      3.159245     3.151602     3.143959     3.136316     3.128673     3.121029     3.113386     3.105743     3.098100     3.090456
      3.082813     3.075170     3.067527     3.059884     3.052240     3.044597     3.036954     3.029311     3.021667     3.014024
      3.006381     2.998738     2.991095     2.983451     2.975808     2.968165     2.960522     2.952878     2.945235     2.937592
      2.929949     2.922306     2.914662     2.907019     2.899376     2.891733     2.884089     2.876446     2.868803     2.861160
      2.853517     2.845873     2.838230     2.830587     2.822944     2.815300     2.807657     2.800014     2.792371     2.784728
      2.777084     2.769441     2.761798     2.754155     2.746511     2.738868     2.731225     2.723582     2.715939     2.708295
      2.700652     2.693009     2.685366     2.677722     2.670079     2.662436     2.654793     2.647150     2.639506     2.631863
      2.624220     2.616577     2.608933     2.601290     2.593647     2.586004     2.578361     2.570717     2.563074     2.555431
      2.547788     2.540144     2.532501     2.524858     2.517215     2.509572     2.501928     2.494285     2.486642     2.478999
      2.471355     2.463712     2.456069     2.448426     2.440783     2.433139     2.425496     2.417853     2.410210     2.402566
      2.394923     2.387280     2.379637     2.371994     2.364350     2.356707     2.349064     2.341421     2.333777     2.326134
      2.318491     2.310848     2.303205     2.295561     2.287918     2.280275     2.272632     2.264988     2.257345     2.249702
      2.242059     2.234416     2.226772     2.219129     2.211486     2.203843     2.196199     2.188556     2.180913     2.173270
      2.165627     2.157983     2.150340     2.142697     2.135054     2.127410     2.119767     2.112124     2.104481     2.096838
      2.089194     2.081551     2.073908     2.066265     2.058621     2.050978     2.043335     2.035692     2.028049     2.020405
      2.012762     2.005119     1.997476     1.989833     1.982190     1.974546     1.966903     1.959260     1.951617     1.943974
      1.936331     1.928688     1.921045     1.913402     1.905759     1.898115     1.890472     1.882829     1.875186     1.867543
      1.859900     1.852257     1.844614     1.836971     1.829327     1.821684     1.814041     1.806398     1.798755     1.791112
      1.783469     1.775826     1.768183     1.760540     1.752896     1.745253     1.737610     1.729967     1.722324     1.714681
      1.707038     1.699395     1.691752     1.684108     1.676465     1.668822     1.661179     1.653536     1.645893     1.638250
      1.630607     1.622964     1.615321     1.607677     1.600034     1.592391     1.584748     1.577105     1.569462     1.561819
      1.554176     1.546533     1.538890     1.531246     1.523603     1.515960     1.508317     1.500674     1.493031     1.485388
      1.477745     1.470102     1.462458     1.454815     1.447172     1.439529     1.431886     1.424243     1.416600     1.408957
      1.401314     1.393671     1.386027     1.378384     1.370741     1.363098     1.355455     1.347812     1.340169     1.332526
      1.324883     1.317240     1.309596     1.301953     1.294310     1.286667     1.279024     1.271381     1.263738     1.256095
      1.248452     1.240808     1.233165     1.225522     1.217879     1.210236     1.202593     1.194950     1.187307     1.179664
      1.172021     1.164377     1.156734     1.149091     1.141448     1.133805     1.126162     1.118519     1.110876     1.103233
      1.095590     1.087946     1.080303     1.072660     1.065017     1.057374     1.049731     1.042088     1.034445     1.026802
      1.019158     1.011515     1.003872     0.996229     0.988586     0.980943     0.973300     0.965657     0.958014     0.950371
      0.942727     0.935084     0.927441     0.919798     0.912155     0.904512     0.896869     0.889226     0.881583     0.873940
      0.866296     0.858653     0.851010     0.843367     0.835724     0.828081     0.820438     0.812795     0.805152     0.797508
      0.789865     0.782222     0.774579     0.766936     0.759293     0.751650     0.744007     0.736364     0.728721     0.721077
      0.713434     0.705791     0.698148     0.690505     0.682862     0.675219     0.667576     0.659933     0.652290     0.644646
      0.637003     0.629360     0.621717     0.614074     0.606431     0.598788     0.591145     0.583502     0.575858     0.568215
      0.560572     0.552929     0.545286     0.537643     0.530000     0.522357     0.514714     0.507071     0.499427     0.491784
      0.484141     0.476498     0.468855     0.461212     0.453569     0.445925     0.438282     0.430639     0.422996     0.415353
      0.407710     0.400067     0.392424     0.384780     0.377137     0.369494     0.361851     0.354208     0.346565     0.338922
      0.331278     0.323635     0.315992     0.308349     0.300706     0.293063     0.285420     0.277777     0.270133     0.262490
      0.254847     0.247204     0.239561     0.231918     0.224275     0.216631     0.208988     0.201345
 NY phased data points follow
   3.65624E+00 -2.06948E+00  1.51260E+00  3.38494E+00  1.02271E+00 -7.50744E-01  1.38835E-01  5.49354E-01  2.22260E+00  3.71480E+00
   7.43003E+00  5.96069E+00  8.69005E+00  9.51245E+00  7.76787E+00  8.12071E+00  1.42871E+01  1.35335E+01  1.11768E+01  1.32845E+01
   1.17162E+01  8.59817E+00  8.08762E+00  8.10074E+00  4.87347E+00  5.65085E+00  6.47134E+00  6.41429E+00  6.29538E+00  5.16808E+00
   8.13153E+00  3.15980E+00  6.95689E+00  6.44504E+00  7.37470E+00  6.78702E+00  4.80597E+00  5.53503E+00  7.25326E+00  4.49403E+00
   5.68969E+00  5.99512E+00  7.16769E+00  9.58469E+00  8.66442E+00  7.89000E+00  8.44178E+00  5.93258E+00  6.97694E+00  4.33233E+00
   4.67772E+00  9.03755E+00  8.69757E+00  5.78745E+00  7.76544E+00  7.41026E+00  7.10443E+00  7.98974E+00  7.23346E+00  7.66061E+00
   7.31691E+00  5.79678E+00  6.69175E+00  1.81716E+00  7.30854E+00  4.70853E+00  4.61262E+00  2.45623E+00  8.83175E-01  3.28108E+00
   2.30319E+00  2.76334E+00  5.43264E-01  1.67827E+00  2.35609E+00  1.55313E+00  3.47494E+00  7.31775E-01  2.32575E-01 -2.78306E+00
  -4.49559E-02 -1.26803E-01 -1.50569E+00  2.91885E+00  1.04234E+00 -1.36120E+00 -5.53926E-01  9.61405E-01 -2.43937E+00  8.01174E-01
   4.79378E-01  1.49060E-02 -1.10158E+00 -8.35982E-01 -9.21424E-01  3.34287E-01 -4.47012E+00 -1.55998E+00  1.42577E+00  9.37446E-01
   4.89528E+00  5.67134E+00  8.98985E+00  7.11803E+00  7.91660E+00  8.97570E+00  7.71504E+00  1.00131E+01  1.13440E+01  1.33479E+01
   1.31018E+01  7.76911E+00  4.29992E+00  4.34826E+00  1.02898E-01  9.20156E-01  5.62375E+00  1.60648E-01  6.59981E-01 -1.14651E+00
   4.73901E-01  2.33532E+00 -4.34887E-01  2.09088E+00  7.26763E+00  1.10508E+01  1.33146E+01  1.65641E+01  1.61164E+01  1.60424E+01
   1.60106E+01  1.83195E+01  2.04777E+01  2.12659E+01  2.09476E+01  1.56191E+01  6.71968E+00  6.41004E+00  6.05837E+00  7.58309E+00
   8.68967E+00  6.79850E+00  4.92977E+00  3.53823E+00  4.08222E+00  4.40391E+00  6.35254E+00  5.26757E+00  3.61099E+00  4.36157E+00
  -1.31798E-01  6.18253E+00 -6.54793E-01  2.20064E+00  1.27254E+00  1.41074E+00  3.15380E+00  1.58200E+00  6.78384E-01  4.98258E+00
  -7.96528E-01 -3.03253E+00  1.48579E+00 -3.35521E+00 -3.77036E-01  3.71880E-01 -4.14435E+00 -2.26561E+00 -3.27139E+00 -5.18927E+00
  -4.54599E+00 -6.07888E+00 -3.16698E+00 -8.60537E+00 -9.60186E+00 -1.42290E+01 -1.31518E+01 -9.28029E+00 -1.00555E+01 -6.88217E+00
  -6.36180E+00 -8.88097E+00 -7.84489E+00 -1.02396E+01 -1.06486E+01 -3.89021E+00 -8.06505E+00 -8.04053E+00 -6.88383E+00 -9.20642E+00
  -6.23228E+00 -9.16606E+00 -9.60206E+00 -7.75015E+00 -8.81622E+00 -8.29670E+00 -7.30190E+00 -5.37317E+00 -7.23859E+00 -5.81558E+00
  -6.15577E+00 -4.22115E+00 -3.90370E+00 -3.19864E+00 -4.40809E+00 -3.24414E+00 -3.39178E+00 -2.86380E+00 -2.70230E+00 -2.44818E+00
  -1.14740E+00  5.06620E-01  3.29573E-01 -1.66296E+00 -2.89302E+00 -1.22836E+00  5.10351E-01 -2.97254E+00 -3.83403E+00 -4.73579E-01
   6.47422E-01  2.21612E+00  2.72156E+00  1.04305E+00  2.02109E+00  1.67253E+00  1.81661E+00 -4.55015E-01  6.52796E+00  3.73667E+00
   5.06220E+00  2.00028E+00  4.64802E+00  6.08040E+00  3.41586E+00  7.39350E+00  8.12722E+00  4.75537E+00  6.34814E+00  4.53048E+00
   4.17121E+00  5.35293E+00  7.06297E+00  2.18695E+00  8.12333E+00  9.07708E+00  8.34933E+00  9.22254E+00  1.31843E+01  1.42549E+01
   1.52786E+01  1.48459E+01  1.88197E+01  2.08810E+01  2.63217E+01  2.90817E+01  2.97894E+01  3.80560E+01  3.84595E+01  4.46740E+01
   4.73776E+01  4.17639E+01  4.14941E+01  3.70203E+01  3.22477E+01  3.40829E+01  3.11228E+01  2.66827E+01  1.97857E+01  1.23864E+01
   7.44763E+00  6.27488E+00  8.09661E+00  3.16754E+00  3.36306E+00  5.26830E+00  4.06995E+00  2.25701E+00  6.72635E-01  8.39285E-01
  -2.06919E+00 -3.47210E+00  1.68104E+00 -2.85452E+00 -5.34117E+00 -3.74584E+00 -6.57542E+00 -1.24269E+01 -1.04299E+01 -8.04160E+00
  -7.32461E+00 -1.36303E+01 -1.31427E+01 -1.47864E+01 -1.03209E+01 -9.27742E+00 -1.10889E+01 -1.34077E+01 -1.07190E+01 -1.31694E+01
  -1.32370E+01 -1.11318E+01 -1.37554E+01 -9.11739E+00 -1.30787E+01 -1.27853E+01 -1.11306E+01 -9.47036E+00 -8.89977E+00 -1.07358E+01
  -1.18451E+01 -1.25394E+01 -7.89628E+00 -8.78868E+00 -9.54127E+00 -1.91526E+00 -6.14767E+00 -4.04114E+00 -3.50032E+00 -3.26642E-01
  -1.91133E-01  1.67225E+00  1.47482E+00  2.51186E+00  4.42045E+00  9.20295E+00  1.11871E+01  9.78275E+00  1.05670E+01  1.45889E+01
   1.25260E+01  1.61448E+01  1.81883E+01  1.87975E+01  1.84225E+01  1.98889E+01  2.17147E+01  1.85659E+01  1.97484E+01  2.40505E+01
   1.80361E+01  2.24984E+01  2.13676E+01  2.05245E+01  2.09314E+01  1.98117E+01  1.56217E+01  1.61294E+01  1.95810E+01  1.16379E+01
   1.30876E+01  1.20923E+01  1.12787E+01  1.08048E+01  1.19126E+01  1.41009E+01  1.15321E+01  1.29740E+01  1.20513E+01  8.99512E+00
   1.21486E+01  8.90603E+00  1.19933E+01  6.70925E+00  6.05692E+00  5.96922E+00  7.51259E+00  6.15643E+00  6.39129E+00  4.87871E+00
   7.41157E+00  4.49969E+00  4.17432E+00  4.38678E+00  2.66636E+00 -1.22798E-01  1.62147E+00  2.13935E+00  2.42712E+00  3.03377E+00
   2.37766E+00  4.27434E+00  8.26888E-03  3.42552E+00  3.69981E+00  4.94818E+00  4.75092E+00  4.27388E+00  4.36727E+00  4.55817E+00
   4.47057E+00  4.04966E+00  3.79375E+00  7.83093E+00  7.68875E+00  1.02567E+01  8.37084E+00  6.17191E+00  4.24705E+00  8.95968E+00
   2.29928E+00  5.40595E+00  2.10876E+00  4.59656E+00  5.45159E+00  1.69115E+00  4.10669E+00  3.89297E+00  2.36213E+00  5.81710E-01
  -1.89859E+00 -2.66474E+00 -3.64982E-01 -4.13232E+00 -4.94996E-01 -2.31492E+00 -4.80679E+00 -1.70644E+00 -6.05067E+00 -4.43015E+00
  -4.10083E+00 -5.16486E+00 -6.54954E+00 -4.06566E+00 -5.46482E+00 -4.93167E+00 -9.00356E+00 -6.71882E+00 -6.84355E+00 -6.32092E+00
  -7.15190E+00 -6.79864E+00 -4.57730E+00 -9.07078E+00 -5.53452E+00 -7.50545E+00 -3.82435E+00 -4.33746E+00 -5.54146E+00 -5.19567E+00
  -5.93091E+00 -3.45446E+00 -4.83263E+00 -6.31593E+00 -5.92499E+00 -5.99102E+00 -4.20354E+00 -4.27128E+00 -4.44107E+00 -4.72309E+00
  -2.20763E+00 -2.50004E+00 -7.82630E+00 -4.24722E+00 -4.46866E+00 -7.41698E+00 -1.60812E+00 -4.70174E+00 -4.06814E+00 -4.32545E+00
  -3.20784E+00 -2.23705E+00 -2.49035E+00 -4.83607E+00 -4.74437E+00 -7.90804E+00 -3.66265E+00 -5.44308E+00 -3.27440E+00 -6.94569E-01
  -1.37774E+00 -3.20492E+00 -6.00034E+00 -5.44957E+00 -4.59508E+00 -4.15836E+00 -4.45125E+00 -4.29278E+00 -3.21617E+00 -1.25775E+00
  -1.06083E+00 -2.43790E+00 -6.35522E+00 -7.12922E+00 -1.72338E+00 -4.45379E+00 -4.11099E-01 -3.42210E+00 -2.47961E+00 -2.64515E+00
  -2.66428E+00 -5.85082E+00 -5.26131E+00 -5.36632E+00 -2.98898E+00 -3.09965E+00 -3.31486E+00 -4.65003E-01
 NY points of the fit to the data follow
   5.17614E+00  4.72103E+00  3.12533E+00  2.57513E+00  1.70155E+00  1.29208E+00  1.64726E+00  1.89671E+00  3.67625E+00  4.85363E+00
   6.41498E+00  8.04921E+00  8.45099E+00  9.27040E+00  9.12176E+00  9.99394E+00  1.05816E+01  1.19045E+01  1.07957E+01  1.10701E+01
   8.07525E+00  7.15146E+00  5.56516E+00  5.11656E+00  5.47314E+00  5.73245E+00  7.04342E+00  7.37205E+00  8.35387E+00  7.88648E+00
   7.83077E+00  6.65566E+00  7.41291E+00  6.82226E+00  7.78849E+00  6.95415E+00  7.10464E+00  5.91570E+00  5.27013E+00  4.63387E+00
   4.69444E+00  5.02804E+00  6.00013E+00  6.66952E+00  7.60184E+00  7.93215E+00  8.20212E+00  8.00593E+00  7.41556E+00  7.29735E+00
   7.19473E+00  7.22843E+00  6.80855E+00  6.27161E+00  5.33502E+00  4.41479E+00  3.93500E+00  3.98319E+00  3.96970E+00  4.36687E+00
   4.22010E+00  4.26599E+00  3.86483E+00  3.80662E+00  3.10826E+00  2.97265E+00  2.34253E+00  2.64036E+00  2.16442E+00  2.43939E+00
   2.19817E+00  2.62021E+00  2.56885E+00  2.93401E+00  2.68207E+00  2.88813E+00  2.38420E+00  2.22519E+00  1.81840E+00  1.55010E+00
   1.34899E+00  1.33849E+00  1.08919E+00  1.35176E+00  6.96792E-01  1.09552E+00  7.30057E-02  4.72435E-01 -9.94388E-01 -5.00315E-01
  -1.54750E+00 -8.51970E-01 -1.94250E+00 -1.47631E+00 -2.51062E+00 -2.20623E+00 -2.03781E+00 -1.46455E+00  2.56984E-01  1.15302E+00
   4.34351E+00  4.89787E+00  8.33447E+00  8.04596E+00  1.03428E+01  9.43990E+00  1.10899E+01  1.01649E+01  1.19599E+01  1.04666E+01
   1.05015E+01  8.09502E+00  5.43746E+00  3.36429E+00  2.01000E+00  1.12980E+00  1.28414E+00  7.87192E-01  9.25419E-01  6.64586E-01
   1.34459E+00  1.53759E+00  2.82176E+00  4.28825E+00  8.07924E+00  1.03839E+01  1.39394E+01  1.59266E+01  1.74697E+01  1.85500E+01
   1.86088E+01  1.90679E+01  1.91580E+01  1.89686E+01  1.69723E+01  1.56361E+01  1.15434E+01  9.89692E+00  7.71921E+00  6.70518E+00
   6.46585E+00  5.84588E+00  5.58674E+00  5.12846E+00  4.68207E+00  4.09663E+00  2.81376E+00  2.04255E+00  2.01559E+00  1.51207E+00
   1.37029E+00  1.00370E+00  9.19173E-01  7.94670E-01  8.37108E-01  6.18336E-01  5.82599E-01  1.70004E-01 -7.49632E-03 -4.52590E-01
  -6.45980E-01 -9.55753E-01 -1.22938E+00 -1.52555E+00 -1.98855E+00 -2.40595E+00 -2.94689E+00 -3.36786E+00 -3.86170E+00 -4.11311E+00
  -4.66418E+00 -5.02178E+00 -5.64563E+00 -6.20211E+00 -6.65446E+00 -7.16000E+00 -7.34160E+00 -7.80238E+00 -7.83799E+00 -8.34982E+00
  -8.34989E+00 -8.87880E+00 -8.58422E+00 -9.00413E+00 -8.37161E+00 -8.58129E+00 -7.86300E+00 -7.83180E+00 -7.09287E+00 -6.93386E+00
  -6.37764E+00 -6.29920E+00 -5.98734E+00 -5.78401E+00 -5.65821E+00 -5.29253E+00 -5.48002E+00 -5.15416E+00 -5.44085E+00 -5.16877E+00
  -5.35516E+00 -5.07112E+00 -5.09868E+00 -4.71615E+00 -4.58135E+00 -4.34254E+00 -4.19063E+00 -4.31897E+00 -4.20147E+00 -4.52030E+00
  -4.35501E+00 -4.60852E+00 -4.26187E+00 -4.33476E+00 -3.82404E+00 -3.71755E+00 -3.03966E+00 -2.99340E+00 -2.31746E+00 -2.10082E+00
  -1.33005E+00 -9.63729E-01 -3.30612E-01  1.00808E-01  5.96425E-01  9.60101E-01  1.35091E+00  1.67688E+00  2.06481E+00  2.44294E+00
   2.84732E+00  3.35086E+00  3.67994E+00  4.06664E+00  4.30445E+00  4.49013E+00  4.70480E+00  4.86938E+00  5.21306E+00  5.57848E+00
   6.08744E+00  6.68471E+00  7.41887E+00  7.84302E+00  8.01729E+00  8.36456E+00  9.29261E+00  1.02285E+01  1.17477E+01  1.30558E+01
   1.50305E+01  1.63472E+01  1.95837E+01  2.11145E+01  2.57693E+01  2.77763E+01  3.33501E+01  3.58175E+01  3.99591E+01  4.16702E+01
   4.23572E+01  4.22856E+01  4.01184E+01  3.89783E+01  3.61754E+01  3.48438E+01  2.95061E+01  2.69075E+01  1.92683E+01  1.60075E+01
   1.12428E+01  9.18049E+00  7.28773E+00  6.09063E+00  4.08096E+00  3.11000E+00  1.03871E+00 -2.67881E-01 -3.23858E+00 -4.48298E+00
  -5.06361E+00 -5.54719E+00 -5.92157E+00 -6.28406E+00 -6.55939E+00 -6.84088E+00 -7.03909E+00 -7.25629E+00 -7.39881E+00 -7.58165E+00
  -7.68971E+00 -7.84721E+00 -7.93288E+00 -8.06108E+00 -8.12230E+00 -8.21550E+00 -8.24604E+00 -8.31785E+00 -8.32643E+00 -8.37502E+00
  -8.37568E+00 -8.40742E+00 -8.39261E+00 -8.39637E+00 -8.35041E+00 -8.31468E+00 -8.22646E+00 -8.13786E+00 -7.99878E+00 -7.84769E+00
  -7.64836E+00 -7.42080E+00 -7.06308E+00 -6.66536E+00 -6.14628E+00 -5.56075E+00 -4.83431E+00 -4.00601E+00 -3.00745E+00 -1.91669E+00
  -6.93657E-01  7.18824E-01  2.12342E+00  3.77995E+00  5.20461E+00  6.91587E+00  8.25776E+00  9.93205E+00  1.12407E+01  1.28899E+01
   1.41445E+01  1.57010E+01  1.67652E+01  1.80898E+01  1.89273E+01  1.97581E+01  2.04015E+01  2.08928E+01  2.12336E+01  2.14669E+01
   2.14341E+01  2.12920E+01  2.09669E+01  2.02494E+01  1.95582E+01  1.82490E+01  1.74821E+01  1.59482E+01  1.53184E+01  1.39290E+01
   1.36747E+01  1.27636E+01  1.28721E+01  1.18207E+01  1.20994E+01  1.10321E+01  1.14700E+01  1.08917E+01  1.12809E+01  1.10267E+01
   1.13440E+01  1.06623E+01  1.06054E+01  9.33118E+00  8.68864E+00  7.40869E+00  6.72970E+00  6.05829E+00  5.52981E+00  4.89425E+00
   4.42422E+00  3.82819E+00  3.40424E+00  2.73915E+00  2.25397E+00  1.90424E+00  1.67490E+00  1.53246E+00  1.49437E+00  1.53443E+00
   1.67074E+00  1.87597E+00  2.16576E+00  2.51005E+00  2.92119E+00  3.36614E+00  3.85409E+00  4.34945E+00  4.85892E+00  5.34523E+00
   5.81395E+00  6.22805E+00  6.59410E+00  6.87746E+00  7.08785E+00  7.19507E+00  7.21388E+00  7.12014E+00  6.93479E+00  6.64013E+00
   6.26301E+00  5.79139E+00  5.25672E+00  4.65095E+00  4.00808E+00  3.32162E+00  2.62564E+00  1.91300E+00  1.21590E+00  5.24889E-01
  -1.30996E-01 -7.64504E-01 -1.35028E+00 -1.90440E+00 -2.40483E+00 -2.87041E+00 -3.28179E+00 -3.65981E+00 -3.98694E+00 -4.28507E+00
  -4.53760E+00 -4.76676E+00 -4.95633E+00 -5.12844E+00 -5.26680E+00 -5.39308E+00 -5.49070E+00 -5.58077E+00 -5.64644E+00 -5.70827E+00
  -5.74911E+00 -5.78896E+00 -5.81040E+00 -5.83304E+00 -5.83932E+00 -5.84848E+00 -5.84285E+00 -5.84129E+00 -5.82611E+00 -5.81594E+00
  -5.79311E+00 -5.77602E+00 -5.74698E+00 -5.72419E+00 -5.69002E+00 -5.66251E+00 -5.62414E+00 -5.59276E+00 -5.55088E+00 -5.51619E+00
  -5.47132E+00 -5.43387E+00 -5.38655E+00 -5.34677E+00 -5.29731E+00 -5.25549E+00 -5.20420E+00 -5.16064E+00 -5.10782E+00 -5.06275E+00
  -5.00853E+00 -4.96211E+00 -4.90670E+00 -4.85914E+00 -4.80271E+00 -4.75411E+00 -4.69674E+00 -4.64720E+00 -4.58903E+00 -4.53871E+00
  -4.47983E+00 -4.42876E+00 -4.36921E+00 -4.31747E+00 -4.25738E+00 -4.20507E+00 -4.14446E+00 -4.09158E+00 -4.03048E+00 -3.97712E+00
  -3.91563E+00 -3.86182E+00 -3.79992E+00 -3.74567E+00 -3.68340E+00 -3.62878E+00 -3.56620E+00 -3.51119E+00 -3.44827E+00 -3.39288E+00
  -3.32966E+00 -3.27394E+00 -3.21042E+00 -3.15434E+00 -3.09049E+00 -3.03404E+00 -2.96990E+00 -2.91312E+00
 NY background values follow
     1.301E+00    1.266E+00    1.230E+00    1.194E+00    1.158E+00    1.123E+00    1.087E+00    1.051E+00    1.016E+00    9.798E-01
     9.440E-01    9.081E-01    8.722E-01    8.363E-01    8.003E-01    7.643E-01    7.282E-01    6.921E-01    6.559E-01    6.197E-01
     5.834E-01    5.470E-01    5.106E-01    4.741E-01    4.375E-01    4.008E-01    3.640E-01    3.272E-01    2.902E-01    2.532E-01
     2.161E-01    1.788E-01    1.415E-01    1.041E-01    6.651E-02    2.884E-02   -8.950E-03   -4.686E-02   -8.489E-02   -1.231E-01
    -1.614E-01   -1.998E-01   -2.383E-01   -2.771E-01   -3.159E-01   -3.549E-01   -3.941E-01   -4.334E-01   -4.728E-01   -5.124E-01
    -5.522E-01   -5.921E-01   -6.321E-01   -6.723E-01   -7.126E-01   -7.530E-01   -7.936E-01   -8.343E-01   -8.752E-01   -9.162E-01
    -9.573E-01   -9.985E-01   -1.040E+00   -1.081E+00   -1.123E+00   -1.165E+00   -1.206E+00   -1.248E+00   -1.290E+00   -1.333E+00
    -1.375E+00   -1.417E+00   -1.460E+00   -1.502E+00   -1.545E+00   -1.588E+00   -1.631E+00   -1.673E+00   -1.717E+00   -1.760E+00
    -1.803E+00   -1.846E+00   -1.890E+00   -1.933E+00   -1.977E+00   -2.020E+00   -2.064E+00   -2.108E+00   -2.152E+00   -2.196E+00
    -2.240E+00   -2.284E+00   -2.328E+00   -2.372E+00   -2.416E+00   -2.461E+00   -2.505E+00   -2.550E+00   -2.594E+00   -2.639E+00
    -2.683E+00   -2.728E+00   -2.773E+00   -2.818E+00   -2.862E+00   -2.907E+00   -2.952E+00   -2.997E+00   -3.042E+00   -3.087E+00
    -3.133E+00   -3.178E+00   -3.223E+00   -3.268E+00   -3.314E+00   -3.359E+00   -3.405E+00   -3.450E+00   -3.496E+00   -3.541E+00
    -3.587E+00   -3.632E+00   -3.678E+00   -3.724E+00   -3.769E+00   -3.815E+00   -3.861E+00   -3.907E+00   -3.953E+00   -3.998E+00
    -4.044E+00   -4.090E+00   -4.136E+00   -4.182E+00   -4.228E+00   -4.274E+00   -4.320E+00   -4.366E+00   -4.412E+00   -4.458E+00
    -4.505E+00   -4.551E+00   -4.597E+00   -4.643E+00   -4.689E+00   -4.735E+00   -4.781E+00   -4.827E+00   -4.874E+00   -4.920E+00
    -4.966E+00   -5.012E+00   -5.058E+00   -5.104E+00   -5.150E+00   -5.196E+00   -5.242E+00   -5.288E+00   -5.334E+00   -5.380E+00
    -5.426E+00   -5.472E+00   -5.518E+00   -5.563E+00   -5.609E+00   -5.655E+00   -5.701E+00   -5.746E+00   -5.792E+00   -5.837E+00
    -5.883E+00   -5.928E+00   -5.974E+00   -6.019E+00   -6.064E+00   -6.109E+00   -6.155E+00   -6.200E+00   -6.245E+00   -6.290E+00
    -6.334E+00   -6.379E+00   -6.424E+00   -6.468E+00   -6.513E+00   -6.557E+00   -6.602E+00   -6.646E+00   -6.690E+00   -6.734E+00
    -6.778E+00   -6.822E+00   -6.866E+00   -6.910E+00   -6.954E+00   -6.997E+00   -7.041E+00   -7.084E+00   -7.128E+00   -7.171E+00
    -7.214E+00   -7.257E+00   -7.300E+00   -7.343E+00   -7.386E+00   -7.429E+00   -7.471E+00   -7.514E+00   -7.556E+00   -7.598E+00
    -7.641E+00   -7.683E+00   -7.725E+00   -7.767E+00   -7.809E+00   -7.850E+00   -7.892E+00   -7.933E+00   -7.975E+00   -8.016E+00
    -8.057E+00   -8.099E+00   -8.140E+00   -8.180E+00   -8.221E+00   -8.262E+00   -8.302E+00   -8.343E+00   -8.383E+00   -8.423E+00
    -8.463E+00   -8.503E+00   -8.543E+00   -8.583E+00   -8.622E+00   -8.661E+00   -8.700E+00   -8.739E+00   -8.778E+00   -8.816E+00
    -8.854E+00   -8.892E+00   -8.930E+00   -8.967E+00   -9.004E+00   -9.041E+00   -9.077E+00   -9.114E+00   -9.149E+00   -9.185E+00
    -9.220E+00   -9.255E+00   -9.290E+00   -9.324E+00   -9.357E+00   -9.391E+00   -9.424E+00   -9.456E+00   -9.488E+00   -9.520E+00
    -9.551E+00   -9.582E+00   -9.613E+00   -9.642E+00   -9.672E+00   -9.701E+00   -9.729E+00   -9.757E+00   -9.785E+00   -9.811E+00
    -9.838E+00   -9.864E+00   -9.889E+00   -9.914E+00   -9.938E+00   -9.961E+00   -9.984E+00   -1.001E+01   -1.003E+01   -1.005E+01
    -1.007E+01   -1.009E+01   -1.011E+01   -1.013E+01   -1.015E+01   -1.016E+01   -1.018E+01   -1.020E+01   -1.021E+01   -1.023E+01
    -1.024E+01   -1.026E+01   -1.027E+01   -1.028E+01   -1.029E+01   -1.030E+01   -1.031E+01   -1.032E+01   -1.033E+01   -1.034E+01
    -1.035E+01   -1.036E+01   -1.036E+01   -1.037E+01   -1.037E+01   -1.038E+01   -1.038E+01   -1.038E+01   -1.038E+01   -1.039E+01
    -1.039E+01   -1.038E+01   -1.038E+01   -1.038E+01   -1.038E+01   -1.038E+01   -1.037E+01   -1.037E+01   -1.036E+01   -1.035E+01
    -1.035E+01   -1.034E+01   -1.033E+01   -1.032E+01   -1.031E+01   -1.030E+01   -1.029E+01   -1.027E+01   -1.026E+01   -1.024E+01
    -1.023E+01   -1.021E+01   -1.020E+01   -1.018E+01   -1.016E+01   -1.015E+01   -1.013E+01   -1.011E+01   -1.009E+01   -1.007E+01
    -1.004E+01   -1.002E+01   -1.000E+01   -9.976E+00   -9.952E+00   -9.928E+00   -9.903E+00   -9.877E+00   -9.851E+00   -9.824E+00
    -9.796E+00   -9.768E+00   -9.740E+00   -9.711E+00   -9.681E+00   -9.651E+00   -9.620E+00   -9.589E+00   -9.557E+00   -9.525E+00
    -9.492E+00   -9.459E+00   -9.426E+00   -9.391E+00   -9.357E+00   -9.322E+00   -9.286E+00   -9.250E+00   -9.214E+00   -9.177E+00
    -9.139E+00   -9.102E+00   -9.063E+00   -9.025E+00   -8.985E+00   -8.946E+00   -8.906E+00   -8.865E+00   -8.824E+00   -8.783E+00
    -8.741E+00   -8.699E+00   -8.657E+00   -8.614E+00   -8.570E+00   -8.527E+00   -8.483E+00   -8.438E+00   -8.393E+00   -8.348E+00
    -8.302E+00   -8.256E+00   -8.209E+00   -8.163E+00   -8.115E+00   -8.068E+00   -8.020E+00   -7.972E+00   -7.923E+00   -7.874E+00
    -7.824E+00   -7.775E+00   -7.725E+00   -7.674E+00   -7.624E+00   -7.573E+00   -7.521E+00   -7.469E+00   -7.417E+00   -7.365E+00
    -7.312E+00   -7.259E+00   -7.206E+00   -7.153E+00   -7.099E+00   -7.045E+00   -6.990E+00   -6.936E+00   -6.881E+00   -6.825E+00
    -6.770E+00   -6.714E+00   -6.659E+00   -6.602E+00   -6.546E+00   -6.490E+00   -6.433E+00   -6.376E+00   -6.319E+00   -6.261E+00
    -6.204E+00   -6.146E+00   -6.088E+00   -6.030E+00   -5.972E+00   -5.914E+00   -5.856E+00   -5.797E+00   -5.738E+00   -5.679E+00
    -5.621E+00   -5.561E+00   -5.502E+00   -5.443E+00   -5.384E+00   -5.324E+00   -5.265E+00   -5.205E+00   -5.146E+00   -5.086E+00
    -5.026E+00   -4.966E+00   -4.906E+00   -4.846E+00   -4.787E+00   -4.727E+00   -4.667E+00   -4.607E+00   -4.547E+00   -4.487E+00
    -4.426E+00   -4.366E+00   -4.306E+00   -4.246E+00   -4.186E+00   -4.126E+00   -4.066E+00   -4.005E+00   -3.945E+00   -3.885E+00
    -3.825E+00   -3.764E+00   -3.704E+00   -3.644E+00   -3.584E+00   -3.523E+00   -3.463E+00   -3.403E+00   -3.343E+00   -3.282E+00
    -3.222E+00   -3.162E+00   -3.102E+00   -3.041E+00   -2.981E+00   -2.921E+00   -2.861E+00   -2.801E+00   -2.740E+00   -2.680E+00
    -2.620E+00   -2.560E+00   -2.500E+00   -2.440E+00   -2.380E+00   -2.320E+00   -2.260E+00   -2.200E+00
 Ala      Conc. = 1.59E+02
