 LCModel (Version 6.3-1L) Copyright: S.W. Provencher.          Ref.: Magn. Reson. Med. 30:672-679 (1993).                
 Slice#2 Row#5 Col#8  PD_24_press_2_raw_act
 36 lines in following concentration table = NCONC+1
    Conc.  %SD /Cr+PCr  Metabolite                                         
    0.000 999%   0.000 Ala                                                 
    0.000 999%   0.000 Asp                                                 
 1.24E+03  36%   0.610 Cr                                                  
  788.470  58%   0.390 PCr                                                 
   17.442 999% 8.6E-03 GABA                                                
  102.300 241% 5.1E-02 Glc                                                 
  398.699 123%   0.197 Gln                                                 
 2.38E+03  24%   1.177 Glu                                                 
 1.02E+03   5%   0.506 GPC                                                 
    0.000 999%   0.000 PCh                                                 
  647.560  24%   0.320 GSH                                                 
 1.86E+03  27%   0.917 Ins                                                 
    0.000 999%   0.000 Lac                                                 
 2.32E+03   9%   1.146 NAA                                                 
  954.280  23%   0.471 NAAG                                                
  145.560  37% 7.2E-02 Scyllo                                              
  658.825  53%   0.326 Tau                                                 
  290.757  73%   0.144 -CrCH2                                              
 1.02E+03   5%   0.506 GPC+PCh                                             
 3.27E+03   6%   1.617 NAA+NAAG                                            
 2.02E+03   6%   1.000 Cr+PCr                                              
 2.78E+03  28%   1.374 Glu+Gln                                             
 4.51E+03  33%   2.231 Lip13a                                              
    0.000 999%   0.000 Lip13b                                              
 1.36E+03  43%   0.674 Lip09                                               
 3.91E+03  19%   1.932 MM09                                                
  560.020  68%   0.277 Lip20                                               
 5.08E+03  16%   2.510 MM20                                                
 1.63E+03  44%   0.807 MM12                                                
 1.88E+03  45%   0.930 MM14                                                
 2.81E+03  21%   1.388 MM17                                                
 4.51E+03  33%   2.231 Lip13a+Lip13b                                       
 8.03E+03  11%   3.968 MM14+Lip13a+Lip13b+MM12                             
 5.27E+03   9%   2.606 MM09+Lip09                                          
 5.64E+03  14%   2.787 MM20+Lip20                                          
   6 lines in following misc. output table
  FWHM = 0.046 ppm    S/N =   7                                            
  Data shift = 0.023 ppm                                                   
  Ph: -14 deg       6.4 deg/ppm                                            
  alphaB,S = 8.5E+01,   1.0E+02                                            
   14 spline knots.   Ns = 7(1)                                            
  (12) 4 infls.   ( 9) 1 extrs.                                            
  498 points on ppm-axis = NY
      4.000000     3.992357     3.984714     3.977070     3.969427     3.961784     3.954141     3.946497     3.938854     3.931211
      3.923568     3.915925     3.908281     3.900638     3.892995     3.885352     3.877708     3.870065     3.862422     3.854779
      3.847136     3.839492     3.831849     3.824206     3.816563     3.808919     3.801276     3.793633     3.785990     3.778347
      3.770703     3.763060     3.755417     3.747774     3.740130     3.732487     3.724844     3.717201     3.709558     3.701914
      3.694271     3.686628     3.678985     3.671341     3.663698     3.656055     3.648412     3.640769     3.633125     3.625482
      3.617839     3.610196     3.602552     3.594909     3.587266     3.579623     3.571980     3.564336     3.556693     3.549050
      3.541407     3.533763     3.526120     3.518477     3.510834     3.503191     3.495547     3.487904     3.480261     3.472618
      3.464974     3.457331     3.449688     3.442045     3.434402     3.426758     3.419115     3.411472     3.403829     3.396185
      3.388542     3.380899     3.373256     3.365613     3.357969     3.350326     3.342683     3.335040     3.327396     3.319753
      3.312110     3.304467     3.296824     3.289180     3.281537     3.273894     3.266251     3.258607     3.250964     3.243321
      3.235678     3.228034     3.220391     3.212748     3.205105     3.197462     3.189818     3.182175     3.174532     3.166889
      3.159245     3.151602     3.143959     3.136316     3.128673     3.121029     3.113386     3.105743     3.098100     3.090456
      3.082813     3.075170     3.067527     3.059884     3.052240     3.044597     3.036954     3.029311     3.021667     3.014024
      3.006381     2.998738     2.991095     2.983451     2.975808     2.968165     2.960522     2.952878     2.945235     2.937592
      2.929949     2.922306     2.914662     2.907019     2.899376     2.891733     2.884089     2.876446     2.868803     2.861160
      2.853517     2.845873     2.838230     2.830587     2.822944     2.815300     2.807657     2.800014     2.792371     2.784728
      2.777084     2.769441     2.761798     2.754155     2.746511     2.738868     2.731225     2.723582     2.715939     2.708295
      2.700652     2.693009     2.685366     2.677722     2.670079     2.662436     2.654793     2.647150     2.639506     2.631863
      2.624220     2.616577     2.608933     2.601290     2.593647     2.586004     2.578361     2.570717     2.563074     2.555431
      2.547788     2.540144     2.532501     2.524858     2.517215     2.509572     2.501928     2.494285     2.486642     2.478999
      2.471355     2.463712     2.456069     2.448426     2.440783     2.433139     2.425496     2.417853     2.410210     2.402566
      2.394923     2.387280     2.379637     2.371994     2.364350     2.356707     2.349064     2.341421     2.333777     2.326134
      2.318491     2.310848     2.303205     2.295561     2.287918     2.280275     2.272632     2.264988     2.257345     2.249702
      2.242059     2.234416     2.226772     2.219129     2.211486     2.203843     2.196199     2.188556     2.180913     2.173270
      2.165627     2.157983     2.150340     2.142697     2.135054     2.127410     2.119767     2.112124     2.104481     2.096838
      2.089194     2.081551     2.073908     2.066265     2.058621     2.050978     2.043335     2.035692     2.028049     2.020405
      2.012762     2.005119     1.997476     1.989833     1.982190     1.974546     1.966903     1.959260     1.951617     1.943974
      1.936331     1.928688     1.921045     1.913402     1.905759     1.898115     1.890472     1.882829     1.875186     1.867543
      1.859900     1.852257     1.844614     1.836971     1.829327     1.821684     1.814041     1.806398     1.798755     1.791112
      1.783469     1.775826     1.768183     1.760540     1.752896     1.745253     1.737610     1.729967     1.722324     1.714681
      1.707038     1.699395     1.691752     1.684108     1.676465     1.668822     1.661179     1.653536     1.645893     1.638250
      1.630607     1.622964     1.615321     1.607677     1.600034     1.592391     1.584748     1.577105     1.569462     1.561819
      1.554176     1.546533     1.538890     1.531246     1.523603     1.515960     1.508317     1.500674     1.493031     1.485388
      1.477745     1.470102     1.462458     1.454815     1.447172     1.439529     1.431886     1.424243     1.416600     1.408957
      1.401314     1.393671     1.386027     1.378384     1.370741     1.363098     1.355455     1.347812     1.340169     1.332526
      1.324883     1.317240     1.309596     1.301953     1.294310     1.286667     1.279024     1.271381     1.263738     1.256095
      1.248452     1.240808     1.233165     1.225522     1.217879     1.210236     1.202593     1.194950     1.187307     1.179664
      1.172021     1.164377     1.156734     1.149091     1.141448     1.133805     1.126162     1.118519     1.110876     1.103233
      1.095590     1.087946     1.080303     1.072660     1.065017     1.057374     1.049731     1.042088     1.034445     1.026802
      1.019158     1.011515     1.003872     0.996229     0.988586     0.980943     0.973300     0.965657     0.958014     0.950371
      0.942727     0.935084     0.927441     0.919798     0.912155     0.904512     0.896869     0.889226     0.881583     0.873940
      0.866296     0.858653     0.851010     0.843367     0.835724     0.828081     0.820438     0.812795     0.805152     0.797508
      0.789865     0.782222     0.774579     0.766936     0.759293     0.751650     0.744007     0.736364     0.728721     0.721077
      0.713434     0.705791     0.698148     0.690505     0.682862     0.675219     0.667576     0.659933     0.652290     0.644646
      0.637003     0.629360     0.621717     0.614074     0.606431     0.598788     0.591145     0.583502     0.575858     0.568215
      0.560572     0.552929     0.545286     0.537643     0.530000     0.522357     0.514714     0.507071     0.499427     0.491784
      0.484141     0.476498     0.468855     0.461212     0.453569     0.445925     0.438282     0.430639     0.422996     0.415353
      0.407710     0.400067     0.392424     0.384780     0.377137     0.369494     0.361851     0.354208     0.346565     0.338922
      0.331278     0.323635     0.315992     0.308349     0.300706     0.293063     0.285420     0.277777     0.270133     0.262490
      0.254847     0.247204     0.239561     0.231918     0.224275     0.216631     0.208988     0.201345
 NY phased data points follow
  -4.28455E+00 -1.98962E+01 -1.54475E+01 -4.50306E+00  7.83952E+00  2.34664E+00  1.02794E+01  3.59847E+01  3.66107E+01  3.20411E+01
   3.78197E+01  3.91678E+01  1.95679E+01  1.72048E+01  1.74888E+01  1.79780E+01  1.18468E+01  9.59188E+00  4.42181E-01  5.35715E-01
  -2.55959E+00 -4.64180E+00 -6.50858E+00 -5.49366E+00  2.13806E+00  1.27721E+01  8.86830E+00  4.22333E+00  1.15099E+01  2.00560E+00
   1.38798E+01  8.59032E+00  1.19909E+01  9.76438E+00  6.58322E+00 -5.87085E+00  1.15878E+01 -5.29381E-01  2.42677E+00 -1.28534E+01
  -1.42971E-01  1.38577E+01 -5.45713E+00  4.59979E+00  9.04247E+00  6.53603E+00  1.75284E+01  7.56782E+00  1.31918E+01  1.22605E+01
   1.70700E+01  6.86707E+00  4.92026E+00  1.07539E+01  4.94040E+00 -3.98648E+00  1.44132E+01  7.19139E+00  1.03732E+01 -3.31841E+00
  -2.04805E+00 -6.43274E+00  5.16347E+00 -1.14367E+01 -9.63911E+00 -8.08311E+00 -4.07813E+00  4.46395E+00 -1.16241E+01 -5.23266E-01
   3.78979E+00 -4.50438E+00 -7.20277E+00 -5.85422E-01  3.83864E+00 -1.77925E+00 -8.66346E+00 -4.86850E+00 -4.89034E+00 -5.85827E+00
  -7.89554E-01 -7.23027E+00 -2.59620E+00  5.74213E+00 -3.25178E+00 -3.88780E-01 -4.14537E+00 -1.04287E+00  8.86431E+00  1.77910E+00
   5.16514E+00 -7.06066E+00  3.90357E+00  1.65474E+01  8.18088E+00  5.51367E+00  1.68204E+01  2.28691E+01  3.35334E+01  5.16505E+01
   4.82039E+01  8.12531E+01  9.60443E+01  8.28362E+01  7.93603E+01  4.81227E+01  4.34487E+01  3.46618E+01  3.12773E+01  2.43352E+01
   1.44233E+01 -4.82592E+00 -1.82767E+00  5.54078E-01  4.20890E+00  2.39437E+00 -2.35712E+00  1.52254E+01  3.45959E+00  1.29795E+01
   1.24898E+01  8.35369E+00  8.16912E+00  2.53380E+01  4.50416E+01  4.75476E+01  6.85031E+01  7.07744E+01  6.06593E+01  3.39836E+01
   3.15022E+01  1.75735E+01  2.17302E+01  2.10798E+01  9.62277E+00  2.04400E+00  8.43869E+00 -2.08516E+00 -3.08144E+00  5.62346E+00
   1.88650E+00 -1.68927E+00  1.86027E+00 -9.32657E+00 -6.38370E+00 -1.19940E+01 -2.04107E+00  3.74744E+00 -1.62612E+00 -3.44278E+00
  -5.28182E+00 -8.40691E+00  2.92561E+00 -5.19718E+00 -4.98811E-01 -7.02833E+00  3.15948E-01 -2.10017E+00 -8.79640E+00 -2.06659E+00
  -4.98346E+00 -1.57362E+01  2.25453E+00 -5.67721E+00  1.54463E+00  4.52564E+00 -5.51102E+00  4.04007E+00 -1.52848E+01 -7.28740E+00
  -3.67764E+00 -1.10101E+01 -1.73748E+01 -2.20705E+01 -1.91102E+01 -1.29613E+01 -2.40116E+01 -2.29188E+01 -2.67881E+01 -1.06463E+01
  -2.13442E+01 -1.65646E+01 -1.57748E+01 -1.34788E+01 -1.70078E+01 -1.13010E+01 -9.39077E+00 -1.32562E+01 -1.73548E+01 -2.77631E+00
   1.49614E+01 -2.97037E+00 -6.69104E+00 -6.16799E+00 -6.17716E+00 -2.54581E+00 -1.02303E+01 -1.12658E+01 -1.68573E+01 -1.04864E+01
  -7.99397E+00 -1.47088E+01 -9.60821E+00 -3.60027E+00 -5.53847E-01 -9.68216E+00 -8.97145E+00 -1.15951E+01 -1.28464E+01 -9.08363E+00
  -1.52645E+01 -1.62303E+00  3.84451E-01 -7.39986E+00  1.91862E+00  1.25573E+01  1.21779E+01  5.11470E+00  9.80212E+00  7.25459E+00
  -2.68184E+00 -2.38230E+01 -1.76312E+01 -8.38067E+00  1.12921E+00 -1.24488E+01 -7.39227E+00 -1.13497E+00  1.29883E+01  8.92675E-01
   8.63554E+00  6.75103E+00 -1.06674E+00  8.53814E+00  4.44293E+00  4.09299E+00  6.06717E-01  1.53638E+01 -1.46429E+00  1.65639E+00
   8.05352E+00  1.84597E+00  1.90165E+00  4.01388E+00  1.60323E+01  8.70923E+00  1.81716E+01  1.49164E+01  1.93612E+01  2.44408E+01
   3.13191E+01  4.11427E+01  3.72164E+01  4.50077E+01  5.51175E+01  6.67061E+01  6.57658E+01  7.17069E+01  1.01773E+02  1.11389E+02
   1.13321E+02  1.14664E+02  8.28646E+01  5.25885E+01  3.63624E+01  3.82654E+01  2.60004E+01  2.36584E+01  1.81282E+01  2.00522E+01
   1.41522E+01  4.16110E+00  1.55817E+01  1.17970E+01 -1.17961E+00  7.33894E+00  2.33360E+00  7.39657E+00  3.38101E+00  3.47626E+00
   1.51834E+01  5.20516E+00  2.57287E+00 -3.81841E+00 -7.17142E+00 -5.67164E+00  7.37623E+00  6.74360E+00  7.99120E+00  9.51418E+00
   1.14445E+01  5.58121E+00  6.50062E+00  1.20376E+00  5.09112E+00  8.53786E+00  9.74793E+00  6.47793E+00  3.79376E+00 -9.46569E+00
   8.90468E+00  1.01347E+01 -3.30486E+00  1.53414E+01  1.98429E+01  1.21530E+01  1.43343E+01  2.66728E+01  1.40821E+01  2.24005E+01
   1.87800E+01  1.93690E+01  1.62566E+01  2.04751E+01  1.80609E+01  4.87678E+00  2.30717E+01  1.75482E+01  1.33967E+01  1.54968E+01
   1.58721E+01  2.36491E+01  1.59857E+01  1.77601E+01  7.14116E+00  1.20481E+01  8.89500E+00  1.53552E+01  2.50260E+01  1.67076E+01
   2.07952E+01  1.02066E+01  1.08478E+01  2.40324E+01  1.60584E+01  1.66589E+01  8.61542E+00  8.60706E+00  2.59335E+01  3.03009E+00
   9.72258E+00  2.15593E+01  2.45363E+01  2.44245E+01  1.53294E+01  1.34090E+01  1.54961E+01  6.44924E+00  3.12918E+01  2.02854E+01
   2.63320E+01  1.98709E+01  2.90958E+01  2.26808E+01  2.21055E+01  2.00102E+01  2.62362E+01  2.72802E+01  1.68474E+01  2.57875E+01
   2.56378E+01  2.99491E+01  2.72332E+01  2.27304E+01  1.60711E+01  2.42237E+01  2.23562E+01  2.16276E+01  1.67840E+01  1.90606E+01
   2.90297E+01  1.77793E+01  2.73289E+01  2.63217E+01  2.93622E+01  1.41729E+01  1.88458E+01  2.12566E+01  2.20142E+01  2.20041E+01
   1.56775E+01  1.82222E+01  2.10045E+01  2.64707E+01  1.88476E+01  1.30202E+01  9.03842E+00  2.56408E+01  3.87439E+01  3.53608E+01
   3.41591E+01  4.10561E+01  3.67775E+01  4.86154E+00  1.63531E+01  1.62070E+01  2.04726E+01  2.06311E+01  3.36284E+01  3.24218E+01
   3.17988E+01  3.50890E+01  3.76793E+01  3.72035E+01  3.60446E+01  4.21323E+01  3.52279E+01  3.85883E+01  3.76449E+01  3.05229E+01
   2.96658E+01  3.36288E+01  3.15650E+01  2.61740E+01  1.98986E+01  2.01276E+01  2.48138E+01  1.82847E+01  1.88882E+01  1.76587E+01
   2.27665E+01  2.25111E+01  2.32444E+01  3.09772E+01  1.75315E+01  2.94124E+01  1.97528E+01  2.08527E+01  2.33583E+01  2.30501E+01
   1.07217E+01  2.42038E+01  1.48148E+01  1.79342E+01  1.18193E+01  1.39376E+01  1.93553E+01  6.93940E+00  1.40693E+01  1.92874E+01
   1.12936E+01  9.71592E+00  1.26481E+01  1.11486E+01  9.60755E+00  1.34830E+01  2.25445E+01  1.98905E+01  5.56785E+00  7.63474E+00
   7.69667E+00  1.71066E+01  4.28679E+00 -7.21889E+00  1.60449E+01  8.69904E+00 -7.40921E-01  1.23507E+01  9.47138E+00  4.47641E+00
   1.49399E+01  1.61512E+01  1.11151E+01  1.59295E+00 -8.06464E-01  3.65743E+00  8.85937E+00  1.06513E+01  6.21489E+00  7.57573E+00
  -2.30364E+00  1.60243E+00  4.87532E+00  8.48820E+00  7.77752E+00  5.31216E+00  1.54080E+01  2.71233E+00  2.72070E+00  6.65270E+00
  -5.84174E-01 -5.43792E+00  4.30433E+00 -3.10641E-01  3.07850E+00 -1.03672E+00  1.27501E+00 -2.49088E-01  8.16628E+00  5.31845E-01
  -2.59877E+00  1.21108E+01  1.17063E+00  4.07492E+00  1.59933E+00  1.10241E+01  3.25485E+00  6.32229E+00
 NY points of the fit to the data follow
  -1.78670E+00 -1.51320E+00 -3.15955E-01  2.01677E+00  5.87843E+00  1.10283E+01  1.68602E+01  2.33287E+01  2.99184E+01  3.50492E+01
   3.67741E+01  3.41843E+01  2.83186E+01  2.15221E+01  1.58767E+01  1.19652E+01  8.97182E+00  5.86137E+00  2.64239E+00  7.77787E-02
  -1.21854E+00 -1.73622E+00 -2.03912E+00 -1.61187E+00 -6.39389E-01  6.80004E-01  2.62807E+00  5.32457E+00  8.40658E+00  1.09231E+01
   1.21941E+01  1.20759E+01  1.07826E+01  8.83884E+00  6.69309E+00  4.51257E+00  2.35584E+00  2.51315E-01 -1.29280E+00 -1.48616E+00
  -4.26320E-01  1.34784E+00  3.35006E+00  5.49289E+00  7.84219E+00  1.01053E+01  1.16166E+01  1.15861E+01  9.73412E+00  6.68845E+00
   3.53345E+00  1.12773E+00 -2.47102E-01 -1.00611E+00 -1.57627E+00 -1.85445E+00 -1.62291E+00 -9.47857E-01 -1.89135E-01  3.01236E-01
   2.57049E-01 -4.06683E-01 -1.37364E+00 -2.25512E+00 -2.71533E+00 -2.63671E+00 -2.31655E+00 -2.04982E+00 -1.73494E+00 -1.21977E+00
  -5.97827E-01  2.37081E-02  5.33715E-01  7.94458E-01  6.80039E-01  1.57912E-01 -7.36150E-01 -1.81698E+00 -2.68233E+00 -2.90031E+00
  -2.28547E+00 -1.32736E+00 -4.42344E-01  3.48095E-01  1.10827E+00  1.58298E+00  1.31145E+00  2.41319E-01 -1.18439E+00 -2.32460E+00
  -2.85726E+00 -2.89820E+00 -2.76837E+00 -2.69979E+00 -2.21636E+00  4.16475E-01  8.07592E+00  1.89435E+01  3.11702E+01  4.59110E+01
   6.35913E+01  8.07907E+01  9.09313E+01  8.91880E+01  7.63131E+01  5.82825E+01  4.21080E+01  3.10960E+01  2.37982E+01  1.67324E+01
   8.56181E+00  1.48840E+00 -1.85665E+00 -2.83162E+00 -3.20080E+00 -3.36205E+00 -3.39375E+00 -3.25081E+00 -2.80997E+00 -1.35346E+00
   3.28365E+00  1.05278E+01  1.89876E+01  2.93817E+01  4.21302E+01  5.50116E+01  6.34975E+01  6.39134E+01  5.61987E+01  4.42304E+01
   3.30901E+01  2.53182E+01  1.99506E+01  1.44355E+01  7.64383E+00  1.33401E+00 -1.95363E+00 -2.62849E+00 -2.18706E+00 -1.36068E+00
  -6.93707E-01 -4.48044E-01 -5.49223E-01 -8.36778E-01 -1.21527E+00 -1.58498E+00 -1.94093E+00 -2.38667E+00 -2.94218E+00 -3.53786E+00
  -4.10482E+00 -4.57085E+00 -4.92236E+00 -5.15447E+00 -5.30880E+00 -5.36753E+00 -5.40043E+00 -5.57891E+00 -5.97700E+00 -6.59270E+00
  -7.16790E+00 -7.38077E+00 -7.22185E+00 -7.03672E+00 -7.16834E+00 -7.74226E+00 -8.58366E+00 -9.33063E+00 -9.76749E+00 -9.98582E+00
  -1.01789E+01 -1.04366E+01 -1.08971E+01 -1.15319E+01 -1.21461E+01 -1.24706E+01 -1.23280E+01 -1.18874E+01 -1.16238E+01 -1.17886E+01
  -1.21924E+01 -1.23392E+01 -1.19405E+01 -1.11658E+01 -1.03265E+01 -9.45723E+00 -8.30063E+00 -6.62136E+00 -4.56446E+00 -2.66270E+00
  -1.55767E+00 -1.59019E+00 -2.39189E+00 -3.42607E+00 -4.40341E+00 -5.17282E+00 -5.57872E+00 -5.38168E+00 -4.58661E+00 -3.35618E+00
  -1.91344E+00 -6.19435E-01  2.80398E-01  5.49213E-01  8.90637E-02 -1.07514E+00 -2.98531E+00 -5.30881E+00 -7.30837E+00 -8.32202E+00
  -7.87927E+00 -6.29156E+00 -3.69469E+00 -2.27769E-01  3.45293E+00  6.09619E+00  6.34595E+00  3.94269E+00 -1.21094E-01 -4.68036E+00
  -8.74862E+00 -1.14750E+01 -1.23189E+01 -1.10779E+01 -8.16469E+00 -4.49652E+00 -1.06378E+00  1.26875E+00  2.52879E+00  3.24575E+00
   3.97898E+00  4.92542E+00  5.90837E+00  6.97358E+00  8.11784E+00  9.00726E+00  9.24552E+00  8.75218E+00  7.81890E+00  6.80454E+00
   5.94697E+00  5.59172E+00  6.19561E+00  7.82860E+00  1.00177E+01  1.21163E+01  1.37354E+01  1.48377E+01  1.60907E+01  1.86042E+01
   2.19477E+01  2.61689E+01  3.20857E+01  4.20046E+01  5.51691E+01  6.69258E+01  7.63754E+01  8.56575E+01  9.59763E+01  1.04527E+02
   1.06276E+02  9.84258E+01  8.29594E+01  6.57535E+01  5.23345E+01  4.38559E+01  3.71348E+01  2.95190E+01  2.16137E+01  1.62650E+01
   1.38489E+01  1.23914E+01  1.13381E+01  1.05387E+01  9.83370E+00  9.06267E+00  8.23720E+00  7.43692E+00  6.71559E+00  6.10344E+00
   5.59424E+00  5.14857E+00  4.74116E+00  4.38254E+00  4.07674E+00  3.80377E+00  3.55883E+00  3.37501E+00  3.29148E+00  3.32747E+00
   3.47921E+00  3.73430E+00  4.07260E+00  4.47026E+00  4.91710E+00  5.42314E+00  6.00474E+00  6.67596E+00  7.44008E+00  8.29078E+00
   9.22190E+00  1.02176E+01  1.12443E+01  1.22707E+01  1.32740E+01  1.42354E+01  1.51336E+01  1.59416E+01  1.66362E+01  1.72065E+01
   1.76429E+01  1.79386E+01  1.80932E+01  1.81127E+01  1.80083E+01  1.77951E+01  1.74912E+01  1.71166E+01  1.66936E+01  1.62448E+01
   1.57928E+01  1.53578E+01  1.49568E+01  1.46036E+01  1.43094E+01  1.40821E+01  1.39258E+01  1.38412E+01  1.38259E+01  1.38755E+01
   1.39849E+01  1.41479E+01  1.43575E+01  1.46063E+01  1.48875E+01  1.51956E+01  1.55264E+01  1.58769E+01  1.62446E+01  1.66277E+01
   1.70259E+01  1.74394E+01  1.78695E+01  1.83168E+01  1.87813E+01  1.92625E+01  1.97591E+01  2.02697E+01  2.07911E+01  2.13190E+01
   2.18471E+01  2.23686E+01  2.28759E+01  2.33610E+01  2.38153E+01  2.42294E+01  2.45942E+01  2.49015E+01  2.51442E+01  2.53162E+01
   2.54129E+01  2.54305E+01  2.53674E+01  2.52240E+01  2.50029E+01  2.47085E+01  2.43464E+01  2.39239E+01  2.34499E+01  2.29348E+01
   2.23903E+01  2.18286E+01  2.12619E+01  2.07031E+01  2.01651E+01  1.96612E+01  1.92042E+01  1.88062E+01  1.84783E+01  1.82311E+01
   1.80746E+01  1.80178E+01  1.80686E+01  1.82326E+01  1.85143E+01  1.89165E+01  1.94401E+01  2.00838E+01  2.08435E+01  2.17118E+01
   2.26790E+01  2.37323E+01  2.48564E+01  2.60328E+01  2.72404E+01  2.84555E+01  2.96538E+01  3.08099E+01  3.18988E+01  3.28958E+01
   3.37778E+01  3.45243E+01  3.51185E+01  3.55473E+01  3.58022E+01  3.58785E+01  3.57764E+01  3.55003E+01  3.50593E+01  3.44657E+01
   3.37348E+01  3.28836E+01  3.19307E+01  3.08956E+01  2.97981E+01  2.86572E+01  2.74907E+01  2.63144E+01  2.51430E+01  2.39889E+01
   2.28630E+01  2.17738E+01  2.07275E+01  1.97289E+01  1.87809E+01  1.78857E+01  1.70439E+01  1.62551E+01  1.55179E+01  1.48303E+01
   1.41903E+01  1.35956E+01  1.30436E+01  1.25314E+01  1.20560E+01  1.16146E+01  1.12050E+01  1.08246E+01  1.04712E+01  1.01424E+01
   9.83591E+00  9.55004E+00  9.28329E+00  9.03416E+00  8.80112E+00  8.58259E+00  8.37740E+00  8.18459E+00  8.00343E+00  7.83298E+00
   7.67228E+00  7.52038E+00  7.37674E+00  7.24092E+00  7.11255E+00  6.99094E+00  6.87550E+00  6.76566E+00  6.66125E+00  6.56205E+00
   6.46782E+00  6.37801E+00  6.29224E+00  6.21023E+00  6.13200E+00  6.05741E+00  5.98624E+00  5.91802E+00  5.85255E+00  5.78973E+00
   5.72967E+00  5.67221E+00  5.61713E+00  5.56405E+00  5.51292E+00  5.46376E+00  5.41668E+00  5.37145E+00  5.32784E+00  5.28559E+00
   5.24477E+00  5.20543E+00  5.16764E+00  5.13111E+00  5.09563E+00  5.06107E+00  5.02756E+00  4.99515E+00  4.96381E+00  4.93321E+00
   4.90321E+00  4.87375E+00  4.84501E+00  4.81696E+00  4.78947E+00  4.76220E+00  4.73505E+00  4.70803E+00
 NY background values follow
    -1.095E+01   -1.093E+01   -1.091E+01   -1.088E+01   -1.086E+01   -1.084E+01   -1.082E+01   -1.080E+01   -1.078E+01   -1.076E+01
    -1.074E+01   -1.072E+01   -1.069E+01   -1.067E+01   -1.065E+01   -1.063E+01   -1.061E+01   -1.059E+01   -1.057E+01   -1.055E+01
    -1.052E+01   -1.050E+01   -1.048E+01   -1.046E+01   -1.044E+01   -1.042E+01   -1.040E+01   -1.038E+01   -1.035E+01   -1.033E+01
    -1.031E+01   -1.029E+01   -1.027E+01   -1.025E+01   -1.023E+01   -1.020E+01   -1.018E+01   -1.016E+01   -1.014E+01   -1.012E+01
    -1.010E+01   -1.008E+01   -1.005E+01   -1.003E+01   -1.001E+01   -9.989E+00   -9.967E+00   -9.946E+00   -9.924E+00   -9.903E+00
    -9.881E+00   -9.859E+00   -9.838E+00   -9.816E+00   -9.794E+00   -9.773E+00   -9.751E+00   -9.729E+00   -9.708E+00   -9.686E+00
    -9.664E+00   -9.643E+00   -9.621E+00   -9.599E+00   -9.577E+00   -9.555E+00   -9.534E+00   -9.512E+00   -9.490E+00   -9.468E+00
    -9.446E+00   -9.425E+00   -9.403E+00   -9.381E+00   -9.359E+00   -9.337E+00   -9.315E+00   -9.293E+00   -9.272E+00   -9.250E+00
    -9.228E+00   -9.206E+00   -9.184E+00   -9.162E+00   -9.140E+00   -9.118E+00   -9.096E+00   -9.074E+00   -9.052E+00   -9.030E+00
    -9.008E+00   -8.986E+00   -8.964E+00   -8.942E+00   -8.920E+00   -8.898E+00   -8.876E+00   -8.854E+00   -8.832E+00   -8.810E+00
    -8.788E+00   -8.766E+00   -8.744E+00   -8.722E+00   -8.699E+00   -8.677E+00   -8.655E+00   -8.633E+00   -8.611E+00   -8.589E+00
    -8.567E+00   -8.544E+00   -8.522E+00   -8.500E+00   -8.478E+00   -8.456E+00   -8.434E+00   -8.411E+00   -8.389E+00   -8.367E+00
    -8.345E+00   -8.322E+00   -8.300E+00   -8.278E+00   -8.256E+00   -8.233E+00   -8.211E+00   -8.189E+00   -8.167E+00   -8.144E+00
    -8.122E+00   -8.100E+00   -8.077E+00   -8.055E+00   -8.033E+00   -8.010E+00   -7.988E+00   -7.966E+00   -7.943E+00   -7.921E+00
    -7.899E+00   -7.876E+00   -7.854E+00   -7.832E+00   -7.809E+00   -7.787E+00   -7.764E+00   -7.742E+00   -7.720E+00   -7.697E+00
    -7.675E+00   -7.652E+00   -7.630E+00   -7.608E+00   -7.585E+00   -7.563E+00   -7.540E+00   -7.518E+00   -7.495E+00   -7.473E+00
    -7.450E+00   -7.428E+00   -7.405E+00   -7.383E+00   -7.360E+00   -7.338E+00   -7.315E+00   -7.293E+00   -7.270E+00   -7.248E+00
    -7.225E+00   -7.203E+00   -7.180E+00   -7.158E+00   -7.135E+00   -7.113E+00   -7.090E+00   -7.067E+00   -7.045E+00   -7.022E+00
    -7.000E+00   -6.977E+00   -6.955E+00   -6.932E+00   -6.909E+00   -6.887E+00   -6.864E+00   -6.842E+00   -6.819E+00   -6.796E+00
    -6.774E+00   -6.751E+00   -6.728E+00   -6.706E+00   -6.683E+00   -6.660E+00   -6.638E+00   -6.615E+00   -6.592E+00   -6.570E+00
    -6.547E+00   -6.524E+00   -6.502E+00   -6.479E+00   -6.456E+00   -6.434E+00   -6.411E+00   -6.388E+00   -6.366E+00   -6.343E+00
    -6.320E+00   -6.298E+00   -6.275E+00   -6.252E+00   -6.229E+00   -6.207E+00   -6.184E+00   -6.161E+00   -6.138E+00   -6.116E+00
    -6.093E+00   -6.070E+00   -6.047E+00   -6.025E+00   -6.002E+00   -5.979E+00   -5.956E+00   -5.934E+00   -5.911E+00   -5.888E+00
    -5.865E+00   -5.843E+00   -5.820E+00   -5.797E+00   -5.774E+00   -5.751E+00   -5.729E+00   -5.706E+00   -5.683E+00   -5.660E+00
    -5.637E+00   -5.615E+00   -5.592E+00   -5.569E+00   -5.546E+00   -5.523E+00   -5.501E+00   -5.478E+00   -5.455E+00   -5.432E+00
    -5.409E+00   -5.387E+00   -5.364E+00   -5.341E+00   -5.318E+00   -5.295E+00   -5.273E+00   -5.250E+00   -5.227E+00   -5.204E+00
    -5.181E+00   -5.158E+00   -5.136E+00   -5.113E+00   -5.090E+00   -5.067E+00   -5.044E+00   -5.022E+00   -4.999E+00   -4.976E+00
    -4.953E+00   -4.930E+00   -4.907E+00   -4.885E+00   -4.862E+00   -4.839E+00   -4.816E+00   -4.793E+00   -4.771E+00   -4.748E+00
    -4.725E+00   -4.702E+00   -4.679E+00   -4.656E+00   -4.634E+00   -4.611E+00   -4.588E+00   -4.565E+00   -4.542E+00   -4.520E+00
    -4.497E+00   -4.474E+00   -4.451E+00   -4.428E+00   -4.405E+00   -4.383E+00   -4.360E+00   -4.337E+00   -4.314E+00   -4.291E+00
    -4.269E+00   -4.246E+00   -4.223E+00   -4.200E+00   -4.177E+00   -4.155E+00   -4.132E+00   -4.109E+00   -4.086E+00   -4.064E+00
    -4.041E+00   -4.018E+00   -3.995E+00   -3.972E+00   -3.950E+00   -3.927E+00   -3.904E+00   -3.881E+00   -3.859E+00   -3.836E+00
    -3.813E+00   -3.790E+00   -3.768E+00   -3.745E+00   -3.722E+00   -3.700E+00   -3.677E+00   -3.654E+00   -3.631E+00   -3.609E+00
    -3.586E+00   -3.563E+00   -3.541E+00   -3.518E+00   -3.495E+00   -3.472E+00   -3.450E+00   -3.427E+00   -3.404E+00   -3.382E+00
    -3.359E+00   -3.336E+00   -3.314E+00   -3.291E+00   -3.268E+00   -3.246E+00   -3.223E+00   -3.201E+00   -3.178E+00   -3.155E+00
    -3.133E+00   -3.110E+00   -3.087E+00   -3.065E+00   -3.042E+00   -3.020E+00   -2.997E+00   -2.975E+00   -2.952E+00   -2.929E+00
    -2.907E+00   -2.884E+00   -2.862E+00   -2.839E+00   -2.817E+00   -2.794E+00   -2.772E+00   -2.749E+00   -2.727E+00   -2.704E+00
    -2.682E+00   -2.659E+00   -2.637E+00   -2.614E+00   -2.592E+00   -2.569E+00   -2.547E+00   -2.524E+00   -2.502E+00   -2.479E+00
    -2.457E+00   -2.435E+00   -2.412E+00   -2.390E+00   -2.367E+00   -2.345E+00   -2.323E+00   -2.300E+00   -2.278E+00   -2.255E+00
    -2.233E+00   -2.211E+00   -2.188E+00   -2.166E+00   -2.144E+00   -2.121E+00   -2.099E+00   -2.077E+00   -2.055E+00   -2.032E+00
    -2.010E+00   -1.988E+00   -1.965E+00   -1.943E+00   -1.921E+00   -1.899E+00   -1.877E+00   -1.854E+00   -1.832E+00   -1.810E+00
    -1.788E+00   -1.766E+00   -1.743E+00   -1.721E+00   -1.699E+00   -1.677E+00   -1.655E+00   -1.633E+00   -1.611E+00   -1.589E+00
    -1.567E+00   -1.544E+00   -1.522E+00   -1.500E+00   -1.478E+00   -1.456E+00   -1.434E+00   -1.412E+00   -1.390E+00   -1.368E+00
    -1.346E+00   -1.324E+00   -1.302E+00   -1.280E+00   -1.258E+00   -1.237E+00   -1.215E+00   -1.193E+00   -1.171E+00   -1.149E+00
    -1.127E+00   -1.105E+00   -1.083E+00   -1.062E+00   -1.040E+00   -1.018E+00   -9.961E-01   -9.743E-01   -9.525E-01   -9.307E-01
    -9.090E-01   -8.872E-01   -8.655E-01   -8.438E-01   -8.220E-01   -8.003E-01   -7.787E-01   -7.570E-01   -7.353E-01   -7.137E-01
    -6.920E-01   -6.704E-01   -6.488E-01   -6.272E-01   -6.056E-01   -5.840E-01   -5.625E-01   -5.409E-01   -5.194E-01   -4.979E-01
    -4.764E-01   -4.549E-01   -4.334E-01   -4.119E-01   -3.904E-01   -3.690E-01   -3.476E-01   -3.261E-01   -3.047E-01   -2.833E-01
    -2.620E-01   -2.406E-01   -2.192E-01   -1.979E-01   -1.766E-01   -1.552E-01   -1.339E-01   -1.127E-01   -9.138E-02   -7.012E-02
    -4.887E-02   -2.763E-02   -6.414E-03    1.479E-02    3.598E-02    5.716E-02    7.833E-02    9.948E-02
 Cr       Conc. = 1.24E+03
