 LCModel (Version 6.3-1L) Copyright: S.W. Provencher.          Ref.: Magn. Reson. Med. 30:672-679 (1993).                
 Slice#3 Row#7 Col#2  PD_24_press_2_raw_act
 36 lines in following concentration table = NCONC+1
    Conc.  %SD /Cr+PCr  Metabolite                                         
    0.000 999%   0.000 Ala                                                 
    0.000 999%   0.000 Asp                                                 
  746.927  56%   0.270 Cr                                                  
 2.02E+03  21%   0.730 PCr                                                 
   71.579 429% 2.6E-02 GABA                                                
  517.363  56%   0.187 Glc                                                 
  756.836  62%   0.274 Gln                                                 
 2.33E+03  24%   0.844 Glu                                                 
 1.23E+03   4%   0.445 GPC                                                 
    0.000 999%   0.000 PCh                                                 
 1.07E+03  13%   0.385 GSH                                                 
 3.78E+03  15%   1.366 Ins                                                 
    0.000 999%   0.000 Lac                                                 
 4.04E+03   3%   1.459 NAA                                                 
    0.000 999%   0.000 NAAG                                                
  443.153  12%   0.160 Scyllo                                              
  432.105  99%   0.156 Tau                                                 
  508.288  41%   0.184 -CrCH2                                              
 1.23E+03   4%   0.445 GPC+PCh                                             
 4.04E+03   3%   1.459 NAA+NAAG                                            
 2.77E+03   4%   1.000 Cr+PCr                                              
 3.09E+03  27%   1.118 Glu+Gln                                             
    0.000 999%   0.000 Lip13a                                              
  178.110  83% 6.4E-02 Lip13b                                              
   44.793 118% 1.6E-02 Lip09                                               
  298.407  78%   0.108 MM09                                                
   26.663 124% 9.6E-03 Lip20                                               
  458.275  78%   0.166 MM20                                                
   89.815  82% 3.2E-02 MM12                                                
  234.282  85% 8.5E-02 MM14                                                
   96.700 115% 3.5E-02 MM17                                                
  178.110  83% 6.4E-02 Lip13a+Lip13b                                       
  502.206  60%   0.182 MM14+Lip13a+Lip13b+MM12                             
  343.201  69%   0.124 MM09+Lip09                                          
  484.938  74%   0.175 MM20+Lip20                                          
   6 lines in following misc. output table
  FWHM = 0.061 ppm    S/N =  10                                            
  Data shift = 0.015 ppm                                                   
  Ph: -61 deg     -26.2 deg/ppm                                            
  alphaB,S = 6.6E-01,   1.0E+02                                            
   14 spline knots.   Ns = 8(1)                                            
  (16) 5 infls.   (11) 1 extrs.                                            
  498 points on ppm-axis = NY
      4.000000     3.992357     3.984714     3.977070     3.969427     3.961784     3.954141     3.946497     3.938854     3.931211
      3.923568     3.915925     3.908281     3.900638     3.892995     3.885352     3.877708     3.870065     3.862422     3.854779
      3.847136     3.839492     3.831849     3.824206     3.816563     3.808919     3.801276     3.793633     3.785990     3.778347
      3.770703     3.763060     3.755417     3.747774     3.740130     3.732487     3.724844     3.717201     3.709558     3.701914
      3.694271     3.686628     3.678985     3.671341     3.663698     3.656055     3.648412     3.640769     3.633125     3.625482
      3.617839     3.610196     3.602552     3.594909     3.587266     3.579623     3.571980     3.564336     3.556693     3.549050
      3.541407     3.533763     3.526120     3.518477     3.510834     3.503191     3.495547     3.487904     3.480261     3.472618
      3.464974     3.457331     3.449688     3.442045     3.434402     3.426758     3.419115     3.411472     3.403829     3.396185
      3.388542     3.380899     3.373256     3.365613     3.357969     3.350326     3.342683     3.335040     3.327396     3.319753
      3.312110     3.304467     3.296824     3.289180     3.281537     3.273894     3.266251     3.258607     3.250964     3.243321
      3.235678     3.228034     3.220391     3.212748     3.205105     3.197462     3.189818     3.182175     3.174532     3.166889
      3.159245     3.151602     3.143959     3.136316     3.128673     3.121029     3.113386     3.105743     3.098100     3.090456
      3.082813     3.075170     3.067527     3.059884     3.052240     3.044597     3.036954     3.029311     3.021667     3.014024
      3.006381     2.998738     2.991095     2.983451     2.975808     2.968165     2.960522     2.952878     2.945235     2.937592
      2.929949     2.922306     2.914662     2.907019     2.899376     2.891733     2.884089     2.876446     2.868803     2.861160
      2.853517     2.845873     2.838230     2.830587     2.822944     2.815300     2.807657     2.800014     2.792371     2.784728
      2.777084     2.769441     2.761798     2.754155     2.746511     2.738868     2.731225     2.723582     2.715939     2.708295
      2.700652     2.693009     2.685366     2.677722     2.670079     2.662436     2.654793     2.647150     2.639506     2.631863
      2.624220     2.616577     2.608933     2.601290     2.593647     2.586004     2.578361     2.570717     2.563074     2.555431
      2.547788     2.540144     2.532501     2.524858     2.517215     2.509572     2.501928     2.494285     2.486642     2.478999
      2.471355     2.463712     2.456069     2.448426     2.440783     2.433139     2.425496     2.417853     2.410210     2.402566
      2.394923     2.387280     2.379637     2.371994     2.364350     2.356707     2.349064     2.341421     2.333777     2.326134
      2.318491     2.310848     2.303205     2.295561     2.287918     2.280275     2.272632     2.264988     2.257345     2.249702
      2.242059     2.234416     2.226772     2.219129     2.211486     2.203843     2.196199     2.188556     2.180913     2.173270
      2.165627     2.157983     2.150340     2.142697     2.135054     2.127410     2.119767     2.112124     2.104481     2.096838
      2.089194     2.081551     2.073908     2.066265     2.058621     2.050978     2.043335     2.035692     2.028049     2.020405
      2.012762     2.005119     1.997476     1.989833     1.982190     1.974546     1.966903     1.959260     1.951617     1.943974
      1.936331     1.928688     1.921045     1.913402     1.905759     1.898115     1.890472     1.882829     1.875186     1.867543
      1.859900     1.852257     1.844614     1.836971     1.829327     1.821684     1.814041     1.806398     1.798755     1.791112
      1.783469     1.775826     1.768183     1.760540     1.752896     1.745253     1.737610     1.729967     1.722324     1.714681
      1.707038     1.699395     1.691752     1.684108     1.676465     1.668822     1.661179     1.653536     1.645893     1.638250
      1.630607     1.622964     1.615321     1.607677     1.600034     1.592391     1.584748     1.577105     1.569462     1.561819
      1.554176     1.546533     1.538890     1.531246     1.523603     1.515960     1.508317     1.500674     1.493031     1.485388
      1.477745     1.470102     1.462458     1.454815     1.447172     1.439529     1.431886     1.424243     1.416600     1.408957
      1.401314     1.393671     1.386027     1.378384     1.370741     1.363098     1.355455     1.347812     1.340169     1.332526
      1.324883     1.317240     1.309596     1.301953     1.294310     1.286667     1.279024     1.271381     1.263738     1.256095
      1.248452     1.240808     1.233165     1.225522     1.217879     1.210236     1.202593     1.194950     1.187307     1.179664
      1.172021     1.164377     1.156734     1.149091     1.141448     1.133805     1.126162     1.118519     1.110876     1.103233
      1.095590     1.087946     1.080303     1.072660     1.065017     1.057374     1.049731     1.042088     1.034445     1.026802
      1.019158     1.011515     1.003872     0.996229     0.988586     0.980943     0.973300     0.965657     0.958014     0.950371
      0.942727     0.935084     0.927441     0.919798     0.912155     0.904512     0.896869     0.889226     0.881583     0.873940
      0.866296     0.858653     0.851010     0.843367     0.835724     0.828081     0.820438     0.812795     0.805152     0.797508
      0.789865     0.782222     0.774579     0.766936     0.759293     0.751650     0.744007     0.736364     0.728721     0.721077
      0.713434     0.705791     0.698148     0.690505     0.682862     0.675219     0.667576     0.659933     0.652290     0.644646
      0.637003     0.629360     0.621717     0.614074     0.606431     0.598788     0.591145     0.583502     0.575858     0.568215
      0.560572     0.552929     0.545286     0.537643     0.530000     0.522357     0.514714     0.507071     0.499427     0.491784
      0.484141     0.476498     0.468855     0.461212     0.453569     0.445925     0.438282     0.430639     0.422996     0.415353
      0.407710     0.400067     0.392424     0.384780     0.377137     0.369494     0.361851     0.354208     0.346565     0.338922
      0.331278     0.323635     0.315992     0.308349     0.300706     0.293063     0.285420     0.277777     0.270133     0.262490
      0.254847     0.247204     0.239561     0.231918     0.224275     0.216631     0.208988     0.201345
 NY phased data points follow
  -2.65663E+02 -2.58008E+02 -2.48998E+02 -2.52419E+02 -2.35769E+02 -2.30483E+02 -2.14207E+02 -2.07184E+02 -2.00148E+02 -1.88356E+02
  -1.83101E+02 -1.90927E+02 -1.91302E+02 -1.91598E+02 -1.95772E+02 -2.09067E+02 -2.12390E+02 -2.21361E+02 -2.10773E+02 -2.17246E+02
  -2.13778E+02 -2.12733E+02 -2.04740E+02 -2.08913E+02 -1.93650E+02 -1.95306E+02 -1.88263E+02 -1.88751E+02 -1.80181E+02 -1.86160E+02
  -1.77399E+02 -1.73561E+02 -1.68023E+02 -1.71873E+02 -1.71692E+02 -1.71713E+02 -1.69799E+02 -1.76179E+02 -1.67754E+02 -1.64849E+02
  -1.59943E+02 -1.68673E+02 -1.59375E+02 -1.55858E+02 -1.55969E+02 -1.52391E+02 -1.49276E+02 -1.44688E+02 -1.42900E+02 -1.45708E+02
  -1.47014E+02 -1.52160E+02 -1.48935E+02 -1.49071E+02 -1.44495E+02 -1.48105E+02 -1.43098E+02 -1.39264E+02 -1.44390E+02 -1.42895E+02
  -1.43659E+02 -1.41651E+02 -1.40308E+02 -1.42234E+02 -1.45322E+02 -1.48249E+02 -1.43259E+02 -1.46355E+02 -1.38162E+02 -1.32698E+02
  -1.32818E+02 -1.27678E+02 -1.23651E+02 -1.24927E+02 -1.20141E+02 -1.27843E+02 -1.22640E+02 -1.20774E+02 -1.23344E+02 -1.14359E+02
  -1.09069E+02 -1.11997E+02 -1.09348E+02 -1.08718E+02 -1.11947E+02 -1.09481E+02 -1.06480E+02 -1.01472E+02 -9.27865E+01 -9.40146E+01
  -1.02533E+02 -9.73538E+01 -9.84075E+01 -9.43354E+01 -8.50328E+01 -8.93676E+01 -7.36857E+01 -7.24161E+01 -6.20764E+01 -5.68319E+01
  -3.69065E+01 -3.49557E+01 -1.24676E+01 -8.31399E+00 -1.43226E+01 -1.19471E+01 -2.57944E+01 -4.86718E+01 -6.08247E+01 -7.15973E+01
  -7.13567E+01 -7.42151E+01 -7.93872E+01 -8.64635E+01 -8.01171E+01 -8.76549E+01 -7.85744E+01 -8.56726E+01 -8.61728E+01 -7.90273E+01
  -6.75189E+01 -6.66398E+01 -5.98146E+01 -5.31176E+01 -3.45836E+01 -1.38230E+01 -5.75146E+00 -7.25678E+00 -3.32700E+00 -1.03256E+01
  -1.62496E+01 -3.69552E+01 -4.69141E+01 -5.16930E+01 -6.06612E+01 -6.88164E+01 -6.71904E+01 -7.00491E+01 -6.74568E+01 -6.72029E+01
  -7.00140E+01 -7.37826E+01 -6.95750E+01 -6.92313E+01 -6.94443E+01 -7.35794E+01 -6.99494E+01 -7.42353E+01 -7.07350E+01 -7.42647E+01
  -6.77277E+01 -6.65904E+01 -6.86786E+01 -6.53083E+01 -6.07107E+01 -6.35279E+01 -5.96324E+01 -6.68484E+01 -6.63792E+01 -7.08524E+01
  -6.19043E+01 -6.25382E+01 -6.71865E+01 -5.81512E+01 -5.43469E+01 -4.62047E+01 -5.49075E+01 -5.84195E+01 -4.64261E+01 -5.32395E+01
  -6.30360E+01 -5.22252E+01 -5.95136E+01 -6.38609E+01 -6.82549E+01 -6.19546E+01 -6.63370E+01 -6.62958E+01 -6.17069E+01 -6.29240E+01
  -6.25622E+01 -6.51152E+01 -5.47132E+01 -5.88590E+01 -6.06502E+01 -5.63166E+01 -5.79707E+01 -4.95800E+01 -5.05488E+01 -4.01075E+01
  -3.85160E+01 -2.61643E+01 -2.98020E+01 -2.33694E+01 -2.83115E+01 -2.59544E+01 -3.01478E+01 -3.17128E+01 -3.45463E+01 -3.52950E+01
  -3.34988E+01 -3.29992E+01 -3.03874E+01 -3.05153E+01 -3.26171E+01 -2.69556E+01 -3.44138E+01 -3.75238E+01 -3.82125E+01 -3.38782E+01
  -3.12194E+01 -2.41398E+01 -3.55121E+01 -2.00064E+01 -1.94012E+01 -1.67091E+01 -1.77063E+01 -2.16576E+01 -1.87447E+01 -2.11955E+01
  -2.10359E+01 -2.14128E+01 -2.90556E+01 -2.43513E+01 -2.46885E+01 -3.21789E+01 -1.66882E+01 -1.34978E+01 -1.29283E+01 -2.00266E+01
  -1.29508E+01 -6.55731E+00 -2.06445E+01 -1.51389E+01 -1.18324E+01 -6.68358E+00 -4.15589E+00 -9.63084E+00 -1.34293E+01 -1.48150E+01
  -1.14687E+01 -1.64146E+01 -1.45387E+01 -1.73027E+01 -1.40978E+01 -1.19140E+01 -5.94809E+00 -9.61237E+00  1.36160E+00 -9.79880E+00
  -8.60251E-01  1.28214E+00  5.83779E+00  1.74785E+01  1.93825E+01  2.90783E+01  4.80276E+01  6.16968E+01  8.20221E+01  1.04713E+02
   9.91868E+01  9.88090E+01  9.78990E+01  8.73651E+01  6.56978E+01  4.26953E+01  3.35949E+01  3.05983E+01  1.51632E+01  1.75236E+01
   1.04006E+01  3.52575E+00  4.98899E+00 -6.40202E-01 -1.89404E+00 -4.83983E+00 -1.80935E+00  9.04401E+00  3.88884E+00  9.08217E-01
   3.15736E+00  6.07303E+00 -2.93555E+00  3.91667E+00 -3.01962E+00 -4.11592E+00  2.59267E-01  8.81227E+00  1.12969E+00 -1.24759E+00
   3.23301E+00 -3.43273E+00  2.54053E+00  2.34390E+00 -2.71537E+00  6.16078E+00  5.46578E+00  5.38705E+00  5.38469E+00  1.05156E+01
   3.82807E+00  3.89606E+00  2.84708E+00  1.39497E+01  4.43928E+00  1.19466E+01  9.27163E+00  1.09858E+01  5.68108E+00 -5.44881E+00
   8.24201E-01  1.05781E+00  3.52092E+00  4.31005E+00  4.61156E+00  1.93954E+00  5.23558E+00  3.35939E+00  4.19753E+00  4.69183E+00
   6.99041E+00  6.50841E+00  1.48146E+01  1.32758E+01  6.00084E+00  1.47026E+01  8.45242E+00  1.13599E+01  1.40730E+01  1.35111E+01
   9.42220E+00  1.46923E+01  8.23894E+00  9.62668E+00  1.20199E+01  1.54542E+01  1.85177E+01  1.24010E+01  1.15147E+01  1.45624E+01
   1.21701E+01  1.53315E+01  9.86298E+00  8.22058E+00  1.49479E+01  7.95220E+00  9.57635E+00  1.67575E+01  2.06888E+01  1.75381E+01
   9.51578E+00  2.31647E+01  1.62238E+01  1.36703E+01  1.91812E+01  1.88626E+01  1.62364E+01  1.79084E+01  1.38355E+01  1.35465E+01
   1.83673E+01  1.64490E+01  1.09080E+01  1.33660E+01  1.01046E+01  1.52682E+01  8.96415E+00  1.30555E+01  1.81172E+01  1.74674E+01
   1.27038E+01  1.22096E+01  1.41112E+01  2.17389E+01  2.48666E+01  1.81743E+01  2.10906E+01  2.22731E+01  1.93023E+01  2.37232E+01
   1.80534E+01  2.07425E+01  1.34584E+01  1.44468E+01  2.14993E+01  2.02909E+01  1.56289E+01  1.42934E+01  2.19092E+01  1.99596E+01
   1.82158E+01  1.34568E+01  1.93507E+01  1.64323E+01  1.03446E+01  1.89200E+01  1.15664E+01  2.05411E+01  2.21429E+01  2.19723E+01
   2.21625E+01  1.76023E+01  2.02293E+01  2.17698E+01  2.13043E+01  1.84204E+01  2.33583E+01  1.99526E+01  2.26228E+01  2.32195E+01
   2.33331E+01  2.12371E+01  2.05868E+01  1.51904E+01  2.08835E+01  2.10639E+01  1.15234E+01  1.73276E+01  1.88656E+01  1.96423E+01
   2.09123E+01  1.54928E+01  2.45406E+01  2.43277E+01  1.41505E+01  1.98598E+01  2.26010E+01  2.09772E+01  1.43925E+01  1.80662E+01
   1.95173E+01  1.66911E+01  2.14129E+01  2.21412E+01  1.75323E+01  2.28927E+01  9.34264E+00  2.38906E+01  1.69965E+01  2.14020E+01
   1.74801E+01  2.18549E+01  2.50384E+01  2.01270E+01  2.10533E+01  2.25213E+01  2.22354E+01  1.98835E+01  2.61912E+01  2.06011E+01
   1.90380E+01  2.46460E+01  1.95182E+01  1.90382E+01  2.10536E+01  2.32992E+01  2.52654E+01  2.54205E+01  2.42728E+01  2.42019E+01
   2.31304E+01  2.25126E+01  2.32254E+01  2.59613E+01  3.08738E+01  2.68731E+01  2.23520E+01  2.49836E+01  2.76149E+01  2.61704E+01
   2.31533E+01  2.43134E+01  2.08307E+01  2.48773E+01  2.88441E+01  3.53676E+01  1.99779E+01  2.02553E+01  2.19013E+01  2.13370E+01
   2.17063E+01  2.04512E+01  2.46322E+01  2.34490E+01  2.40328E+01  2.63303E+01  1.57075E+01  2.54385E+01  2.42706E+01  3.08092E+01
   2.78307E+01  2.24858E+01  2.91084E+01  1.74895E+01  2.02492E+01  2.06509E+01  2.41870E+01  2.31591E+01
 NY points of the fit to the data follow
  -2.50104E+02 -2.47951E+02 -2.43075E+02 -2.37493E+02 -2.32123E+02 -2.25904E+02 -2.18057E+02 -2.09020E+02 -2.00444E+02 -1.93950E+02
  -1.90066E+02 -1.88664E+02 -1.90006E+02 -1.94131E+02 -1.99521E+02 -2.03897E+02 -2.06423E+02 -2.07815E+02 -2.09525E+02 -2.11115E+02
  -2.11461E+02 -2.10762E+02 -2.08406E+02 -2.05104E+02 -2.02040E+02 -1.98913E+02 -1.94935E+02 -1.89694E+02 -1.83863E+02 -1.78465E+02
  -1.74214E+02 -1.71202E+02 -1.69392E+02 -1.69324E+02 -1.71017E+02 -1.73188E+02 -1.74882E+02 -1.75750E+02 -1.75491E+02 -1.74324E+02
  -1.72232E+02 -1.69380E+02 -1.65567E+02 -1.60513E+02 -1.54981E+02 -1.50281E+02 -1.47389E+02 -1.45954E+02 -1.45713E+02 -1.47129E+02
  -1.49859E+02 -1.52469E+02 -1.53597E+02 -1.52972E+02 -1.51810E+02 -1.50953E+02 -1.49707E+02 -1.47503E+02 -1.44999E+02 -1.43031E+02
  -1.41715E+02 -1.40973E+02 -1.40741E+02 -1.40599E+02 -1.40186E+02 -1.39214E+02 -1.37620E+02 -1.35594E+02 -1.33282E+02 -1.30984E+02
  -1.28987E+02 -1.27153E+02 -1.25428E+02 -1.23837E+02 -1.22544E+02 -1.21689E+02 -1.21067E+02 -1.20488E+02 -1.19949E+02 -1.18617E+02
  -1.16711E+02 -1.15044E+02 -1.13319E+02 -1.10950E+02 -1.07830E+02 -1.04452E+02 -1.01686E+02 -9.99038E+01 -9.88125E+01 -9.84447E+01
  -9.91630E+01 -1.00791E+02 -1.02249E+02 -1.02284E+02 -9.92145E+01 -9.14015E+01 -8.34777E+01 -7.64693E+01 -6.72292E+01 -5.41172E+01
  -3.80663E+01 -2.29956E+01 -1.28163E+01 -8.48144E+00 -9.42849E+00 -1.62966E+01 -2.95430E+01 -4.57874E+01 -5.92158E+01 -6.74927E+01
  -7.30994E+01 -7.93984E+01 -8.62933E+01 -8.94164E+01 -8.98877E+01 -8.96303E+01 -8.90752E+01 -8.81368E+01 -8.57008E+01 -7.90667E+01
  -7.07827E+01 -6.39297E+01 -5.65556E+01 -4.61648E+01 -3.28586E+01 -1.95265E+01 -9.72732E+00 -5.04722E+00 -4.93804E+00 -9.45883E+00
  -1.94327E+01 -3.27854E+01 -4.46127E+01 -5.23307E+01 -5.74228E+01 -6.29143E+01 -6.96202E+01 -7.34698E+01 -7.38819E+01 -7.29196E+01
  -7.12922E+01 -6.95822E+01 -6.82458E+01 -6.73680E+01 -6.67291E+01 -6.63254E+01 -6.61028E+01 -6.58878E+01 -6.56678E+01 -6.54839E+01
  -6.52945E+01 -6.51305E+01 -6.48547E+01 -6.46286E+01 -6.43927E+01 -6.39899E+01 -6.34636E+01 -6.28928E+01 -6.25024E+01 -6.23316E+01
  -6.21111E+01 -6.16723E+01 -6.10616E+01 -6.04035E+01 -5.97589E+01 -5.91771E+01 -5.87848E+01 -5.87561E+01 -5.91393E+01 -5.95890E+01
  -5.95474E+01 -5.92374E+01 -5.90900E+01 -5.92668E+01 -5.94879E+01 -5.92152E+01 -5.85179E+01 -5.78330E+01 -5.72824E+01 -5.67439E+01
  -5.60029E+01 -5.50803E+01 -5.42341E+01 -5.33721E+01 -5.21373E+01 -5.03909E+01 -4.83925E+01 -4.63257E+01 -4.40295E+01 -4.15127E+01
  -3.91920E+01 -3.74116E+01 -3.63431E+01 -3.59782E+01 -3.61095E+01 -3.63766E+01 -3.62710E+01 -3.56799E+01 -3.46850E+01 -3.33530E+01
  -3.18221E+01 -3.00541E+01 -2.84395E+01 -2.72924E+01 -2.68643E+01 -2.72990E+01 -2.82894E+01 -2.93374E+01 -3.02156E+01 -3.05694E+01
  -3.05525E+01 -2.99108E+01 -2.83075E+01 -2.59055E+01 -2.34318E+01 -2.18336E+01 -2.11278E+01 -2.09231E+01 -2.16261E+01 -2.35421E+01
  -2.62870E+01 -2.84454E+01 -2.89253E+01 -2.81181E+01 -2.67347E+01 -2.47700E+01 -2.20485E+01 -1.90512E+01 -1.69874E+01 -1.58377E+01
  -1.49360E+01 -1.40002E+01 -1.31381E+01 -1.25320E+01 -1.19323E+01 -1.11388E+01 -1.04957E+01 -1.03255E+01 -1.05469E+01 -1.11253E+01
  -1.19663E+01 -1.28747E+01 -1.35194E+01 -1.34056E+01 -1.24925E+01 -1.10952E+01 -9.53856E+00 -7.92256E+00 -6.40457E+00 -5.23124E+00
  -4.14914E+00 -2.07259E+00  4.57776E+00  1.60747E+01  2.61933E+01  3.52219E+01  4.71699E+01  6.33859E+01  8.11066E+01  9.53485E+01
   1.02886E+02  1.03938E+02  9.89152E+01  8.64352E+01  6.72998E+01  4.75831E+01  3.34312E+01  2.49318E+01  1.79076E+01  9.16120E+00
   1.70371E+00 -5.35847E-01 -8.99339E-01 -8.43770E-01 -5.95899E-01 -2.04562E-01  1.51674E-01  4.19585E-01  5.95684E-01  7.04848E-01
   8.02350E-01  9.29438E-01  1.06841E+00  1.20385E+00  1.36628E+00  1.57092E+00  1.79618E+00  2.02461E+00  2.25119E+00  2.47870E+00
   2.71197E+00  2.93854E+00  3.16002E+00  3.38124E+00  3.60016E+00  3.81751E+00  4.03715E+00  4.25829E+00  4.47871E+00  4.69564E+00
   4.91072E+00  5.12387E+00  5.33320E+00  5.53776E+00  5.73719E+00  5.93154E+00  6.12103E+00  6.30527E+00  6.48509E+00  6.66176E+00
   6.83708E+00  7.01167E+00  7.18601E+00  7.36044E+00  7.53674E+00  7.71548E+00  7.89756E+00  8.08318E+00  8.27281E+00  8.46628E+00
   8.66371E+00  8.86475E+00  9.06934E+00  9.27681E+00  9.48666E+00  9.69783E+00  9.90968E+00  1.01211E+01  1.03314E+01  1.05394E+01
   1.07442E+01  1.09446E+01  1.11400E+01  1.13296E+01  1.15130E+01  1.16895E+01  1.18594E+01  1.20226E+01  1.21801E+01  1.23333E+01
   1.24847E+01  1.26377E+01  1.27971E+01  1.29691E+01  1.31617E+01  1.33829E+01  1.36405E+01  1.39399E+01  1.42825E+01  1.46633E+01
   1.50700E+01  1.54827E+01  1.58759E+01  1.62210E+01  1.64919E+01  1.66688E+01  1.67427E+01  1.67165E+01  1.66052E+01  1.64325E+01
   1.62268E+01  1.60162E+01  1.58247E+01  1.56688E+01  1.55575E+01  1.54926E+01  1.54705E+01  1.54843E+01  1.55260E+01  1.55877E+01
   1.56629E+01  1.57465E+01  1.58352E+01  1.59270E+01  1.60209E+01  1.61165E+01  1.62140E+01  1.63137E+01  1.64166E+01  1.65231E+01
   1.66342E+01  1.67504E+01  1.68726E+01  1.70015E+01  1.71379E+01  1.72822E+01  1.74351E+01  1.75967E+01  1.77671E+01  1.79462E+01
   1.81335E+01  1.83280E+01  1.85286E+01  1.87333E+01  1.89404E+01  1.91471E+01  1.93510E+01  1.95488E+01  1.97375E+01  1.99139E+01
   2.00751E+01  2.02186E+01  2.03423E+01  2.04442E+01  2.05238E+01  2.05806E+01  2.06153E+01  2.06291E+01  2.06240E+01  2.06021E+01
   2.05664E+01  2.05198E+01  2.04658E+01  2.04074E+01  2.03476E+01  2.02892E+01  2.02346E+01  2.01859E+01  2.01447E+01  2.01121E+01
   2.00889E+01  2.00753E+01  2.00715E+01  2.00772E+01  2.00921E+01  2.01154E+01  2.01467E+01  2.01850E+01  2.02297E+01  2.02801E+01
   2.03355E+01  2.03951E+01  2.04584E+01  2.05247E+01  2.05939E+01  2.06652E+01  2.07385E+01  2.08132E+01  2.08892E+01  2.09662E+01
   2.10441E+01  2.11226E+01  2.12016E+01  2.12807E+01  2.13602E+01  2.14396E+01  2.15191E+01  2.15984E+01  2.16776E+01  2.17563E+01
   2.18348E+01  2.19128E+01  2.19904E+01  2.20675E+01  2.21440E+01  2.22198E+01  2.22952E+01  2.23699E+01  2.24441E+01  2.25175E+01
   2.25904E+01  2.26625E+01  2.27341E+01  2.28051E+01  2.28754E+01  2.29449E+01  2.30138E+01  2.30820E+01  2.31497E+01  2.32166E+01
   2.32829E+01  2.33484E+01  2.34133E+01  2.34775E+01  2.35411E+01  2.36040E+01  2.36662E+01  2.37278E+01  2.37887E+01  2.38490E+01
   2.39087E+01  2.39677E+01  2.40261E+01  2.40838E+01  2.41410E+01  2.41976E+01  2.42536E+01  2.43090E+01  2.43639E+01  2.44182E+01
   2.44721E+01  2.45254E+01  2.45784E+01  2.46309E+01  2.46830E+01  2.47347E+01  2.47863E+01  2.48376E+01
 NY background values follow
    -2.602E+02   -2.583E+02   -2.565E+02   -2.546E+02   -2.528E+02   -2.509E+02   -2.491E+02   -2.472E+02   -2.453E+02   -2.435E+02
    -2.416E+02   -2.398E+02   -2.380E+02   -2.361E+02   -2.343E+02   -2.324E+02   -2.306E+02   -2.288E+02   -2.269E+02   -2.251E+02
    -2.233E+02   -2.215E+02   -2.197E+02   -2.179E+02   -2.161E+02   -2.143E+02   -2.125E+02   -2.107E+02   -2.089E+02   -2.072E+02
    -2.054E+02   -2.036E+02   -2.019E+02   -2.001E+02   -1.984E+02   -1.967E+02   -1.950E+02   -1.932E+02   -1.915E+02   -1.898E+02
    -1.882E+02   -1.865E+02   -1.848E+02   -1.832E+02   -1.815E+02   -1.799E+02   -1.782E+02   -1.766E+02   -1.750E+02   -1.734E+02
    -1.718E+02   -1.702E+02   -1.687E+02   -1.671E+02   -1.656E+02   -1.640E+02   -1.625E+02   -1.610E+02   -1.595E+02   -1.580E+02
    -1.565E+02   -1.551E+02   -1.536E+02   -1.521E+02   -1.507E+02   -1.493E+02   -1.479E+02   -1.465E+02   -1.451E+02   -1.437E+02
    -1.423E+02   -1.410E+02   -1.396E+02   -1.383E+02   -1.370E+02   -1.357E+02   -1.344E+02   -1.331E+02   -1.318E+02   -1.306E+02
    -1.293E+02   -1.281E+02   -1.268E+02   -1.256E+02   -1.244E+02   -1.232E+02   -1.221E+02   -1.209E+02   -1.197E+02   -1.186E+02
    -1.175E+02   -1.164E+02   -1.153E+02   -1.142E+02   -1.131E+02   -1.120E+02   -1.110E+02   -1.100E+02   -1.089E+02   -1.079E+02
    -1.069E+02   -1.059E+02   -1.049E+02   -1.040E+02   -1.030E+02   -1.020E+02   -1.011E+02   -1.002E+02   -9.925E+01   -9.834E+01
    -9.744E+01   -9.654E+01   -9.566E+01   -9.478E+01   -9.392E+01   -9.306E+01   -9.221E+01   -9.137E+01   -9.054E+01   -8.971E+01
    -8.890E+01   -8.809E+01   -8.729E+01   -8.649E+01   -8.571E+01   -8.492E+01   -8.415E+01   -8.338E+01   -8.262E+01   -8.187E+01
    -8.112E+01   -8.038E+01   -7.964E+01   -7.891E+01   -7.818E+01   -7.746E+01   -7.675E+01   -7.603E+01   -7.533E+01   -7.463E+01
    -7.393E+01   -7.324E+01   -7.255E+01   -7.186E+01   -7.118E+01   -7.050E+01   -6.983E+01   -6.916E+01   -6.850E+01   -6.783E+01
    -6.717E+01   -6.652E+01   -6.586E+01   -6.521E+01   -6.457E+01   -6.392E+01   -6.328E+01   -6.264E+01   -6.200E+01   -6.136E+01
    -6.073E+01   -6.010E+01   -5.947E+01   -5.884E+01   -5.821E+01   -5.759E+01   -5.696E+01   -5.634E+01   -5.571E+01   -5.509E+01
    -5.447E+01   -5.385E+01   -5.323E+01   -5.261E+01   -5.199E+01   -5.137E+01   -5.076E+01   -5.014E+01   -4.952E+01   -4.890E+01
    -4.828E+01   -4.766E+01   -4.704E+01   -4.641E+01   -4.579E+01   -4.517E+01   -4.455E+01   -4.392E+01   -4.330E+01   -4.268E+01
    -4.206E+01   -4.143E+01   -4.081E+01   -4.019E+01   -3.957E+01   -3.896E+01   -3.834E+01   -3.772E+01   -3.711E+01   -3.650E+01
    -3.589E+01   -3.528E+01   -3.467E+01   -3.407E+01   -3.346E+01   -3.287E+01   -3.227E+01   -3.167E+01   -3.108E+01   -3.049E+01
    -2.991E+01   -2.932E+01   -2.874E+01   -2.817E+01   -2.760E+01   -2.703E+01   -2.646E+01   -2.590E+01   -2.535E+01   -2.479E+01
    -2.425E+01   -2.370E+01   -2.316E+01   -2.263E+01   -2.210E+01   -2.158E+01   -2.106E+01   -2.055E+01   -2.004E+01   -1.954E+01
    -1.904E+01   -1.855E+01   -1.806E+01   -1.758E+01   -1.710E+01   -1.663E+01   -1.616E+01   -1.570E+01   -1.525E+01   -1.480E+01
    -1.435E+01   -1.391E+01   -1.348E+01   -1.304E+01   -1.262E+01   -1.220E+01   -1.178E+01   -1.137E+01   -1.097E+01   -1.056E+01
    -1.017E+01   -9.778E+00   -9.391E+00   -9.010E+00   -8.633E+00   -8.261E+00   -7.894E+00   -7.531E+00   -7.173E+00   -6.820E+00
    -6.472E+00   -6.128E+00   -5.789E+00   -5.454E+00   -5.124E+00   -4.799E+00   -4.478E+00   -4.161E+00   -3.850E+00   -3.542E+00
    -3.239E+00   -2.941E+00   -2.647E+00   -2.358E+00   -2.072E+00   -1.791E+00   -1.514E+00   -1.241E+00   -9.717E-01   -7.064E-01
    -4.449E-01   -1.870E-01    6.724E-02    3.180E-01    5.654E-01    8.094E-01    1.050E+00    1.288E+00    1.522E+00    1.754E+00
     1.983E+00    2.208E+00    2.431E+00    2.652E+00    2.870E+00    3.085E+00    3.298E+00    3.509E+00    3.717E+00    3.924E+00
     4.128E+00    4.330E+00    4.531E+00    4.729E+00    4.926E+00    5.121E+00    5.315E+00    5.507E+00    5.698E+00    5.888E+00
     6.076E+00    6.264E+00    6.450E+00    6.635E+00    6.820E+00    7.003E+00    7.186E+00    7.368E+00    7.550E+00    7.731E+00
     7.912E+00    8.091E+00    8.270E+00    8.448E+00    8.626E+00    8.802E+00    8.977E+00    9.152E+00    9.325E+00    9.498E+00
     9.669E+00    9.840E+00    1.001E+01    1.018E+01    1.034E+01    1.051E+01    1.067E+01    1.084E+01    1.100E+01    1.116E+01
     1.132E+01    1.147E+01    1.163E+01    1.179E+01    1.194E+01    1.209E+01    1.224E+01    1.239E+01    1.253E+01    1.268E+01
     1.282E+01    1.296E+01    1.310E+01    1.324E+01    1.337E+01    1.350E+01    1.363E+01    1.376E+01    1.389E+01    1.401E+01
     1.414E+01    1.426E+01    1.437E+01    1.449E+01    1.460E+01    1.472E+01    1.483E+01    1.493E+01    1.504E+01    1.514E+01
     1.524E+01    1.534E+01    1.544E+01    1.554E+01    1.564E+01    1.573E+01    1.582E+01    1.591E+01    1.601E+01    1.609E+01
     1.618E+01    1.627E+01    1.636E+01    1.644E+01    1.652E+01    1.661E+01    1.669E+01    1.677E+01    1.685E+01    1.694E+01
     1.702E+01    1.710E+01    1.718E+01    1.726E+01    1.733E+01    1.741E+01    1.749E+01    1.757E+01    1.765E+01    1.773E+01
     1.781E+01    1.789E+01    1.797E+01    1.805E+01    1.813E+01    1.821E+01    1.830E+01    1.838E+01    1.846E+01    1.855E+01
     1.863E+01    1.872E+01    1.880E+01    1.889E+01    1.898E+01    1.906E+01    1.915E+01    1.924E+01    1.933E+01    1.942E+01
     1.951E+01    1.960E+01    1.969E+01    1.978E+01    1.987E+01    1.996E+01    2.005E+01    2.014E+01    2.023E+01    2.032E+01
     2.041E+01    2.050E+01    2.059E+01    2.068E+01    2.077E+01    2.086E+01    2.095E+01    2.103E+01    2.112E+01    2.121E+01
     2.130E+01    2.139E+01    2.147E+01    2.156E+01    2.165E+01    2.173E+01    2.182E+01    2.190E+01    2.199E+01    2.207E+01
     2.215E+01    2.223E+01    2.231E+01    2.240E+01    2.247E+01    2.255E+01    2.263E+01    2.271E+01    2.278E+01    2.286E+01
     2.293E+01    2.301E+01    2.308E+01    2.315E+01    2.322E+01    2.330E+01    2.336E+01    2.343E+01    2.350E+01    2.357E+01
     2.364E+01    2.370E+01    2.377E+01    2.383E+01    2.390E+01    2.396E+01    2.402E+01    2.408E+01    2.414E+01    2.420E+01
     2.426E+01    2.432E+01    2.438E+01    2.443E+01    2.449E+01    2.454E+01    2.460E+01    2.465E+01    2.470E+01    2.476E+01
     2.481E+01    2.486E+01    2.491E+01    2.496E+01    2.501E+01    2.505E+01    2.510E+01    2.514E+01
 Cr       Conc. = 7.47E+02
