 LCModel (Version 6.3-1L) Copyright: S.W. Provencher.          Ref.: Magn. Reson. Med. 30:672-679 (1993).                
 Slice#2 Row#9 Col#4  PD_24_press_2_raw_act
 36 lines in following concentration table = NCONC+1
    Conc.  %SD /Cr+PCr  Metabolite                                         
    0.000 999%   0.000 Ala                                                 
    0.000 999%   0.000 Asp                                                 
 1.11E+03  32%   0.326 Cr                                                  
 2.29E+03  16%   0.674 PCr                                                 
    0.000 999%   0.000 GABA                                                
    0.000 999%   0.000 Glc                                                 
  558.014  61%   0.164 Gln                                                 
 2.33E+03  16%   0.686 Glu                                                 
 1.04E+03   3%   0.305 GPC                                                 
    0.000 999%   0.000 PCh                                                 
  852.130  12%   0.251 GSH                                                 
 1.91E+03  21%   0.563 Ins                                                 
   40.775 445% 1.2E-02 Lac                                                 
 4.84E+03   5%   1.423 NAA                                                 
  737.622  33%   0.217 NAAG                                                
  224.447  19% 6.6E-02 Scyllo                                              
    0.000 999%   0.000 Tau                                                 
  142.429 121% 4.2E-02 -CrCH2                                              
 1.04E+03   3%   0.305 GPC+PCh                                             
 5.57E+03   2%   1.640 NAA+NAAG                                            
 3.40E+03   3%   1.000 Cr+PCr                                              
 2.89E+03  20%   0.851 Glu+Gln                                             
 2.03E+03  42%   0.596 Lip13a                                              
  140.434 256% 4.1E-02 Lip13b                                              
    0.000 999%   0.000 Lip09                                               
 2.92E+03  13%   0.859 MM09                                                
  225.702 128% 6.6E-02 Lip20                                               
 6.47E+03  10%   1.903 MM20                                                
  970.165  30%   0.285 MM12                                                
 1.98E+03  29%   0.582 MM14                                                
 2.15E+03  10%   0.633 MM17                                                
 2.17E+03  32%   0.638 Lip13a+Lip13b                                       
 5.12E+03  14%   1.505 MM14+Lip13a+Lip13b+MM12                             
 2.92E+03  13%   0.859 MM09+Lip09                                          
 6.69E+03  10%   1.969 MM20+Lip20                                          
   6 lines in following misc. output table
  FWHM = 0.061 ppm    S/N =  20                                            
  Data shift = 0.023 ppm                                                   
  Ph: -13 deg      -4.0 deg/ppm                                            
  alphaB,S = 4.7E-01,   1.4E+02                                            
   14 spline knots.   Ns = 8(1)                                            
  (12) 4 infls.   ( 7) 1 extrs.                                            
  498 points on ppm-axis = NY
      4.000000     3.992357     3.984714     3.977070     3.969427     3.961784     3.954141     3.946497     3.938854     3.931211
      3.923568     3.915925     3.908281     3.900638     3.892995     3.885352     3.877708     3.870065     3.862422     3.854779
      3.847136     3.839492     3.831849     3.824206     3.816563     3.808919     3.801276     3.793633     3.785990     3.778347
      3.770703     3.763060     3.755417     3.747774     3.740130     3.732487     3.724844     3.717201     3.709558     3.701914
      3.694271     3.686628     3.678985     3.671341     3.663698     3.656055     3.648412     3.640769     3.633125     3.625482
      3.617839     3.610196     3.602552     3.594909     3.587266     3.579623     3.571980     3.564336     3.556693     3.549050
      3.541407     3.533763     3.526120     3.518477     3.510834     3.503191     3.495547     3.487904     3.480261     3.472618
      3.464974     3.457331     3.449688     3.442045     3.434402     3.426758     3.419115     3.411472     3.403829     3.396185
      3.388542     3.380899     3.373256     3.365613     3.357969     3.350326     3.342683     3.335040     3.327396     3.319753
      3.312110     3.304467     3.296824     3.289180     3.281537     3.273894     3.266251     3.258607     3.250964     3.243321
      3.235678     3.228034     3.220391     3.212748     3.205105     3.197462     3.189818     3.182175     3.174532     3.166889
      3.159245     3.151602     3.143959     3.136316     3.128673     3.121029     3.113386     3.105743     3.098100     3.090456
      3.082813     3.075170     3.067527     3.059884     3.052240     3.044597     3.036954     3.029311     3.021667     3.014024
      3.006381     2.998738     2.991095     2.983451     2.975808     2.968165     2.960522     2.952878     2.945235     2.937592
      2.929949     2.922306     2.914662     2.907019     2.899376     2.891733     2.884089     2.876446     2.868803     2.861160
      2.853517     2.845873     2.838230     2.830587     2.822944     2.815300     2.807657     2.800014     2.792371     2.784728
      2.777084     2.769441     2.761798     2.754155     2.746511     2.738868     2.731225     2.723582     2.715939     2.708295
      2.700652     2.693009     2.685366     2.677722     2.670079     2.662436     2.654793     2.647150     2.639506     2.631863
      2.624220     2.616577     2.608933     2.601290     2.593647     2.586004     2.578361     2.570717     2.563074     2.555431
      2.547788     2.540144     2.532501     2.524858     2.517215     2.509572     2.501928     2.494285     2.486642     2.478999
      2.471355     2.463712     2.456069     2.448426     2.440783     2.433139     2.425496     2.417853     2.410210     2.402566
      2.394923     2.387280     2.379637     2.371994     2.364350     2.356707     2.349064     2.341421     2.333777     2.326134
      2.318491     2.310848     2.303205     2.295561     2.287918     2.280275     2.272632     2.264988     2.257345     2.249702
      2.242059     2.234416     2.226772     2.219129     2.211486     2.203843     2.196199     2.188556     2.180913     2.173270
      2.165627     2.157983     2.150340     2.142697     2.135054     2.127410     2.119767     2.112124     2.104481     2.096838
      2.089194     2.081551     2.073908     2.066265     2.058621     2.050978     2.043335     2.035692     2.028049     2.020405
      2.012762     2.005119     1.997476     1.989833     1.982190     1.974546     1.966903     1.959260     1.951617     1.943974
      1.936331     1.928688     1.921045     1.913402     1.905759     1.898115     1.890472     1.882829     1.875186     1.867543
      1.859900     1.852257     1.844614     1.836971     1.829327     1.821684     1.814041     1.806398     1.798755     1.791112
      1.783469     1.775826     1.768183     1.760540     1.752896     1.745253     1.737610     1.729967     1.722324     1.714681
      1.707038     1.699395     1.691752     1.684108     1.676465     1.668822     1.661179     1.653536     1.645893     1.638250
      1.630607     1.622964     1.615321     1.607677     1.600034     1.592391     1.584748     1.577105     1.569462     1.561819
      1.554176     1.546533     1.538890     1.531246     1.523603     1.515960     1.508317     1.500674     1.493031     1.485388
      1.477745     1.470102     1.462458     1.454815     1.447172     1.439529     1.431886     1.424243     1.416600     1.408957
      1.401314     1.393671     1.386027     1.378384     1.370741     1.363098     1.355455     1.347812     1.340169     1.332526
      1.324883     1.317240     1.309596     1.301953     1.294310     1.286667     1.279024     1.271381     1.263738     1.256095
      1.248452     1.240808     1.233165     1.225522     1.217879     1.210236     1.202593     1.194950     1.187307     1.179664
      1.172021     1.164377     1.156734     1.149091     1.141448     1.133805     1.126162     1.118519     1.110876     1.103233
      1.095590     1.087946     1.080303     1.072660     1.065017     1.057374     1.049731     1.042088     1.034445     1.026802
      1.019158     1.011515     1.003872     0.996229     0.988586     0.980943     0.973300     0.965657     0.958014     0.950371
      0.942727     0.935084     0.927441     0.919798     0.912155     0.904512     0.896869     0.889226     0.881583     0.873940
      0.866296     0.858653     0.851010     0.843367     0.835724     0.828081     0.820438     0.812795     0.805152     0.797508
      0.789865     0.782222     0.774579     0.766936     0.759293     0.751650     0.744007     0.736364     0.728721     0.721077
      0.713434     0.705791     0.698148     0.690505     0.682862     0.675219     0.667576     0.659933     0.652290     0.644646
      0.637003     0.629360     0.621717     0.614074     0.606431     0.598788     0.591145     0.583502     0.575858     0.568215
      0.560572     0.552929     0.545286     0.537643     0.530000     0.522357     0.514714     0.507071     0.499427     0.491784
      0.484141     0.476498     0.468855     0.461212     0.453569     0.445925     0.438282     0.430639     0.422996     0.415353
      0.407710     0.400067     0.392424     0.384780     0.377137     0.369494     0.361851     0.354208     0.346565     0.338922
      0.331278     0.323635     0.315992     0.308349     0.300706     0.293063     0.285420     0.277777     0.270133     0.262490
      0.254847     0.247204     0.239561     0.231918     0.224275     0.216631     0.208988     0.201345
 NY phased data points follow
   1.51919E-01  3.08023E+00  7.46090E+00  1.50310E+01  1.57087E+01  2.79261E+01  3.85128E+01  4.72300E+01  5.65032E+01  6.27442E+01
   5.61438E+01  5.22758E+01  5.09951E+01  4.07070E+01  3.55924E+01  2.34594E+01  6.97039E+00  7.70522E+00  1.64566E+00  3.88555E+00
   2.51483E-01 -1.22686E+00 -3.35890E+00 -1.46735E+00 -5.11712E-01  1.06441E+01  4.73228E+00  6.78958E+00  7.46456E+00  1.30089E+01
   1.48857E+01  1.46289E+01  1.07710E+01  3.59426E+00  7.23173E+00  1.89672E+00  1.52908E+00  4.10899E-01  1.47066E+00  7.81752E+00
   4.02307E+00  7.79418E+00  4.29835E+00  1.10909E+01  1.31780E+01  1.53729E+01  9.57760E+00  1.48264E+01  7.08131E+00  9.78314E+00
   5.95798E+00  6.26665E+00 -9.01962E-01  3.94103E+00  1.73293E+00 -2.49826E+00  1.01850E+00  7.32431E-01  5.06263E-01 -2.04100E+00
  -3.44146E+00 -3.58979E+00 -9.80582E+00 -8.33164E+00 -1.38194E+01 -1.18180E+01 -1.46016E+01 -8.94726E+00 -1.46867E+01 -9.50416E+00
  -1.31545E+01 -1.05155E+01 -1.47940E+01 -8.55765E+00 -4.70441E+00 -4.72580E+00 -1.04893E+01 -8.85733E+00 -8.98294E+00 -4.88342E+00
  -1.19674E+01 -2.75462E+00 -8.69562E+00 -3.76022E-01 -4.10737E+00 -3.49223E+00  3.03453E+00 -2.24014E+00 -2.44463E+00  8.01287E-01
  -6.71096E+00  2.47540E+00 -2.30655E+00  4.04634E+00 -9.77431E-02  5.05077E+00  1.12147E+01  1.53868E+01  2.80467E+01  4.45435E+01
   4.96202E+01  6.20459E+01  7.15806E+01  7.05629E+01  6.47130E+01  5.15613E+01  4.29651E+01  3.00458E+01  1.73418E+01  1.39265E+01
   3.77334E+00  4.19190E+00  7.59811E-01  3.83866E+00 -5.55425E+00  4.50230E+00 -3.98189E+00 -3.21193E+00 -4.54788E+00  6.38513E+00
   7.60515E+00  1.70422E+01  3.08189E+01  4.51199E+01  6.22861E+01  7.71136E+01  8.99986E+01  9.08066E+01  8.03174E+01  6.99015E+01
   5.46546E+01  4.21522E+01  2.39136E+01  1.78548E+01  2.49168E+00  3.04260E+00 -2.75609E+00 -5.77213E+00 -5.53931E+00 -3.68360E+00
  -6.37060E+00 -8.15889E+00 -1.02062E+01 -7.29177E+00 -8.66062E+00 -1.00887E+01 -1.09952E+01 -1.27579E+01 -1.00403E+01 -1.79913E+01
  -1.62956E+01 -1.23152E+01 -1.51832E+01 -1.60925E+01 -1.77188E+01 -1.63259E+01 -1.83229E+01 -1.42574E+01 -1.28739E+01 -1.92244E+01
  -1.59469E+01 -1.73335E+01 -2.16068E+01 -2.43102E+01 -2.07652E+01 -1.81644E+01 -2.70630E+01 -2.31362E+01 -2.20828E+01 -2.19582E+01
  -2.37759E+01 -3.29417E+01 -3.51488E+01 -3.41746E+01 -3.53966E+01 -3.59559E+01 -3.66990E+01 -3.39156E+01 -3.50328E+01 -3.48716E+01
  -3.12120E+01 -3.07301E+01 -3.32283E+01 -3.33398E+01 -2.74443E+01 -3.03323E+01 -2.42109E+01 -2.50704E+01 -1.89167E+01 -1.72483E+01
  -9.51149E+00 -7.35365E+00 -7.60629E+00 -3.94244E+00 -8.81860E+00 -3.14838E+00 -7.44573E+00 -1.51172E+01 -1.00377E+01 -1.27652E+01
  -1.64156E+01 -1.11783E+01 -1.24736E+01 -9.05193E+00 -5.88574E+00 -5.45589E+00 -5.82592E+00 -1.16214E+01 -1.26284E+01 -1.38840E+01
  -1.12348E+01 -8.98960E+00 -1.61185E+00 -1.61020E+00 -1.71062E+00  3.48053E+00  5.19185E+00  4.98679E+00 -3.40917E+00 -6.53133E+00
  -1.39306E+01 -1.16673E+01 -9.95828E+00 -5.66728E+00 -6.13173E+00 -5.28164E+00  1.28503E-01  3.65159E+00  3.45657E+00  6.34458E+00
   2.91667E+00  7.70936E+00  5.77930E+00 -5.50510E-02  5.91405E+00 -2.94609E-01  5.30304E+00  1.07736E+01  4.79052E+00  1.12974E+00
  -3.89088E-02  6.73404E-02  5.30310E-02 -1.33416E-01  1.02067E+01  5.68818E+00  9.50983E+00  1.71446E+01  2.15110E+01  2.38400E+01
   2.22554E+01  3.95273E+01  4.07770E+01  5.45612E+01  6.53267E+01  7.94755E+01  9.95988E+01  1.28583E+02  1.50576E+02  1.59829E+02
   1.61309E+02  1.56134E+02  1.40436E+02  1.08240E+02  8.63221E+01  6.36101E+01  4.35675E+01  2.74373E+01  1.94698E+01  1.59400E+01
   1.16912E+01  1.04121E+01  5.90661E+00  8.74553E+00  4.42986E+00  6.71046E+00  2.24898E+00  7.95725E-01  1.31430E+00  7.19028E-02
  -9.63840E-01 -8.08626E-01  6.85933E+00 -1.03994E+00 -3.42448E+00  2.47052E-01 -2.06510E+00 -1.64921E+00 -1.77385E+00 -1.04711E+00
  -3.63768E+00 -1.37631E+00 -3.93517E-01  1.24618E+00  3.43650E-01 -1.07745E+00 -5.66060E-01 -5.81193E+00  2.37796E+00  3.27303E+00
   5.37616E+00  4.83356E-01  3.97639E+00  8.53806E+00  9.52156E+00  1.15203E+01  1.10134E+01  1.56026E+01  1.50580E+01  1.82435E+01
   1.66081E+01  1.98405E+01  1.29671E+01  1.63703E+01  1.60129E+01  1.11894E+01  7.33732E+00  7.32471E+00  4.77117E+00  5.41781E+00
   1.34518E+00  2.46051E+00  2.39922E+00  1.92246E+00  1.57136E+00 -5.53151E+00  9.61424E-01  2.75223E-01  4.28147E-01 -3.09661E+00
   1.84107E+00  4.91129E+00  3.69152E+00  6.12634E+00  1.30251E+01  1.16023E+01  1.29279E+01  6.65623E+00  5.84771E+00  1.07419E+01
   1.19900E+01  8.64429E+00  1.07479E+01  1.23537E+01  1.05974E+01  9.81519E+00  1.08190E+01  1.32921E+01  1.12721E+01  1.11061E+01
   1.04150E+01  1.84893E+01  1.53921E+01  9.72137E+00  1.64545E+01  1.81723E+01  1.62876E+01  1.25147E+01  9.91665E+00  1.60840E+01
   1.41430E+01  1.31777E+01  7.86150E+00  1.36850E+01  1.30305E+01  1.06444E+01  9.81070E+00  5.32237E+00  7.57785E+00  9.50515E+00
   5.89385E+00  7.49290E+00  9.61074E+00  5.32626E+00  3.65332E+00  5.88070E+00  5.20668E+00  7.04345E+00  4.28893E+00 -1.16087E+00
   4.49927E-01  1.08276E+00  8.72768E-01  4.80570E+00  9.79913E-01  3.21405E+00  7.60962E+00  5.11804E+00  3.52087E+00  2.95694E+00
   6.13294E+00  1.18189E+00  1.30567E+01  7.46247E+00  8.18911E+00  1.43302E+01  1.60128E+01  1.52712E+01  1.34016E+01  2.18571E+01
   1.54323E+01  1.35239E+01  1.52295E+01  2.16121E+01  2.17506E+01  1.74340E+01  1.94438E+01  1.73597E+01  2.15421E+01  1.76474E+01
   2.20461E+01  1.98221E+01  1.63657E+01  1.22454E+01  1.42700E+01  5.91127E+00  9.47975E+00  8.75061E+00  3.79817E+00  5.73579E+00
   5.25416E+00  6.68757E+00  6.53939E+00  5.60126E+00 -1.28009E+00 -4.37798E-01  5.49189E+00  2.53911E+00  5.32618E-01  2.35804E+00
   4.19325E+00 -1.81566E+00  9.11337E-01 -6.83192E-01  2.59160E+00  4.00006E+00 -1.04046E-01  3.98190E+00  4.56623E+00  1.69885E+00
   3.63740E+00 -3.52435E+00 -1.03057E+00 -2.48446E-01  9.96197E-01 -2.63108E+00  4.63777E+00 -9.80482E-01  2.73171E-02  3.32541E+00
  -1.88948E+00 -2.40895E+00  4.07195E+00  1.89960E+00 -2.53275E+00  1.25895E+00  6.15008E-01 -9.47799E-01 -1.70163E+00  1.78785E+00
  -1.89143E-01  1.38390E+00 -1.97932E-01 -8.75238E-02  4.12726E+00 -1.68316E+00 -2.59309E+00  1.62296E+00 -6.87471E-01  2.09228E+00
   2.09068E+00  1.48474E-01  8.84864E-01 -9.73516E-01  5.38753E+00 -1.13450E+00  5.87597E+00 -2.58933E+00  9.97434E-01 -6.29050E-01
   2.71811E-01 -2.16106E+00 -7.10330E-01  4.12022E-01 -3.46919E+00  2.02382E+00  1.07614E+00  5.30260E+00 -4.85240E+00 -1.09449E-01
   1.09509E+00  5.58422E-01 -9.36451E-01 -4.13472E+00 -4.25618E+00 -1.21095E+00  5.36795E+00 -6.36027E-01
 NY points of the fit to the data follow
   6.63109E-01  3.04915E+00  6.93880E+00  1.21884E+01  1.92559E+01  2.80465E+01  3.80300E+01  4.78490E+01  5.56965E+01  5.99717E+01
   5.98131E+01  5.54118E+01  4.79496E+01  3.89914E+01  2.99409E+01  2.18699E+01  1.52938E+01  1.01401E+01  5.95438E+00  3.04170E+00
   9.26392E-01 -3.66446E-01 -3.13553E-01  1.20508E-01  7.64457E-01  2.22356E+00  4.76188E+00  7.97248E+00  1.11563E+01  1.38520E+01
   1.54969E+01  1.55926E+01  1.42132E+01  1.17046E+01  8.58662E+00  5.43099E+00  2.64515E+00  6.42739E-01 -3.89309E-01 -4.96912E-01
   3.06471E-01  1.60239E+00  3.34611E+00  5.46532E+00  7.57053E+00  9.13340E+00  9.72154E+00  9.26033E+00  7.78365E+00  5.46861E+00
   2.91659E+00  6.28883E-01 -1.20031E+00 -2.38407E+00 -2.96074E+00 -3.15477E+00 -3.07875E+00 -2.76896E+00 -2.45087E+00 -2.42079E+00
  -2.80618E+00 -3.55204E+00 -4.50440E+00 -5.38326E+00 -6.01896E+00 -6.35668E+00 -6.35218E+00 -6.07881E+00 -5.67859E+00 -5.26131E+00
  -4.95881E+00 -4.82241E+00 -4.87645E+00 -5.10983E+00 -5.45673E+00 -5.84235E+00 -6.20725E+00 -6.48725E+00 -6.58846E+00 -6.17681E+00
  -5.65314E+00 -5.13988E+00 -4.29667E+00 -3.07044E+00 -1.76394E+00 -7.46212E-01 -2.59693E-01 -4.01750E-01 -1.08790E+00 -2.17928E+00
  -3.35951E+00 -4.31528E+00 -4.88293E+00 -4.81447E+00 -2.96098E+00  2.17514E+00  8.38897E+00  1.57004E+01  2.60299E+01  3.94368E+01
   5.35553E+01  6.51964E+01  7.18491E+01  7.21800E+01  6.61856E+01  5.53049E+01  4.21636E+01  2.91630E+01  1.77656E+01  8.80429E+00
   2.41688E+00 -2.32380E+00 -6.17760E+00 -7.99850E+00 -8.43828E+00 -8.42597E+00 -8.13100E+00 -7.37922E+00 -5.04711E+00  1.39397E+00
   9.60181E+00  1.84552E+01  3.04442E+01  4.62972E+01  6.34496E+01  7.81322E+01  8.72361E+01  8.88741E+01  8.29116E+01  7.09322E+01
   5.57979E+01  4.03572E+01  2.63100E+01  1.46566E+01  5.86264E+00 -8.79142E-01 -6.56533E+00 -9.46717E+00 -1.00201E+01 -9.77145E+00
  -9.27660E+00 -8.85971E+00 -8.76151E+00 -8.99580E+00 -9.42857E+00 -1.00228E+01 -1.07352E+01 -1.14799E+01 -1.22057E+01 -1.28894E+01
  -1.35265E+01 -1.40975E+01 -1.45860E+01 -1.51278E+01 -1.55990E+01 -1.59469E+01 -1.63001E+01 -1.67211E+01 -1.73683E+01 -1.81075E+01
  -1.86455E+01 -1.88997E+01 -1.89842E+01 -1.90290E+01 -1.92157E+01 -1.96983E+01 -2.04771E+01 -2.14962E+01 -2.26680E+01 -2.37186E+01
  -2.44214E+01 -2.50910E+01 -2.58718E+01 -2.67321E+01 -2.73871E+01 -2.75353E+01 -2.73329E+01 -2.70759E+01 -2.68563E+01 -2.67383E+01
  -2.65563E+01 -2.61764E+01 -2.56606E+01 -2.49454E+01 -2.38295E+01 -2.22181E+01 -2.01876E+01 -1.78278E+01 -1.52593E+01 -1.28405E+01
  -1.10810E+01 -1.01085E+01 -9.86921E+00 -1.02698E+01 -1.10600E+01 -1.17999E+01 -1.20454E+01 -1.18900E+01 -1.13082E+01 -1.02513E+01
  -8.86173E+00 -7.47426E+00 -6.52368E+00 -6.12813E+00 -6.54437E+00 -7.98299E+00 -9.98458E+00 -1.18916E+01 -1.32504E+01 -1.40185E+01
  -1.39746E+01 -1.27082E+01 -1.03556E+01 -7.64047E+00 -5.41211E+00 -4.24338E+00 -4.24217E+00 -5.52517E+00 -8.03935E+00 -1.10082E+01
  -1.35486E+01 -1.48213E+01 -1.44405E+01 -1.27127E+01 -1.00475E+01 -6.95608E+00 -3.88936E+00 -1.41182E+00  2.28926E-01  1.29117E+00
   2.06441E+00  2.78960E+00  3.62490E+00  4.60000E+00  5.63272E+00  6.49336E+00  7.00945E+00  7.11695E+00  6.76301E+00  6.05901E+00
   5.50728E+00  5.48756E+00  6.11235E+00  7.39960E+00  9.22879E+00  1.13359E+01  1.33407E+01  1.53743E+01  1.79598E+01  2.05555E+01
   2.33557E+01  2.80316E+01  3.86393E+01  5.38493E+01  6.83924E+01  8.46664E+01  1.05317E+02  1.28062E+02  1.47825E+02  1.60280E+02
   1.62751E+02  1.54346E+02  1.36443E+02  1.12865E+02  8.80935E+01  6.52288E+01  4.64962E+01  3.26886E+01  2.27857E+01  1.43296E+01
   8.31730E+00  6.05919E+00  4.92822E+00  4.06983E+00  3.33562E+00  2.64961E+00  1.93242E+00  1.21058E+00  5.20410E-01 -1.06268E-01
  -6.54829E-01 -1.11923E+00 -1.52046E+00 -1.87542E+00 -2.17874E+00 -2.43208E+00 -2.63774E+00 -2.78866E+00 -2.86066E+00 -2.82570E+00
  -2.67098E+00 -2.40230E+00 -2.01427E+00 -1.50371E+00 -8.75941E-01 -1.35929E-01  7.20457E-01  1.69554E+00  2.78624E+00  3.98287E+00
   5.26175E+00  6.58696E+00  7.92116E+00  9.21839E+00  1.04305E+01  1.15111E+01  1.24186E+01  1.31209E+01  1.35939E+01  1.38188E+01
   1.37922E+01  1.35224E+01  1.30270E+01  1.23345E+01  1.14812E+01  1.05089E+01  9.46248E+00  8.38780E+00  7.32861E+00  6.32475E+00
   5.41012E+00  4.61179E+00  3.94936E+00  3.43521E+00  3.07447E+00  2.86609E+00  2.80354E+00  2.87615E+00  3.07010E+00  3.36969E+00
   3.75812E+00  4.21841E+00  4.73388E+00  5.28901E+00  5.86971E+00  6.46387E+00  7.06151E+00  7.65552E+00  8.24332E+00  8.82799E+00
   9.39023E+00  9.91620E+00  1.04216E+01  1.09060E+01  1.13495E+01  1.17337E+01  1.20573E+01  1.23516E+01  1.26309E+01  1.29004E+01
   1.31861E+01  1.35082E+01  1.38556E+01  1.41918E+01  1.44702E+01  1.46413E+01  1.46647E+01  1.45306E+01  1.42413E+01  1.38068E+01
   1.32565E+01  1.26234E+01  1.19400E+01  1.12298E+01  1.05016E+01  9.77690E+00  9.07107E+00  8.38605E+00  7.72446E+00  7.08945E+00
   6.48429E+00  5.91267E+00  5.37857E+00  4.88643E+00  4.44084E+00  4.04652E+00  3.70799E+00  3.42974E+00  3.21608E+00  3.07131E+00
   2.99963E+00  3.00521E+00  3.09207E+00  3.26419E+00  3.52527E+00  3.87875E+00  4.32733E+00  4.87277E+00  5.51536E+00  6.25368E+00
   7.08401E+00  8.00008E+00  8.99244E+00  1.00484E+01  1.11516E+01  1.22826E+01  1.34189E+01  1.45353E+01  1.56050E+01  1.66004E+01
   1.74941E+01  1.82606E+01  1.88770E+01  1.93245E+01  1.95893E+01  1.96631E+01  1.95440E+01  1.92361E+01  1.87498E+01  1.81005E+01
   1.73081E+01  1.63962E+01  1.53903E+01  1.43169E+01  1.32024E+01  1.20717E+01  1.09475E+01  9.84962E+00  8.79453E+00  7.79530E+00
   6.86140E+00  5.99904E+00  5.21135E+00  4.49903E+00  3.86061E+00  3.29308E+00  2.79212E+00  2.35275E+00  1.96946E+00  1.63675E+00
   1.34913E+00  1.10146E+00  8.88807E-01  7.06766E-01  5.51296E-01  4.18938E-01  3.06569E-01  2.11534E-01  1.31418E-01  6.42325E-02
   8.20099E-03 -3.80862E-02 -7.59449E-02 -1.06443E-01 -1.30610E-01 -1.49232E-01 -1.63052E-01 -1.72619E-01 -1.78524E-01 -1.81219E-01
  -1.81204E-01 -1.78800E-01 -1.74365E-01 -1.68112E-01 -1.60317E-01 -1.51146E-01 -1.40829E-01 -1.29446E-01 -1.17151E-01 -1.03999E-01
  -9.01643E-02 -7.57091E-02 -6.07640E-02 -4.53199E-02 -2.94671E-02 -1.32162E-02  3.30566E-03  2.00926E-02  3.70697E-02  5.42839E-02
   7.16700E-02  8.92390E-02  1.06895E-01  1.24667E-01  1.42513E-01  1.60499E-01  1.78559E-01  1.96712E-01  2.14879E-01  2.33120E-01
   2.51409E-01  2.69812E-01  2.88266E-01  3.06800E-01  3.25356E-01  3.44014E-01  3.62757E-01  3.81646E-01  4.00614E-01  4.19700E-01
   4.38871E-01  4.58216E-01  4.77722E-01  4.97443E-01  5.17318E-01  5.37403E-01  5.57687E-01  5.78277E-01
 NY background values follow
    -8.697E+00   -8.730E+00   -8.764E+00   -8.797E+00   -8.831E+00   -8.865E+00   -8.898E+00   -8.932E+00   -8.966E+00   -9.000E+00
    -9.034E+00   -9.068E+00   -9.102E+00   -9.136E+00   -9.171E+00   -9.205E+00   -9.240E+00   -9.274E+00   -9.309E+00   -9.344E+00
    -9.378E+00   -9.413E+00   -9.448E+00   -9.484E+00   -9.519E+00   -9.554E+00   -9.590E+00   -9.626E+00   -9.661E+00   -9.697E+00
    -9.734E+00   -9.770E+00   -9.806E+00   -9.843E+00   -9.879E+00   -9.916E+00   -9.953E+00   -9.990E+00   -1.003E+01   -1.006E+01
    -1.010E+01   -1.014E+01   -1.018E+01   -1.022E+01   -1.025E+01   -1.029E+01   -1.033E+01   -1.037E+01   -1.041E+01   -1.045E+01
    -1.049E+01   -1.053E+01   -1.057E+01   -1.061E+01   -1.065E+01   -1.069E+01   -1.073E+01   -1.077E+01   -1.082E+01   -1.086E+01
    -1.090E+01   -1.094E+01   -1.099E+01   -1.103E+01   -1.108E+01   -1.112E+01   -1.117E+01   -1.121E+01   -1.126E+01   -1.131E+01
    -1.135E+01   -1.140E+01   -1.145E+01   -1.150E+01   -1.155E+01   -1.160E+01   -1.165E+01   -1.170E+01   -1.176E+01   -1.181E+01
    -1.186E+01   -1.192E+01   -1.197E+01   -1.203E+01   -1.208E+01   -1.214E+01   -1.220E+01   -1.226E+01   -1.232E+01   -1.238E+01
    -1.244E+01   -1.250E+01   -1.257E+01   -1.263E+01   -1.269E+01   -1.276E+01   -1.283E+01   -1.289E+01   -1.296E+01   -1.303E+01
    -1.310E+01   -1.317E+01   -1.324E+01   -1.331E+01   -1.338E+01   -1.346E+01   -1.353E+01   -1.361E+01   -1.368E+01   -1.376E+01
    -1.383E+01   -1.391E+01   -1.399E+01   -1.407E+01   -1.415E+01   -1.423E+01   -1.431E+01   -1.439E+01   -1.447E+01   -1.455E+01
    -1.463E+01   -1.471E+01   -1.480E+01   -1.488E+01   -1.497E+01   -1.505E+01   -1.514E+01   -1.522E+01   -1.531E+01   -1.539E+01
    -1.548E+01   -1.557E+01   -1.566E+01   -1.575E+01   -1.583E+01   -1.592E+01   -1.601E+01   -1.610E+01   -1.619E+01   -1.628E+01
    -1.637E+01   -1.646E+01   -1.655E+01   -1.664E+01   -1.673E+01   -1.681E+01   -1.690E+01   -1.699E+01   -1.707E+01   -1.715E+01
    -1.723E+01   -1.731E+01   -1.739E+01   -1.747E+01   -1.754E+01   -1.761E+01   -1.768E+01   -1.775E+01   -1.781E+01   -1.788E+01
    -1.793E+01   -1.799E+01   -1.804E+01   -1.809E+01   -1.814E+01   -1.818E+01   -1.822E+01   -1.826E+01   -1.829E+01   -1.831E+01
    -1.834E+01   -1.836E+01   -1.837E+01   -1.838E+01   -1.838E+01   -1.838E+01   -1.838E+01   -1.837E+01   -1.835E+01   -1.833E+01
    -1.830E+01   -1.827E+01   -1.823E+01   -1.819E+01   -1.814E+01   -1.809E+01   -1.803E+01   -1.796E+01   -1.789E+01   -1.782E+01
    -1.774E+01   -1.766E+01   -1.757E+01   -1.748E+01   -1.739E+01   -1.729E+01   -1.719E+01   -1.709E+01   -1.698E+01   -1.687E+01
    -1.676E+01   -1.665E+01   -1.653E+01   -1.641E+01   -1.629E+01   -1.617E+01   -1.604E+01   -1.592E+01   -1.579E+01   -1.566E+01
    -1.553E+01   -1.540E+01   -1.527E+01   -1.514E+01   -1.501E+01   -1.488E+01   -1.475E+01   -1.462E+01   -1.449E+01   -1.436E+01
    -1.424E+01   -1.411E+01   -1.398E+01   -1.386E+01   -1.374E+01   -1.362E+01   -1.350E+01   -1.338E+01   -1.327E+01   -1.315E+01
    -1.304E+01   -1.293E+01   -1.283E+01   -1.272E+01   -1.262E+01   -1.252E+01   -1.242E+01   -1.232E+01   -1.223E+01   -1.213E+01
    -1.204E+01   -1.195E+01   -1.186E+01   -1.177E+01   -1.169E+01   -1.160E+01   -1.152E+01   -1.144E+01   -1.136E+01   -1.128E+01
    -1.120E+01   -1.113E+01   -1.105E+01   -1.098E+01   -1.091E+01   -1.084E+01   -1.077E+01   -1.070E+01   -1.064E+01   -1.057E+01
    -1.051E+01   -1.044E+01   -1.038E+01   -1.032E+01   -1.026E+01   -1.020E+01   -1.014E+01   -1.009E+01   -1.003E+01   -9.975E+00
    -9.921E+00   -9.867E+00   -9.815E+00   -9.763E+00   -9.712E+00   -9.662E+00   -9.612E+00   -9.563E+00   -9.515E+00   -9.467E+00
    -9.421E+00   -9.375E+00   -9.329E+00   -9.284E+00   -9.240E+00   -9.196E+00   -9.153E+00   -9.111E+00   -9.069E+00   -9.027E+00
    -8.986E+00   -8.946E+00   -8.906E+00   -8.867E+00   -8.828E+00   -8.789E+00   -8.751E+00   -8.713E+00   -8.676E+00   -8.639E+00
    -8.602E+00   -8.566E+00   -8.530E+00   -8.494E+00   -8.459E+00   -8.424E+00   -8.389E+00   -8.355E+00   -8.320E+00   -8.286E+00
    -8.252E+00   -8.219E+00   -8.185E+00   -8.152E+00   -8.119E+00   -8.085E+00   -8.052E+00   -8.019E+00   -7.987E+00   -7.954E+00
    -7.921E+00   -7.888E+00   -7.856E+00   -7.823E+00   -7.791E+00   -7.758E+00   -7.725E+00   -7.693E+00   -7.660E+00   -7.628E+00
    -7.595E+00   -7.563E+00   -7.530E+00   -7.498E+00   -7.465E+00   -7.433E+00   -7.400E+00   -7.367E+00   -7.334E+00   -7.301E+00
    -7.268E+00   -7.235E+00   -7.202E+00   -7.169E+00   -7.135E+00   -7.102E+00   -7.068E+00   -7.034E+00   -7.000E+00   -6.966E+00
    -6.932E+00   -6.898E+00   -6.863E+00   -6.828E+00   -6.793E+00   -6.758E+00   -6.723E+00   -6.687E+00   -6.652E+00   -6.616E+00
    -6.579E+00   -6.543E+00   -6.506E+00   -6.469E+00   -6.432E+00   -6.395E+00   -6.357E+00   -6.319E+00   -6.280E+00   -6.242E+00
    -6.203E+00   -6.164E+00   -6.124E+00   -6.084E+00   -6.044E+00   -6.003E+00   -5.962E+00   -5.920E+00   -5.879E+00   -5.836E+00
    -5.794E+00   -5.751E+00   -5.707E+00   -5.663E+00   -5.619E+00   -5.574E+00   -5.529E+00   -5.483E+00   -5.437E+00   -5.390E+00
    -5.343E+00   -5.295E+00   -5.247E+00   -5.198E+00   -5.149E+00   -5.099E+00   -5.048E+00   -4.997E+00   -4.946E+00   -4.894E+00
    -4.841E+00   -4.788E+00   -4.734E+00   -4.679E+00   -4.624E+00   -4.568E+00   -4.512E+00   -4.455E+00   -4.397E+00   -4.338E+00
    -4.279E+00   -4.220E+00   -4.160E+00   -4.100E+00   -4.039E+00   -3.977E+00   -3.916E+00   -3.854E+00   -3.792E+00   -3.729E+00
    -3.666E+00   -3.603E+00   -3.540E+00   -3.477E+00   -3.414E+00   -3.351E+00   -3.288E+00   -3.224E+00   -3.161E+00   -3.098E+00
    -3.035E+00   -2.973E+00   -2.910E+00   -2.848E+00   -2.786E+00   -2.724E+00   -2.663E+00   -2.602E+00   -2.542E+00   -2.482E+00
    -2.423E+00   -2.364E+00   -2.305E+00   -2.248E+00   -2.191E+00   -2.134E+00   -2.079E+00   -2.024E+00   -1.970E+00   -1.917E+00
    -1.864E+00   -1.813E+00   -1.762E+00   -1.713E+00   -1.664E+00   -1.617E+00   -1.570E+00   -1.524E+00   -1.479E+00   -1.435E+00
    -1.391E+00   -1.349E+00   -1.307E+00   -1.266E+00   -1.225E+00   -1.186E+00   -1.147E+00   -1.108E+00   -1.071E+00   -1.034E+00
    -9.973E-01   -9.614E-01   -9.260E-01   -8.912E-01   -8.569E-01   -8.231E-01   -7.897E-01   -7.568E-01   -7.243E-01   -6.922E-01
    -6.604E-01   -6.290E-01   -5.980E-01   -5.672E-01   -5.368E-01   -5.066E-01   -4.766E-01   -4.469E-01   -4.173E-01   -3.880E-01
    -3.588E-01   -3.297E-01   -3.007E-01   -2.718E-01   -2.430E-01   -2.143E-01   -1.855E-01   -1.568E-01
 Cr       Conc. = 1.11E+03
