 LCModel (Version 6.3-1L) Copyright: S.W. Provencher.          Ref.: Magn. Reson. Med. 30:672-679 (1993).                
 Slice#2 Row#8 Col#12  PD_24_press_2_raw_act
 36 lines in following concentration table = NCONC+1
    Conc.  %SD /Cr+PCr  Metabolite                                         
    0.000 999%   0.000 Ala                                                 
   20.730 241%   0.000 Asp                                                 
    0.000 999%   0.000 Cr                                                  
    0.000 999%   0.000 PCr                                                 
    9.226 316%   0.000 GABA                                                
   27.572 112%   0.000 Glc                                                 
   45.160 162%   0.000 Gln                                                 
    0.000 999%   0.000 Glu                                                 
    0.000 999%   0.000 GPC                                                 
    0.000 999%   0.000 PCh                                                 
    0.000 999%   0.000 GSH                                                 
   74.336 125%   0.000 Ins                                                 
    0.000 999%   0.000 Lac                                                 
  185.791  36%   0.000 NAA                                                 
  312.809  30%   0.000 NAAG                                                
   14.596  60%   0.000 Scyllo                                              
   34.675 139%   0.000 Tau                                                 
    2.662 696%   0.000 -CrCH2                                              
    0.000 999%   0.000 GPC+PCh                                             
  498.600  27%   0.000 NAA+NAAG                                            
    0.000 999%   0.000 Cr+PCr                                              
   45.160 162%   0.000 Glu+Gln                                             
 6.13E+03  31%   0.000 Lip13a                                              
    0.000 999%   0.000 Lip13b                                              
    0.000 999%   0.000 Lip09                                               
 2.99E+03  16%   0.000 MM09                                                
    0.000 999%   0.000 Lip20                                               
    0.000 999%   0.000 MM20                                                
 4.17E+03  17%   0.000 MM12                                                
    0.000 999%   0.000 MM14                                                
 1.82E+04   9%   0.000+MM17                                                
 6.13E+03  30%   0.000 Lip13a+Lip13b                                       
 1.03E+04  17%   0.000 MM14+Lip13a+Lip13b+MM12                             
 2.99E+03  16%   0.000 MM09+Lip09                                          
    0.000 999%   0.000 MM20+Lip20                                          
   6 lines in following misc. output table
  FWHM = 0.046 ppm    S/N =  15                                            
  Data shift = 0.145 ppm                                                   
  Ph: 153 deg      46.1 deg/ppm                                            
  alphaB,S = 5.2E-01,   4.2E-01                                            
    9 spline knots.   Ns = 9(2)                                            
   9 inflections.    10 extrema                                            
  498 points on ppm-axis = NY
      4.000000     3.992357     3.984714     3.977070     3.969427     3.961784     3.954141     3.946497     3.938854     3.931211
      3.923568     3.915925     3.908281     3.900638     3.892995     3.885352     3.877708     3.870065     3.862422     3.854779
      3.847136     3.839492     3.831849     3.824206     3.816563     3.808919     3.801276     3.793633     3.785990     3.778347
      3.770703     3.763060     3.755417     3.747774     3.740130     3.732487     3.724844     3.717201     3.709558     3.701914
      3.694271     3.686628     3.678985     3.671341     3.663698     3.656055     3.648412     3.640769     3.633125     3.625482
      3.617839     3.610196     3.602552     3.594909     3.587266     3.579623     3.571980     3.564336     3.556693     3.549050
      3.541407     3.533763     3.526120     3.518477     3.510834     3.503191     3.495547     3.487904     3.480261     3.472618
      3.464974     3.457331     3.449688     3.442045     3.434402     3.426758     3.419115     3.411472     3.403829     3.396185
      3.388542     3.380899     3.373256     3.365613     3.357969     3.350326     3.342683     3.335040     3.327396     3.319753
      3.312110     3.304467     3.296824     3.289180     3.281537     3.273894     3.266251     3.258607     3.250964     3.243321
      3.235678     3.228034     3.220391     3.212748     3.205105     3.197462     3.189818     3.182175     3.174532     3.166889
      3.159245     3.151602     3.143959     3.136316     3.128673     3.121029     3.113386     3.105743     3.098100     3.090456
      3.082813     3.075170     3.067527     3.059884     3.052240     3.044597     3.036954     3.029311     3.021667     3.014024
      3.006381     2.998738     2.991095     2.983451     2.975808     2.968165     2.960522     2.952878     2.945235     2.937592
      2.929949     2.922306     2.914662     2.907019     2.899376     2.891733     2.884089     2.876446     2.868803     2.861160
      2.853517     2.845873     2.838230     2.830587     2.822944     2.815300     2.807657     2.800014     2.792371     2.784728
      2.777084     2.769441     2.761798     2.754155     2.746511     2.738868     2.731225     2.723582     2.715939     2.708295
      2.700652     2.693009     2.685366     2.677722     2.670079     2.662436     2.654793     2.647150     2.639506     2.631863
      2.624220     2.616577     2.608933     2.601290     2.593647     2.586004     2.578361     2.570717     2.563074     2.555431
      2.547788     2.540144     2.532501     2.524858     2.517215     2.509572     2.501928     2.494285     2.486642     2.478999
      2.471355     2.463712     2.456069     2.448426     2.440783     2.433139     2.425496     2.417853     2.410210     2.402566
      2.394923     2.387280     2.379637     2.371994     2.364350     2.356707     2.349064     2.341421     2.333777     2.326134
      2.318491     2.310848     2.303205     2.295561     2.287918     2.280275     2.272632     2.264988     2.257345     2.249702
      2.242059     2.234416     2.226772     2.219129     2.211486     2.203843     2.196199     2.188556     2.180913     2.173270
      2.165627     2.157983     2.150340     2.142697     2.135054     2.127410     2.119767     2.112124     2.104481     2.096838
      2.089194     2.081551     2.073908     2.066265     2.058621     2.050978     2.043335     2.035692     2.028049     2.020405
      2.012762     2.005119     1.997476     1.989833     1.982190     1.974546     1.966903     1.959260     1.951617     1.943974
      1.936331     1.928688     1.921045     1.913402     1.905759     1.898115     1.890472     1.882829     1.875186     1.867543
      1.859900     1.852257     1.844614     1.836971     1.829327     1.821684     1.814041     1.806398     1.798755     1.791112
      1.783469     1.775826     1.768183     1.760540     1.752896     1.745253     1.737610     1.729967     1.722324     1.714681
      1.707038     1.699395     1.691752     1.684108     1.676465     1.668822     1.661179     1.653536     1.645893     1.638250
      1.630607     1.622964     1.615321     1.607677     1.600034     1.592391     1.584748     1.577105     1.569462     1.561819
      1.554176     1.546533     1.538890     1.531246     1.523603     1.515960     1.508317     1.500674     1.493031     1.485388
      1.477745     1.470102     1.462458     1.454815     1.447172     1.439529     1.431886     1.424243     1.416600     1.408957
      1.401314     1.393671     1.386027     1.378384     1.370741     1.363098     1.355455     1.347812     1.340169     1.332526
      1.324883     1.317240     1.309596     1.301953     1.294310     1.286667     1.279024     1.271381     1.263738     1.256095
      1.248452     1.240808     1.233165     1.225522     1.217879     1.210236     1.202593     1.194950     1.187307     1.179664
      1.172021     1.164377     1.156734     1.149091     1.141448     1.133805     1.126162     1.118519     1.110876     1.103233
      1.095590     1.087946     1.080303     1.072660     1.065017     1.057374     1.049731     1.042088     1.034445     1.026802
      1.019158     1.011515     1.003872     0.996229     0.988586     0.980943     0.973300     0.965657     0.958014     0.950371
      0.942727     0.935084     0.927441     0.919798     0.912155     0.904512     0.896869     0.889226     0.881583     0.873940
      0.866296     0.858653     0.851010     0.843367     0.835724     0.828081     0.820438     0.812795     0.805152     0.797508
      0.789865     0.782222     0.774579     0.766936     0.759293     0.751650     0.744007     0.736364     0.728721     0.721077
      0.713434     0.705791     0.698148     0.690505     0.682862     0.675219     0.667576     0.659933     0.652290     0.644646
      0.637003     0.629360     0.621717     0.614074     0.606431     0.598788     0.591145     0.583502     0.575858     0.568215
      0.560572     0.552929     0.545286     0.537643     0.530000     0.522357     0.514714     0.507071     0.499427     0.491784
      0.484141     0.476498     0.468855     0.461212     0.453569     0.445925     0.438282     0.430639     0.422996     0.415353
      0.407710     0.400067     0.392424     0.384780     0.377137     0.369494     0.361851     0.354208     0.346565     0.338922
      0.331278     0.323635     0.315992     0.308349     0.300706     0.293063     0.285420     0.277777     0.270133     0.262490
      0.254847     0.247204     0.239561     0.231918     0.224275     0.216631     0.208988     0.201345
 NY phased data points follow
  -1.26532E+01 -1.11102E+01 -1.34854E+01 -1.45209E+01 -1.16629E+01 -1.34036E+01 -1.14538E+01 -1.36352E+01 -1.28989E+01 -1.20688E+01
  -1.26000E+01 -1.14471E+01 -9.60359E+00 -1.14806E+01 -1.23457E+01 -1.48799E+01 -1.53766E+01 -1.38057E+01 -1.11623E+01 -1.27594E+01
  -1.28040E+01 -1.25688E+01 -1.39992E+01 -1.31127E+01 -1.12919E+01 -9.83906E+00 -1.29696E+01 -1.36301E+01 -1.46812E+01 -1.11659E+01
  -1.24346E+01 -1.28917E+01 -1.12123E+01 -1.49843E+01 -1.02514E+01 -1.25037E+01 -1.47488E+01 -1.43432E+01 -1.22910E+01 -1.53004E+01
  -1.11362E+01 -1.27074E+01 -1.45491E+01 -9.79776E+00 -1.65285E+01 -8.09087E+00 -1.38874E+01 -1.38152E+01 -1.52331E+01 -1.11863E+01
  -1.22069E+01 -1.58999E+01 -1.23165E+01 -1.09607E+01 -1.19801E+01 -1.39322E+01 -9.50254E+00 -1.01385E+01 -1.22631E+01 -1.26848E+01
  -1.11188E+01 -1.01638E+01 -9.18820E+00 -1.17291E+01 -1.26984E+01 -1.21294E+01 -1.15226E+01 -1.07591E+01 -1.26257E+01 -1.15671E+01
  -1.16232E+01 -1.09785E+01 -9.49010E+00 -1.15996E+01 -1.11993E+01 -1.26331E+01 -1.06823E+01 -1.04112E+01 -1.09679E+01 -1.20372E+01
  -1.07868E+01 -1.08761E+01 -1.12224E+01 -9.10692E+00 -1.11870E+01 -1.28813E+01 -1.34356E+01 -1.30483E+01 -1.45724E+01 -1.54106E+01
  -1.46612E+01 -1.29603E+01 -1.15125E+01 -1.40715E+01 -1.31557E+01 -1.36287E+01 -1.63177E+01 -1.44600E+01 -1.38974E+01 -1.11409E+01
  -1.34642E+01 -1.06887E+01 -1.62262E+01 -1.38033E+01 -1.01655E+01 -1.33546E+01 -1.22326E+01 -9.19947E+00 -1.08064E+01 -1.05555E+01
  -1.12486E+01 -1.13343E+01 -1.17284E+01 -1.17042E+01 -1.52471E+01 -1.29444E+01 -1.19846E+01 -1.34537E+01 -1.49043E+01 -1.30635E+01
  -1.55511E+01 -1.24701E+01 -1.58718E+01 -1.25829E+01 -1.24289E+01 -1.15026E+01 -1.25217E+01 -1.11842E+01 -1.19136E+01 -1.40335E+01
  -8.78022E+00 -1.51080E+01 -1.41840E+01 -1.10808E+01 -1.17004E+01 -1.42063E+01 -1.15122E+01 -1.07177E+01 -1.15195E+01 -9.95342E+00
  -1.35463E+01 -1.25001E+01 -1.15953E+01 -1.14723E+01 -1.45359E+01 -1.22750E+01 -1.15062E+01 -1.07512E+01 -9.21190E+00 -1.10858E+01
  -1.20339E+01 -9.81234E+00 -1.12284E+01 -1.28468E+01 -1.23760E+01 -1.16599E+01 -1.03000E+01 -1.18927E+01 -1.05376E+01 -1.16639E+01
  -8.22492E+00 -1.02021E+01 -1.11642E+01 -8.44460E+00 -8.12264E+00 -9.93284E+00 -1.32281E+01 -5.54771E+00 -1.10791E+01 -1.14284E+01
  -1.17082E+01 -1.02251E+01 -9.24511E+00 -9.97276E+00 -1.22858E+01 -1.33643E+01 -8.30684E+00 -1.01191E+01 -1.05713E+01 -9.17098E+00
  -1.22761E+01 -1.21887E+01 -1.15450E+01 -7.47111E+00 -1.13077E+01 -9.13897E+00 -1.31607E+01 -8.12945E+00 -9.66866E+00 -8.14749E+00
  -1.01314E+01 -8.64894E+00 -8.90729E+00 -1.10924E+01 -6.99712E+00 -7.56799E+00 -8.14541E+00 -9.50234E+00 -8.97963E+00 -9.36517E+00
  -7.73342E+00 -8.84094E+00 -1.28653E+01 -8.75599E+00 -1.02490E+01 -7.89929E+00 -8.27672E+00 -9.46347E+00 -8.92614E+00 -7.80546E+00
  -8.18929E+00 -3.07956E+00 -7.74353E+00 -7.26038E+00 -5.60563E+00 -6.94910E+00 -7.08857E+00 -1.03089E+01 -8.33840E+00 -7.52110E+00
  -8.04098E+00 -9.16845E+00 -7.14637E+00 -7.25856E+00 -9.56852E+00 -8.10536E+00 -8.53274E+00 -9.67071E+00 -6.79415E+00 -7.91884E+00
  -7.72366E+00 -7.04783E+00 -7.48025E+00 -6.30239E+00 -8.12852E+00 -5.51637E+00 -2.69765E+00 -2.81201E+00  4.19031E+00  5.24147E+00
   7.78065E+00  1.62791E+01  1.02810E+01  1.27407E+01  9.28054E+00  5.95216E+00  8.20022E+00  7.71066E+00  7.74813E+00  6.19841E+00
   3.58839E+00  9.61625E+00  3.28277E+00  5.76601E+00  4.94755E+00  2.71077E+00  3.23155E+00  5.66808E+00  3.44772E+00  7.26235E+00
   8.10573E+00  8.12373E+00  6.86631E+00  7.01025E+00  1.04755E+01  5.24481E+00  9.17724E+00  1.04841E+01  1.22522E+01  7.54408E+00
   8.29894E+00  1.11016E+01  1.33121E+01  1.37043E+01  1.22568E+01  1.27574E+01  1.31976E+01  1.88519E+01  1.45239E+01  2.19866E+01
   2.00375E+01  2.41760E+01  2.85021E+01  2.86982E+01  3.09372E+01  3.55274E+01  3.78105E+01  3.71190E+01  4.31248E+01  4.33466E+01
   4.53715E+01  4.75955E+01  4.61061E+01  5.12852E+01  5.46841E+01  5.73169E+01  5.62280E+01  6.17448E+01  6.28424E+01  6.53747E+01
   6.72674E+01  7.32024E+01  7.44359E+01  7.71609E+01  7.67000E+01  7.82742E+01  8.32051E+01  8.37159E+01  8.37308E+01  8.46896E+01
   8.64312E+01  8.83975E+01  8.73147E+01  8.46181E+01  8.00805E+01  8.08652E+01  7.65937E+01  7.38617E+01  7.64926E+01  7.31098E+01
   6.78474E+01  6.80832E+01  5.94915E+01  6.31716E+01  6.02290E+01  5.79551E+01  5.45681E+01  5.26553E+01  5.29302E+01  5.05571E+01
   4.82797E+01  4.91990E+01  4.70452E+01  5.01896E+01  4.59907E+01  4.79965E+01  4.54704E+01  4.82126E+01  4.70982E+01  5.01602E+01
   4.74596E+01  4.84995E+01  4.65392E+01  4.49577E+01  4.42214E+01  4.64663E+01  4.90026E+01  4.91010E+01  4.56755E+01  4.95019E+01
   4.70952E+01  4.95809E+01  5.00818E+01  4.92661E+01  4.97591E+01  5.50426E+01  5.35944E+01  5.23400E+01  5.65283E+01  5.37953E+01
   5.38719E+01  5.41309E+01  5.35450E+01  5.47209E+01  5.34548E+01  5.35685E+01  5.49624E+01  5.67702E+01  5.11218E+01  5.34927E+01
   5.39292E+01  5.04580E+01  5.25236E+01  5.04411E+01  5.38620E+01  4.78667E+01  4.63712E+01  4.86752E+01  4.59091E+01  4.75899E+01
   4.88240E+01  4.82816E+01  4.38886E+01  4.38333E+01  4.31110E+01  3.97022E+01  3.97301E+01  3.87163E+01  3.81554E+01  3.66012E+01
   3.23721E+01  3.25161E+01  3.31595E+01  3.60702E+01  3.02618E+01  3.42817E+01  2.87646E+01  3.05603E+01  2.78552E+01  3.19136E+01
   2.89941E+01  2.61643E+01  2.59338E+01  2.54094E+01  2.18975E+01  2.31309E+01  2.44388E+01  2.24117E+01  2.08389E+01  1.93975E+01
   1.95263E+01  1.73948E+01  1.64447E+01  1.38031E+01  1.44303E+01  1.23459E+01  1.25534E+01  1.09401E+01  1.02159E+01  7.51354E+00
   5.96531E+00  6.70056E+00  7.60989E+00  6.30222E+00  2.28639E+00  4.65872E+00  3.43700E+00  1.36875E+00  1.65897E+00 -8.70198E-01
   2.30992E-01 -4.02593E+00  6.01497E-01 -2.23396E+00 -8.17816E-01 -1.79189E+00 -3.43179E+00 -7.50891E+00 -7.32913E+00 -6.99857E+00
  -8.72759E+00 -8.80880E+00 -1.10324E+01 -9.25315E+00 -1.14616E+01 -1.19932E+01 -1.42281E+01 -1.38436E+01 -1.29868E+01 -1.27493E+01
  -1.60247E+01 -1.58902E+01 -2.02189E+01 -1.45751E+01 -1.93441E+01 -1.60394E+01 -1.63732E+01 -1.93317E+01 -2.16008E+01 -1.97811E+01
  -2.18534E+01 -2.23498E+01 -2.76014E+01 -2.36083E+01 -2.46044E+01 -1.99288E+01 -2.59263E+01 -2.44240E+01 -2.51553E+01 -2.45810E+01
  -2.70467E+01 -2.75229E+01 -2.41247E+01 -2.69091E+01 -2.58211E+01 -2.81073E+01 -3.13431E+01 -2.91458E+01 -3.05349E+01 -2.83880E+01
  -2.93159E+01 -2.81324E+01 -3.02944E+01 -2.65959E+01 -3.10112E+01 -2.78629E+01 -3.00155E+01 -2.93415E+01 -2.98216E+01 -3.40598E+01
  -3.13969E+01 -3.19704E+01 -2.92532E+01 -3.10681E+01 -3.03523E+01 -3.19100E+01 -3.19430E+01 -3.14672E+01
 NY points of the fit to the data follow
  -1.27349E+01 -1.26195E+01 -1.26563E+01 -1.28475E+01 -1.28921E+01 -1.28466E+01 -1.29126E+01 -1.29171E+01 -1.27397E+01 -1.26229E+01
  -1.26152E+01 -1.26030E+01 -1.26083E+01 -1.26582E+01 -1.26918E+01 -1.26882E+01 -1.25920E+01 -1.24988E+01 -1.23415E+01 -1.22779E+01
  -1.23546E+01 -1.24108E+01 -1.25279E+01 -1.25799E+01 -1.26082E+01 -1.26723E+01 -1.26825E+01 -1.26524E+01 -1.25487E+01 -1.24478E+01
  -1.24090E+01 -1.22835E+01 -1.21506E+01 -1.19694E+01 -1.18969E+01 -1.20730E+01 -1.22513E+01 -1.24863E+01 -1.27121E+01 -1.28012E+01
  -1.27408E+01 -1.26260E+01 -1.25611E+01 -1.23811E+01 -1.21754E+01 -1.21262E+01 -1.22738E+01 -1.24352E+01 -1.25039E+01 -1.26834E+01
  -1.27492E+01 -1.26712E+01 -1.25323E+01 -1.23522E+01 -1.23578E+01 -1.21970E+01 -1.22375E+01 -1.23279E+01 -1.23521E+01 -1.23158E+01
  -1.21819E+01 -1.22854E+01 -1.24245E+01 -1.24334E+01 -1.23916E+01 -1.24572E+01 -1.25703E+01 -1.24848E+01 -1.21745E+01 -1.20933E+01
  -1.17112E+01 -1.15876E+01 -1.11139E+01 -1.14187E+01 -1.18415E+01 -1.22286E+01 -1.27087E+01 -1.27957E+01 -1.27358E+01 -1.26405E+01
  -1.24716E+01 -1.23649E+01 -1.20542E+01 -1.21073E+01 -1.22531E+01 -1.23962E+01 -1.28090E+01 -1.27922E+01 -1.29008E+01 -1.29101E+01
  -1.26550E+01 -1.25123E+01 -1.23681E+01 -1.23716E+01 -1.22175E+01 -1.22950E+01 -1.26403E+01 -1.26114E+01 -1.23759E+01 -1.24956E+01
  -1.28920E+01 -1.28318E+01 -1.25156E+01 -1.24096E+01 -1.24666E+01 -1.24347E+01 -1.23666E+01 -1.23387E+01 -1.23525E+01 -1.23665E+01
  -1.23235E+01 -1.22620E+01 -1.22563E+01 -1.22339E+01 -1.21214E+01 -1.21281E+01 -1.21346E+01 -1.21041E+01 -1.20746E+01 -1.20962E+01
  -1.20873E+01 -1.20709E+01 -1.20461E+01 -1.20140E+01 -1.19810E+01 -1.19346E+01 -1.19316E+01 -1.18969E+01 -1.18936E+01 -1.18750E+01
  -1.18275E+01 -1.17995E+01 -1.17333E+01 -1.17014E+01 -1.16720E+01 -1.16751E+01 -1.17084E+01 -1.17522E+01 -1.18384E+01 -1.18737E+01
  -1.19350E+01 -1.17295E+01 -1.15660E+01 -1.14049E+01 -1.12448E+01 -1.15296E+01 -1.16660E+01 -1.19240E+01 -1.20101E+01 -1.19640E+01
  -1.19765E+01 -1.17305E+01 -1.17658E+01 -1.17547E+01 -1.17152E+01 -1.18666E+01 -1.17725E+01 -1.17073E+01 -1.18076E+01 -1.17106E+01
  -1.18940E+01 -1.19669E+01 -1.17781E+01 -1.17970E+01 -1.14906E+01 -1.17611E+01 -1.17073E+01 -1.15154E+01 -1.15243E+01 -1.09425E+01
  -1.08382E+01 -1.06074E+01 -1.05848E+01 -1.07145E+01 -1.03518E+01 -1.01083E+01 -9.95042E+00 -9.82267E+00 -1.00361E+01 -1.00933E+01
  -1.02018E+01 -1.03873E+01 -1.02180E+01 -9.89190E+00 -9.73008E+00 -9.59576E+00 -9.67005E+00 -9.37432E+00 -9.33276E+00 -9.38020E+00
  -9.39662E+00 -9.53156E+00 -9.74892E+00 -1.00827E+01 -1.04836E+01 -1.00004E+01 -9.95960E+00 -9.94499E+00 -9.69997E+00 -9.65398E+00
  -9.21588E+00 -9.30450E+00 -9.26492E+00 -9.10039E+00 -9.24615E+00 -9.23210E+00 -9.21155E+00 -8.79864E+00 -8.45342E+00 -8.36560E+00
  -7.96873E+00 -7.77577E+00 -7.74335E+00 -7.89466E+00 -8.06892E+00 -7.89771E+00 -8.00308E+00 -7.82209E+00 -7.49234E+00 -7.22091E+00
  -6.73532E+00 -6.55626E+00 -6.34835E+00 -6.41371E+00 -6.23179E+00 -6.33270E+00 -6.15897E+00 -5.99984E+00 -5.74933E+00 -5.48752E+00
  -5.04479E+00 -4.71563E+00 -4.52908E+00 -4.44958E+00 -4.31277E+00 -3.93566E+00 -3.18636E+00 -1.23522E+00  6.55694E-01  5.61201E+00
   7.47203E+00  1.36762E+01  1.27805E+01  1.13255E+01  9.98179E+00  6.39261E+00  7.43984E+00  8.48741E+00  6.08398E+00  6.42387E+00
   4.36809E+00  7.34818E+00  6.41295E+00  4.86073E+00  4.26653E+00  2.85566E+00  4.27700E+00  3.84758E+00  4.13581E+00  7.44281E+00
   6.95503E+00  7.58481E+00  7.08217E+00  7.83934E+00  8.90925E+00  6.66434E+00  8.25949E+00  1.20396E+01  1.17724E+01  8.28907E+00
   7.50217E+00  1.02280E+01  1.26453E+01  1.25667E+01  1.17273E+01  1.31479E+01  1.62719E+01  1.81613E+01  1.91106E+01  2.03667E+01
   2.24761E+01  2.41914E+01  2.57266E+01  2.73760E+01  2.90411E+01  3.09102E+01  3.30774E+01  3.53461E+01  3.76519E+01  4.01381E+01
   4.28028E+01  4.54710E+01  4.81324E+01  5.08871E+01  5.37983E+01  5.67588E+01  5.96729E+01  6.26155E+01  6.55858E+01  6.84399E+01
   7.11647E+01  7.36493E+01  7.59670E+01  7.81016E+01  7.99551E+01  8.14479E+01  8.26490E+01  8.35577E+01  8.41435E+01  8.43181E+01
   8.41421E+01  8.36669E+01  8.29010E+01  8.18084E+01  8.04392E+01  7.88582E+01  7.70926E+01  7.51646E+01  7.31179E+01  7.10022E+01
   6.88483E+01  6.66913E+01  6.45624E+01  6.24899E+01  6.04963E+01  5.86007E+01  5.68195E+01  5.51661E+01  5.36474E+01  5.22688E+01
   5.10328E+01  4.99403E+01  4.89887E+01  4.81750E+01  4.74945E+01  4.69420E+01  4.65111E+01  4.61952E+01  4.59872E+01  4.58798E+01
   4.58655E+01  4.59370E+01  4.60864E+01  4.63065E+01  4.65898E+01  4.69291E+01  4.73173E+01  4.77475E+01  4.82128E+01  4.87069E+01
   4.92233E+01  4.97560E+01  5.02987E+01  5.08457E+01  5.13907E+01  5.19276E+01  5.24498E+01  5.29506E+01  5.34224E+01  5.38575E+01
   5.42473E+01  5.45830E+01  5.48553E+01  5.50550E+01  5.51726E+01  5.51996E+01  5.51280E+01  5.49514E+01  5.46649E+01  5.42660E+01
   5.37543E+01  5.31324E+01  5.24051E+01  5.15807E+01  5.06694E+01  4.96841E+01  4.86390E+01  4.75503E+01  4.64343E+01  4.53080E+01
   4.41871E+01  4.30867E+01  4.20200E+01  4.09980E+01  4.00290E+01  3.91189E+01  3.82701E+01  3.74825E+01  3.67530E+01  3.60761E+01
   3.54437E+01  3.48464E+01  3.42728E+01  3.37113E+01  3.31493E+01  3.25750E+01  3.19766E+01  3.13441E+01  3.06683E+01  2.99424E+01
   2.91610E+01  2.83213E+01  2.74223E+01  2.64652E+01  2.54527E+01  2.43898E+01  2.32823E+01  2.21372E+01  2.09622E+01  1.97655E+01
   1.85550E+01  1.73388E+01  1.61241E+01  1.49177E+01  1.37254E+01  1.25524E+01  1.14027E+01  1.02796E+01  9.18531E+00  8.12156E+00
   7.08896E+00  6.08780E+00  5.11758E+00  4.17768E+00  3.26682E+00  2.38380E+00  1.52697E+00  6.94864E-01 -1.14263E-01 -9.01874E-01
  -1.66968E+00 -2.41905E+00 -3.15153E+00 -3.86830E+00 -4.57068E+00 -5.25965E+00 -5.93635E+00 -6.60156E+00 -7.25622E+00 -7.90092E+00
  -8.53643E+00 -9.16317E+00 -9.78180E+00 -1.03926E+01 -1.09962E+01 -1.15926E+01 -1.21824E+01 -1.27656E+01 -1.33426E+01 -1.39134E+01
  -1.44784E+01 -1.50374E+01 -1.55908E+01 -1.61385E+01 -1.66806E+01 -1.72171E+01 -1.77482E+01 -1.82737E+01 -1.87937E+01 -1.93080E+01
  -1.98170E+01 -2.03202E+01 -2.08178E+01 -2.13097E+01 -2.17959E+01 -2.22761E+01 -2.27506E+01 -2.32190E+01 -2.36814E+01 -2.41375E+01
  -2.45875E+01 -2.50311E+01 -2.54683E+01 -2.58989E+01 -2.63228E+01 -2.67399E+01 -2.71502E+01 -2.75535E+01 -2.79496E+01 -2.83385E+01
  -2.87200E+01 -2.90940E+01 -2.94604E+01 -2.98190E+01 -3.01697E+01 -3.05124E+01 -3.08470E+01 -3.11732E+01 -3.14911E+01 -3.18003E+01
  -3.21009E+01 -3.23925E+01 -3.26753E+01 -3.29488E+01 -3.32131E+01 -3.34678E+01 -3.37130E+01 -3.39483E+01
 NY background values follow
    -1.303E+01   -1.302E+01   -1.301E+01   -1.300E+01   -1.300E+01   -1.299E+01   -1.298E+01   -1.298E+01   -1.297E+01   -1.297E+01
    -1.296E+01   -1.296E+01   -1.295E+01   -1.295E+01   -1.295E+01   -1.295E+01   -1.295E+01   -1.294E+01   -1.294E+01   -1.294E+01
    -1.294E+01   -1.294E+01   -1.294E+01   -1.294E+01   -1.295E+01   -1.295E+01   -1.295E+01   -1.295E+01   -1.295E+01   -1.296E+01
    -1.296E+01   -1.296E+01   -1.296E+01   -1.297E+01   -1.297E+01   -1.297E+01   -1.298E+01   -1.298E+01   -1.299E+01   -1.299E+01
    -1.299E+01   -1.300E+01   -1.300E+01   -1.301E+01   -1.301E+01   -1.302E+01   -1.302E+01   -1.302E+01   -1.303E+01   -1.303E+01
    -1.304E+01   -1.304E+01   -1.304E+01   -1.305E+01   -1.305E+01   -1.306E+01   -1.306E+01   -1.306E+01   -1.307E+01   -1.307E+01
    -1.307E+01   -1.307E+01   -1.308E+01   -1.308E+01   -1.308E+01   -1.308E+01   -1.308E+01   -1.308E+01   -1.309E+01   -1.309E+01
    -1.309E+01   -1.309E+01   -1.308E+01   -1.308E+01   -1.308E+01   -1.308E+01   -1.308E+01   -1.307E+01   -1.307E+01   -1.307E+01
    -1.306E+01   -1.306E+01   -1.305E+01   -1.305E+01   -1.304E+01   -1.304E+01   -1.303E+01   -1.302E+01   -1.301E+01   -1.300E+01
    -1.299E+01   -1.298E+01   -1.297E+01   -1.296E+01   -1.295E+01   -1.294E+01   -1.293E+01   -1.292E+01   -1.290E+01   -1.289E+01
    -1.288E+01   -1.286E+01   -1.285E+01   -1.284E+01   -1.282E+01   -1.281E+01   -1.279E+01   -1.277E+01   -1.276E+01   -1.274E+01
    -1.273E+01   -1.271E+01   -1.269E+01   -1.267E+01   -1.266E+01   -1.264E+01   -1.262E+01   -1.260E+01   -1.258E+01   -1.257E+01
    -1.255E+01   -1.253E+01   -1.251E+01   -1.249E+01   -1.247E+01   -1.245E+01   -1.243E+01   -1.241E+01   -1.239E+01   -1.237E+01
    -1.235E+01   -1.233E+01   -1.231E+01   -1.229E+01   -1.227E+01   -1.225E+01   -1.223E+01   -1.221E+01   -1.219E+01   -1.217E+01
    -1.215E+01   -1.213E+01   -1.211E+01   -1.209E+01   -1.207E+01   -1.205E+01   -1.203E+01   -1.201E+01   -1.199E+01   -1.197E+01
    -1.195E+01   -1.193E+01   -1.191E+01   -1.190E+01   -1.188E+01   -1.186E+01   -1.184E+01   -1.182E+01   -1.180E+01   -1.179E+01
    -1.177E+01   -1.175E+01   -1.173E+01   -1.172E+01   -1.170E+01   -1.168E+01   -1.167E+01   -1.165E+01   -1.164E+01   -1.162E+01
    -1.161E+01   -1.159E+01   -1.158E+01   -1.156E+01   -1.154E+01   -1.153E+01   -1.151E+01   -1.149E+01   -1.148E+01   -1.146E+01
    -1.144E+01   -1.142E+01   -1.140E+01   -1.138E+01   -1.136E+01   -1.133E+01   -1.131E+01   -1.128E+01   -1.126E+01   -1.123E+01
    -1.120E+01   -1.117E+01   -1.113E+01   -1.110E+01   -1.106E+01   -1.103E+01   -1.099E+01   -1.095E+01   -1.090E+01   -1.086E+01
    -1.081E+01   -1.076E+01   -1.071E+01   -1.065E+01   -1.060E+01   -1.054E+01   -1.047E+01   -1.041E+01   -1.034E+01   -1.027E+01
    -1.020E+01   -1.012E+01   -1.004E+01   -9.961E+00   -9.876E+00   -9.788E+00   -9.696E+00   -9.601E+00   -9.502E+00   -9.400E+00
    -9.294E+00   -9.185E+00   -9.072E+00   -8.955E+00   -8.834E+00   -8.709E+00   -8.580E+00   -8.447E+00   -8.310E+00   -8.169E+00
    -8.023E+00   -7.873E+00   -7.718E+00   -7.559E+00   -7.396E+00   -7.227E+00   -7.054E+00   -6.876E+00   -6.693E+00   -6.505E+00
    -6.312E+00   -6.114E+00   -5.911E+00   -5.703E+00   -5.489E+00   -5.270E+00   -5.045E+00   -4.815E+00   -4.579E+00   -4.337E+00
    -4.090E+00   -3.837E+00   -3.579E+00   -3.316E+00   -3.048E+00   -2.775E+00   -2.497E+00   -2.216E+00   -1.930E+00   -1.640E+00
    -1.346E+00   -1.048E+00   -7.475E-01   -4.433E-01   -1.360E-01    1.742E-01    4.872E-01    8.027E-01    1.121E+00    1.441E+00
     1.763E+00    2.087E+00    2.412E+00    2.739E+00    3.067E+00    3.397E+00    3.727E+00    4.058E+00    4.390E+00    4.722E+00
     5.054E+00    5.386E+00    5.718E+00    6.050E+00    6.381E+00    6.711E+00    7.040E+00    7.369E+00    7.696E+00    8.022E+00
     8.346E+00    8.668E+00    8.988E+00    9.306E+00    9.621E+00    9.934E+00    1.024E+01    1.055E+01    1.086E+01    1.116E+01
     1.146E+01    1.175E+01    1.204E+01    1.233E+01    1.261E+01    1.288E+01    1.316E+01    1.343E+01    1.369E+01    1.395E+01
     1.420E+01    1.445E+01    1.469E+01    1.493E+01    1.516E+01    1.538E+01    1.560E+01    1.581E+01    1.601E+01    1.621E+01
     1.640E+01    1.658E+01    1.676E+01    1.693E+01    1.709E+01    1.724E+01    1.738E+01    1.752E+01    1.764E+01    1.776E+01
     1.787E+01    1.797E+01    1.806E+01    1.814E+01    1.822E+01    1.828E+01    1.833E+01    1.838E+01    1.841E+01    1.844E+01
     1.846E+01    1.847E+01    1.847E+01    1.846E+01    1.844E+01    1.842E+01    1.839E+01    1.834E+01    1.829E+01    1.824E+01
     1.817E+01    1.810E+01    1.801E+01    1.792E+01    1.782E+01    1.772E+01    1.760E+01    1.748E+01    1.735E+01    1.722E+01
     1.707E+01    1.692E+01    1.676E+01    1.660E+01    1.642E+01    1.624E+01    1.605E+01    1.586E+01    1.566E+01    1.545E+01
     1.523E+01    1.501E+01    1.478E+01    1.455E+01    1.431E+01    1.406E+01    1.380E+01    1.354E+01    1.327E+01    1.300E+01
     1.272E+01    1.244E+01    1.214E+01    1.185E+01    1.154E+01    1.123E+01    1.092E+01    1.060E+01    1.027E+01    9.942E+00
     9.604E+00    9.262E+00    8.914E+00    8.561E+00    8.203E+00    7.840E+00    7.472E+00    7.098E+00    6.720E+00    6.337E+00
     5.950E+00    5.557E+00    5.160E+00    4.758E+00    4.352E+00    3.942E+00    3.527E+00    3.107E+00    2.684E+00    2.256E+00
     1.824E+00    1.389E+00    9.490E-01    5.055E-01    5.804E-02   -3.931E-01   -8.479E-01   -1.306E+00   -1.768E+00   -2.232E+00
    -2.700E+00   -3.170E+00   -3.643E+00   -4.119E+00   -4.597E+00   -5.077E+00   -5.559E+00   -6.043E+00   -6.529E+00   -7.016E+00
    -7.504E+00   -7.994E+00   -8.485E+00   -8.977E+00   -9.469E+00   -9.963E+00   -1.046E+01   -1.095E+01   -1.144E+01   -1.194E+01
    -1.243E+01   -1.292E+01   -1.342E+01   -1.391E+01   -1.440E+01   -1.489E+01   -1.538E+01   -1.587E+01   -1.635E+01   -1.684E+01
    -1.732E+01   -1.780E+01   -1.828E+01   -1.876E+01   -1.923E+01   -1.970E+01   -2.017E+01   -2.064E+01   -2.110E+01   -2.156E+01
    -2.202E+01   -2.247E+01   -2.292E+01   -2.336E+01   -2.380E+01   -2.424E+01   -2.467E+01   -2.510E+01   -2.552E+01   -2.594E+01
    -2.636E+01   -2.677E+01   -2.717E+01   -2.757E+01   -2.796E+01   -2.834E+01   -2.872E+01   -2.910E+01   -2.947E+01   -2.983E+01
    -3.018E+01   -3.053E+01   -3.087E+01   -3.121E+01   -3.153E+01   -3.185E+01   -3.217E+01   -3.247E+01   -3.277E+01   -3.306E+01
    -3.334E+01   -3.361E+01   -3.387E+01   -3.413E+01   -3.438E+01   -3.461E+01   -3.484E+01   -3.506E+01
 Asp      Conc. = 2.07E+01
