 LCModel (Version 6.3-1L) Copyright: S.W. Provencher.          Ref.: Magn. Reson. Med. 30:672-679 (1993).                
 Slice#2 Row#10 Col#2  PD_24_press_2_raw_act
 36 lines in following concentration table = NCONC+1
    Conc.  %SD /Cr+PCr  Metabolite                                         
    0.000 999%   0.000 Ala                                                 
 3.47E+03  23%  62.767 Asp                                                 
    0.000 999%   0.000 Cr                                                  
   55.214 159%   1.000 PCr                                                 
    0.000 999%   0.000 GABA                                                
    0.000 999%   0.000 Glc                                                 
    0.000 999%   0.000 Gln                                                 
  477.760 114%   8.653 Glu                                                 
    0.000 999%   0.000 GPC                                                 
   59.809  52%   1.083 PCh                                                 
    0.000 999%   0.000 GSH                                                 
 1.29E+03  32%  23.415 Ins                                                 
    0.000 999%   0.000 Lac                                                 
 2.94E+03  16%  53.171 NAA                                                 
 1.95E+03  18%  35.229 NAAG                                                
    0.000 999%   0.000 Scyllo                                              
 1.74E+03  37%  31.528 Tau                                                 
  125.183 105%   2.267 -CrCH2                                              
   59.809  52%   1.083 GPC+PCh                                             
 4.88E+03  16%  88.400 NAA+NAAG                                            
   55.214 159%   1.000 Cr+PCr                                              
  477.760 114%   8.653 Glu+Gln                                             
 1.10E+05  16% 2.0E+03 Lip13a                                              
    0.000 999%   0.000 Lip13b                                              
 6.09E+04  16% 1.1E+03 Lip09                                               
 3.08E+04  16% 558.469 MM09                                                
 2.59E+04   6% 469.101 Lip20                                               
    0.000 999%   0.000 MM20                                                
 3.23E+04  21% 584.662 MM12                                                
 6.77E+04  18% 1.2E+03 MM14                                                
 3.49E+04  20% 632.175 MM17                                                
 1.10E+05  16% 2.0E+03 Lip13a+Lip13b                                       
 2.10E+05   6% 3.8E+03 MM14+Lip13a+Lip13b+MM12                             
 9.17E+04  11% 1.7E+03 MM09+Lip09                                          
 2.59E+04   6% 469.101 MM20+Lip20                                          
   6 lines in following misc. output table
  FWHM = 0.199 ppm    S/N =  16                                            
  Data shift = 0.313 ppm                                                   
  Ph:  -1 deg     180.1 deg/ppm                                            
  alphaB,S = 2.8E-01,   1.1E+01                                            
   13 spline knots.   Ns = 9(2)                                            
  ( 8) 4 infls.   ( 6) 4 extrs.                                            
  498 points on ppm-axis = NY
      4.000000     3.992357     3.984714     3.977070     3.969427     3.961784     3.954141     3.946497     3.938854     3.931211
      3.923568     3.915925     3.908281     3.900638     3.892995     3.885352     3.877708     3.870065     3.862422     3.854779
      3.847136     3.839492     3.831849     3.824206     3.816563     3.808919     3.801276     3.793633     3.785990     3.778347
      3.770703     3.763060     3.755417     3.747774     3.740130     3.732487     3.724844     3.717201     3.709558     3.701914
      3.694271     3.686628     3.678985     3.671341     3.663698     3.656055     3.648412     3.640769     3.633125     3.625482
      3.617839     3.610196     3.602552     3.594909     3.587266     3.579623     3.571980     3.564336     3.556693     3.549050
      3.541407     3.533763     3.526120     3.518477     3.510834     3.503191     3.495547     3.487904     3.480261     3.472618
      3.464974     3.457331     3.449688     3.442045     3.434402     3.426758     3.419115     3.411472     3.403829     3.396185
      3.388542     3.380899     3.373256     3.365613     3.357969     3.350326     3.342683     3.335040     3.327396     3.319753
      3.312110     3.304467     3.296824     3.289180     3.281537     3.273894     3.266251     3.258607     3.250964     3.243321
      3.235678     3.228034     3.220391     3.212748     3.205105     3.197462     3.189818     3.182175     3.174532     3.166889
      3.159245     3.151602     3.143959     3.136316     3.128673     3.121029     3.113386     3.105743     3.098100     3.090456
      3.082813     3.075170     3.067527     3.059884     3.052240     3.044597     3.036954     3.029311     3.021667     3.014024
      3.006381     2.998738     2.991095     2.983451     2.975808     2.968165     2.960522     2.952878     2.945235     2.937592
      2.929949     2.922306     2.914662     2.907019     2.899376     2.891733     2.884089     2.876446     2.868803     2.861160
      2.853517     2.845873     2.838230     2.830587     2.822944     2.815300     2.807657     2.800014     2.792371     2.784728
      2.777084     2.769441     2.761798     2.754155     2.746511     2.738868     2.731225     2.723582     2.715939     2.708295
      2.700652     2.693009     2.685366     2.677722     2.670079     2.662436     2.654793     2.647150     2.639506     2.631863
      2.624220     2.616577     2.608933     2.601290     2.593647     2.586004     2.578361     2.570717     2.563074     2.555431
      2.547788     2.540144     2.532501     2.524858     2.517215     2.509572     2.501928     2.494285     2.486642     2.478999
      2.471355     2.463712     2.456069     2.448426     2.440783     2.433139     2.425496     2.417853     2.410210     2.402566
      2.394923     2.387280     2.379637     2.371994     2.364350     2.356707     2.349064     2.341421     2.333777     2.326134
      2.318491     2.310848     2.303205     2.295561     2.287918     2.280275     2.272632     2.264988     2.257345     2.249702
      2.242059     2.234416     2.226772     2.219129     2.211486     2.203843     2.196199     2.188556     2.180913     2.173270
      2.165627     2.157983     2.150340     2.142697     2.135054     2.127410     2.119767     2.112124     2.104481     2.096838
      2.089194     2.081551     2.073908     2.066265     2.058621     2.050978     2.043335     2.035692     2.028049     2.020405
      2.012762     2.005119     1.997476     1.989833     1.982190     1.974546     1.966903     1.959260     1.951617     1.943974
      1.936331     1.928688     1.921045     1.913402     1.905759     1.898115     1.890472     1.882829     1.875186     1.867543
      1.859900     1.852257     1.844614     1.836971     1.829327     1.821684     1.814041     1.806398     1.798755     1.791112
      1.783469     1.775826     1.768183     1.760540     1.752896     1.745253     1.737610     1.729967     1.722324     1.714681
      1.707038     1.699395     1.691752     1.684108     1.676465     1.668822     1.661179     1.653536     1.645893     1.638250
      1.630607     1.622964     1.615321     1.607677     1.600034     1.592391     1.584748     1.577105     1.569462     1.561819
      1.554176     1.546533     1.538890     1.531246     1.523603     1.515960     1.508317     1.500674     1.493031     1.485388
      1.477745     1.470102     1.462458     1.454815     1.447172     1.439529     1.431886     1.424243     1.416600     1.408957
      1.401314     1.393671     1.386027     1.378384     1.370741     1.363098     1.355455     1.347812     1.340169     1.332526
      1.324883     1.317240     1.309596     1.301953     1.294310     1.286667     1.279024     1.271381     1.263738     1.256095
      1.248452     1.240808     1.233165     1.225522     1.217879     1.210236     1.202593     1.194950     1.187307     1.179664
      1.172021     1.164377     1.156734     1.149091     1.141448     1.133805     1.126162     1.118519     1.110876     1.103233
      1.095590     1.087946     1.080303     1.072660     1.065017     1.057374     1.049731     1.042088     1.034445     1.026802
      1.019158     1.011515     1.003872     0.996229     0.988586     0.980943     0.973300     0.965657     0.958014     0.950371
      0.942727     0.935084     0.927441     0.919798     0.912155     0.904512     0.896869     0.889226     0.881583     0.873940
      0.866296     0.858653     0.851010     0.843367     0.835724     0.828081     0.820438     0.812795     0.805152     0.797508
      0.789865     0.782222     0.774579     0.766936     0.759293     0.751650     0.744007     0.736364     0.728721     0.721077
      0.713434     0.705791     0.698148     0.690505     0.682862     0.675219     0.667576     0.659933     0.652290     0.644646
      0.637003     0.629360     0.621717     0.614074     0.606431     0.598788     0.591145     0.583502     0.575858     0.568215
      0.560572     0.552929     0.545286     0.537643     0.530000     0.522357     0.514714     0.507071     0.499427     0.491784
      0.484141     0.476498     0.468855     0.461212     0.453569     0.445925     0.438282     0.430639     0.422996     0.415353
      0.407710     0.400067     0.392424     0.384780     0.377137     0.369494     0.361851     0.354208     0.346565     0.338922
      0.331278     0.323635     0.315992     0.308349     0.300706     0.293063     0.285420     0.277777     0.270133     0.262490
      0.254847     0.247204     0.239561     0.231918     0.224275     0.216631     0.208988     0.201345
 NY phased data points follow
  -1.48085E+02 -1.42570E+02 -1.36573E+02 -1.30065E+02 -1.25557E+02 -1.25400E+02 -1.19266E+02 -1.14391E+02 -1.09414E+02 -1.03766E+02
  -9.99624E+01 -9.45684E+01 -9.17736E+01 -8.81913E+01 -7.98232E+01 -7.89233E+01 -7.32201E+01 -6.35730E+01 -6.24621E+01 -5.64056E+01
  -5.38569E+01 -4.97262E+01 -4.85702E+01 -3.82301E+01 -3.50147E+01 -3.30028E+01 -2.71450E+01 -2.52312E+01 -1.95110E+01 -1.75620E+01
  -1.26261E+01 -8.96481E+00 -7.72539E+00 -5.56314E+00  1.84587E+00  4.75507E+00  6.42981E+00  1.06200E+01  1.35045E+01  1.92066E+01
   2.19597E+01  2.19906E+01  2.69849E+01  2.79316E+01  2.85704E+01  3.04661E+01  3.70964E+01  3.53388E+01  3.55797E+01  4.03892E+01
   3.84975E+01  4.45764E+01  4.59617E+01  4.72342E+01  4.83279E+01  4.70146E+01  4.99706E+01  4.96357E+01  5.01966E+01  5.41352E+01
   5.32013E+01  5.93290E+01  5.87259E+01  5.62573E+01  6.10437E+01  5.63192E+01  5.71636E+01  5.98983E+01  6.27921E+01  6.47650E+01
   5.80525E+01  6.27676E+01  6.02182E+01  6.16746E+01  5.95405E+01  5.99442E+01  6.23336E+01  6.50999E+01  6.23796E+01  6.50977E+01
   6.53154E+01  6.86436E+01  6.68647E+01  7.18743E+01  6.75827E+01  7.64900E+01  7.69183E+01  7.38168E+01  7.25391E+01  7.57821E+01
   7.80158E+01  7.56751E+01  8.45682E+01  8.57526E+01  8.61722E+01  8.97795E+01  8.63080E+01  8.59848E+01  8.84889E+01  9.14132E+01
   8.77163E+01  9.15137E+01  8.77153E+01  8.56595E+01  8.79275E+01  8.59353E+01  8.39971E+01  8.41771E+01  8.12530E+01  8.39539E+01
   7.86778E+01  8.04151E+01  7.42110E+01  7.87483E+01  7.28816E+01  6.97975E+01  6.93403E+01  7.17812E+01  7.00342E+01  6.87265E+01
   6.35802E+01  6.44357E+01  6.25963E+01  5.91933E+01  6.20396E+01  5.83819E+01  6.03421E+01  5.80910E+01  6.13148E+01  5.65643E+01
   5.83505E+01  5.67205E+01  5.75471E+01  5.74310E+01  5.79005E+01  5.87481E+01  5.78361E+01  5.85407E+01  5.87715E+01  5.91387E+01
   6.01105E+01  6.40494E+01  6.36914E+01  6.56634E+01  6.42018E+01  6.78925E+01  7.15668E+01  7.33385E+01  7.43494E+01  7.47309E+01
   7.68601E+01  7.71725E+01  8.21682E+01  8.68284E+01  9.08363E+01  8.99935E+01  9.11604E+01  9.29147E+01  9.31635E+01  9.72058E+01
   9.20288E+01  9.41181E+01  9.68640E+01  9.33210E+01  9.93124E+01  9.74570E+01  9.91971E+01  1.03919E+02  1.04109E+02  1.05344E+02
   1.02962E+02  1.03223E+02  1.02103E+02  1.05672E+02  1.04538E+02  9.99651E+01  9.89823E+01  9.68599E+01  9.77728E+01  9.43529E+01
   9.13521E+01  8.54145E+01  7.72364E+01  7.68414E+01  7.14722E+01  6.17187E+01  5.81227E+01  5.16047E+01  4.51331E+01  3.59749E+01
   3.03597E+01  2.21832E+01  1.67839E+01  1.25459E+01  2.52881E+00 -5.90053E+00 -1.26374E+01 -1.56821E+01 -1.99792E+01 -2.45445E+01
  -2.96873E+01 -3.47681E+01 -4.15171E+01 -4.28723E+01 -4.76273E+01 -4.92997E+01 -5.39888E+01 -5.43840E+01 -5.53110E+01 -6.01964E+01
  -5.97264E+01 -6.30558E+01 -6.08730E+01 -6.33260E+01 -6.43521E+01 -6.47975E+01 -6.86409E+01 -6.63149E+01 -6.94965E+01 -7.17328E+01
  -6.97664E+01 -6.55323E+01 -6.19010E+01 -6.16596E+01 -6.01930E+01 -6.11155E+01 -6.28809E+01 -6.31611E+01 -5.76357E+01 -5.29358E+01
  -5.27282E+01 -5.41026E+01 -5.15480E+01 -4.74558E+01 -4.31986E+01 -4.46559E+01 -3.85757E+01 -3.91260E+01 -3.73618E+01 -3.28449E+01
  -3.13926E+01 -2.86817E+01 -2.41401E+01 -2.11116E+01 -2.14381E+01 -1.82339E+01 -1.47002E+01 -1.24214E+01 -1.41805E+01 -1.18864E+01
  -8.35375E+00 -9.52607E+00 -5.37330E+00 -9.72531E+00 -6.23905E+00 -1.24536E+01 -1.29484E+01 -1.55376E+01 -2.01140E+01 -2.44587E+01
  -3.44078E+01 -4.70666E+01 -5.89290E+01 -6.90707E+01 -8.87598E+01 -1.08296E+02 -1.32621E+02 -1.61080E+02 -1.88013E+02 -2.22038E+02
  -2.54943E+02 -2.87797E+02 -3.25883E+02 -3.55772E+02 -3.87293E+02 -4.09238E+02 -4.30908E+02 -4.46585E+02 -4.59139E+02 -4.63496E+02
  -4.57751E+02 -4.47459E+02 -4.36836E+02 -4.16246E+02 -3.86742E+02 -3.60406E+02 -3.31469E+02 -2.99786E+02 -2.65936E+02 -2.39431E+02
  -2.04276E+02 -1.75349E+02 -1.53088E+02 -1.23141E+02 -9.76157E+01 -7.74642E+01 -5.83328E+01 -4.00865E+01 -2.64153E+01 -1.20103E+01
   6.23772E+00  1.59300E+01  2.55990E+01  3.83942E+01  4.55585E+01  5.18119E+01  5.63075E+01  6.68722E+01  7.27393E+01  7.55831E+01
   7.92437E+01  8.50002E+01  9.20359E+01  9.32643E+01  9.66206E+01  9.80673E+01  9.99207E+01  1.05945E+02  1.04016E+02  1.06097E+02
   1.02092E+02  1.04477E+02  1.05918E+02  1.04992E+02  1.07900E+02  1.12907E+02  1.08309E+02  1.08493E+02  1.13974E+02  1.09755E+02
   1.11596E+02  1.11526E+02  1.15116E+02  1.16568E+02  1.17117E+02  1.16281E+02  1.18313E+02  1.21659E+02  1.23816E+02  1.22684E+02
   1.25158E+02  1.27519E+02  1.25940E+02  1.26235E+02  1.29849E+02  1.29367E+02  1.33124E+02  1.32493E+02  1.30306E+02  1.31854E+02
   1.33170E+02  1.34671E+02  1.36748E+02  1.35152E+02  1.33864E+02  1.37767E+02  1.38454E+02  1.36001E+02  1.33881E+02  1.34427E+02
   1.32013E+02  1.29279E+02  1.32159E+02  1.27307E+02  1.30332E+02  1.27956E+02  1.27560E+02  1.24335E+02  1.22818E+02  1.20234E+02
   1.19608E+02  1.16295E+02  1.14617E+02  1.13927E+02  1.11938E+02  1.06741E+02  1.08585E+02  1.04140E+02  1.01870E+02  9.74610E+01
   9.82514E+01  9.58723E+01  9.25723E+01  8.92612E+01  8.87546E+01  8.50547E+01  8.09999E+01  8.23151E+01  7.72952E+01  7.64528E+01
   7.20505E+01  6.92903E+01  6.54035E+01  6.49710E+01  6.13774E+01  6.18385E+01  5.56182E+01  5.61032E+01  5.08638E+01  4.87618E+01
   5.06207E+01  4.13137E+01  4.43515E+01  4.16880E+01  3.73524E+01  3.83904E+01  3.19414E+01  3.24541E+01  2.99206E+01  2.47715E+01
   2.49329E+01  2.10389E+01  1.71526E+01  1.32449E+01  1.36919E+01  1.16691E+01  1.12485E+01  5.93567E+00  5.90126E+00 -2.87652E+00
  -3.85990E+00  7.05493E-01 -6.67450E+00 -4.21133E+00 -8.72401E+00 -1.03133E+01 -1.17766E+01 -1.41175E+01 -1.86472E+01 -1.77014E+01
  -2.13610E+01 -2.10947E+01 -2.21067E+01 -2.65596E+01 -2.66595E+01 -2.77881E+01 -2.84796E+01 -3.54245E+01 -3.43775E+01 -3.53861E+01
  -3.99876E+01 -3.68974E+01 -3.82832E+01 -4.11586E+01 -4.06317E+01 -4.25547E+01 -4.50626E+01 -4.34377E+01 -4.50040E+01 -4.70452E+01
  -4.60223E+01 -4.96991E+01 -5.19923E+01 -5.03666E+01 -5.36337E+01 -5.58124E+01 -5.45647E+01 -5.48433E+01 -5.42778E+01 -5.55571E+01
  -5.68152E+01 -5.94077E+01 -5.97068E+01 -5.82434E+01 -5.85552E+01 -6.22432E+01 -5.89950E+01 -5.96738E+01 -6.20056E+01 -6.18223E+01
  -6.01538E+01 -6.34319E+01 -6.22073E+01 -6.19650E+01 -6.19926E+01 -6.16789E+01 -6.36813E+01 -6.63082E+01 -6.21932E+01 -6.34252E+01
  -6.40776E+01 -6.22845E+01 -6.69352E+01 -6.27561E+01 -6.60507E+01 -6.37965E+01 -6.49801E+01 -6.46726E+01 -6.10041E+01 -6.36552E+01
  -6.25181E+01 -5.98681E+01 -6.12210E+01 -5.98965E+01 -6.02511E+01 -6.18129E+01 -5.85227E+01 -6.20552E+01
 NY points of the fit to the data follow
  -1.23099E+02 -1.19197E+02 -1.18067E+02 -1.16717E+02 -1.20927E+02 -1.19797E+02 -1.19499E+02 -1.16592E+02 -1.13747E+02 -1.09207E+02
  -1.05820E+02 -1.00553E+02 -9.20152E+01 -8.86712E+01 -8.08602E+01 -7.54986E+01 -6.95188E+01 -6.52969E+01 -5.96728E+01 -5.44118E+01
  -5.00397E+01 -4.49046E+01 -4.10925E+01 -3.66532E+01 -3.52593E+01 -3.24383E+01 -3.08457E+01 -2.74000E+01 -2.00322E+01 -1.62281E+01
  -1.44201E+01 -1.45614E+01 -6.64540E+00 -2.60442E+00  8.33944E+00  1.03032E+01  1.04355E+01  1.06426E+01  1.15465E+01  1.46129E+01
   1.05429E+01  1.07817E+01  5.20435E+00  7.38235E+00  1.24209E+01  1.68876E+01  2.16954E+01  2.63338E+01  3.13800E+01  3.53412E+01
   3.96961E+01  4.37402E+01  4.48670E+01  4.87635E+01  4.86243E+01  5.00530E+01  4.75644E+01  5.35379E+01  4.85136E+01  5.06927E+01
   4.84640E+01  5.11715E+01  4.97155E+01  5.39786E+01  5.60991E+01  6.03062E+01  6.64612E+01  7.07500E+01  7.05581E+01  6.86252E+01
   6.63128E+01  6.54992E+01  6.39609E+01  6.57023E+01  6.50302E+01  6.64258E+01  6.39240E+01  6.54368E+01  6.44803E+01  6.65335E+01
   7.04729E+01  6.99779E+01  6.98411E+01  6.71820E+01  6.84558E+01  6.60396E+01  7.28430E+01  6.90505E+01  7.20937E+01  7.32254E+01
   7.43842E+01  7.62712E+01  7.95950E+01  8.00847E+01  8.15800E+01  8.86564E+01  8.87687E+01  8.60072E+01  8.42209E+01  8.08705E+01
   7.90182E+01  8.01524E+01  8.27921E+01  8.42488E+01  8.49831E+01  8.61137E+01  8.47752E+01  8.46577E+01  8.24297E+01  8.28708E+01
   8.05623E+01  8.03684E+01  7.96452E+01  7.42296E+01  6.92666E+01  6.50716E+01  6.25864E+01  6.02878E+01  6.55571E+01  6.49906E+01
   6.17916E+01  6.16137E+01  6.11602E+01  6.27172E+01  6.62842E+01  6.82806E+01  6.66753E+01  6.71419E+01  6.88435E+01  6.89204E+01
   7.21111E+01  7.28033E+01  7.26701E+01  7.24031E+01  7.18566E+01  7.16924E+01  6.99753E+01  7.03227E+01  6.78340E+01  6.81781E+01
   6.74867E+01  6.77859E+01  6.81778E+01  6.82075E+01  6.75258E+01  6.69557E+01  6.85351E+01  6.87416E+01  6.97899E+01  6.94637E+01
   7.20438E+01  7.51154E+01  8.12010E+01  8.67765E+01  9.32415E+01  9.99772E+01  1.04422E+02  1.10228E+02  1.12162E+02  1.15581E+02
   1.15194E+02  1.13627E+02  1.11684E+02  1.07640E+02  1.02445E+02  9.44088E+01  9.30143E+01  8.83414E+01  9.11525E+01  9.25813E+01
   9.05896E+01  9.10814E+01  9.10757E+01  9.31975E+01  9.44197E+01  9.62292E+01  9.50270E+01  9.09500E+01  8.69018E+01  7.99570E+01
   7.20783E+01  6.37105E+01  5.18656E+01  4.36446E+01  3.48084E+01  3.08367E+01  2.41512E+01  2.33435E+01  1.99915E+01  2.36932E+01
   2.28846E+01  2.59177E+01  2.32382E+01  2.22744E+01  1.75274E+01  1.19652E+01  7.63421E+00  5.83097E-01 -4.21178E+00 -1.61694E+01
  -2.03017E+01 -2.87726E+01 -3.19946E+01 -3.81407E+01 -4.17360E+01 -4.54554E+01 -4.51968E+01 -4.19147E+01 -4.38978E+01 -4.64850E+01
  -5.12660E+01 -5.33369E+01 -5.68701E+01 -6.15039E+01 -6.64713E+01 -7.41896E+01 -7.64862E+01 -7.72500E+01 -7.62066E+01 -7.57660E+01
  -7.30065E+01 -7.44320E+01 -7.31196E+01 -7.53813E+01 -7.39461E+01 -7.41815E+01 -7.12460E+01 -6.91840E+01 -6.81677E+01 -6.59434E+01
  -6.57192E+01 -6.35477E+01 -6.46381E+01 -6.37216E+01 -6.56059E+01 -6.56985E+01 -6.12456E+01 -3.97033E+01 -3.42571E+01 -2.78860E+01
  -3.00117E+01 -3.00302E+01 -3.53925E+01 -3.70398E+01 -3.57748E+01 -1.99824E+01 -2.70094E+00 -5.49047E+00  4.98367E+00  1.20383E-01
   9.94435E+00  2.89425E+00  1.02893E+01 -2.53526E+00 -1.52877E+00 -1.06550E+01 -1.36123E+01 -1.67088E+01 -2.02822E+01 -2.30799E+01
  -3.02095E+01 -3.94263E+01 -4.95303E+01 -6.42205E+01 -7.61034E+01 -1.06255E+02 -1.24132E+02 -1.67755E+02 -1.88815E+02 -2.31102E+02
  -2.55826E+02 -2.99333E+02 -3.29056E+02 -3.67171E+02 -3.92833E+02 -3.91517E+02 -4.20186E+02 -4.34778E+02 -4.60109E+02 -4.56280E+02
  -4.64800E+02 -4.39349E+02 -4.21616E+02 -3.58207E+02 -3.16938E+02 -2.98444E+02 -2.84771E+02 -2.71456E+02 -2.56365E+02 -2.39671E+02
  -2.20499E+02 -1.99393E+02 -1.76518E+02 -1.52411E+02 -1.26988E+02 -1.01924E+02 -7.70135E+01 -5.28913E+01 -2.91647E+01 -7.73854E+00
   1.21551E+01  2.87363E+01  4.35440E+01  5.46252E+01  6.31310E+01  6.86112E+01  7.22366E+01  7.36632E+01  7.43057E+01  7.38893E+01
   7.36885E+01  7.40900E+01  7.51507E+01  7.69595E+01  7.96946E+01  8.33404E+01  8.77388E+01  9.27168E+01  9.77818E+01  1.03133E+02
   1.08272E+02  1.12911E+02  1.16785E+02  1.19713E+02  1.21570E+02  1.22357E+02  1.22109E+02  1.20977E+02  1.19123E+02  1.16798E+02
   1.14228E+02  1.11697E+02  1.09425E+02  1.07636E+02  1.06497E+02  1.06143E+02  1.06631E+02  1.07980E+02  1.10129E+02  1.12990E+02
   1.16406E+02  1.20212E+02  1.24201E+02  1.28181E+02  1.31943E+02  1.35319E+02  1.38147E+02  1.40329E+02  1.41783E+02  1.42501E+02
   1.42496E+02  1.41848E+02  1.40650E+02  1.39046E+02  1.37175E+02  1.35204E+02  1.33268E+02  1.31509E+02  1.30018E+02  1.28874E+02
   1.28090E+02  1.27661E+02  1.27522E+02  1.27591E+02  1.27743E+02  1.27856E+02  1.27784E+02  1.27410E+02  1.26616E+02  1.25336E+02
   1.23517E+02  1.21169E+02  1.18321E+02  1.15058E+02  1.11476E+02  1.07714E+02  1.03898E+02  1.00175E+02  9.66585E+01  9.34619E+01
   9.06471E+01  8.82642E+01  8.63057E+01  8.47505E+01  8.35248E+01  8.25526E+01  8.17194E+01  8.09247E+01  8.00466E+01  7.89938E+01
   7.76690E+01  7.60181E+01  7.39896E+01  7.15798E+01  6.87878E+01  6.56568E+01  6.22281E+01  5.85784E+01  5.47728E+01  5.09010E+01
   4.70300E+01  4.32426E+01  3.95915E+01  3.61395E+01  3.29148E+01  2.99531E+01  2.72548E+01  2.48291E+01  2.26529E+01  2.07152E+01
   1.89763E+01  1.74123E+01  1.59752E+01  1.46368E+01  1.33489E+01  1.20862E+01  1.08056E+01  9.48845E+00  8.09997E+00  6.63136E+00
   5.05817E+00  3.38141E+00  1.58614E+00 -3.18118E-01 -2.33814E+00 -4.45686E+00 -6.67470E+00 -8.96957E+00 -1.13384E+01 -1.37566E+01
  -1.62189E+01 -1.86994E+01 -2.11927E+01 -2.36738E+01 -2.61390E+01 -2.85649E+01 -3.09495E+01 -3.32719E+01 -3.55326E+01 -3.77136E+01
  -3.98184E+01 -4.18317E+01 -4.37592E+01 -4.55880E+01 -4.73263E+01 -4.89636E+01 -5.05102E+01 -5.19572E+01 -5.33158E+01 -5.45775E+01
  -5.57538E+01 -5.68366E+01 -5.78382E+01 -5.87509E+01 -5.95871E+01 -6.03400E+01 -6.10224E+01 -6.16277E+01 -6.21688E+01 -6.26388E+01
  -6.30503E+01 -6.33968E+01 -6.36911E+01 -6.39264E+01 -6.41150E+01 -6.42497E+01 -6.43428E+01 -6.43871E+01 -6.43946E+01 -6.43581E+01
  -6.42889E+01 -6.41794E+01 -6.40410E+01 -6.38661E+01 -6.36659E+01 -6.34322E+01 -6.31759E+01 -6.28887E+01 -6.25814E+01 -6.22459E+01
  -6.18926E+01 -6.15129E+01 -6.11169E+01 -6.06961E+01 -6.02608E+01 -5.98022E+01 -5.93303E+01 -5.88360E+01 -5.83291E+01 -5.78007E+01
  -5.72604E+01 -5.66994E+01 -5.61267E+01 -5.55331E+01 -5.49276E+01 -5.43011E+01 -5.36621E+01 -5.30006E+01
 NY background values follow
    -1.257E+02   -1.223E+02   -1.189E+02   -1.155E+02   -1.122E+02   -1.088E+02   -1.054E+02   -1.020E+02   -9.869E+01   -9.535E+01
    -9.201E+01   -8.869E+01   -8.537E+01   -8.207E+01   -7.879E+01   -7.552E+01   -7.226E+01   -6.902E+01   -6.580E+01   -6.260E+01
    -5.942E+01   -5.626E+01   -5.312E+01   -5.000E+01   -4.691E+01   -4.384E+01   -4.080E+01   -3.779E+01   -3.480E+01   -3.184E+01
    -2.891E+01   -2.602E+01   -2.315E+01   -2.032E+01   -1.752E+01   -1.476E+01   -1.204E+01   -9.347E+00   -6.696E+00   -4.084E+00
    -1.512E+00    1.019E+00    3.507E+00    5.953E+00    8.354E+00    1.071E+01    1.302E+01    1.528E+01    1.750E+01    1.966E+01
     2.178E+01    2.384E+01    2.586E+01    2.782E+01    2.974E+01    3.160E+01    3.342E+01    3.519E+01    3.692E+01    3.860E+01
     4.023E+01    4.181E+01    4.335E+01    4.485E+01    4.630E+01    4.771E+01    4.907E+01    5.039E+01    5.167E+01    5.291E+01
     5.411E+01    5.527E+01    5.639E+01    5.746E+01    5.850E+01    5.950E+01    6.046E+01    6.139E+01    6.228E+01    6.313E+01
     6.395E+01    6.473E+01    6.547E+01    6.618E+01    6.686E+01    6.750E+01    6.812E+01    6.869E+01    6.924E+01    6.976E+01
     7.024E+01    7.070E+01    7.112E+01    7.152E+01    7.189E+01    7.223E+01    7.254E+01    7.282E+01    7.308E+01    7.331E+01
     7.352E+01    7.370E+01    7.385E+01    7.398E+01    7.409E+01    7.417E+01    7.423E+01    7.426E+01    7.427E+01    7.426E+01
     7.422E+01    7.416E+01    7.408E+01    7.397E+01    7.384E+01    7.369E+01    7.352E+01    7.333E+01    7.311E+01    7.288E+01
     7.262E+01    7.234E+01    7.204E+01    7.172E+01    7.138E+01    7.102E+01    7.064E+01    7.024E+01    6.982E+01    6.938E+01
     6.893E+01    6.845E+01    6.796E+01    6.745E+01    6.692E+01    6.637E+01    6.580E+01    6.522E+01    6.462E+01    6.400E+01
     6.337E+01    6.272E+01    6.206E+01    6.137E+01    6.068E+01    5.996E+01    5.923E+01    5.849E+01    5.773E+01    5.696E+01
     5.617E+01    5.537E+01    5.455E+01    5.371E+01    5.285E+01    5.197E+01    5.107E+01    5.015E+01    4.920E+01    4.822E+01
     4.722E+01    4.619E+01    4.513E+01    4.404E+01    4.291E+01    4.175E+01    4.056E+01    3.933E+01    3.806E+01    3.675E+01
     3.541E+01    3.402E+01    3.259E+01    3.111E+01    2.959E+01    2.802E+01    2.641E+01    2.474E+01    2.303E+01    2.126E+01
     1.944E+01    1.756E+01    1.563E+01    1.364E+01    1.159E+01    9.486E+00    7.318E+00    5.087E+00    2.793E+00    4.332E-01
    -1.992E+00   -4.486E+00   -7.048E+00   -9.680E+00   -1.238E+01   -1.516E+01   -1.801E+01   -2.094E+01   -2.394E+01   -2.702E+01
    -3.018E+01   -3.342E+01   -3.672E+01   -4.011E+01   -4.356E+01   -4.708E+01   -5.067E+01   -5.432E+01   -5.803E+01   -6.180E+01
    -6.563E+01   -6.951E+01   -7.345E+01   -7.744E+01   -8.147E+01   -8.556E+01   -8.969E+01   -9.386E+01   -9.807E+01   -1.023E+02
    -1.066E+02   -1.109E+02   -1.153E+02   -1.197E+02   -1.241E+02   -1.285E+02   -1.330E+02   -1.374E+02   -1.419E+02   -1.465E+02
    -1.510E+02   -1.555E+02   -1.601E+02   -1.647E+02   -1.692E+02   -1.738E+02   -1.784E+02   -1.830E+02   -1.875E+02   -1.921E+02
    -1.967E+02   -2.012E+02   -2.058E+02   -2.103E+02   -2.148E+02   -2.193E+02   -2.238E+02   -2.283E+02   -2.327E+02   -2.371E+02
    -2.415E+02   -2.459E+02   -2.502E+02   -2.545E+02   -2.588E+02   -2.630E+02   -2.672E+02   -2.714E+02   -2.755E+02   -2.796E+02
    -2.837E+02   -2.877E+02   -2.916E+02   -2.956E+02   -2.994E+02   -3.033E+02   -3.071E+02   -3.108E+02   -3.145E+02   -3.181E+02
    -3.217E+02   -3.252E+02   -3.287E+02   -3.321E+02   -3.355E+02   -3.388E+02   -3.420E+02   -3.452E+02   -3.483E+02   -3.514E+02
    -3.544E+02   -3.573E+02   -3.601E+02   -3.629E+02   -3.656E+02   -3.683E+02   -3.708E+02   -3.733E+02   -3.758E+02   -3.781E+02
    -3.804E+02   -3.826E+02   -3.847E+02   -3.867E+02   -3.886E+02   -3.905E+02   -3.923E+02   -3.940E+02   -3.955E+02   -3.971E+02
    -3.985E+02   -3.998E+02   -4.011E+02   -4.022E+02   -4.033E+02   -4.043E+02   -4.052E+02   -4.060E+02   -4.068E+02   -4.074E+02
    -4.080E+02   -4.086E+02   -4.090E+02   -4.094E+02   -4.097E+02   -4.099E+02   -4.100E+02   -4.101E+02   -4.102E+02   -4.101E+02
    -4.100E+02   -4.098E+02   -4.096E+02   -4.093E+02   -4.089E+02   -4.085E+02   -4.080E+02   -4.075E+02   -4.069E+02   -4.062E+02
    -4.055E+02   -4.047E+02   -4.039E+02   -4.031E+02   -4.022E+02   -4.012E+02   -4.002E+02   -3.991E+02   -3.980E+02   -3.969E+02
    -3.957E+02   -3.945E+02   -3.932E+02   -3.919E+02   -3.906E+02   -3.892E+02   -3.878E+02   -3.864E+02   -3.849E+02   -3.834E+02
    -3.818E+02   -3.802E+02   -3.786E+02   -3.770E+02   -3.753E+02   -3.736E+02   -3.719E+02   -3.701E+02   -3.684E+02   -3.666E+02
    -3.647E+02   -3.628E+02   -3.610E+02   -3.590E+02   -3.571E+02   -3.551E+02   -3.531E+02   -3.511E+02   -3.490E+02   -3.470E+02
    -3.449E+02   -3.428E+02   -3.406E+02   -3.385E+02   -3.363E+02   -3.341E+02   -3.318E+02   -3.296E+02   -3.273E+02   -3.250E+02
    -3.227E+02   -3.204E+02   -3.180E+02   -3.157E+02   -3.133E+02   -3.109E+02   -3.085E+02   -3.060E+02   -3.036E+02   -3.011E+02
    -2.986E+02   -2.961E+02   -2.936E+02   -2.911E+02   -2.885E+02   -2.860E+02   -2.834E+02   -2.808E+02   -2.782E+02   -2.756E+02
    -2.730E+02   -2.704E+02   -2.677E+02   -2.651E+02   -2.624E+02   -2.598E+02   -2.571E+02   -2.545E+02   -2.518E+02   -2.491E+02
    -2.464E+02   -2.437E+02   -2.411E+02   -2.384E+02   -2.357E+02   -2.330E+02   -2.304E+02   -2.277E+02   -2.251E+02   -2.224E+02
    -2.198E+02   -2.171E+02   -2.145E+02   -2.119E+02   -2.093E+02   -2.067E+02   -2.041E+02   -2.015E+02   -1.990E+02   -1.964E+02
    -1.939E+02   -1.914E+02   -1.889E+02   -1.865E+02   -1.840E+02   -1.816E+02   -1.792E+02   -1.768E+02   -1.745E+02   -1.721E+02
    -1.698E+02   -1.676E+02   -1.653E+02   -1.631E+02   -1.609E+02   -1.588E+02   -1.566E+02   -1.545E+02   -1.525E+02   -1.504E+02
    -1.484E+02   -1.465E+02   -1.445E+02   -1.426E+02   -1.408E+02   -1.389E+02   -1.371E+02   -1.353E+02   -1.335E+02   -1.318E+02
    -1.301E+02   -1.284E+02   -1.268E+02   -1.251E+02   -1.235E+02   -1.219E+02   -1.204E+02   -1.188E+02   -1.173E+02   -1.158E+02
    -1.143E+02   -1.128E+02   -1.114E+02   -1.100E+02   -1.086E+02   -1.072E+02   -1.058E+02   -1.044E+02   -1.031E+02   -1.017E+02
    -1.004E+02   -9.912E+01   -9.782E+01   -9.654E+01   -9.527E+01   -9.400E+01   -9.275E+01   -9.151E+01   -9.027E+01   -8.904E+01
    -8.782E+01   -8.660E+01   -8.539E+01   -8.419E+01   -8.299E+01   -8.179E+01   -8.060E+01   -7.941E+01
 Asp      Conc. = 3.47E+03
