 LCModel (Version 6.3-1L) Copyright: S.W. Provencher.          Ref.: Magn. Reson. Med. 30:672-679 (1993).                
 Slice#1 Row#4 Col#10  PD_24_press_2_raw_act
 36 lines in following concentration table = NCONC+1
    Conc.  %SD /Cr+PCr  Metabolite                                         
 5.05E+03  18%   2.669 Ala                                                 
    0.000 999%   0.000 Asp                                                 
  514.145 224%   0.272 Cr                                                  
 1.38E+03  83%   0.728 PCr                                                 
  253.606 108%   0.134 GABA                                                
  156.283 170% 8.3E-02 Glc                                                 
 4.40E+03  38%   2.326 Gln                                                 
 1.22E+03 164%   0.643 Glu                                                 
  927.080   7%   0.490 GPC                                                 
    0.000 999%   0.000 PCh                                                 
  584.293  53%   0.309 GSH                                                 
 3.97E+03  19%   2.096 Ins                                                 
  729.541 123%   0.386 Lac                                                 
 2.49E+03  19%   1.315 NAA                                                 
  589.720  84%   0.312 NAAG                                                
  256.567  25%   0.136 Scyllo                                              
  524.328  74%   0.277 Tau                                                 
  744.353  38%   0.393 -CrCH2                                              
  927.080   7%   0.490 GPC+PCh                                             
 3.08E+03   7%   1.627 NAA+NAAG                                            
 1.89E+03   8%   1.000 Cr+PCr                                              
 5.62E+03  59%   2.969 Glu+Gln                                             
 6.60E+03  14%   3.486 Lip13a                                              
    0.000 999%   0.000 Lip13b                                              
    0.000 999%   0.000 Lip09                                               
 1.52E+03  18%   0.804 MM09                                                
 1.40E+03  34%   0.738 Lip20                                               
 2.72E+03  22%   1.438 MM20                                                
  516.199  36%   0.273 MM12                                                
 2.83E+03  16%   1.495 MM14                                                
  596.110  58%   0.315 MM17                                                
 6.60E+03  14%   3.486 Lip13a+Lip13b                                       
 9.94E+03  10%   5.254 MM14+Lip13a+Lip13b+MM12                             
 1.52E+03  18%   0.804 MM09+Lip09                                          
 4.12E+03  16%   2.175 MM20+Lip20                                          
   6 lines in following misc. output table
  FWHM = 0.138 ppm    S/N =   5                                            
  Data shift =-0.038 ppm                                                   
  Ph: -69 deg     -22.5 deg/ppm                                            
  alphaB,S = 8.5E+01,   4.1E+02                                            
   14 spline knots.   Ns = 7(2)                                            
   2 inflections.     1 extrema                                            
  498 points on ppm-axis = NY
      4.000000     3.992357     3.984714     3.977070     3.969427     3.961784     3.954141     3.946497     3.938854     3.931211
      3.923568     3.915925     3.908281     3.900638     3.892995     3.885352     3.877708     3.870065     3.862422     3.854779
      3.847136     3.839492     3.831849     3.824206     3.816563     3.808919     3.801276     3.793633     3.785990     3.778347
      3.770703     3.763060     3.755417     3.747774     3.740130     3.732487     3.724844     3.717201     3.709558     3.701914
      3.694271     3.686628     3.678985     3.671341     3.663698     3.656055     3.648412     3.640769     3.633125     3.625482
      3.617839     3.610196     3.602552     3.594909     3.587266     3.579623     3.571980     3.564336     3.556693     3.549050
      3.541407     3.533763     3.526120     3.518477     3.510834     3.503191     3.495547     3.487904     3.480261     3.472618
      3.464974     3.457331     3.449688     3.442045     3.434402     3.426758     3.419115     3.411472     3.403829     3.396185
      3.388542     3.380899     3.373256     3.365613     3.357969     3.350326     3.342683     3.335040     3.327396     3.319753
      3.312110     3.304467     3.296824     3.289180     3.281537     3.273894     3.266251     3.258607     3.250964     3.243321
      3.235678     3.228034     3.220391     3.212748     3.205105     3.197462     3.189818     3.182175     3.174532     3.166889
      3.159245     3.151602     3.143959     3.136316     3.128673     3.121029     3.113386     3.105743     3.098100     3.090456
      3.082813     3.075170     3.067527     3.059884     3.052240     3.044597     3.036954     3.029311     3.021667     3.014024
      3.006381     2.998738     2.991095     2.983451     2.975808     2.968165     2.960522     2.952878     2.945235     2.937592
      2.929949     2.922306     2.914662     2.907019     2.899376     2.891733     2.884089     2.876446     2.868803     2.861160
      2.853517     2.845873     2.838230     2.830587     2.822944     2.815300     2.807657     2.800014     2.792371     2.784728
      2.777084     2.769441     2.761798     2.754155     2.746511     2.738868     2.731225     2.723582     2.715939     2.708295
      2.700652     2.693009     2.685366     2.677722     2.670079     2.662436     2.654793     2.647150     2.639506     2.631863
      2.624220     2.616577     2.608933     2.601290     2.593647     2.586004     2.578361     2.570717     2.563074     2.555431
      2.547788     2.540144     2.532501     2.524858     2.517215     2.509572     2.501928     2.494285     2.486642     2.478999
      2.471355     2.463712     2.456069     2.448426     2.440783     2.433139     2.425496     2.417853     2.410210     2.402566
      2.394923     2.387280     2.379637     2.371994     2.364350     2.356707     2.349064     2.341421     2.333777     2.326134
      2.318491     2.310848     2.303205     2.295561     2.287918     2.280275     2.272632     2.264988     2.257345     2.249702
      2.242059     2.234416     2.226772     2.219129     2.211486     2.203843     2.196199     2.188556     2.180913     2.173270
      2.165627     2.157983     2.150340     2.142697     2.135054     2.127410     2.119767     2.112124     2.104481     2.096838
      2.089194     2.081551     2.073908     2.066265     2.058621     2.050978     2.043335     2.035692     2.028049     2.020405
      2.012762     2.005119     1.997476     1.989833     1.982190     1.974546     1.966903     1.959260     1.951617     1.943974
      1.936331     1.928688     1.921045     1.913402     1.905759     1.898115     1.890472     1.882829     1.875186     1.867543
      1.859900     1.852257     1.844614     1.836971     1.829327     1.821684     1.814041     1.806398     1.798755     1.791112
      1.783469     1.775826     1.768183     1.760540     1.752896     1.745253     1.737610     1.729967     1.722324     1.714681
      1.707038     1.699395     1.691752     1.684108     1.676465     1.668822     1.661179     1.653536     1.645893     1.638250
      1.630607     1.622964     1.615321     1.607677     1.600034     1.592391     1.584748     1.577105     1.569462     1.561819
      1.554176     1.546533     1.538890     1.531246     1.523603     1.515960     1.508317     1.500674     1.493031     1.485388
      1.477745     1.470102     1.462458     1.454815     1.447172     1.439529     1.431886     1.424243     1.416600     1.408957
      1.401314     1.393671     1.386027     1.378384     1.370741     1.363098     1.355455     1.347812     1.340169     1.332526
      1.324883     1.317240     1.309596     1.301953     1.294310     1.286667     1.279024     1.271381     1.263738     1.256095
      1.248452     1.240808     1.233165     1.225522     1.217879     1.210236     1.202593     1.194950     1.187307     1.179664
      1.172021     1.164377     1.156734     1.149091     1.141448     1.133805     1.126162     1.118519     1.110876     1.103233
      1.095590     1.087946     1.080303     1.072660     1.065017     1.057374     1.049731     1.042088     1.034445     1.026802
      1.019158     1.011515     1.003872     0.996229     0.988586     0.980943     0.973300     0.965657     0.958014     0.950371
      0.942727     0.935084     0.927441     0.919798     0.912155     0.904512     0.896869     0.889226     0.881583     0.873940
      0.866296     0.858653     0.851010     0.843367     0.835724     0.828081     0.820438     0.812795     0.805152     0.797508
      0.789865     0.782222     0.774579     0.766936     0.759293     0.751650     0.744007     0.736364     0.728721     0.721077
      0.713434     0.705791     0.698148     0.690505     0.682862     0.675219     0.667576     0.659933     0.652290     0.644646
      0.637003     0.629360     0.621717     0.614074     0.606431     0.598788     0.591145     0.583502     0.575858     0.568215
      0.560572     0.552929     0.545286     0.537643     0.530000     0.522357     0.514714     0.507071     0.499427     0.491784
      0.484141     0.476498     0.468855     0.461212     0.453569     0.445925     0.438282     0.430639     0.422996     0.415353
      0.407710     0.400067     0.392424     0.384780     0.377137     0.369494     0.361851     0.354208     0.346565     0.338922
      0.331278     0.323635     0.315992     0.308349     0.300706     0.293063     0.285420     0.277777     0.270133     0.262490
      0.254847     0.247204     0.239561     0.231918     0.224275     0.216631     0.208988     0.201345
 NY phased data points follow
   1.10318E+01  9.31135E+00  2.60903E+01  6.40036E+00  2.04146E+01  3.04820E+00  1.02265E+01  1.43634E+01  2.44498E+01  1.01837E+01
   1.78587E+01  1.85291E+01  2.78093E+01  1.44316E+01  1.63889E+01  9.28351E+00  1.76372E+01  8.77666E+00  1.70829E+01  1.03193E+01
   1.98060E+01  1.12082E+01  2.09546E+01  1.61303E+00  1.02366E+01  1.12453E+01  8.78173E+00  4.80431E+00  1.14305E+01  9.92618E+00
   1.07201E+01  4.28564E+00  1.28121E+01  1.18230E+01  1.54517E+01  4.69296E+00  1.65542E+01  1.08047E+01  2.14696E+01  9.84120E+00
   1.11119E+01  1.46298E+01  1.81869E+01  2.28085E+01  1.90168E+01  1.27460E+01  1.99658E+01  1.87416E+01  1.89562E+01  1.63692E+01
   1.95797E+01  2.12651E+01  1.73431E+01  1.71270E+01  1.41311E+01  1.72843E+01  1.19114E+01  1.09548E+01  1.26870E+01  6.31230E+00
   1.98996E+01  1.13635E+01  3.09826E+00  1.23719E+01  8.37459E+00  9.00077E+00  2.81020E+00  7.73596E+00  4.35131E+00  1.00263E+01
   1.21651E+01  7.24556E+00  6.54783E+00  5.25780E+00  6.50312E+00  1.36765E+01  1.41322E+01  4.70809E+00  3.53921E+00  1.24508E+01
   5.18258E+00  1.02477E+01  5.02216E+00  3.84199E+00  1.04956E+01  1.24058E+01  2.26276E+01  1.09333E+01  1.30822E+01  2.07362E+01
   8.89536E+00  1.25850E+01  1.51326E+01  8.53999E+00  2.35111E+01  1.74071E+01  2.23600E+01  2.56034E+01  2.27392E+01  3.62903E+01
   3.92466E+01  4.66327E+01  3.17028E+01  4.48892E+01  4.45303E+01  3.56138E+01  3.95719E+01  2.50500E+01  3.20070E+01  2.41034E+01
   2.31929E+01  3.19652E+01  1.78473E+01  3.39121E+01  1.83565E+01  1.84411E+01  1.75132E+01  1.75450E+01  9.70290E+00  1.39141E+01
   1.57154E+01  1.75211E+01  1.80901E+01  2.02440E+01  3.70707E+01  3.14977E+01  3.06550E+01  4.06439E+01  3.94930E+01  3.33083E+01
   2.80674E+01  2.11626E+01  1.82348E+01  1.97686E+01  1.51151E+01  1.88313E+01  2.03732E+01  2.16168E+01  1.51319E+01  1.86615E+01
   1.92476E+00  1.80653E+01  1.32320E+01  6.38393E+00  9.00986E+00 -6.45573E-01  1.27079E+01  1.23214E+01  1.16882E+01  5.19253E+00
   1.65111E+01  1.01908E+01  9.56251E+00  3.36549E+00  1.97745E+00  8.90489E+00 -5.53432E+00  4.97146E+00  4.95689E+00  3.07648E+00
   1.17476E+01 -7.31001E-01  7.93650E+00 -1.13676E+01 -7.50362E-01 -3.87064E+00 -4.30492E+00  6.25227E+00 -5.90126E+00 -3.49619E+00
  -2.44454E+00 -2.81593E+00 -1.57879E+01 -8.48060E+00 -4.28108E+00 -8.85194E+00 -1.05710E+01 -1.00915E+01 -1.25420E+01 -8.31682E+00
  -1.26469E+01 -7.01447E+00 -4.29077E+00 -3.58075E+00 -8.73535E-01 -3.91480E-01 -2.63906E+00  5.37437E-01 -9.84162E+00  3.74894E+00
  -1.10238E+01 -1.02893E+01 -8.89015E+00 -3.05320E+00  3.38239E+00 -1.00139E+01 -1.10195E+01 -6.21844E+00 -8.91698E+00  4.73045E+00
  -4.12546E+00 -2.43965E+00 -3.86890E+00  4.37318E-01 -5.11480E+00  7.73119E+00  6.03673E+00 -5.68596E-02  8.48277E-01  3.79465E+00
  -4.51158E+00  1.80018E+00  4.51867E+00  6.31766E+00  1.15940E+01  7.75176E+00  1.29810E+01  7.19323E+00  9.14491E+00  1.36478E+01
   6.52195E-01  1.07866E+01  3.83218E+00  4.18572E+00  4.73363E+00  1.89729E+00  7.95991E+00  1.59754E+01  7.71161E+00  1.17395E+01
   4.84278E+00  1.65987E+01  1.60387E+01  1.80316E+01  4.97117E+00  5.20608E+00  1.02791E+01  1.28466E+01  3.48894E+00  1.14960E+01
   1.76201E+01  1.97672E+01  1.14956E+01  1.67960E+01  1.69058E+01  2.14568E+01  1.67612E+01  1.67113E+01  2.71289E+01  2.45186E+01
   2.65897E+01  3.03653E+01  3.70137E+01  3.05280E+01  4.49950E+01  4.58503E+01  4.84787E+01  6.15742E+01  6.50988E+01  6.38080E+01
   7.15066E+01  7.40047E+01  7.22862E+01  7.24780E+01  5.42439E+01  3.73862E+01  3.40897E+01  2.50627E+01  3.33999E+01  2.37794E+01
   3.47965E+01  3.25206E+01  3.01475E+01  1.90116E+01  2.18207E+01  1.81813E+01  1.00648E+01  1.28611E+01  7.25630E+00  8.63506E+00
  -4.40340E-01  1.69970E+01  1.37196E+01  1.54747E+01  6.67763E+00  1.81085E+01 -3.46900E-01  7.55058E+00  3.35616E+00  2.71303E+00
   5.12477E+00  1.13408E+01  1.12113E+01  1.86479E+01  1.68337E+00 -8.67697E-02 -1.88973E+00  6.16364E+00  1.72398E+00  7.86350E+00
   1.33780E+01  7.81039E+00  6.26897E+00  1.21291E+01  1.62431E+01  2.03974E+01  1.06785E+01  8.82161E+00  1.45776E+01  1.56313E+01
   1.26458E+01  2.53685E+01  1.66604E+01  2.78777E+01  1.64591E+01  3.11694E+01  2.91731E+01  2.85198E+01  3.56471E+01  3.30809E+01
   3.82707E+01  4.26411E+01  3.35896E+01  4.63380E+01  3.54961E+01  3.54130E+01  4.25704E+01  3.67313E+01  4.10446E+01  3.19790E+01
   3.10783E+01  2.84289E+01  2.01171E+01  3.02449E+01  2.71906E+01  2.76506E+01  3.54895E+01  3.23009E+01  2.71590E+01  3.29681E+01
   3.36640E+01  3.03618E+01  3.66871E+01  3.68216E+01  3.66999E+01  4.13721E+01  4.02733E+01  4.27943E+01  4.14862E+01  5.32851E+01
   3.42895E+01  3.78816E+01  3.51500E+01  4.61819E+01  3.59567E+01  4.81483E+01  3.56724E+01  3.66987E+01  4.35214E+01  3.93330E+01
   3.47561E+01  3.19142E+01  3.68832E+01  3.06757E+01  3.69544E+01  3.32861E+01  4.26899E+01  3.74189E+01  3.09874E+01  4.18723E+01
   3.70225E+01  3.40452E+01  1.71018E+01  2.99024E+01  3.48845E+01  3.60456E+01  2.76018E+01  2.94460E+01  3.19411E+01  2.43842E+01
   2.27655E+01  2.39081E+01  1.69146E+01  1.92442E+01  1.98607E+01  1.19844E+01  1.48583E+01  1.85675E+01  1.02361E+01  1.43237E+01
   8.25107E+00  1.43487E+01  1.94522E+01  2.05170E+01  1.72087E+01  1.87665E+01  2.73033E+01  9.77827E+00  9.34671E+00  4.61195E+00
   9.78856E+00  2.06796E+01  1.92644E+01  2.15207E+01  2.13578E+01  2.33170E+01  2.41415E+01  1.79672E+01  1.83853E+01  2.37917E+01
   1.38594E+01  1.88841E+01  1.73064E+01  1.91600E+01  2.15401E+01  1.33142E+01  1.04051E+01  2.16648E+01  1.26243E+01  1.72028E+01
   1.63569E+01  1.22142E+01  1.88588E+01  2.24426E+01  1.21532E+01  9.05325E+00  1.31622E+01  2.18580E+01  3.75419E+00  6.46628E+00
   5.39384E+00  1.19143E+01  8.40032E+00  5.08115E+00  5.40418E+00  1.83710E+01 -5.06790E+00  1.30812E+01  9.11483E+00  1.26086E+01
   3.25585E+00  1.07779E+01  1.03593E+01  1.97055E+01  1.59342E+01  6.62743E+00  4.68151E+00  1.06063E+01  6.59038E+00  2.34725E+01
   1.17753E+01  1.37636E+01  7.83820E+00  2.35584E+01  3.92311E+00  1.07839E+01  9.91256E+00  1.29933E+01  8.66292E+00  9.24062E+00
   1.03449E+01  8.49964E+00  1.18415E+01  1.29089E+01  1.01812E+01  1.39022E+01  2.39889E+00  3.72795E+00  8.13311E+00  9.79203E-01
   7.36052E+00  1.53094E+01  1.43228E+01  1.53104E+01  1.01347E+01  1.09883E+01  5.99097E+00  5.20614E+00  6.48474E+00  2.78060E+00
   1.76117E+01  5.26036E+00  5.14176E+00  9.73737E+00  8.57510E+00  5.98434E+00  6.89001E+00  1.35130E+01  4.61622E+00  1.36518E+01
   9.85099E-01  1.28646E+01  4.48639E+00  1.16842E+00  3.30557E+00  1.97632E+01  1.21611E+01  5.42358E+00
 NY points of the fit to the data follow
   1.37166E+01  1.29257E+01  1.46476E+01  1.31823E+01  1.54361E+01  1.33552E+01  1.62052E+01  1.36492E+01  1.70588E+01  1.42267E+01
   1.79983E+01  1.53768E+01  1.83650E+01  1.57308E+01  1.75586E+01  1.51953E+01  1.60067E+01  1.41969E+01  1.44097E+01  1.32689E+01
   1.31958E+01  1.24286E+01  1.20934E+01  1.14377E+01  1.11740E+01  1.06366E+01  1.07882E+01  1.01093E+01  1.13753E+01  1.02573E+01
   1.24571E+01  1.06248E+01  1.34186E+01  1.13486E+01  1.45183E+01  1.22474E+01  1.52948E+01  1.30215E+01  1.59908E+01  1.39680E+01
   1.67971E+01  1.51891E+01  1.76328E+01  1.64005E+01  1.77514E+01  1.66291E+01  1.72114E+01  1.64037E+01  1.66470E+01  1.59254E+01
   1.59503E+01  1.51948E+01  1.50857E+01  1.42142E+01  1.39535E+01  1.31197E+01  1.27885E+01  1.20548E+01  1.16218E+01  1.07436E+01
   1.03346E+01  9.54295E+00  9.29820E+00  8.69901E+00  8.82339E+00  8.69237E+00  9.14597E+00  9.03538E+00  9.44652E+00  9.19829E+00
   9.54527E+00  9.21050E+00  9.77650E+00  9.29113E+00  9.88745E+00  9.21572E+00  9.81689E+00  9.09871E+00  9.83113E+00  8.97749E+00
   9.76165E+00  8.63856E+00  9.40754E+00  8.04001E+00  8.70574E+00  7.23965E+00  7.70754E+00  6.35352E+00  7.16897E+00  7.91935E+00
   9.14432E+00  1.15681E+01  1.27868E+01  1.65518E+01  1.75394E+01  2.23408E+01  2.28361E+01  2.83979E+01  2.82230E+01  3.41019E+01
   3.31463E+01  3.85878E+01  3.67601E+01  4.09134E+01  3.82814E+01  4.03513E+01  3.67593E+01  3.67926E+01  3.27985E+01  3.14596E+01
   2.75554E+01  2.54161E+01  2.21043E+01  2.05992E+01  1.84269E+01  1.71765E+01  1.61381E+01  1.53290E+01  1.55892E+01  1.59074E+01
   1.77166E+01  1.99070E+01  2.24674E+01  2.43496E+01  2.69825E+01  2.79785E+01  3.03628E+01  3.00583E+01  3.18886E+01  3.00728E+01
   3.11600E+01  2.81105E+01  2.84984E+01  2.48107E+01  2.46826E+01  2.08332E+01  2.03299E+01  1.65210E+01  1.57125E+01  1.21214E+01
   1.11233E+01  8.07836E+00  7.13596E+00  5.13292E+00  4.60460E+00  4.20137E+00  4.11962E+00  3.82781E+00  3.78100E+00  3.53137E+00
   3.52599E+00  3.31776E+00  3.27116E+00  2.97522E+00  2.83416E+00  2.48051E+00  2.24919E+00  1.93263E+00  1.67661E+00  1.41899E+00
   1.13440E+00  8.66772E-01  4.70495E-01  2.24256E-01 -2.32531E-01 -4.45863E-01 -9.54961E-01 -1.19915E+00 -1.72154E+00 -2.00012E+00
  -2.45755E+00 -2.78151E+00 -3.14952E+00 -3.54137E+00 -3.70484E+00 -4.10600E+00 -3.98716E+00 -4.35728E+00 -3.92915E+00 -4.34949E+00
  -3.71242E+00 -4.11435E+00 -3.48361E+00 -3.81778E+00 -3.40959E+00 -3.58166E+00 -3.38520E+00 -3.10142E+00 -3.03967E+00 -2.20395E+00
  -2.30874E+00 -8.45308E-01 -1.28777E+00  6.14068E-01 -3.29541E-01  1.55424E+00 -1.91479E-01  2.01252E+00 -2.77977E-01  2.17940E+00
  -4.86410E-01  2.17155E+00 -7.37963E-01  1.85830E+00 -1.27566E+00  1.18361E+00 -1.88715E+00  5.34907E-01 -2.17514E+00  2.92644E-01
  -1.68392E+00  7.80627E-01 -4.63200E-01  1.81781E+00  1.12467E+00  3.02960E+00  2.73443E+00  4.26765E+00  4.36935E+00  5.83958E+00
   6.38856E+00  7.59206E+00  8.16813E+00  9.26472E+00  9.60469E+00  1.04275E+01  1.03071E+01  1.10110E+01  9.97307E+00  1.10653E+01
   9.64892E+00  1.10121E+01  9.36155E+00  1.10527E+01  9.35269E+00  1.11185E+01  9.41999E+00  1.11487E+01  9.56543E+00  1.10741E+01
   9.72461E+00  1.11082E+01  1.06138E+01  1.18611E+01  1.22532E+01  1.37332E+01  1.67519E+01  1.87152E+01  2.36222E+01  2.56243E+01
   3.17376E+01  3.34809E+01  4.02470E+01  4.14391E+01  4.82081E+01  4.90058E+01  5.53250E+01  5.54854E+01  6.04436E+01  5.97417E+01
   6.23483E+01  6.03928E+01  6.04470E+01  5.74429E+01  5.52855E+01  5.16522E+01  4.81108E+01  4.42921E+01  4.00632E+01  3.64740E+01
   3.18968E+01  2.86969E+01  2.41332E+01  2.14854E+01  1.76223E+01  1.55400E+01  1.27790E+01  1.15381E+01  1.08206E+01  1.02414E+01
   9.79626E+00  9.37550E+00  9.08510E+00  8.76010E+00  8.56904E+00  8.32488E+00  8.20475E+00  8.02530E+00  7.95879E+00  7.85378E+00
   7.85122E+00  7.83258E+00  7.90496E+00  7.97066E+00  8.10937E+00  8.24751E+00  8.44010E+00  8.64476E+00  8.89188E+00  9.16310E+00
   9.47215E+00  9.82430E+00  1.02118E+01  1.06614E+01  1.11554E+01  1.17340E+01  1.23746E+01  1.31380E+01  1.40031E+01  1.50532E+01
   1.62987E+01  1.78938E+01  2.00614E+01  2.31260E+01  2.52240E+01  2.85590E+01  3.00574E+01  3.30805E+01  3.36019E+01  3.57238E+01
   3.46541E+01  3.66783E+01  3.52385E+01  3.68103E+01  3.51443E+01  3.56877E+01  3.39467E+01  3.32097E+01  3.18766E+01  3.00572E+01
   2.99257E+01  2.76645E+01  2.94505E+01  2.73670E+01  3.07904E+01  2.87783E+01  3.31242E+01  3.08336E+01  3.52561E+01  3.26802E+01
   3.67543E+01  3.47837E+01  3.84625E+01  3.77548E+01  4.08562E+01  4.14111E+01  4.26199E+01  4.26902E+01  4.21487E+01  4.20850E+01
   4.01811E+01  4.04288E+01  3.79108E+01  3.94336E+01  3.78775E+01  3.97181E+01  3.84602E+01  4.00790E+01  3.89243E+01  4.00591E+01
   3.89645E+01  3.95681E+01  3.85328E+01  3.86690E+01  3.76511E+01  3.73657E+01  3.61087E+01  3.52723E+01  3.38788E+01  3.26370E+01
   3.12040E+01  2.97712E+01  2.84240E+01  2.71733E+01  2.59544E+01  2.48223E+01  2.37271E+01  2.27271E+01  2.17725E+01  2.09203E+01
   2.01190E+01  1.94239E+01  1.87820E+01  1.82472E+01  1.77657E+01  1.73904E+01  1.70670E+01  1.68477E+01  1.66776E+01  1.66084E+01
   1.65841E+01  1.66553E+01  1.67646E+01  1.69604E+01  1.71836E+01  1.74801E+01  1.77880E+01  1.81509E+01  1.85044E+01  1.88898E+01
   1.92413E+01  1.95992E+01  1.98975E+01  2.01773E+01  2.03746E+01  2.05332E+01  2.05927E+01  2.06013E+01  2.05035E+01  2.03526E+01
   2.00983E+01  1.97988E+01  1.94083E+01  1.89885E+01  1.84964E+01  1.79955E+01  1.74437E+01  1.69044E+01  1.63346E+01  1.57959E+01
   1.52435E+01  1.47362E+01  1.42264E+01  1.37706E+01  1.33184E+01  1.29237E+01  1.25343E+01  1.22024E+01  1.18742E+01  1.16007E+01
   1.13278E+01  1.11057E+01  1.08801E+01  1.07011E+01  1.05145E+01  1.03707E+01  1.02157E+01  1.01001E+01  9.97021E+00  9.87701E+00
   9.76713E+00  9.69175E+00  9.59779E+00  9.53664E+00  9.45548E+00  9.40581E+00  9.33503E+00  9.29474E+00  9.23246E+00  9.19988E+00
   9.14466E+00  9.11854E+00  9.06926E+00  9.04856E+00  9.00431E+00  8.98824E+00  8.94830E+00  8.93620E+00  8.89999E+00  8.89133E+00
   8.85835E+00  8.85268E+00  8.82253E+00  8.81951E+00  8.79185E+00  8.79114E+00  8.76568E+00  8.76701E+00  8.74351E+00  8.74667E+00
   8.72489E+00  8.72965E+00  8.70942E+00  8.71561E+00  8.69675E+00  8.70422E+00  8.68657E+00  8.69516E+00  8.67859E+00  8.68817E+00
   8.67255E+00  8.68300E+00  8.66820E+00  8.67939E+00  8.66531E+00  8.67712E+00  8.66364E+00  8.67597E+00  8.66295E+00  8.67567E+00
   8.66300E+00  8.67598E+00  8.66352E+00  8.67662E+00  8.66421E+00  8.67725E+00  8.66473E+00  8.67753E+00
 NY background values follow
    -4.479E+00   -4.456E+00   -4.433E+00   -4.410E+00   -4.387E+00   -4.364E+00   -4.341E+00   -4.318E+00   -4.295E+00   -4.272E+00
    -4.249E+00   -4.225E+00   -4.202E+00   -4.179E+00   -4.156E+00   -4.133E+00   -4.110E+00   -4.087E+00   -4.064E+00   -4.041E+00
    -4.018E+00   -3.995E+00   -3.972E+00   -3.949E+00   -3.926E+00   -3.903E+00   -3.880E+00   -3.857E+00   -3.833E+00   -3.810E+00
    -3.787E+00   -3.764E+00   -3.741E+00   -3.718E+00   -3.695E+00   -3.672E+00   -3.649E+00   -3.626E+00   -3.603E+00   -3.580E+00
    -3.557E+00   -3.534E+00   -3.511E+00   -3.488E+00   -3.465E+00   -3.442E+00   -3.418E+00   -3.395E+00   -3.372E+00   -3.349E+00
    -3.326E+00   -3.303E+00   -3.280E+00   -3.257E+00   -3.234E+00   -3.211E+00   -3.188E+00   -3.165E+00   -3.142E+00   -3.119E+00
    -3.096E+00   -3.073E+00   -3.050E+00   -3.027E+00   -3.004E+00   -2.981E+00   -2.958E+00   -2.935E+00   -2.911E+00   -2.888E+00
    -2.865E+00   -2.842E+00   -2.819E+00   -2.796E+00   -2.773E+00   -2.750E+00   -2.727E+00   -2.704E+00   -2.681E+00   -2.658E+00
    -2.635E+00   -2.612E+00   -2.589E+00   -2.566E+00   -2.543E+00   -2.520E+00   -2.497E+00   -2.474E+00   -2.451E+00   -2.428E+00
    -2.405E+00   -2.382E+00   -2.359E+00   -2.336E+00   -2.313E+00   -2.289E+00   -2.266E+00   -2.243E+00   -2.220E+00   -2.197E+00
    -2.174E+00   -2.151E+00   -2.128E+00   -2.105E+00   -2.082E+00   -2.059E+00   -2.036E+00   -2.013E+00   -1.990E+00   -1.967E+00
    -1.944E+00   -1.921E+00   -1.898E+00   -1.875E+00   -1.852E+00   -1.829E+00   -1.806E+00   -1.783E+00   -1.760E+00   -1.737E+00
    -1.714E+00   -1.691E+00   -1.668E+00   -1.645E+00   -1.622E+00   -1.599E+00   -1.576E+00   -1.553E+00   -1.530E+00   -1.507E+00
    -1.484E+00   -1.461E+00   -1.438E+00   -1.415E+00   -1.392E+00   -1.369E+00   -1.346E+00   -1.323E+00   -1.300E+00   -1.277E+00
    -1.254E+00   -1.231E+00   -1.208E+00   -1.185E+00   -1.162E+00   -1.139E+00   -1.116E+00   -1.093E+00   -1.070E+00   -1.047E+00
    -1.024E+00   -1.001E+00   -9.777E-01   -9.547E-01   -9.317E-01   -9.087E-01   -8.857E-01   -8.627E-01   -8.397E-01   -8.167E-01
    -7.938E-01   -7.708E-01   -7.478E-01   -7.248E-01   -7.018E-01   -6.788E-01   -6.558E-01   -6.328E-01   -6.099E-01   -5.869E-01
    -5.639E-01   -5.409E-01   -5.179E-01   -4.949E-01   -4.720E-01   -4.490E-01   -4.260E-01   -4.030E-01   -3.800E-01   -3.571E-01
    -3.341E-01   -3.111E-01   -2.881E-01   -2.652E-01   -2.422E-01   -2.192E-01   -1.962E-01   -1.733E-01   -1.503E-01   -1.273E-01
    -1.044E-01   -8.140E-02   -5.843E-02   -3.547E-02   -1.250E-02    1.047E-02    3.343E-02    5.639E-02    7.935E-02    1.023E-01
     1.253E-01    1.482E-01    1.712E-01    1.942E-01    2.171E-01    2.401E-01    2.630E-01    2.860E-01    3.089E-01    3.319E-01
     3.548E-01    3.778E-01    4.007E-01    4.237E-01    4.466E-01    4.696E-01    4.925E-01    5.155E-01    5.384E-01    5.614E-01
     5.843E-01    6.073E-01    6.302E-01    6.531E-01    6.761E-01    6.990E-01    7.220E-01    7.449E-01    7.678E-01    7.908E-01
     8.137E-01    8.366E-01    8.596E-01    8.825E-01    9.054E-01    9.284E-01    9.513E-01    9.742E-01    9.971E-01    1.020E+00
     1.043E+00    1.066E+00    1.089E+00    1.112E+00    1.135E+00    1.158E+00    1.181E+00    1.203E+00    1.226E+00    1.249E+00
     1.272E+00    1.295E+00    1.318E+00    1.341E+00    1.364E+00    1.387E+00    1.410E+00    1.433E+00    1.455E+00    1.478E+00
     1.501E+00    1.524E+00    1.547E+00    1.570E+00    1.593E+00    1.616E+00    1.639E+00    1.662E+00    1.685E+00    1.707E+00
     1.730E+00    1.753E+00    1.776E+00    1.799E+00    1.822E+00    1.845E+00    1.868E+00    1.891E+00    1.913E+00    1.936E+00
     1.959E+00    1.982E+00    2.005E+00    2.028E+00    2.051E+00    2.074E+00    2.096E+00    2.119E+00    2.142E+00    2.165E+00
     2.188E+00    2.211E+00    2.234E+00    2.257E+00    2.279E+00    2.302E+00    2.325E+00    2.348E+00    2.371E+00    2.394E+00
     2.417E+00    2.440E+00    2.462E+00    2.485E+00    2.508E+00    2.531E+00    2.554E+00    2.577E+00    2.600E+00    2.622E+00
     2.645E+00    2.668E+00    2.691E+00    2.714E+00    2.737E+00    2.759E+00    2.782E+00    2.805E+00    2.828E+00    2.851E+00
     2.874E+00    2.897E+00    2.919E+00    2.942E+00    2.965E+00    2.988E+00    3.011E+00    3.034E+00    3.056E+00    3.079E+00
     3.102E+00    3.125E+00    3.148E+00    3.170E+00    3.193E+00    3.216E+00    3.239E+00    3.262E+00    3.285E+00    3.307E+00
     3.330E+00    3.353E+00    3.376E+00    3.399E+00    3.421E+00    3.444E+00    3.467E+00    3.490E+00    3.513E+00    3.535E+00
     3.558E+00    3.581E+00    3.604E+00    3.627E+00    3.649E+00    3.672E+00    3.695E+00    3.718E+00    3.741E+00    3.763E+00
     3.786E+00    3.809E+00    3.832E+00    3.855E+00    3.877E+00    3.900E+00    3.923E+00    3.946E+00    3.969E+00    3.991E+00
     4.014E+00    4.037E+00    4.060E+00    4.082E+00    4.105E+00    4.128E+00    4.151E+00    4.173E+00    4.196E+00    4.219E+00
     4.242E+00    4.264E+00    4.287E+00    4.310E+00    4.333E+00    4.356E+00    4.378E+00    4.401E+00    4.424E+00    4.447E+00
     4.469E+00    4.492E+00    4.515E+00    4.538E+00    4.560E+00    4.583E+00    4.606E+00    4.628E+00    4.651E+00    4.674E+00
     4.697E+00    4.719E+00    4.742E+00    4.765E+00    4.788E+00    4.810E+00    4.833E+00    4.856E+00    4.878E+00    4.901E+00
     4.924E+00    4.947E+00    4.969E+00    4.992E+00    5.015E+00    5.037E+00    5.060E+00    5.083E+00    5.106E+00    5.128E+00
     5.151E+00    5.174E+00    5.196E+00    5.219E+00    5.242E+00    5.265E+00    5.287E+00    5.310E+00    5.333E+00    5.355E+00
     5.378E+00    5.401E+00    5.423E+00    5.446E+00    5.469E+00    5.491E+00    5.514E+00    5.537E+00    5.559E+00    5.582E+00
     5.605E+00    5.627E+00    5.650E+00    5.673E+00    5.695E+00    5.718E+00    5.741E+00    5.763E+00    5.786E+00    5.809E+00
     5.831E+00    5.854E+00    5.877E+00    5.899E+00    5.922E+00    5.945E+00    5.967E+00    5.990E+00    6.013E+00    6.035E+00
     6.058E+00    6.081E+00    6.103E+00    6.126E+00    6.148E+00    6.171E+00    6.194E+00    6.216E+00    6.239E+00    6.262E+00
     6.284E+00    6.307E+00    6.329E+00    6.352E+00    6.375E+00    6.397E+00    6.420E+00    6.443E+00    6.465E+00    6.488E+00
     6.510E+00    6.533E+00    6.556E+00    6.578E+00    6.601E+00    6.623E+00    6.646E+00    6.669E+00    6.691E+00    6.714E+00
     6.736E+00    6.759E+00    6.782E+00    6.804E+00    6.827E+00    6.849E+00    6.872E+00    6.894E+00
 Ala      Conc. = 5.05E+03
