 LCModel (Version 6.3-1L) Copyright: S.W. Provencher.          Ref.: Magn. Reson. Med. 30:672-679 (1993).                
 Slice#1 Row#6 Col#8  PD_24_press_2_raw_act
 36 lines in following concentration table = NCONC+1
    Conc.  %SD /Cr+PCr  Metabolite                                         
    0.000 999%   0.000 Ala                                                 
  301.111  94%   0.207 Asp                                                 
 1.12E+03  42%   0.769 Cr                                                  
  336.296 143%   0.231 PCr                                                 
  164.268 109%   0.113 GABA                                                
  147.701 119%   0.102 Glc                                                 
 1.58E+03  47%   1.087 Gln                                                 
 3.16E+03  26%   2.172 Glu                                                 
  526.748   9%   0.363 GPC                                                 
    0.000 999%   0.000 PCh                                                 
  401.791  43%   0.277 GSH                                                 
 2.32E+03  23%   1.600 Ins                                                 
  184.356 195%   0.127 Lac                                                 
 1.57E+03  21%   1.081 NAA                                                 
 1.70E+03  19%   1.167 NAAG                                                
   98.828  46% 6.8E-02 Scyllo                                              
   63.258 428% 4.4E-02 Tau                                                 
  113.989 172% 7.8E-02 -CrCH2                                              
  526.748   9%   0.363 GPC+PCh                                             
 3.27E+03   5%   2.248 NAA+NAAG                                            
 1.45E+03   8%   1.000 Cr+PCr                                              
 4.73E+03  28%   3.259 Glu+Gln                                             
 3.47E+03  30%   2.391 Lip13a                                              
    0.000 999%   0.000 Lip13b                                              
  484.707 101%   0.334 Lip09                                               
 2.51E+03  21%   1.729 MM09                                                
  542.917  62%   0.374 Lip20                                               
 4.16E+03  19%   2.864 MM20                                                
  868.395  39%   0.598 MM12                                                
 3.58E+03  20%   2.463 MM14                                                
 1.48E+03  26%   1.017 MM17                                                
 3.47E+03  30%   2.391 Lip13a+Lip13b                                       
 7.92E+03   9%   5.451 MM14+Lip13a+Lip13b+MM12                             
 3.00E+03  12%   2.062 MM09+Lip09                                          
 4.70E+03  16%   3.238 MM20+Lip20                                          
   6 lines in following misc. output table
  FWHM = 0.069 ppm    S/N =   6                                            
  Data shift = 0.015 ppm                                                   
  Ph: -10 deg      14.5 deg/ppm                                            
  alphaB,S = 8.5E+01,   2.0E+02                                            
   14 spline knots.   Ns = 8(1)                                            
   2 inflections.     1 extrema                                            
  498 points on ppm-axis = NY
      4.000000     3.992357     3.984714     3.977070     3.969427     3.961784     3.954141     3.946497     3.938854     3.931211
      3.923568     3.915925     3.908281     3.900638     3.892995     3.885352     3.877708     3.870065     3.862422     3.854779
      3.847136     3.839492     3.831849     3.824206     3.816563     3.808919     3.801276     3.793633     3.785990     3.778347
      3.770703     3.763060     3.755417     3.747774     3.740130     3.732487     3.724844     3.717201     3.709558     3.701914
      3.694271     3.686628     3.678985     3.671341     3.663698     3.656055     3.648412     3.640769     3.633125     3.625482
      3.617839     3.610196     3.602552     3.594909     3.587266     3.579623     3.571980     3.564336     3.556693     3.549050
      3.541407     3.533763     3.526120     3.518477     3.510834     3.503191     3.495547     3.487904     3.480261     3.472618
      3.464974     3.457331     3.449688     3.442045     3.434402     3.426758     3.419115     3.411472     3.403829     3.396185
      3.388542     3.380899     3.373256     3.365613     3.357969     3.350326     3.342683     3.335040     3.327396     3.319753
      3.312110     3.304467     3.296824     3.289180     3.281537     3.273894     3.266251     3.258607     3.250964     3.243321
      3.235678     3.228034     3.220391     3.212748     3.205105     3.197462     3.189818     3.182175     3.174532     3.166889
      3.159245     3.151602     3.143959     3.136316     3.128673     3.121029     3.113386     3.105743     3.098100     3.090456
      3.082813     3.075170     3.067527     3.059884     3.052240     3.044597     3.036954     3.029311     3.021667     3.014024
      3.006381     2.998738     2.991095     2.983451     2.975808     2.968165     2.960522     2.952878     2.945235     2.937592
      2.929949     2.922306     2.914662     2.907019     2.899376     2.891733     2.884089     2.876446     2.868803     2.861160
      2.853517     2.845873     2.838230     2.830587     2.822944     2.815300     2.807657     2.800014     2.792371     2.784728
      2.777084     2.769441     2.761798     2.754155     2.746511     2.738868     2.731225     2.723582     2.715939     2.708295
      2.700652     2.693009     2.685366     2.677722     2.670079     2.662436     2.654793     2.647150     2.639506     2.631863
      2.624220     2.616577     2.608933     2.601290     2.593647     2.586004     2.578361     2.570717     2.563074     2.555431
      2.547788     2.540144     2.532501     2.524858     2.517215     2.509572     2.501928     2.494285     2.486642     2.478999
      2.471355     2.463712     2.456069     2.448426     2.440783     2.433139     2.425496     2.417853     2.410210     2.402566
      2.394923     2.387280     2.379637     2.371994     2.364350     2.356707     2.349064     2.341421     2.333777     2.326134
      2.318491     2.310848     2.303205     2.295561     2.287918     2.280275     2.272632     2.264988     2.257345     2.249702
      2.242059     2.234416     2.226772     2.219129     2.211486     2.203843     2.196199     2.188556     2.180913     2.173270
      2.165627     2.157983     2.150340     2.142697     2.135054     2.127410     2.119767     2.112124     2.104481     2.096838
      2.089194     2.081551     2.073908     2.066265     2.058621     2.050978     2.043335     2.035692     2.028049     2.020405
      2.012762     2.005119     1.997476     1.989833     1.982190     1.974546     1.966903     1.959260     1.951617     1.943974
      1.936331     1.928688     1.921045     1.913402     1.905759     1.898115     1.890472     1.882829     1.875186     1.867543
      1.859900     1.852257     1.844614     1.836971     1.829327     1.821684     1.814041     1.806398     1.798755     1.791112
      1.783469     1.775826     1.768183     1.760540     1.752896     1.745253     1.737610     1.729967     1.722324     1.714681
      1.707038     1.699395     1.691752     1.684108     1.676465     1.668822     1.661179     1.653536     1.645893     1.638250
      1.630607     1.622964     1.615321     1.607677     1.600034     1.592391     1.584748     1.577105     1.569462     1.561819
      1.554176     1.546533     1.538890     1.531246     1.523603     1.515960     1.508317     1.500674     1.493031     1.485388
      1.477745     1.470102     1.462458     1.454815     1.447172     1.439529     1.431886     1.424243     1.416600     1.408957
      1.401314     1.393671     1.386027     1.378384     1.370741     1.363098     1.355455     1.347812     1.340169     1.332526
      1.324883     1.317240     1.309596     1.301953     1.294310     1.286667     1.279024     1.271381     1.263738     1.256095
      1.248452     1.240808     1.233165     1.225522     1.217879     1.210236     1.202593     1.194950     1.187307     1.179664
      1.172021     1.164377     1.156734     1.149091     1.141448     1.133805     1.126162     1.118519     1.110876     1.103233
      1.095590     1.087946     1.080303     1.072660     1.065017     1.057374     1.049731     1.042088     1.034445     1.026802
      1.019158     1.011515     1.003872     0.996229     0.988586     0.980943     0.973300     0.965657     0.958014     0.950371
      0.942727     0.935084     0.927441     0.919798     0.912155     0.904512     0.896869     0.889226     0.881583     0.873940
      0.866296     0.858653     0.851010     0.843367     0.835724     0.828081     0.820438     0.812795     0.805152     0.797508
      0.789865     0.782222     0.774579     0.766936     0.759293     0.751650     0.744007     0.736364     0.728721     0.721077
      0.713434     0.705791     0.698148     0.690505     0.682862     0.675219     0.667576     0.659933     0.652290     0.644646
      0.637003     0.629360     0.621717     0.614074     0.606431     0.598788     0.591145     0.583502     0.575858     0.568215
      0.560572     0.552929     0.545286     0.537643     0.530000     0.522357     0.514714     0.507071     0.499427     0.491784
      0.484141     0.476498     0.468855     0.461212     0.453569     0.445925     0.438282     0.430639     0.422996     0.415353
      0.407710     0.400067     0.392424     0.384780     0.377137     0.369494     0.361851     0.354208     0.346565     0.338922
      0.331278     0.323635     0.315992     0.308349     0.300706     0.293063     0.285420     0.277777     0.270133     0.262490
      0.254847     0.247204     0.239561     0.231918     0.224275     0.216631     0.208988     0.201345
 NY phased data points follow
   1.00949E+01  1.65717E+01  8.71428E+00  1.71861E+01  8.57616E+00  7.87866E+00  2.37672E+01  3.16032E+01  2.22875E+01  1.71143E+01
   2.42390E+01  2.49263E+01  2.10621E+01  3.42969E+01  1.57599E+01  2.88570E+01  1.81090E+01  2.13354E+01  1.75932E+01  1.96173E+01
  -6.68996E-01  1.10299E+01  1.34485E+01  2.31047E+00  1.55491E+01  7.19918E+00  3.00895E+01  7.81051E+00  1.40844E+01  5.80201E+00
   1.02894E+01  7.06968E+00  8.03546E+00  8.12400E+00  1.71497E+01  1.22469E+01  3.67183E+00  1.75719E+01  1.00027E+01  1.19234E+01
   6.28787E+00  1.30814E+01  2.14142E+01  1.10646E+01  7.22113E+00  1.59967E+01  1.63298E+01  1.02856E+01  4.80406E+00  1.59738E+01
   1.71015E+01  3.12640E+00  1.37339E+01  1.37174E+01  1.97799E+01  1.33179E+01  5.01681E+00  3.28656E+00  1.24295E+01  1.63114E+01
   9.12355E+00  1.16709E+01  8.65823E+00 -6.71687E-01  2.46924E+00  8.89973E+00  1.63798E+00  5.30661E+00  5.68901E+00 -7.53107E+00
  -3.24683E+00  1.29900E+00 -1.60769E+00 -1.04622E+01  1.75206E+00 -4.65643E+00  3.17933E+00 -2.57814E-01 -1.62963E+00 -5.76254E+00
   8.22325E+00  2.22650E+00 -6.00873E-01 -3.62652E+00  4.67681E+00  2.02083E+00  5.24523E+00  4.63991E+00 -4.24823E+00  1.04410E+01
  -1.38180E+00 -8.15027E-01  2.01359E-01  6.49474E+00  6.16916E+00 -2.76685E+00  2.16390E+00  1.77468E+01  1.10418E+01  1.77632E+01
   2.00890E+01  2.51421E+01  2.49354E+01  3.42538E+01  3.43633E+01  3.56498E+01  3.78858E+01  2.55613E+01  2.41600E+01  7.00306E+00
   8.79411E+00  1.93631E+00 -3.85930E+00  2.20843E+00 -1.02831E+01 -2.16873E+00  5.28288E-01  7.35366E-01 -1.40128E+01 -4.23538E-01
   1.60901E+00  5.27246E+00  3.55791E+00  1.21001E+01  1.59634E+01  2.15896E+01  3.21992E+01  4.05933E+01  3.94513E+01  4.46201E+01
   4.26647E+01  3.11602E+01  1.10794E+01  1.97090E+01  1.03028E+01 -5.36488E+00  1.05466E+00  6.74893E+00  1.15619E+00  4.19827E+00
  -6.71122E+00 -1.28755E-01 -2.51275E+00 -7.07673E+00 -1.57128E+00 -6.22423E-01 -3.80324E+00 -1.76729E+00 -2.88192E-01 -4.90145E+00
  -1.29416E+01 -1.46561E+01 -1.51711E+00 -1.33195E+01 -9.32877E+00  3.80630E+00 -1.17005E+01  5.04352E-01 -2.26528E+01  4.68945E+00
  -2.49763E+00  3.65980E+00 -5.04688E+00 -1.15650E+01 -6.11421E+00 -1.16410E+01 -7.43925E+00 -1.63651E+01 -5.14938E+00 -7.34436E+00
  -1.62579E+01 -5.90625E+00 -1.56064E+01 -5.83864E+00 -2.06804E+01 -1.05479E+01 -1.60030E+01 -1.92045E+01 -1.58599E+01 -2.30603E+01
  -1.98545E+01 -2.35598E+01 -2.27781E+01 -1.04006E+01 -1.58973E+01 -8.17733E+00 -3.40066E+00 -6.04378E+00 -1.81835E+01 -9.09505E+00
   3.84460E+00 -3.86047E+00 -1.92772E+01 -1.91508E+01 -1.92045E+01 -1.23870E+01 -1.28613E+01 -5.33217E+00 -7.57922E+00 -7.65142E+00
  -1.95597E+00 -8.91718E+00 -6.69724E+00 -2.54691E+00 -1.17889E+00 -5.18523E-01 -7.96547E+00 -3.14504E+00  5.40303E+00  4.60605E+00
  -5.74424E+00 -4.77517E+00  7.32035E+00  2.20873E+00  6.58894E+00  9.91008E+00  1.33451E+01  1.60194E+01  1.96775E+00  1.21832E+00
  -2.21714E+00 -4.46028E+00 -4.07353E+00 -3.57992E-01 -1.95212E+00 -7.95323E+00  7.16902E+00 -2.22011E-01  1.06778E+01  1.95557E+01
   1.17800E+01  1.28384E+01 -2.05194E+00  6.62370E+00  9.97460E+00  1.05798E+01  5.65790E+00 -6.79134E+00 -3.12449E-01 -1.84836E+00
   9.68876E+00  2.32736E+00  6.42463E+00  1.27414E+01  6.44522E+00  1.62578E+01  1.25839E+01  1.22849E+01  6.68901E+00  2.15727E+01
   2.21169E+01  3.00788E+01  2.80420E+01  3.82177E+01  4.11049E+01  4.81987E+01  7.32810E+01  8.35524E+01  9.80157E+01  7.91698E+01
   8.74118E+01  9.15539E+01  7.01099E+01  6.87983E+01  4.84999E+01  3.12077E+01  1.97968E+01  1.42320E+01  1.69530E+01  4.49827E+00
   4.90214E+00  1.46504E+01  1.19953E+01 -2.74132E+00  2.69767E+00  5.38354E+00  3.95815E+00 -1.82370E+00  8.65447E+00  8.11345E+00
  -7.28565E-01 -8.92993E+00 -2.24350E+00 -6.36362E+00  2.89523E+00 -2.96681E+00 -1.10681E+01 -7.95176E+00 -1.59342E+01 -4.96648E+00
   1.84220E+00  4.51854E+00  1.43390E+00  2.96698E+00  6.88132E+00  1.35001E+01  1.27409E+01  2.79202E-02  1.32280E+01  5.45367E+00
   1.00399E+01  9.05178E+00  1.25350E+00 -7.79436E+00  6.66692E+00  2.15026E+00  7.44885E+00  1.25017E+00  4.71065E+00  5.50811E+00
   4.08609E+00 -4.87942E+00 -3.89642E+00  2.59289E+00 -4.43345E+00 -3.34411E+00 -9.32587E+00  8.11108E+00 -1.19363E+01 -1.36687E+01
   2.82304E+00 -7.89834E+00  3.63815E+00  3.88288E+00 -6.60533E+00  5.64766E+00  9.75545E+00 -2.41052E+00  9.30177E+00 -7.54447E+00
   1.23541E+01  1.93344E+01  1.67874E+01  2.60600E+01  3.21396E+01  3.03796E+01  3.10106E+01  1.71050E+01  2.74354E+01  2.45115E+01
   2.46530E+01  2.31763E+01  2.20139E+01  2.81443E+01  2.69969E+01  2.56822E+01  2.18181E+01  1.49735E+01  1.30007E+01  1.50807E+01
   2.18538E+01  1.81473E+01  2.17613E+01  2.57680E+01  1.35215E+01  5.79203E+00  1.16432E+01  1.49023E+01  1.43595E+01  1.51334E+01
   1.97892E+01  1.47840E+01  7.65925E+00  1.73420E+01 -2.62886E+00  2.29011E+01  1.66383E+01  2.31155E+01  2.11126E+00  6.36882E+00
   7.30659E+00  7.48862E+00 -1.51512E+00  1.03034E+01 -5.18850E+00  5.19839E+00  7.67423E+00 -1.74219E+00  1.24782E+01  9.34345E+00
  -6.73932E+00  1.83943E+00  2.38316E+00 -5.70481E-01 -1.63075E+00  3.98870E+00  1.07423E+00  1.21866E+00  2.13349E+00  6.82039E+00
   1.14778E+01 -3.15521E-01 -4.31561E+00  8.93342E+00  1.29554E+01 -1.52896E+00  8.69351E+00  6.94135E+00  1.35079E+01  1.93839E+01
   2.15225E+01  1.15026E+01  9.35355E+00  1.56308E+01  1.88287E+01  1.62065E+01  7.31123E-01  2.51297E+01  1.84568E+01  1.69229E+00
   9.49977E+00  8.56285E+00  1.52008E+01  1.46582E+01  5.93197E-01 -5.05462E-01 -5.57007E-01  5.46424E+00  1.79316E+00  1.24275E+00
  -4.35531E+00 -7.42304E+00 -5.31431E+00 -7.35943E+00  1.25587E+00 -7.56465E+00 -1.25475E+01 -5.47760E+00 -4.96727E+00 -2.09564E+01
   5.31967E+00  2.56221E-01 -2.23517E-01 -7.55112E+00 -1.39350E+01 -8.73238E+00 -1.17320E+01  5.90241E-01 -2.09771E+01 -2.19607E+01
  -1.39463E+01 -9.87525E+00 -7.23174E+00  6.32660E+00 -5.33045E+00 -5.37475E+00 -5.67450E+00 -9.32055E+00 -1.42250E+01 -1.10579E+01
  -9.45484E+00 -4.80436E+00  3.71313E+00 -5.03411E+00 -1.62254E+01 -1.24716E+01 -3.49615E+00 -4.43959E+00 -4.99406E+00 -7.67393E+00
  -2.11455E+01 -8.57312E+00  1.47182E-01 -6.15830E+00 -5.66566E+00 -1.43957E+01 -3.29305E+00 -5.75953E+00 -4.98280E+00 -1.11306E+01
  -1.18685E+01 -1.05341E+01 -1.52921E+01 -8.43217E+00 -1.95198E+01 -1.69086E+01 -6.60065E+00 -1.02695E+01 -1.06851E+01  2.39803E-01
  -1.21591E+01 -2.25509E+01 -7.51066E+00 -1.37298E+01  2.11755E+00 -5.87973E+00 -1.74042E+01 -6.47301E+00 -4.09797E+00 -4.00463E+00
  -8.10102E+00 -8.86016E+00 -1.12970E+01 -8.41649E+00 -2.07536E+01 -9.78894E+00 -1.44039E+01  2.41231E+00
 NY points of the fit to the data follow
   9.61135E+00  8.70550E+00  8.40524E+00  8.95067E+00  1.04664E+01  1.27670E+01  1.55496E+01  1.84633E+01  2.12766E+01  2.38528E+01
   2.60554E+01  2.76697E+01  2.83575E+01  2.78015E+01  2.59323E+01  2.29938E+01  1.94289E+01  1.57358E+01  1.23348E+01  9.45826E+00
   7.24814E+00  6.00029E+00  5.71782E+00  5.85504E+00  6.33517E+00  7.18665E+00  8.29228E+00  9.45464E+00  1.05898E+01  1.17322E+01
   1.28811E+01  1.39927E+01  1.49060E+01  1.53033E+01  1.49101E+01  1.36482E+01  1.15783E+01  8.95801E+00  6.44886E+00  4.84689E+00
   4.58958E+00  5.54803E+00  7.44161E+00  9.74013E+00  1.19132E+01  1.36358E+01  1.48374E+01  1.55029E+01  1.55648E+01  1.49565E+01
   1.35801E+01  1.15081E+01  9.10143E+00  6.75258E+00  4.74723E+00  3.29202E+00  2.57857E+00  2.65989E+00  3.29477E+00  4.07295E+00
   4.70395E+00  5.05355E+00  5.05762E+00  4.71438E+00  4.13886E+00  3.49146E+00  2.91949E+00  2.53184E+00  2.41123E+00  2.62063E+00
   3.10822E+00  3.72045E+00  4.29457E+00  4.67054E+00  4.77904E+00  4.62849E+00  4.28582E+00  3.86034E+00  3.48669E+00  3.21775E+00
   2.99265E+00  2.76389E+00  2.53793E+00  2.28613E+00  2.00894E+00  1.72447E+00  1.41502E+00  1.01808E+00  5.14807E-01 -2.82962E-02
  -5.10122E-01 -8.28141E-01 -9.07388E-01 -6.79987E-01  7.27318E-02  2.04759E+00  5.46421E+00  9.71295E+00  1.41801E+01  1.85733E+01
   2.28190E+01  2.69339E+01  3.08483E+01  3.41139E+01  3.58935E+01  3.54200E+01  3.24926E+01  2.75023E+01  2.11803E+01  1.43804E+01
   7.93389E+00  2.62965E+00 -7.92510E-01 -1.99997E+00 -2.00563E+00 -1.77356E+00 -1.46295E+00 -1.06129E+00 -3.98268E-01  1.10006E+00
   3.90250E+00  7.76107E+00  1.22347E+01  1.69676E+01  2.17355E+01  2.64290E+01  3.09151E+01  3.47560E+01  3.71551E+01  3.73099E+01
   3.48974E+01  3.02452E+01  2.40753E+01  1.72131E+01  1.04488E+01  4.52338E+00  1.74790E-01 -2.09121E+00 -2.81452E+00 -3.00403E+00
  -2.94540E+00 -2.72442E+00 -2.42537E+00 -2.13487E+00 -1.95632E+00 -1.96623E+00 -2.17083E+00 -2.55920E+00 -3.06673E+00 -3.59305E+00
  -4.07236E+00 -4.46370E+00 -4.79889E+00 -5.14513E+00 -5.51187E+00 -5.86592E+00 -6.15972E+00 -6.36630E+00 -6.51254E+00 -6.65245E+00
  -6.84470E+00 -7.11564E+00 -7.46127E+00 -7.84620E+00 -8.21725E+00 -8.53427E+00 -8.76223E+00 -8.92886E+00 -9.10162E+00 -9.31128E+00
  -9.56160E+00 -9.80697E+00 -9.97605E+00 -1.00794E+01 -1.01737E+01 -1.03137E+01 -1.04894E+01 -1.06162E+01 -1.06481E+01 -1.06067E+01
  -1.04990E+01 -1.02616E+01 -9.81686E+00 -9.14668E+00 -8.26541E+00 -7.26254E+00 -6.26237E+00 -5.28682E+00 -4.37021E+00 -3.61816E+00
  -3.14348E+00 -3.00187E+00 -3.16155E+00 -3.54197E+00 -3.99367E+00 -4.39428E+00 -4.64174E+00 -4.58664E+00 -4.08033E+00 -3.12483E+00
  -1.82151E+00 -4.60466E-01  5.24525E-01  8.17647E-01  3.46295E-01 -8.19386E-01 -2.53527E+00 -4.48559E+00 -6.25507E+00 -7.58694E+00
  -8.22873E+00 -7.92073E+00 -6.54915E+00 -4.34957E+00 -1.85542E+00  3.98971E-01  1.93649E+00  2.31712E+00  1.35683E+00 -8.92963E-01
  -3.98550E+00 -7.07400E+00 -9.32061E+00 -1.01788E+01 -9.32384E+00 -6.80935E+00 -3.24756E+00  4.53719E-01  3.69420E+00  6.09728E+00
   7.46269E+00  7.75764E+00  7.26689E+00  6.65021E+00  6.33766E+00  6.26470E+00  6.37264E+00  6.67571E+00  7.07761E+00  7.46421E+00
   7.73279E+00  7.76484E+00  7.57359E+00  7.30556E+00  7.16540E+00  7.32295E+00  7.84034E+00  8.93641E+00  1.13196E+01  1.53084E+01
   2.04824E+01  2.65065E+01  3.36152E+01  4.20926E+01  5.16765E+01  6.17349E+01  7.12931E+01  7.91257E+01  8.42109E+01  8.61017E+01
   8.48128E+01  8.04102E+01  7.29935E+01  6.30400E+01  5.15989E+01  4.02012E+01  3.02417E+01  2.16802E+01  1.42601E+01  8.64988E+00
   5.45905E+00  4.00059E+00  3.15006E+00  2.60458E+00  2.23037E+00  1.89402E+00  1.55785E+00  1.17737E+00  7.22228E-01  2.07153E-01
  -3.22380E-01 -8.01418E-01 -1.15238E+00 -1.32845E+00 -1.32284E+00 -1.16218E+00 -8.92533E-01 -5.64946E-01 -1.98242E-01  2.05374E-01
   6.43880E-01  1.12019E+00  1.64055E+00  2.20578E+00  2.79615E+00  3.36956E+00  3.89340E+00  4.33346E+00  4.66164E+00  4.86381E+00
   4.93686E+00  4.88974E+00  4.74728E+00  4.51998E+00  4.20689E+00  3.81131E+00  3.34090E+00  2.80665E+00  2.22152E+00  1.60171E+00
   9.75783E-01  3.76182E-01 -1.70696E-01 -6.40707E-01 -1.01345E+00 -1.27092E+00 -1.39719E+00 -1.37862E+00 -1.20394E+00 -8.64311E-01
  -3.53511E-01  3.31790E-01  1.19161E+00  2.22214E+00  3.41523E+00  4.75848E+00  6.23502E+00  7.82333E+00  9.49727E+00  1.12266E+01
   1.29779E+01  1.47154E+01  1.64025E+01  1.80034E+01  1.94844E+01  2.08163E+01  2.19759E+01  2.29491E+01  2.37355E+01  2.43567E+01
   2.48121E+01  2.50641E+01  2.50911E+01  2.48938E+01  2.44869E+01  2.38881E+01  2.31114E+01  2.21961E+01  2.11844E+01  2.01072E+01
   1.90133E+01  1.79700E+01  1.70433E+01  1.62882E+01  1.57462E+01  1.54306E+01  1.53055E+01  1.52760E+01  1.51882E+01  1.49289E+01
   1.44837E+01  1.38631E+01  1.30892E+01  1.21981E+01  1.12508E+01  1.03313E+01  9.45889E+00  8.60712E+00  7.76803E+00  6.94332E+00
   6.13836E+00  5.36025E+00  4.61674E+00  3.91571E+00  3.26486E+00  2.67160E+00  2.14294E+00  1.68554E+00  1.30563E+00  1.00908E+00
   8.01414E-01  6.87892E-01  6.73337E-01  7.62085E-01  9.57681E-01  1.26269E+00  1.67829E+00  2.20400E+00  2.83706E+00  3.57215E+00
   4.40087E+00  5.31150E+00  6.28889E+00  7.31441E+00  8.36622E+00  9.41966E+00  1.04479E+01  1.14231E+01  1.23172E+01  1.31033E+01
   1.37566E+01  1.42560E+01  1.45848E+01  1.47315E+01  1.46907E+01  1.44629E+01  1.40544E+01  1.34771E+01  1.27477E+01  1.18866E+01
   1.09168E+01  9.86287E+00  8.74978E+00  7.60171E+00  6.44128E+00  5.28881E+00  4.16178E+00  3.07458E+00  2.03834E+00  1.06115E+00
   1.48217E-01 -6.97784E-01 -1.47638E+00 -2.18883E+00 -2.83779E+00 -3.42684E+00 -3.96018E+00 -4.44234E+00 -4.87800E+00 -5.27179E+00
  -5.62813E+00 -5.95113E+00 -6.24458E+00 -6.51188E+00 -6.75616E+00 -6.98013E+00 -7.18622E+00 -7.37651E+00 -7.55283E+00 -7.71676E+00
  -7.86973E+00 -8.01294E+00 -8.14745E+00 -8.27413E+00 -8.39377E+00 -8.50709E+00 -8.61472E+00 -8.71718E+00 -8.81496E+00 -8.90843E+00
  -8.99797E+00 -9.08393E+00 -9.16662E+00 -9.24629E+00 -9.32316E+00 -9.39741E+00 -9.46928E+00 -9.53893E+00 -9.60653E+00 -9.67222E+00
  -9.73610E+00 -9.79830E+00 -9.85894E+00 -9.91814E+00 -9.97599E+00 -1.00325E+01 -1.00879E+01 -1.01421E+01 -1.01952E+01 -1.02473E+01
  -1.02986E+01 -1.03489E+01 -1.03983E+01 -1.04470E+01 -1.04949E+01 -1.05422E+01 -1.05887E+01 -1.06347E+01 -1.06800E+01 -1.07248E+01
  -1.07691E+01 -1.08129E+01 -1.08562E+01 -1.08991E+01 -1.09416E+01 -1.09838E+01 -1.10256E+01 -1.10671E+01 -1.11084E+01 -1.11493E+01
  -1.11901E+01 -1.12306E+01 -1.12710E+01 -1.13113E+01 -1.13515E+01 -1.13916E+01 -1.14317E+01 -1.14718E+01
 NY background values follow
    -2.060E+00   -2.083E+00   -2.106E+00   -2.130E+00   -2.153E+00   -2.176E+00   -2.200E+00   -2.223E+00   -2.246E+00   -2.270E+00
    -2.293E+00   -2.316E+00   -2.340E+00   -2.363E+00   -2.387E+00   -2.410E+00   -2.433E+00   -2.457E+00   -2.480E+00   -2.504E+00
    -2.527E+00   -2.551E+00   -2.574E+00   -2.597E+00   -2.621E+00   -2.644E+00   -2.668E+00   -2.691E+00   -2.715E+00   -2.738E+00
    -2.762E+00   -2.785E+00   -2.809E+00   -2.832E+00   -2.856E+00   -2.879E+00   -2.903E+00   -2.926E+00   -2.950E+00   -2.973E+00
    -2.997E+00   -3.020E+00   -3.044E+00   -3.067E+00   -3.091E+00   -3.114E+00   -3.138E+00   -3.161E+00   -3.185E+00   -3.209E+00
    -3.232E+00   -3.256E+00   -3.279E+00   -3.303E+00   -3.326E+00   -3.350E+00   -3.374E+00   -3.397E+00   -3.421E+00   -3.444E+00
    -3.468E+00   -3.492E+00   -3.515E+00   -3.539E+00   -3.562E+00   -3.586E+00   -3.610E+00   -3.633E+00   -3.657E+00   -3.681E+00
    -3.704E+00   -3.728E+00   -3.751E+00   -3.775E+00   -3.799E+00   -3.822E+00   -3.846E+00   -3.870E+00   -3.893E+00   -3.917E+00
    -3.941E+00   -3.964E+00   -3.988E+00   -4.012E+00   -4.035E+00   -4.059E+00   -4.083E+00   -4.106E+00   -4.130E+00   -4.154E+00
    -4.177E+00   -4.201E+00   -4.225E+00   -4.249E+00   -4.272E+00   -4.296E+00   -4.320E+00   -4.343E+00   -4.367E+00   -4.391E+00
    -4.414E+00   -4.438E+00   -4.462E+00   -4.486E+00   -4.509E+00   -4.533E+00   -4.557E+00   -4.580E+00   -4.604E+00   -4.628E+00
    -4.652E+00   -4.675E+00   -4.699E+00   -4.723E+00   -4.746E+00   -4.770E+00   -4.794E+00   -4.818E+00   -4.841E+00   -4.865E+00
    -4.889E+00   -4.913E+00   -4.936E+00   -4.960E+00   -4.984E+00   -5.007E+00   -5.031E+00   -5.055E+00   -5.079E+00   -5.102E+00
    -5.126E+00   -5.150E+00   -5.174E+00   -5.197E+00   -5.221E+00   -5.245E+00   -5.269E+00   -5.292E+00   -5.316E+00   -5.340E+00
    -5.363E+00   -5.387E+00   -5.411E+00   -5.435E+00   -5.458E+00   -5.482E+00   -5.506E+00   -5.530E+00   -5.553E+00   -5.577E+00
    -5.601E+00   -5.625E+00   -5.648E+00   -5.672E+00   -5.696E+00   -5.719E+00   -5.743E+00   -5.767E+00   -5.791E+00   -5.814E+00
    -5.838E+00   -5.862E+00   -5.886E+00   -5.909E+00   -5.933E+00   -5.957E+00   -5.980E+00   -6.004E+00   -6.028E+00   -6.052E+00
    -6.075E+00   -6.099E+00   -6.123E+00   -6.146E+00   -6.170E+00   -6.194E+00   -6.218E+00   -6.241E+00   -6.265E+00   -6.289E+00
    -6.312E+00   -6.336E+00   -6.360E+00   -6.383E+00   -6.407E+00   -6.431E+00   -6.454E+00   -6.478E+00   -6.502E+00   -6.525E+00
    -6.549E+00   -6.573E+00   -6.596E+00   -6.620E+00   -6.644E+00   -6.667E+00   -6.691E+00   -6.715E+00   -6.738E+00   -6.762E+00
    -6.786E+00   -6.809E+00   -6.833E+00   -6.857E+00   -6.880E+00   -6.904E+00   -6.928E+00   -6.951E+00   -6.975E+00   -6.998E+00
    -7.022E+00   -7.046E+00   -7.069E+00   -7.093E+00   -7.117E+00   -7.140E+00   -7.164E+00   -7.187E+00   -7.211E+00   -7.234E+00
    -7.258E+00   -7.282E+00   -7.305E+00   -7.329E+00   -7.352E+00   -7.376E+00   -7.399E+00   -7.423E+00   -7.447E+00   -7.470E+00
    -7.494E+00   -7.517E+00   -7.541E+00   -7.564E+00   -7.588E+00   -7.611E+00   -7.635E+00   -7.658E+00   -7.682E+00   -7.705E+00
    -7.729E+00   -7.752E+00   -7.776E+00   -7.799E+00   -7.823E+00   -7.846E+00   -7.870E+00   -7.893E+00   -7.917E+00   -7.940E+00
    -7.964E+00   -7.987E+00   -8.011E+00   -8.034E+00   -8.057E+00   -8.081E+00   -8.104E+00   -8.128E+00   -8.151E+00   -8.175E+00
    -8.198E+00   -8.221E+00   -8.245E+00   -8.268E+00   -8.291E+00   -8.315E+00   -8.338E+00   -8.362E+00   -8.385E+00   -8.408E+00
    -8.432E+00   -8.455E+00   -8.478E+00   -8.502E+00   -8.525E+00   -8.548E+00   -8.572E+00   -8.595E+00   -8.618E+00   -8.641E+00
    -8.665E+00   -8.688E+00   -8.711E+00   -8.735E+00   -8.758E+00   -8.781E+00   -8.804E+00   -8.828E+00   -8.851E+00   -8.874E+00
    -8.897E+00   -8.920E+00   -8.944E+00   -8.967E+00   -8.990E+00   -9.013E+00   -9.036E+00   -9.060E+00   -9.083E+00   -9.106E+00
    -9.129E+00   -9.152E+00   -9.175E+00   -9.198E+00   -9.222E+00   -9.245E+00   -9.268E+00   -9.291E+00   -9.314E+00   -9.337E+00
    -9.360E+00   -9.383E+00   -9.406E+00   -9.429E+00   -9.452E+00   -9.475E+00   -9.498E+00   -9.521E+00   -9.545E+00   -9.568E+00
    -9.591E+00   -9.614E+00   -9.636E+00   -9.659E+00   -9.682E+00   -9.705E+00   -9.728E+00   -9.751E+00   -9.774E+00   -9.797E+00
    -9.820E+00   -9.843E+00   -9.866E+00   -9.889E+00   -9.912E+00   -9.935E+00   -9.957E+00   -9.980E+00   -1.000E+01   -1.003E+01
    -1.005E+01   -1.007E+01   -1.009E+01   -1.012E+01   -1.014E+01   -1.016E+01   -1.019E+01   -1.021E+01   -1.023E+01   -1.025E+01
    -1.028E+01   -1.030E+01   -1.032E+01   -1.034E+01   -1.037E+01   -1.039E+01   -1.041E+01   -1.044E+01   -1.046E+01   -1.048E+01
    -1.050E+01   -1.053E+01   -1.055E+01   -1.057E+01   -1.059E+01   -1.062E+01   -1.064E+01   -1.066E+01   -1.068E+01   -1.071E+01
    -1.073E+01   -1.075E+01   -1.077E+01   -1.080E+01   -1.082E+01   -1.084E+01   -1.086E+01   -1.089E+01   -1.091E+01   -1.093E+01
    -1.095E+01   -1.098E+01   -1.100E+01   -1.102E+01   -1.104E+01   -1.107E+01   -1.109E+01   -1.111E+01   -1.113E+01   -1.116E+01
    -1.118E+01   -1.120E+01   -1.122E+01   -1.124E+01   -1.127E+01   -1.129E+01   -1.131E+01   -1.133E+01   -1.136E+01   -1.138E+01
    -1.140E+01   -1.142E+01   -1.145E+01   -1.147E+01   -1.149E+01   -1.151E+01   -1.153E+01   -1.156E+01   -1.158E+01   -1.160E+01
    -1.162E+01   -1.164E+01   -1.167E+01   -1.169E+01   -1.171E+01   -1.173E+01   -1.175E+01   -1.178E+01   -1.180E+01   -1.182E+01
    -1.184E+01   -1.186E+01   -1.189E+01   -1.191E+01   -1.193E+01   -1.195E+01   -1.197E+01   -1.200E+01   -1.202E+01   -1.204E+01
    -1.206E+01   -1.208E+01   -1.211E+01   -1.213E+01   -1.215E+01   -1.217E+01   -1.219E+01   -1.221E+01   -1.224E+01   -1.226E+01
    -1.228E+01   -1.230E+01   -1.232E+01   -1.234E+01   -1.237E+01   -1.239E+01   -1.241E+01   -1.243E+01   -1.245E+01   -1.247E+01
    -1.250E+01   -1.252E+01   -1.254E+01   -1.256E+01   -1.258E+01   -1.260E+01   -1.263E+01   -1.265E+01   -1.267E+01   -1.269E+01
    -1.271E+01   -1.273E+01   -1.275E+01   -1.278E+01   -1.280E+01   -1.282E+01   -1.284E+01   -1.286E+01   -1.288E+01   -1.290E+01
    -1.292E+01   -1.295E+01   -1.297E+01   -1.299E+01   -1.301E+01   -1.303E+01   -1.305E+01   -1.307E+01   -1.309E+01   -1.312E+01
    -1.314E+01   -1.316E+01   -1.318E+01   -1.320E+01   -1.322E+01   -1.324E+01   -1.326E+01   -1.328E+01   -1.331E+01   -1.333E+01
    -1.335E+01   -1.337E+01   -1.339E+01   -1.341E+01   -1.343E+01   -1.345E+01   -1.347E+01   -1.349E+01
 Asp      Conc. = 3.01E+02
