 LCModel (Version 6.3-1L) Copyright: S.W. Provencher.          Ref.: Magn. Reson. Med. 30:672-679 (1993).                
 Slice#1 Row#11 Col#7  PD_24_press_2_raw_act
 36 lines in following concentration table = NCONC+1
    Conc.  %SD /Cr+PCr  Metabolite                                         
    0.000 999%   0.000 Ala                                                 
   63.827 143%   0.122 Asp                                                 
  523.305  10%   1.000 Cr                                                  
    0.000 999%   0.000 PCr                                                 
   50.662 112% 9.7E-02 GABA                                                
   42.772 131% 8.2E-02 Glc                                                 
   26.516 999% 5.1E-02 Gln                                                 
  519.446  62%   0.993 Glu                                                 
  127.963  15%   0.245 GPC                                                 
    0.000 999%   0.000 PCh                                                 
  212.468  35%   0.406 GSH                                                 
  861.921  26%   1.647 Ins                                                 
    0.000 999%   0.000 Lac                                                 
  691.566  13%   1.322 NAA                                                 
  219.587  41%   0.420 NAAG                                                
   39.222  40% 7.5E-02 Scyllo                                              
   89.796  95%   0.172 Tau                                                 
  164.093  52%   0.314 -CrCH2                                              
  127.963  15%   0.245 GPC+PCh                                             
  911.154   6%   1.741 NAA+NAAG                                            
  523.305  10%   1.000 Cr+PCr                                              
  545.962  81%   1.043 Glu+Gln                                             
    0.000 999%   0.000 Lip13a                                              
    0.000 999%   0.000 Lip13b                                              
    0.000 999%   0.000 Lip09                                               
   47.325  95% 9.0E-02 MM09                                                
 7.00E-03 999% 1.3E-05 Lip20                                               
  103.783  75%   0.198 MM20                                                
   12.226 143% 2.3E-02 MM12                                                
    0.000 999%   0.000 MM14                                                
    0.000 999%   0.000 MM17                                                
    0.000 999%   0.000 Lip13a+Lip13b                                       
   12.226 143% 2.3E-02 MM14+Lip13a+Lip13b+MM12                             
   47.325  95% 9.0E-02 MM09+Lip09                                          
  103.790  75%   0.198 MM20+Lip20                                          
   6 lines in following misc. output table
  FWHM = 0.161 ppm    S/N =   3                                            
  Data shift = 0.000 ppm                                                   
  Ph: -39 deg     -16.5 deg/ppm                                            
  alphaB,S = 1.3E+00,   3.6E+00                                            
   14 spline knots.   Ns =11(1)                                            
  (22)21 infls.   (23)23 extrs.                                            
  498 points on ppm-axis = NY
      4.000000     3.992357     3.984714     3.977070     3.969427     3.961784     3.954141     3.946497     3.938854     3.931211
      3.923568     3.915925     3.908281     3.900638     3.892995     3.885352     3.877708     3.870065     3.862422     3.854779
      3.847136     3.839492     3.831849     3.824206     3.816563     3.808919     3.801276     3.793633     3.785990     3.778347
      3.770703     3.763060     3.755417     3.747774     3.740130     3.732487     3.724844     3.717201     3.709558     3.701914
      3.694271     3.686628     3.678985     3.671341     3.663698     3.656055     3.648412     3.640769     3.633125     3.625482
      3.617839     3.610196     3.602552     3.594909     3.587266     3.579623     3.571980     3.564336     3.556693     3.549050
      3.541407     3.533763     3.526120     3.518477     3.510834     3.503191     3.495547     3.487904     3.480261     3.472618
      3.464974     3.457331     3.449688     3.442045     3.434402     3.426758     3.419115     3.411472     3.403829     3.396185
      3.388542     3.380899     3.373256     3.365613     3.357969     3.350326     3.342683     3.335040     3.327396     3.319753
      3.312110     3.304467     3.296824     3.289180     3.281537     3.273894     3.266251     3.258607     3.250964     3.243321
      3.235678     3.228034     3.220391     3.212748     3.205105     3.197462     3.189818     3.182175     3.174532     3.166889
      3.159245     3.151602     3.143959     3.136316     3.128673     3.121029     3.113386     3.105743     3.098100     3.090456
      3.082813     3.075170     3.067527     3.059884     3.052240     3.044597     3.036954     3.029311     3.021667     3.014024
      3.006381     2.998738     2.991095     2.983451     2.975808     2.968165     2.960522     2.952878     2.945235     2.937592
      2.929949     2.922306     2.914662     2.907019     2.899376     2.891733     2.884089     2.876446     2.868803     2.861160
      2.853517     2.845873     2.838230     2.830587     2.822944     2.815300     2.807657     2.800014     2.792371     2.784728
      2.777084     2.769441     2.761798     2.754155     2.746511     2.738868     2.731225     2.723582     2.715939     2.708295
      2.700652     2.693009     2.685366     2.677722     2.670079     2.662436     2.654793     2.647150     2.639506     2.631863
      2.624220     2.616577     2.608933     2.601290     2.593647     2.586004     2.578361     2.570717     2.563074     2.555431
      2.547788     2.540144     2.532501     2.524858     2.517215     2.509572     2.501928     2.494285     2.486642     2.478999
      2.471355     2.463712     2.456069     2.448426     2.440783     2.433139     2.425496     2.417853     2.410210     2.402566
      2.394923     2.387280     2.379637     2.371994     2.364350     2.356707     2.349064     2.341421     2.333777     2.326134
      2.318491     2.310848     2.303205     2.295561     2.287918     2.280275     2.272632     2.264988     2.257345     2.249702
      2.242059     2.234416     2.226772     2.219129     2.211486     2.203843     2.196199     2.188556     2.180913     2.173270
      2.165627     2.157983     2.150340     2.142697     2.135054     2.127410     2.119767     2.112124     2.104481     2.096838
      2.089194     2.081551     2.073908     2.066265     2.058621     2.050978     2.043335     2.035692     2.028049     2.020405
      2.012762     2.005119     1.997476     1.989833     1.982190     1.974546     1.966903     1.959260     1.951617     1.943974
      1.936331     1.928688     1.921045     1.913402     1.905759     1.898115     1.890472     1.882829     1.875186     1.867543
      1.859900     1.852257     1.844614     1.836971     1.829327     1.821684     1.814041     1.806398     1.798755     1.791112
      1.783469     1.775826     1.768183     1.760540     1.752896     1.745253     1.737610     1.729967     1.722324     1.714681
      1.707038     1.699395     1.691752     1.684108     1.676465     1.668822     1.661179     1.653536     1.645893     1.638250
      1.630607     1.622964     1.615321     1.607677     1.600034     1.592391     1.584748     1.577105     1.569462     1.561819
      1.554176     1.546533     1.538890     1.531246     1.523603     1.515960     1.508317     1.500674     1.493031     1.485388
      1.477745     1.470102     1.462458     1.454815     1.447172     1.439529     1.431886     1.424243     1.416600     1.408957
      1.401314     1.393671     1.386027     1.378384     1.370741     1.363098     1.355455     1.347812     1.340169     1.332526
      1.324883     1.317240     1.309596     1.301953     1.294310     1.286667     1.279024     1.271381     1.263738     1.256095
      1.248452     1.240808     1.233165     1.225522     1.217879     1.210236     1.202593     1.194950     1.187307     1.179664
      1.172021     1.164377     1.156734     1.149091     1.141448     1.133805     1.126162     1.118519     1.110876     1.103233
      1.095590     1.087946     1.080303     1.072660     1.065017     1.057374     1.049731     1.042088     1.034445     1.026802
      1.019158     1.011515     1.003872     0.996229     0.988586     0.980943     0.973300     0.965657     0.958014     0.950371
      0.942727     0.935084     0.927441     0.919798     0.912155     0.904512     0.896869     0.889226     0.881583     0.873940
      0.866296     0.858653     0.851010     0.843367     0.835724     0.828081     0.820438     0.812795     0.805152     0.797508
      0.789865     0.782222     0.774579     0.766936     0.759293     0.751650     0.744007     0.736364     0.728721     0.721077
      0.713434     0.705791     0.698148     0.690505     0.682862     0.675219     0.667576     0.659933     0.652290     0.644646
      0.637003     0.629360     0.621717     0.614074     0.606431     0.598788     0.591145     0.583502     0.575858     0.568215
      0.560572     0.552929     0.545286     0.537643     0.530000     0.522357     0.514714     0.507071     0.499427     0.491784
      0.484141     0.476498     0.468855     0.461212     0.453569     0.445925     0.438282     0.430639     0.422996     0.415353
      0.407710     0.400067     0.392424     0.384780     0.377137     0.369494     0.361851     0.354208     0.346565     0.338922
      0.331278     0.323635     0.315992     0.308349     0.300706     0.293063     0.285420     0.277777     0.270133     0.262490
      0.254847     0.247204     0.239561     0.231918     0.224275     0.216631     0.208988     0.201345
 NY phased data points follow
   1.35123E+00 -3.64644E+00  4.83037E+00 -2.85131E+00  2.17633E+00 -3.77044E+00  7.70870E-01 -2.50507E+00  4.08453E+00  2.16700E+00
   1.00387E+01  9.15838E-01  4.54672E+00  6.40283E-01  4.50031E+00  3.03652E+00  5.78088E+00  1.58485E+00  8.00850E-01 -5.62707E+00
   4.00073E+00 -7.00318E+00  3.37622E+00 -2.66234E+00 -4.16973E-01 -1.98736E+00  3.72453E+00 -3.84309E+00  3.06599E+00 -3.01663E+00
   1.94338E+00 -1.13358E+00  2.91452E+00  1.91428E-02  7.01053E+00 -2.39924E-01  7.29373E+00 -3.22156E+00  1.29521E+00 -2.04010E+00
   5.98567E+00 -5.27866E+00  1.53351E+00 -4.36322E+00  5.17939E-01 -1.90417E+00  6.24271E+00 -2.14058E+00  3.34692E+00  2.59713E+00
   7.14593E+00  4.29048E+00  5.61493E+00 -1.59418E+00  5.06203E+00 -2.03964E-01  5.01715E+00 -2.10772E+00  1.57666E+00  2.27784E-01
   3.29479E+00 -1.07471E+00  2.76269E+00  1.22071E+00  4.19362E+00 -2.59682E+00  4.24923E+00 -9.44443E-01  1.95414E+00 -3.18579E+00
   2.65209E+00 -3.85707E+00  2.66238E+00 -2.56689E+00  3.65716E+00  1.51426E+00  6.58453E+00 -4.63539E+00  1.87374E+00 -3.11582E+00
   2.24577E+00 -4.43393E+00  1.90141E+00 -1.26236E+00  3.38575E+00 -4.11274E+00  1.46057E+00 -2.06257E+00  1.67553E+00 -3.59447E+00
   1.05869E+00  1.95160E+00  6.41653E+00 -7.76083E-01  2.09012E+00  3.10103E+00  2.52796E+00 -6.53637E-01  5.35369E+00  9.06491E-01
   3.46038E+00  1.73395E-02  6.76878E+00  2.85965E+00  9.07744E+00  5.06554E+00  6.01858E+00  5.29954E+00  4.32114E+00 -8.00118E-02
  -1.75585E+00 -1.31595E+00  2.30317E+00 -1.44268E+00  5.63308E+00  1.31794E+00  5.04346E+00 -9.81077E-01  2.06062E+00 -2.31526E+00
   2.59803E+00 -8.73195E-01  3.66403E+00  6.95383E+00  7.35305E+00  6.63553E+00  8.66354E+00  7.34420E+00  1.15056E+01  7.87267E+00
   8.84652E+00  9.65793E+00  1.13522E+01  3.16275E+00  4.60805E-02  3.70397E+00  3.69359E+00 -8.71462E-01  1.39742E+00  2.31627E-01
   3.07598E+00 -3.20069E-01  2.66808E+00  1.87654E+00  2.80164E+00  3.36902E-02 -2.08527E+00 -1.88404E+00  1.02899E-02 -3.56169E-01
   2.92293E+00 -4.90419E-01  4.50034E-01 -1.82922E-01  3.49308E+00 -1.34223E+00  1.16664E+00 -3.16897E+00  3.54465E-01 -2.93159E+00
   9.73509E-01  8.54021E-01  8.73148E-01  1.26008E-01 -5.59958E-01 -5.11387E+00 -2.77437E+00 -2.83093E+00  1.23476E+00 -3.98111E+00
  -3.42271E-01 -1.74180E+00 -6.19113E+00 -6.04834E+00 -1.37235E+00 -2.60796E+00 -1.33734E+00 -4.38433E+00  2.03505E+00 -2.64326E+00
  -1.17198E+00 -1.05453E-01 -1.67333E+00 -2.20214E+00 -2.03399E+00 -6.61675E-01 -2.45927E+00 -3.27229E+00 -2.19997E+00 -4.76232E-01
  -4.23417E-01 -3.18701E+00  5.54300E-01 -1.56530E+00 -3.11401E+00 -2.19809E+00  2.09995E-02  5.09989E-01 -5.77797E-01 -3.82028E+00
  -1.02354E+00 -1.77602E+00 -1.79800E+00 -1.65519E+00  3.44202E+00 -4.74238E-01  4.59293E+00 -5.09308E-01 -6.95222E-01  1.50960E+00
   4.43604E-01 -5.69013E-02  3.27648E+00  1.60728E+00  4.47416E+00  3.68868E+00  4.93601E+00  2.11680E+00  3.25558E+00  1.73595E+00
   1.42035E+00  1.43991E+00  2.47757E+00 -3.23854E+00 -2.86806E-01 -2.24030E+00 -2.60397E-01  8.76711E-01 -6.72231E-01  8.26907E-01
   7.02852E+00  1.48042E+00  4.15758E+00  6.65848E-01  6.99358E-02  2.63686E-02  1.67203E+00  1.67997E+00  3.53893E+00  6.94237E-01
   3.16326E+00  2.90007E+00  3.07178E+00  1.20937E+00  6.03124E-01  1.62776E+00  1.29126E+00  3.97483E+00  5.74216E+00  2.98846E+00
   6.58191E+00  3.03653E+00  7.13474E+00  7.97730E+00  1.04380E+01  1.33712E+01  1.01832E+01  1.01369E+01  1.75812E+01  9.98723E+00
   1.41320E+01  1.57509E+01  1.12640E+01  1.43602E+01  1.69020E+01  1.68832E+01  7.35137E+00  2.55721E+00  3.45617E+00  3.42185E+00
   3.11501E+00  1.79155E+00 -3.85600E-01  5.11955E+00  6.69046E+00  3.16102E+00  4.00784E+00 -1.28408E+00  3.97964E+00  7.44068E-01
  -1.21210E+00 -3.31935E-01 -6.75166E-01 -1.38940E+00 -1.15628E+00 -1.48641E+00  2.54544E+00 -6.37264E+00 -7.59001E+00 -6.19071E+00
  -4.33594E+00 -4.50569E+00 -2.15520E+00 -3.69396E+00 -1.70962E+00 -4.42651E+00 -5.61426E+00 -4.91534E+00 -1.85145E+00 -5.47697E+00
  -2.67460E+00 -4.29086E+00 -3.30300E+00 -6.87102E+00 -4.77367E+00 -1.06696E+00 -4.88057E+00 -2.62966E+00  5.64822E-01 -9.42780E-02
  -1.84848E+00 -6.76214E+00 -3.88489E+00 -3.09497E+00  2.52560E-02 -9.66490E-01 -1.52316E+00 -2.61223E+00  8.58375E-01  8.01094E-01
  -2.60339E+00 -1.93842E+00 -1.60780E+00 -2.44113E+00  1.04361E+00  1.69768E-01 -2.09693E+00 -4.80651E+00 -2.02735E+00 -5.12371E+00
  -5.40768E-01 -6.21700E+00 -2.97023E+00 -5.45520E+00 -1.73576E+00 -2.68021E+00  1.33062E+00 -6.80178E+00 -4.98817E+00 -1.02939E+00
  -7.88761E-01 -3.12101E+00 -1.61331E+00 -4.67706E+00 -1.00526E+00 -4.03470E+00 -4.45159E+00 -2.72816E+00 -3.96255E+00 -2.84329E+00
  -2.10185E+00 -4.17348E+00 -2.85521E+00 -7.64754E-01 -2.93063E-03 -2.22678E+00 -3.28733E+00 -1.63234E+00 -1.18311E+00 -3.61900E+00
   1.39020E+00  2.04286E+00  7.47441E-01 -3.86329E-01  2.60854E+00 -2.50055E+00 -2.37566E-01 -2.32455E+00  1.15415E+00 -2.47511E+00
  -1.27325E+00  2.26026E+00 -2.48049E+00 -1.81220E+00  5.51389E-03 -1.44726E+00 -1.06757E+00 -4.17569E+00 -2.20847E+00  1.33544E-01
  -1.26357E+00 -1.34759E+00 -1.52900E+00 -3.39889E+00 -1.38281E-01 -4.62146E-01 -2.86001E+00 -7.93800E-01  5.24819E-01  8.32732E-01
  -1.90636E+00  2.13766E-01 -1.19898E+00 -2.26519E+00  2.17138E+00 -3.53805E-01 -1.32686E+00 -3.69313E+00 -3.00209E+00  7.01454E-01
   3.98007E-01 -1.71905E+00  1.86100E+00 -1.58607E+00  2.97919E-01  6.50541E-01  1.13463E+00  1.67380E+00  2.41708E-01  3.68213E-01
   3.61105E-01  1.23506E+00  2.04752E+00 -2.49768E+00 -1.33883E+00 -4.32098E-01 -1.58958E+00  1.31376E+00  2.00989E+00  2.16431E-01
   3.68388E+00 -3.48168E+00  2.98320E+00  9.62144E-01  2.54236E+00 -6.09275E-01  1.31456E+00 -2.54762E+00  3.42496E+00 -3.41711E-02
   3.03554E+00  1.09522E+00 -2.59983E+00 -7.00806E-01  5.51141E-01 -1.97670E+00 -2.05387E-01  2.03329E+00 -1.51717E+00 -6.29526E-01
  -2.77621E+00 -1.99648E+00  3.34792E+00 -1.43013E+00 -3.70208E+00 -1.36562E+00 -8.25510E-01 -1.60120E+00  5.21323E-01 -9.27307E-01
   1.86460E-01 -4.34038E-02  3.50596E+00  3.63505E-01 -4.28321E-01  2.37996E+00  1.64855E+00 -5.87558E-01  6.83289E-01 -3.37771E+00
   1.67356E+00 -3.57482E+00  3.13592E+00 -2.59747E+00 -3.06960E-01  1.04283E+00 -1.01341E-01 -1.95395E-01  1.39118E+00  2.96847E+00
   1.47429E+00 -1.80480E+00 -1.60442E+00  7.58617E-01  5.50466E+00 -8.19496E-01 -9.06630E-01 -4.03905E-01 -3.43599E-01  2.39366E-01
  -1.74222E+00  7.02411E-01 -1.14960E+00  2.32497E+00  1.61124E+00 -1.05258E+00  2.29167E+00 -2.10623E+00  3.27448E+00 -2.56433E+00
   3.12730E+00  4.46448E+00 -1.25924E+00 -1.10029E+00  1.18386E+00 -2.40073E+00 -7.08290E-01  1.01364E+00
 NY points of the fit to the data follow
   1.66614E+00 -1.05971E+00  3.16994E-01 -1.27655E+00  7.19884E-01 -8.92375E-01 -4.29222E-01 -4.75992E-01  1.95500E+00 -2.29785E-01
   2.97876E+00  1.19380E+00  2.63754E+00  2.68166E+00  3.79641E+00  4.30240E+00  5.34785E+00  1.16725E+00 -7.81432E-01  9.13345E-02
   3.86508E+00 -2.03231E+00  2.17780E+00  9.99334E-01  8.23549E-01 -3.57960E-01  5.93262E-01  1.32991E-01  1.06790E+00  4.09633E-01
   1.74486E+00  1.14973E+00  2.20551E+00  1.86532E+00  2.92352E+00  3.75711E+00  4.18832E+00  1.79742E+00  1.30166E+00  1.55818E+00
   2.09399E+00 -7.91395E-02  1.46779E+00  1.32818E+00  1.52867E+00  1.70636E+00  2.43443E+00  2.62024E+00  2.57050E+00  3.05250E+00
   3.44888E+00  3.23039E+00  2.96192E+00  9.46220E-01 -1.48070E-01  1.89517E-01  9.37386E-01  4.45085E-01  1.22094E+00  1.05535E+00
   1.34394E+00  7.03063E-01  8.85574E-01  8.90480E-01  1.30811E+00  6.82839E-01  3.99542E-01  2.84563E-02  5.26511E-01  1.42013E-01
   9.08811E-01  8.45249E-01  1.08474E+00  9.43149E-01  8.97312E-01  9.04691E-01  1.20659E+00  2.37179E-01  8.57862E-01  7.29957E-02
   7.55949E-01  1.63131E-01  1.60190E-01 -8.33845E-02  3.37621E-01 -2.70270E-01 -1.23763E-01 -3.70137E-01 -3.43824E-01 -6.80468E-01
  -5.27612E-01  6.52279E-01  1.83153E+00 -1.23574E+00  1.51921E+00  3.81960E-01  2.12864E+00  3.55013E-01  2.19164E+00  2.07231E+00
   4.08250E+00  2.68607E+00  5.44159E+00  3.87888E+00  5.82063E+00  6.00367E+00  6.68183E+00  6.47911E+00  5.49990E+00  8.72036E-01
   1.41687E-01  9.32188E-01  2.33361E+00 -1.27023E+00  1.89551E+00  2.87354E+00  3.18211E+00 -5.54082E-01  3.17340E+00  1.02804E+00
   3.11236E+00  1.73472E+00  3.75734E+00  4.58965E+00  7.39120E+00  5.39266E+00  9.60060E+00  7.15427E+00  9.95807E+00  1.01512E+01
   1.14188E+01  1.08709E+01  8.80329E+00  2.40762E+00  1.53681E+00  3.10373E+00  4.63603E+00 -4.36877E-01  3.84493E+00  1.54733E+00
  -2.52072E-01 -6.26219E-01 -4.80837E-01 -1.33603E-01 -1.11246E-01  2.36285E-02  1.12133E-01 -2.08319E-01 -4.81407E-01 -5.47807E-01
  -8.04354E-01 -7.27825E-01 -7.30817E-01 -9.41341E-01 -7.55665E-01 -9.72034E-01 -1.11480E+00 -1.20989E+00 -1.27801E+00 -1.46072E+00
  -1.36140E+00 -1.40984E+00 -1.34063E+00 -1.53218E+00 -1.74664E+00 -1.88590E+00 -2.00005E+00 -1.81575E+00 -1.64689E+00 -1.74274E+00
  -1.88390E+00 -2.18587E+00 -2.21552E+00 -2.38285E+00 -2.33090E+00 -2.31569E+00 -2.35614E+00 -2.29503E+00 -2.28349E+00 -2.59954E+00
  -2.24708E+00 -2.22472E+00 -1.94921E+00 -1.79632E+00 -1.71084E+00 -2.00177E+00 -1.73936E+00 -1.71354E+00 -1.10372E+00 -7.72164E-01
  -8.12583E-01 -7.29143E-01 -3.51452E-01  5.09918E-02  2.33455E-01  1.48285E-01  6.74796E-02 -2.51518E-01 -3.65702E-01 -6.90586E-01
  -4.19557E-01 -3.03323E-01 -2.66334E-01 -1.48691E-01  3.21545E-01  6.15097E-01  4.23264E-01 -3.02123E-01  1.99503E-01 -1.10522E-01
  -6.00127E-01 -1.05587E+00 -9.56913E-01 -5.80428E-01 -3.60494E-01 -6.62071E-01  1.39060E-02 -3.53066E-01  1.03430E-01 -4.83970E-01
  -4.38930E-01 -9.08259E-01 -1.52422E+00 -2.09702E+00 -1.61137E+00 -1.35213E+00 -1.01661E+00 -7.92750E-01  1.72568E-01  2.71219E-01
   4.97287E-01 -1.03788E-01 -3.08780E-01  1.11443E-01  3.21633E-02  1.38503E-01  4.05121E-01  7.21424E-01  8.25668E-01  8.91914E-01
   4.87875E-01  4.56943E-01  3.28153E-01  3.96219E-01  6.89276E-01  1.80586E+00  8.09967E-01  2.61950E+00  2.83191E+00  5.65104E+00
   7.93903E+00  4.82931E+00  7.70415E+00  8.03472E+00  8.66389E+00  9.32871E+00  1.05489E+01  1.21930E+01  1.58115E+01  1.40917E+01
   1.70054E+01  1.46045E+01  1.37532E+01  1.32982E+01  1.44138E+01  1.39320E+01  9.79639E+00  3.68711E+00  1.17393E+00  1.58085E+00
   4.06191E+00 -1.11081E+00  1.96986E+00  1.22186E+00 -1.08933E+00 -1.49060E+00 -1.30515E+00 -1.41482E+00 -1.35424E+00 -1.33366E+00
  -1.35601E+00 -1.44393E+00 -1.43564E+00 -1.37019E+00 -1.37030E+00 -1.34362E+00 -1.32683E+00 -1.30297E+00 -1.29958E+00 -1.29683E+00
  -1.32896E+00 -1.28165E+00 -1.28817E+00 -1.30114E+00 -1.27103E+00 -1.24316E+00 -1.25028E+00 -1.22958E+00 -1.24113E+00 -1.26259E+00
  -1.25875E+00 -1.24635E+00 -1.25604E+00 -1.25026E+00 -1.22886E+00 -1.22098E+00 -1.20594E+00 -1.21206E+00 -1.20853E+00 -1.19856E+00
  -1.20004E+00 -1.20129E+00 -1.18396E+00 -1.18736E+00 -1.17590E+00 -1.17884E+00 -1.16852E+00 -1.17230E+00 -1.16140E+00 -1.16519E+00
  -1.15398E+00 -1.15697E+00 -1.14572E+00 -1.14867E+00 -1.13675E+00 -1.13956E+00 -1.12813E+00 -1.13058E+00 -1.11864E+00 -1.12053E+00
  -1.10834E+00 -1.11016E+00 -1.09805E+00 -1.09960E+00 -1.08694E+00 -1.08796E+00 -1.07514E+00 -1.07600E+00 -1.06304E+00 -1.06346E+00
  -1.04994E+00 -1.04984E+00 -1.03616E+00 -1.03588E+00 -1.02185E+00 -1.02095E+00 -1.00642E+00 -1.00512E+00 -9.90436E-01 -9.88961E-01
  -9.73959E-01 -9.71928E-01 -9.56613E-01 -9.54470E-01 -9.39287E-01 -9.37152E-01 -9.21903E-01 -9.19641E-01 -9.04561E-01 -9.02658E-01
  -8.88080E-01 -8.86467E-01 -8.72111E-01 -8.70714E-01 -8.56826E-01 -8.55950E-01 -8.42526E-01 -8.41764E-01 -8.28343E-01 -8.27536E-01
  -8.14211E-01 -8.13347E-01 -7.99729E-01 -7.98171E-01 -7.83759E-01 -7.81350E-01 -7.66137E-01 -7.62657E-01 -7.46078E-01 -7.40891E-01
  -7.22599E-01 -7.15674E-01 -6.95646E-01 -6.86692E-01 -6.64423E-01 -6.53068E-01 -6.28586E-01 -6.15148E-01 -5.88729E-01 -5.73306E-01
  -5.45091E-01 -5.28221E-01 -4.99259E-01 -4.82254E-01 -4.53794E-01 -4.37813E-01 -4.11189E-01 -3.97965E-01 -3.75175E-01 -3.66576E-01
  -3.49070E-01 -3.46185E-01 -3.34937E-01 -3.38692E-01 -3.34330E-01 -3.44711E-01 -3.46491E-01 -3.62305E-01 -3.68909E-01 -3.88760E-01
  -3.98516E-01 -4.20303E-01 -4.30857E-01 -4.52388E-01 -4.61960E-01 -4.81787E-01 -4.89024E-01 -5.05802E-01 -5.09577E-01 -5.22697E-01
  -5.22938E-01 -5.32580E-01 -5.29435E-01 -5.35692E-01 -5.29436E-01 -5.32938E-01 -5.24401E-01 -5.25879E-01 -5.15519E-01 -5.15275E-01
  -5.03526E-01 -5.02208E-01 -4.89710E-01 -4.87700E-01 -4.74542E-01 -4.71882E-01 -4.58317E-01 -4.55417E-01 -4.41750E-01 -4.38643E-01
  -4.24725E-01 -4.21370E-01 -4.07410E-01 -4.04082E-01 -3.90173E-01 -3.86737E-01 -3.72685E-01 -3.69148E-01 -3.55188E-01 -3.51744E-01
  -3.37835E-01 -3.34270E-01 -3.20265E-01 -3.16686E-01 -3.02823E-01 -2.99321E-01 -2.85455E-01 -2.81811E-01 -2.67891E-01 -2.64286E-01
  -2.50508E-01 -2.46927E-01 -2.33086E-01 -2.29359E-01 -2.15510E-01 -2.11853E-01 -1.98110E-01 -1.94405E-01 -1.80545E-01 -1.76699E-01
  -1.62865E-01 -1.59083E-01 -1.45292E-01 -1.41376E-01 -1.27426E-01 -1.23386E-01 -1.09466E-01 -1.05440E-01 -9.14630E-02 -8.72147E-02
  -7.30394E-02 -6.86652E-02 -5.44905E-02 -5.00228E-02 -3.56496E-02 -3.08530E-02 -1.62215E-02 -1.12372E-02  3.52091E-03  8.78744E-03
   2.39526E-02  2.97263E-02  4.53048E-02  5.14686E-02  6.74745E-02  7.43003E-02  9.11212E-02  9.88695E-02
 NY background values follow
    -2.168E+00   -2.162E+00   -2.155E+00   -2.149E+00   -2.143E+00   -2.137E+00   -2.130E+00   -2.124E+00   -2.118E+00   -2.111E+00
    -2.105E+00   -2.098E+00   -2.092E+00   -2.085E+00   -2.079E+00   -2.072E+00   -2.066E+00   -2.059E+00   -2.052E+00   -2.046E+00
    -2.039E+00   -2.032E+00   -2.026E+00   -2.019E+00   -2.012E+00   -2.005E+00   -1.998E+00   -1.992E+00   -1.985E+00   -1.978E+00
    -1.971E+00   -1.964E+00   -1.957E+00   -1.950E+00   -1.943E+00   -1.936E+00   -1.929E+00   -1.922E+00   -1.915E+00   -1.908E+00
    -1.900E+00   -1.893E+00   -1.886E+00   -1.879E+00   -1.872E+00   -1.864E+00   -1.857E+00   -1.850E+00   -1.843E+00   -1.835E+00
    -1.828E+00   -1.821E+00   -1.813E+00   -1.806E+00   -1.798E+00   -1.791E+00   -1.784E+00   -1.776E+00   -1.769E+00   -1.761E+00
    -1.754E+00   -1.746E+00   -1.739E+00   -1.731E+00   -1.724E+00   -1.716E+00   -1.709E+00   -1.701E+00   -1.694E+00   -1.686E+00
    -1.679E+00   -1.671E+00   -1.664E+00   -1.656E+00   -1.649E+00   -1.641E+00   -1.634E+00   -1.626E+00   -1.619E+00   -1.611E+00
    -1.604E+00   -1.596E+00   -1.588E+00   -1.581E+00   -1.573E+00   -1.566E+00   -1.558E+00   -1.551E+00   -1.543E+00   -1.536E+00
    -1.528E+00   -1.521E+00   -1.513E+00   -1.506E+00   -1.499E+00   -1.491E+00   -1.484E+00   -1.476E+00   -1.469E+00   -1.462E+00
    -1.454E+00   -1.447E+00   -1.439E+00   -1.432E+00   -1.425E+00   -1.418E+00   -1.410E+00   -1.403E+00   -1.396E+00   -1.389E+00
    -1.381E+00   -1.374E+00   -1.367E+00   -1.360E+00   -1.353E+00   -1.346E+00   -1.339E+00   -1.332E+00   -1.325E+00   -1.318E+00
    -1.311E+00   -1.304E+00   -1.297E+00   -1.290E+00   -1.283E+00   -1.276E+00   -1.270E+00   -1.263E+00   -1.256E+00   -1.249E+00
    -1.243E+00   -1.236E+00   -1.230E+00   -1.223E+00   -1.216E+00   -1.210E+00   -1.203E+00   -1.197E+00   -1.191E+00   -1.184E+00
    -1.178E+00   -1.172E+00   -1.166E+00   -1.159E+00   -1.153E+00   -1.147E+00   -1.141E+00   -1.135E+00   -1.129E+00   -1.123E+00
    -1.117E+00   -1.111E+00   -1.105E+00   -1.100E+00   -1.094E+00   -1.088E+00   -1.083E+00   -1.077E+00   -1.071E+00   -1.066E+00
    -1.061E+00   -1.055E+00   -1.050E+00   -1.044E+00   -1.039E+00   -1.034E+00   -1.029E+00   -1.024E+00   -1.018E+00   -1.013E+00
    -1.008E+00   -1.004E+00   -9.986E-01   -9.938E-01   -9.890E-01   -9.843E-01   -9.796E-01   -9.750E-01   -9.704E-01   -9.659E-01
    -9.614E-01   -9.570E-01   -9.526E-01   -9.483E-01   -9.440E-01   -9.398E-01   -9.357E-01   -9.316E-01   -9.275E-01   -9.235E-01
    -9.196E-01   -9.157E-01   -9.119E-01   -9.081E-01   -9.044E-01   -9.008E-01   -8.972E-01   -8.936E-01   -8.902E-01   -8.867E-01
    -8.834E-01   -8.800E-01   -8.768E-01   -8.736E-01   -8.704E-01   -8.674E-01   -8.643E-01   -8.614E-01   -8.584E-01   -8.556E-01
    -8.528E-01   -8.500E-01   -8.474E-01   -8.447E-01   -8.422E-01   -8.397E-01   -8.372E-01   -8.349E-01   -8.325E-01   -8.303E-01
    -8.281E-01   -8.259E-01   -8.238E-01   -8.218E-01   -8.198E-01   -8.179E-01   -8.161E-01   -8.143E-01   -8.125E-01   -8.109E-01
    -8.093E-01   -8.077E-01   -8.062E-01   -8.047E-01   -8.033E-01   -8.020E-01   -8.006E-01   -7.994E-01   -7.982E-01   -7.970E-01
    -7.958E-01   -7.947E-01   -7.937E-01   -7.926E-01   -7.916E-01   -7.907E-01   -7.897E-01   -7.888E-01   -7.879E-01   -7.871E-01
    -7.863E-01   -7.855E-01   -7.847E-01   -7.839E-01   -7.832E-01   -7.825E-01   -7.818E-01   -7.811E-01   -7.804E-01   -7.797E-01
    -7.791E-01   -7.784E-01   -7.778E-01   -7.772E-01   -7.765E-01   -7.759E-01   -7.753E-01   -7.746E-01   -7.740E-01   -7.734E-01
    -7.727E-01   -7.721E-01   -7.714E-01   -7.708E-01   -7.701E-01   -7.694E-01   -7.687E-01   -7.680E-01   -7.673E-01   -7.665E-01
    -7.657E-01   -7.649E-01   -7.641E-01   -7.633E-01   -7.624E-01   -7.615E-01   -7.605E-01   -7.596E-01   -7.586E-01   -7.575E-01
    -7.564E-01   -7.553E-01   -7.541E-01   -7.529E-01   -7.517E-01   -7.504E-01   -7.490E-01   -7.476E-01   -7.462E-01   -7.447E-01
    -7.431E-01   -7.415E-01   -7.398E-01   -7.381E-01   -7.363E-01   -7.344E-01   -7.325E-01   -7.305E-01   -7.285E-01   -7.263E-01
    -7.242E-01   -7.219E-01   -7.195E-01   -7.171E-01   -7.146E-01   -7.121E-01   -7.094E-01   -7.067E-01   -7.039E-01   -7.010E-01
    -6.980E-01   -6.950E-01   -6.918E-01   -6.886E-01   -6.853E-01   -6.819E-01   -6.785E-01   -6.750E-01   -6.714E-01   -6.677E-01
    -6.639E-01   -6.601E-01   -6.562E-01   -6.522E-01   -6.481E-01   -6.440E-01   -6.398E-01   -6.355E-01   -6.311E-01   -6.267E-01
    -6.222E-01   -6.176E-01   -6.129E-01   -6.082E-01   -6.034E-01   -5.985E-01   -5.936E-01   -5.886E-01   -5.835E-01   -5.784E-01
    -5.732E-01   -5.679E-01   -5.625E-01   -5.571E-01   -5.516E-01   -5.461E-01   -5.404E-01   -5.348E-01   -5.290E-01   -5.232E-01
    -5.173E-01   -5.114E-01   -5.054E-01   -4.993E-01   -4.932E-01   -4.870E-01   -4.807E-01   -4.744E-01   -4.680E-01   -4.616E-01
    -4.551E-01   -4.486E-01   -4.420E-01   -4.354E-01   -4.287E-01   -4.220E-01   -4.152E-01   -4.084E-01   -4.015E-01   -3.946E-01
    -3.876E-01   -3.806E-01   -3.736E-01   -3.665E-01   -3.594E-01   -3.522E-01   -3.450E-01   -3.378E-01   -3.306E-01   -3.233E-01
    -3.159E-01   -3.086E-01   -3.012E-01   -2.938E-01   -2.864E-01   -2.789E-01   -2.714E-01   -2.639E-01   -2.564E-01   -2.489E-01
    -2.413E-01   -2.337E-01   -2.261E-01   -2.185E-01   -2.109E-01   -2.032E-01   -1.956E-01   -1.879E-01   -1.802E-01   -1.725E-01
    -1.648E-01   -1.571E-01   -1.494E-01   -1.416E-01   -1.339E-01   -1.262E-01   -1.184E-01   -1.107E-01   -1.029E-01   -9.517E-02
    -8.742E-02   -7.966E-02   -7.190E-02   -6.414E-02   -5.638E-02   -4.862E-02   -4.086E-02   -3.311E-02   -2.536E-02   -1.761E-02
    -9.867E-03   -2.129E-03    5.602E-03    1.333E-02    2.105E-02    2.875E-02    3.646E-02    4.415E-02    5.183E-02    5.950E-02
     6.716E-02    7.481E-02    8.245E-02    9.007E-02    9.768E-02    1.053E-01    1.129E-01    1.204E-01    1.280E-01    1.355E-01
     1.430E-01    1.505E-01    1.580E-01    1.654E-01    1.729E-01    1.803E-01    1.877E-01    1.951E-01    2.024E-01    2.098E-01
     2.171E-01    2.244E-01    2.316E-01    2.389E-01    2.461E-01    2.533E-01    2.605E-01    2.676E-01    2.748E-01    2.819E-01
     2.890E-01    2.960E-01    3.031E-01    3.101E-01    3.171E-01    3.240E-01    3.310E-01    3.379E-01    3.448E-01    3.516E-01
     3.585E-01    3.653E-01    3.720E-01    3.788E-01    3.855E-01    3.922E-01    3.989E-01    4.055E-01    4.121E-01    4.187E-01
     4.253E-01    4.318E-01    4.383E-01    4.448E-01    4.512E-01    4.576E-01    4.640E-01    4.703E-01
 Asp      Conc. = 6.38E+01
