 LCModel (Version 6.3-1L) Copyright: S.W. Provencher.          Ref.: Magn. Reson. Med. 30:672-679 (1993).                
 Slice#1 Row#12 Col#9  PD_24_press_2_raw_act
 36 lines in following concentration table = NCONC+1
    Conc.  %SD /Cr+PCr  Metabolite                                         
  712.166  22%   0.000 Ala                                                 
    2.089  90%   0.000 Asp                                                 
    0.000 999%   0.000 Cr                                                  
    0.000 999%   0.000 PCr                                                 
    1.252  90%   0.000 GABA                                                
    1.255  90%   0.000 Glc                                                 
    0.000 999%   0.000 Gln                                                 
    0.000 999%   0.000 Glu                                                 
    0.000 999%   0.000 GPC                                                 
   13.936  73%   0.000 PCh                                                 
  116.118  37%   0.000 GSH                                                 
  109.410  93%   0.000 Ins                                                 
 1.51E+03   9%   0.000 Lac                                                 
    0.000 999%   0.000 NAA                                                 
    0.000 999%   0.000 NAAG                                                
    0.418  90%   0.000 Scyllo                                              
    2.089  89%   0.000 Tau                                                 
    0.000 999%   0.000 -CrCH2                                              
   13.936  73%   0.000 GPC+PCh                                             
    0.000 999%   0.000 NAA+NAAG                                            
    0.000 999%   0.000 Cr+PCr                                              
    0.000 999%   0.000 Glu+Gln                                             
    0.000 999%   0.000 Lip13a                                              
    0.000 999%   0.000 Lip13b                                              
    4.989 644%   0.000 Lip09                                               
 2.57E-02 999%   0.000 MM09                                                
    0.000 999%   0.000 Lip20                                               
 2.49E-02 999%   0.000 MM20                                                
 7.28E-03 999%   0.000 MM12                                                
 6.51E-02 999%   0.000 MM14                                                
    0.000 999%   0.000 MM17                                                
    0.000 999%   0.000 Lip13a+Lip13b                                       
 7.23E-02 999%   0.000 MM14+Lip13a+Lip13b+MM12                             
    5.014 641%   0.000 MM09+Lip09                                          
 2.49E-02 999%   0.000 MM20+Lip20                                          
   6 lines in following misc. output table
  FWHM = 0.138 ppm    S/N =   2                                            
  Data shift = 0.046 ppm                                                   
  Ph: 121 deg     -20.1 deg/ppm                                            
  alphaB,S = 8.5E+01,   4.1E+02                                            
   14 spline knots.   Ns = 7(2)                                            
   2 inflections.     1 extrema                                            
  498 points on ppm-axis = NY
      4.000000     3.992357     3.984714     3.977070     3.969427     3.961784     3.954141     3.946497     3.938854     3.931211
      3.923568     3.915925     3.908281     3.900638     3.892995     3.885352     3.877708     3.870065     3.862422     3.854779
      3.847136     3.839492     3.831849     3.824206     3.816563     3.808919     3.801276     3.793633     3.785990     3.778347
      3.770703     3.763060     3.755417     3.747774     3.740130     3.732487     3.724844     3.717201     3.709558     3.701914
      3.694271     3.686628     3.678985     3.671341     3.663698     3.656055     3.648412     3.640769     3.633125     3.625482
      3.617839     3.610196     3.602552     3.594909     3.587266     3.579623     3.571980     3.564336     3.556693     3.549050
      3.541407     3.533763     3.526120     3.518477     3.510834     3.503191     3.495547     3.487904     3.480261     3.472618
      3.464974     3.457331     3.449688     3.442045     3.434402     3.426758     3.419115     3.411472     3.403829     3.396185
      3.388542     3.380899     3.373256     3.365613     3.357969     3.350326     3.342683     3.335040     3.327396     3.319753
      3.312110     3.304467     3.296824     3.289180     3.281537     3.273894     3.266251     3.258607     3.250964     3.243321
      3.235678     3.228034     3.220391     3.212748     3.205105     3.197462     3.189818     3.182175     3.174532     3.166889
      3.159245     3.151602     3.143959     3.136316     3.128673     3.121029     3.113386     3.105743     3.098100     3.090456
      3.082813     3.075170     3.067527     3.059884     3.052240     3.044597     3.036954     3.029311     3.021667     3.014024
      3.006381     2.998738     2.991095     2.983451     2.975808     2.968165     2.960522     2.952878     2.945235     2.937592
      2.929949     2.922306     2.914662     2.907019     2.899376     2.891733     2.884089     2.876446     2.868803     2.861160
      2.853517     2.845873     2.838230     2.830587     2.822944     2.815300     2.807657     2.800014     2.792371     2.784728
      2.777084     2.769441     2.761798     2.754155     2.746511     2.738868     2.731225     2.723582     2.715939     2.708295
      2.700652     2.693009     2.685366     2.677722     2.670079     2.662436     2.654793     2.647150     2.639506     2.631863
      2.624220     2.616577     2.608933     2.601290     2.593647     2.586004     2.578361     2.570717     2.563074     2.555431
      2.547788     2.540144     2.532501     2.524858     2.517215     2.509572     2.501928     2.494285     2.486642     2.478999
      2.471355     2.463712     2.456069     2.448426     2.440783     2.433139     2.425496     2.417853     2.410210     2.402566
      2.394923     2.387280     2.379637     2.371994     2.364350     2.356707     2.349064     2.341421     2.333777     2.326134
      2.318491     2.310848     2.303205     2.295561     2.287918     2.280275     2.272632     2.264988     2.257345     2.249702
      2.242059     2.234416     2.226772     2.219129     2.211486     2.203843     2.196199     2.188556     2.180913     2.173270
      2.165627     2.157983     2.150340     2.142697     2.135054     2.127410     2.119767     2.112124     2.104481     2.096838
      2.089194     2.081551     2.073908     2.066265     2.058621     2.050978     2.043335     2.035692     2.028049     2.020405
      2.012762     2.005119     1.997476     1.989833     1.982190     1.974546     1.966903     1.959260     1.951617     1.943974
      1.936331     1.928688     1.921045     1.913402     1.905759     1.898115     1.890472     1.882829     1.875186     1.867543
      1.859900     1.852257     1.844614     1.836971     1.829327     1.821684     1.814041     1.806398     1.798755     1.791112
      1.783469     1.775826     1.768183     1.760540     1.752896     1.745253     1.737610     1.729967     1.722324     1.714681
      1.707038     1.699395     1.691752     1.684108     1.676465     1.668822     1.661179     1.653536     1.645893     1.638250
      1.630607     1.622964     1.615321     1.607677     1.600034     1.592391     1.584748     1.577105     1.569462     1.561819
      1.554176     1.546533     1.538890     1.531246     1.523603     1.515960     1.508317     1.500674     1.493031     1.485388
      1.477745     1.470102     1.462458     1.454815     1.447172     1.439529     1.431886     1.424243     1.416600     1.408957
      1.401314     1.393671     1.386027     1.378384     1.370741     1.363098     1.355455     1.347812     1.340169     1.332526
      1.324883     1.317240     1.309596     1.301953     1.294310     1.286667     1.279024     1.271381     1.263738     1.256095
      1.248452     1.240808     1.233165     1.225522     1.217879     1.210236     1.202593     1.194950     1.187307     1.179664
      1.172021     1.164377     1.156734     1.149091     1.141448     1.133805     1.126162     1.118519     1.110876     1.103233
      1.095590     1.087946     1.080303     1.072660     1.065017     1.057374     1.049731     1.042088     1.034445     1.026802
      1.019158     1.011515     1.003872     0.996229     0.988586     0.980943     0.973300     0.965657     0.958014     0.950371
      0.942727     0.935084     0.927441     0.919798     0.912155     0.904512     0.896869     0.889226     0.881583     0.873940
      0.866296     0.858653     0.851010     0.843367     0.835724     0.828081     0.820438     0.812795     0.805152     0.797508
      0.789865     0.782222     0.774579     0.766936     0.759293     0.751650     0.744007     0.736364     0.728721     0.721077
      0.713434     0.705791     0.698148     0.690505     0.682862     0.675219     0.667576     0.659933     0.652290     0.644646
      0.637003     0.629360     0.621717     0.614074     0.606431     0.598788     0.591145     0.583502     0.575858     0.568215
      0.560572     0.552929     0.545286     0.537643     0.530000     0.522357     0.514714     0.507071     0.499427     0.491784
      0.484141     0.476498     0.468855     0.461212     0.453569     0.445925     0.438282     0.430639     0.422996     0.415353
      0.407710     0.400067     0.392424     0.384780     0.377137     0.369494     0.361851     0.354208     0.346565     0.338922
      0.331278     0.323635     0.315992     0.308349     0.300706     0.293063     0.285420     0.277777     0.270133     0.262490
      0.254847     0.247204     0.239561     0.231918     0.224275     0.216631     0.208988     0.201345
 NY phased data points follow
   1.89920E+00 -2.46452E+00 -3.49070E-01 -2.73712E+00 -1.75980E+00  1.37320E+00  1.60973E+00  2.43649E+00  2.18956E-02  1.50340E+00
   1.03202E+00  1.19165E+00 -6.31478E-01  9.69126E-01 -2.69911E-01  1.61373E+00  4.66085E-02  8.95601E-01 -7.46914E-01  9.88125E-01
   1.47949E+00 -3.02436E-02 -4.52042E-01  4.24273E-01  1.63653E+00  1.12004E+00 -1.18662E+00  8.35805E-01  2.35340E+00  1.42155E+00
   2.26275E+00  2.09613E-01  1.06459E+00  2.60796E+00  1.30689E+00  2.53209E+00  2.38639E+00 -3.68719E-01  7.16017E-01 -1.06181E+00
   1.31785E+00  1.03163E+00  1.56642E+00 -1.00036E+00  1.70044E+00  1.72274E+00  2.09712E+00 -3.54682E-01  1.67386E+00 -2.91827E+00
   8.64849E-01  7.92245E-01  1.60653E+00 -2.96325E-01  1.92501E+00  1.33083E+00 -6.64973E-02 -4.35007E-01 -6.66114E-01 -1.55195E+00
   6.65825E-01 -6.39283E-01  1.77490E+00  1.42475E+00  8.76558E-01  5.88308E-01  1.46688E+00 -4.31806E-01  8.09216E-01 -4.19233E-01
  -1.50350E+00  1.09827E+00  2.81947E+00  3.77485E-01  9.46876E-01 -1.32958E+00 -3.87413E-01  6.99377E-02 -4.07018E-01  3.01995E-01
   1.21938E+00  1.03521E-01 -1.97525E-01  8.07555E-01  7.09723E-01  1.28748E+00  1.04963E+00 -3.47363E-01 -5.10294E-01  2.55311E+00
  -8.75437E-01  1.22263E+00  1.80588E-02  2.02060E-01 -1.96703E+00 -3.59349E+00  3.78525E-02 -2.70745E-01  2.57172E+00  2.54770E+00
   1.51317E+00 -3.10560E-01 -1.30507E+00  4.27258E-01  4.01949E-01  2.71646E-01  2.05788E+00 -2.52037E-01  1.32773E+00  1.06357E+00
   2.00558E+00  3.26058E+00 -4.58087E-01  1.54448E-01  1.68801E+00 -3.19276E-01 -1.22588E+00 -6.51305E-01 -7.38572E-01 -1.16342E-01
  -1.31607E+00 -5.09886E-01 -1.09736E+00  2.82026E+00  4.73606E-02  1.61655E+00  1.31246E+00 -1.05035E+00 -1.80757E+00 -7.97737E-01
  -1.02916E-01  2.44239E+00  3.01079E-01  1.95298E-01 -3.45911E-01  1.48485E+00 -2.84397E-01  1.01616E+00 -2.16097E+00 -7.30989E-01
  -4.49614E-01  8.57204E-01  1.08039E+00  1.77503E-01 -9.22776E-01  1.63761E+00  2.20254E+00  7.68014E-03  1.22052E+00 -3.39405E-01
   2.52415E+00 -5.11944E-02 -3.23001E-01  1.80946E+00  1.31231E+00  6.51402E-01  2.94634E-01  1.18787E+00  1.67248E-03 -1.08308E+00
   1.12112E+00  1.10949E+00 -4.68246E-01 -5.07504E-01  5.52278E-01  1.29344E+00  3.14691E-01  1.52542E+00 -1.23545E+00  2.19836E+00
  -1.97911E+00  1.05048E+00 -1.55694E-01 -1.17563E-01 -1.60968E-01  1.65348E+00  1.44477E+00  2.35543E+00  2.71201E+00  2.41048E+00
  -1.74747E-01  1.22555E+00 -1.05285E+00 -6.59780E-01  9.88502E-01  1.49487E+00  5.28691E-01  9.45531E-02  7.23744E-01  4.28727E-01
   9.64160E-01 -2.25375E+00  1.37676E+00 -2.67051E-01  7.76442E-01 -1.17746E-01 -5.64703E-01 -5.75500E-01 -1.11790E+00  1.17703E+00
   1.37338E+00 -3.90519E-01  2.37744E-01  5.55382E-01  7.64042E-01  1.05995E-01 -3.42369E-02  7.76119E-02  3.29286E+00 -9.63662E-01
   3.56315E-01  1.41951E-01  1.06888E+00  4.63710E-02  2.50918E+00  2.89184E-01  4.93218E-01  2.63304E+00  2.02623E+00  1.12085E-01
  -8.71130E-01  6.54878E-01  7.42376E-01  1.17161E+00 -5.36041E-01 -3.86313E-01 -6.31645E-01  1.16469E+00 -1.30800E+00 -5.47770E-02
   5.11287E-01 -1.50206E+00  2.45219E-01  9.33707E-01  7.98466E-01  2.04234E+00 -9.95990E-01  8.90599E-01  8.39069E-01  6.16362E-01
  -4.10279E-01  2.52503E+00  1.82027E+00  5.28750E-01  1.57182E+00 -1.38351E-01 -4.29975E-01 -1.54915E-01 -2.47067E-01 -1.22567E+00
  -2.21993E+00 -1.95280E-01 -5.29715E-01 -5.22142E-01 -1.19581E+00 -8.64577E-01  5.69857E-01 -2.04500E-01  2.05712E+00 -3.51473E+00
  -2.05436E-01  1.69820E-01  1.07675E+00  7.45395E-01  1.69979E+00  1.07482E+00 -9.26317E-01  2.54660E+00  1.65198E+00  3.44635E-01
  -6.21170E-01  2.72787E-01 -5.03996E-01 -2.35007E+00 -1.53785E+00 -2.60553E-01  8.47411E-01  1.42777E-01 -3.02502E-01  3.43450E-01
   1.19668E+00 -2.73405E-01  1.38510E+00 -1.09559E+00  6.42970E-01  1.50506E+00 -2.37503E-01  1.52170E+00 -1.78897E+00  1.92080E+00
  -5.55622E-01  1.45804E+00  4.34474E-01  1.93199E-01 -1.84861E+00  1.61032E+00 -1.45715E+00  2.99605E-01  3.37027E-01 -8.36641E-01
   5.79023E-01 -5.05099E-01 -1.35408E+00 -1.80849E+00 -2.71673E+00  3.33202E-01  9.16707E-01  4.84923E-01  8.29262E-01 -5.51022E-01
   2.13674E+00  1.32955E+00  9.64690E-02  1.29288E+00  1.49240E+00  1.85660E+00  2.05054E+00  2.35689E+00  2.43925E+00  3.24790E+00
   3.94149E+00  4.67951E+00  5.13503E+00  4.21939E+00  4.52773E+00  4.89660E+00  3.90655E+00  4.91370E+00  4.76198E+00  5.47996E+00
   4.39925E+00  5.30992E+00  6.61772E+00  4.22922E+00  6.68462E+00  6.40312E+00  6.20309E+00  4.54814E+00  6.69749E+00  5.20868E+00
   3.38514E+00  5.59996E+00  5.84837E+00  4.73122E+00  5.43329E+00  4.08588E+00  3.39944E+00  5.66019E+00  4.09058E+00  4.41836E+00
   2.29664E+00  3.01990E+00  3.76137E+00  3.35460E+00  1.00025E+00  2.55397E+00  3.67131E+00  2.14844E+00  3.49941E+00  4.00665E+00
   7.35626E-01  2.08140E+00  2.58177E+00  2.10250E+00  3.07846E+00  1.56336E-01  2.16768E+00  3.36528E+00  3.40874E+00  1.13629E+00
   1.64648E+00  4.06723E+00  1.84990E+00  2.10931E+00  2.77230E+00  2.47091E+00  1.63240E+00  1.59984E+00  3.03674E+00  2.46038E+00
   7.05019E-01  2.43614E+00  1.92881E+00  2.56895E+00  1.20420E+00  2.04329E+00  3.84580E+00  3.47932E+00  4.93723E+00  1.38808E+00
   1.86124E+00  1.10126E+00  1.24524E+00  7.55319E-01 -3.60353E-01  1.92626E+00 -2.26291E+00  3.31921E-01  1.90470E+00  4.64061E-01
  -3.70453E-01  2.02010E+00  3.20416E-01  1.63709E+00  3.03976E-01  7.66719E-02  7.80414E-01 -6.68745E-01 -9.30548E-01 -3.79135E-01
   2.06082E-01  3.46944E-01  2.58478E+00  1.50670E-01  6.14031E-01 -4.86142E-01  1.66750E+00  1.21732E+00  9.46566E-01  4.92969E-01
  -3.34563E-01  6.61228E-01 -1.27580E+00 -6.50309E-02  3.32909E+00 -7.88375E-01 -3.74356E-01 -5.65565E-01  7.53264E-01  1.56365E-02
   5.47361E-01 -3.06688E-03 -2.32336E-01 -4.48870E-01  3.42814E-01  9.87867E-01 -4.86496E-01  1.84521E-01  8.03429E-01  4.64809E-01
   1.33879E+00  8.18969E-01 -2.11955E+00  1.55125E+00 -5.18491E-02  8.87801E-01  4.35801E-01  1.61090E+00  1.13601E+00  3.66043E-01
  -6.78068E-01 -3.56162E-02  1.24068E+00  2.23348E+00  4.95669E-01  4.18856E-01  1.45445E+00  1.07407E+00  5.15087E-01 -5.39992E-02
   1.46031E+00  1.01115E+00 -5.12850E-01 -6.01966E-01 -2.00898E+00  6.26284E-01 -2.11265E-01 -6.67780E-01 -4.35998E-01 -1.46959E+00
   1.39364E+00  4.47470E-02  8.81375E-01 -1.40861E+00  5.45027E-01 -5.55627E-01  1.22305E+00 -1.22516E-01  6.86341E-01  1.32328E+00
  -6.18537E-01  1.83415E-01  3.58768E-01  1.70867E+00  2.76797E-01  8.23131E-01  1.62482E+00  2.65001E+00  1.05203E+00  1.66088E+00
  -9.99135E-01  1.93726E+00  5.96989E-01 -5.27760E-01  4.45280E-01  7.83176E-01 -3.36139E-01  2.43132E+00
 NY points of the fit to the data follow
   2.83538E-01  6.34830E-01  3.63515E-01  5.40193E-01  2.61898E-01  3.08173E-01  6.53955E-02  5.94639E-02 -8.95141E-02  1.39436E-02
  -1.68793E-02  1.60165E-01  1.49589E-01  3.11027E-01  2.78771E-01  4.13091E-01  3.94443E-01  4.90410E-01  4.82660E-01  5.62972E-01
   6.25631E-01  6.68207E-01  8.06455E-01  8.00852E-01  1.01311E+00  9.47112E-01  1.19671E+00  1.03875E+00  1.31885E+00  1.07286E+00
   1.37644E+00  1.05395E+00  1.36806E+00  1.00159E+00  1.31957E+00  9.26321E-01  1.21591E+00  8.28386E-01  1.09631E+00  7.41083E-01
   9.76472E-01  6.77158E-01  8.60963E-01  6.29951E-01  7.21231E-01  5.21421E-01  5.67261E-01  4.29430E-01  4.83713E-01  3.74559E-01
   3.95217E-01  3.40286E-01  3.81443E-01  3.52205E-01  3.88714E-01  3.80015E-01  4.04380E-01  3.97959E-01  3.99735E-01  3.77487E-01
   3.78719E-01  3.53899E-01  3.60520E-01  3.39475E-01  3.56526E-01  3.46904E-01  3.74377E-01  3.62138E-01  3.83811E-01  3.65067E-01
   3.81325E-01  3.59549E-01  3.70502E-01  3.43336E-01  3.47517E-01  3.15666E-01  3.15485E-01  2.84117E-01  2.84849E-01  2.53176E-01
   2.54686E-01  2.20231E-01  2.22587E-01  1.87150E-01  1.89215E-01  1.56078E-01  1.59130E-01  1.31648E-01  1.41882E-01  1.48229E-01
   1.89930E-01  2.07043E-01  2.73859E-01  2.86229E-01  3.73045E-01  3.72790E-01  4.74550E-01  4.57027E-01  5.67939E-01  5.30333E-01
   6.44025E-01  5.85564E-01  6.95373E-01  6.17566E-01  7.17521E-01  6.19287E-01  7.01827E-01  5.90012E-01  6.54799E-01  5.38938E-01
   5.86529E-01  4.76146E-01  5.05455E-01  4.07256E-01  4.18052E-01  3.38209E-01  3.31608E-01  2.77533E-01  2.65389E-01  2.58417E-01
   2.57297E-01  2.85024E-01  2.94989E-01  3.11226E-01  3.13364E-01  3.20856E-01  3.24153E-01  3.30922E-01  3.46987E-01  3.47420E-01
   3.76255E-01  3.66057E-01  4.05977E-01  3.83853E-01  4.33344E-01  4.00030E-01  4.54400E-01  4.09878E-01  4.63471E-01  4.10173E-01
   4.60339E-01  4.01380E-01  4.48238E-01  3.89375E-01  4.30242E-01  3.74264E-01  4.08219E-01  3.58675E-01  3.86236E-01  3.47819E-01
   3.70430E-01  3.44220E-01  3.57068E-01  3.23278E-01  3.17033E-01  2.83142E-01  2.66095E-01  2.45000E-01  2.32396E-01  2.26004E-01
   2.22069E-01  2.19319E-01  2.17852E-01  2.16097E-01  2.15520E-01  2.14105E-01  2.13393E-01  2.12181E-01  2.09516E-01  2.06518E-01
   2.02015E-01  1.91222E-01  1.85557E-01  1.67380E-01  1.64093E-01  1.44882E-01  1.53111E-01  1.41494E-01  1.64735E-01  1.57395E-01
   1.88069E-01  1.79755E-01  2.08744E-01  1.87840E-01  2.06067E-01  1.89011E-01  2.01255E-01  1.94778E-01  2.00794E-01  2.07089E-01
   2.06268E-01  2.25854E-01  2.17367E-01  2.48110E-01  2.32516E-01  2.73801E-01  2.52173E-01  3.00872E-01  2.74198E-01  3.26843E-01
   2.96093E-01  3.47170E-01  3.16073E-01  3.60398E-01  3.32727E-01  3.73054E-01  3.54354E-01  3.93231E-01  3.89664E-01  4.26017E-01
   4.32004E-01  4.55633E-01  4.61186E-01  4.67833E-01  4.68800E-01  4.59585E-01  4.54484E-01  4.39597E-01  4.30971E-01  4.15613E-01
   4.06299E-01  3.96619E-01  3.93056E-01  4.00522E-01  4.05628E-01  4.12426E-01  4.16024E-01  4.14094E-01  4.12843E-01  3.98234E-01
   3.90873E-01  3.72103E-01  3.69081E-01  3.48644E-01  3.53306E-01  3.32123E-01  3.44485E-01  3.22424E-01  3.39017E-01  3.15497E-01
   3.33987E-01  3.11010E-01  3.30263E-01  3.09375E-01  3.27779E-01  3.10073E-01  3.25988E-01  3.10838E-01  3.21394E-01  3.06982E-01
   3.11838E-01  3.10059E-01  3.16949E-01  3.29718E-01  3.40165E-01  3.63707E-01  3.72418E-01  3.85411E-01  3.83771E-01  3.88869E-01
   3.81961E-01  3.84558E-01  3.78097E-01  3.86854E-01  3.89529E-01  4.00766E-01  4.07777E-01  4.18499E-01  4.27170E-01  4.35695E-01
   4.43052E-01  4.49650E-01  4.56289E-01  4.62833E-01  4.69569E-01  4.76383E-01  4.83414E-01  4.90629E-01  4.98081E-01  5.05857E-01
   5.13992E-01  5.22493E-01  5.31429E-01  5.40735E-01  5.50555E-01  5.60778E-01  5.71621E-01  5.82895E-01  5.94887E-01  6.07482E-01
   6.20925E-01  6.35155E-01  6.50403E-01  6.66630E-01  6.84099E-01  7.02793E-01  7.22989E-01  7.44753E-01  7.68431E-01  7.94126E-01
   8.22344E-01  8.53324E-01  8.87735E-01  9.26072E-01  9.69283E-01  1.01830E+00  1.07470E+00  1.14039E+00  1.21843E+00  1.31337E+00
   1.43327E+00  1.59419E+00  1.83818E+00  2.21708E+00  2.40765E+00  2.73717E+00  2.79937E+00  2.97057E+00  2.87459E+00  2.81207E+00
   2.50598E+00  2.39719E+00  2.20510E+00  2.04187E+00  2.04578E+00  1.79985E+00  2.03117E+00  1.71068E+00  2.18742E+00  1.81954E+00
   2.57495E+00  2.25932E+00  3.45056E+00  3.52559E+00  4.71388E+00  4.69251E+00  5.65197E+00  5.34957E+00  5.94341E+00  5.23405E+00
   5.42020E+00  4.98090E+00  5.01348E+00  4.93779E+00  4.79119E+00  5.02959E+00  4.52671E+00  4.78926E+00  3.99015E+00  4.29699E+00
   3.28596E+00  3.66624E+00  2.59411E+00  3.15744E+00  2.33232E+00  2.93820E+00  2.30964E+00  2.89790E+00  2.47356E+00  3.02365E+00
   2.81321E+00  3.32932E+00  3.34806E+00  3.87090E+00  4.04442E+00  4.53001E+00  4.43551E+00  4.34368E+00  4.04125E+00  3.53401E+00
   3.10126E+00  2.43997E+00  2.03409E+00  1.77096E+00  1.58002E+00  1.43304E+00  1.31569E+00  1.21965E+00  1.13955E+00  1.07181E+00
   1.01388E+00  9.63881E-01  9.20389E-01  8.82308E-01  8.48772E-01  8.19120E-01  7.92810E-01  7.69403E-01  7.48520E-01  7.29845E-01
   7.13116E-01  6.98121E-01  6.84672E-01  6.72601E-01  6.61750E-01  6.51975E-01  6.43154E-01  6.35180E-01  6.27948E-01  6.21356E-01
   6.15302E-01  6.09695E-01  6.04459E-01  5.99525E-01  5.94830E-01  5.90311E-01  5.85916E-01  5.81607E-01  5.77360E-01  5.73160E-01
   5.68997E-01  5.64864E-01  5.60765E-01  5.56711E-01  5.52725E-01  5.48825E-01  5.45031E-01  5.41358E-01  5.37823E-01  5.34446E-01
   5.31246E-01  5.28231E-01  5.25409E-01  5.22778E-01  5.20341E-01  5.18097E-01  5.16048E-01  5.14182E-01  5.12491E-01  5.10962E-01
   5.09588E-01  5.08361E-01  5.07275E-01  5.06314E-01  5.05469E-01  5.04729E-01  5.04089E-01  5.03543E-01  5.03085E-01  5.02705E-01
   5.02395E-01  5.02150E-01  5.01971E-01  5.01851E-01  5.01788E-01  5.01774E-01  5.01805E-01  5.01881E-01  5.02001E-01  5.02164E-01
   5.02363E-01  5.02596E-01  5.02862E-01  5.03160E-01  5.03491E-01  5.03852E-01  5.04239E-01  5.04650E-01  5.05086E-01  5.05548E-01
   5.06035E-01  5.06544E-01  5.07072E-01  5.07619E-01  5.08185E-01  5.08773E-01  5.09380E-01  5.10003E-01  5.10642E-01  5.11295E-01
   5.11966E-01  5.12654E-01  5.13357E-01  5.14073E-01  5.14802E-01  5.15545E-01  5.16303E-01  5.17075E-01  5.17861E-01  5.18656E-01
   5.19466E-01  5.20288E-01  5.21125E-01  5.21975E-01  5.22838E-01  5.23713E-01  5.24602E-01  5.25506E-01  5.26427E-01  5.27363E-01
   5.28315E-01  5.29285E-01  5.30275E-01  5.31290E-01  5.32329E-01  5.33396E-01  5.34495E-01  5.35633E-01
 NY background values follow
    -5.528E-02   -5.412E-02   -5.296E-02   -5.180E-02   -5.065E-02   -4.949E-02   -4.833E-02   -4.717E-02   -4.602E-02   -4.486E-02
    -4.370E-02   -4.254E-02   -4.139E-02   -4.023E-02   -3.907E-02   -3.791E-02   -3.675E-02   -3.560E-02   -3.444E-02   -3.328E-02
    -3.212E-02   -3.097E-02   -2.981E-02   -2.865E-02   -2.749E-02   -2.634E-02   -2.518E-02   -2.402E-02   -2.286E-02   -2.171E-02
    -2.055E-02   -1.939E-02   -1.823E-02   -1.708E-02   -1.592E-02   -1.476E-02   -1.360E-02   -1.244E-02   -1.129E-02   -1.013E-02
    -8.972E-03   -7.815E-03   -6.657E-03   -5.499E-03   -4.342E-03   -3.184E-03   -2.026E-03   -8.689E-04    2.888E-04    1.446E-03
     2.604E-03    3.762E-03    4.919E-03    6.077E-03    7.234E-03    8.392E-03    9.550E-03    1.071E-02    1.186E-02    1.302E-02
     1.418E-02    1.534E-02    1.650E-02    1.765E-02    1.881E-02    1.997E-02    2.113E-02    2.228E-02    2.344E-02    2.460E-02
     2.576E-02    2.691E-02    2.807E-02    2.923E-02    3.039E-02    3.154E-02    3.270E-02    3.386E-02    3.502E-02    3.617E-02
     3.733E-02    3.849E-02    3.965E-02    4.081E-02    4.196E-02    4.312E-02    4.428E-02    4.544E-02    4.659E-02    4.775E-02
     4.891E-02    5.007E-02    5.122E-02    5.238E-02    5.354E-02    5.470E-02    5.585E-02    5.701E-02    5.817E-02    5.933E-02
     6.048E-02    6.164E-02    6.280E-02    6.396E-02    6.512E-02    6.627E-02    6.743E-02    6.859E-02    6.975E-02    7.090E-02
     7.206E-02    7.322E-02    7.438E-02    7.553E-02    7.669E-02    7.785E-02    7.901E-02    8.016E-02    8.132E-02    8.248E-02
     8.364E-02    8.479E-02    8.595E-02    8.711E-02    8.827E-02    8.942E-02    9.058E-02    9.174E-02    9.290E-02    9.406E-02
     9.521E-02    9.637E-02    9.753E-02    9.869E-02    9.984E-02    1.010E-01    1.022E-01    1.033E-01    1.045E-01    1.056E-01
     1.068E-01    1.079E-01    1.091E-01    1.103E-01    1.114E-01    1.126E-01    1.137E-01    1.149E-01    1.161E-01    1.172E-01
     1.184E-01    1.195E-01    1.207E-01    1.218E-01    1.230E-01    1.242E-01    1.253E-01    1.265E-01    1.276E-01    1.288E-01
     1.299E-01    1.311E-01    1.323E-01    1.334E-01    1.346E-01    1.357E-01    1.369E-01    1.380E-01    1.392E-01    1.404E-01
     1.415E-01    1.427E-01    1.438E-01    1.450E-01    1.461E-01    1.473E-01    1.485E-01    1.496E-01    1.508E-01    1.519E-01
     1.531E-01    1.543E-01    1.554E-01    1.566E-01    1.577E-01    1.589E-01    1.600E-01    1.612E-01    1.624E-01    1.635E-01
     1.647E-01    1.658E-01    1.670E-01    1.681E-01    1.693E-01    1.705E-01    1.716E-01    1.728E-01    1.739E-01    1.751E-01
     1.762E-01    1.774E-01    1.786E-01    1.797E-01    1.809E-01    1.820E-01    1.832E-01    1.843E-01    1.855E-01    1.867E-01
     1.878E-01    1.890E-01    1.901E-01    1.913E-01    1.925E-01    1.936E-01    1.948E-01    1.959E-01    1.971E-01    1.982E-01
     1.994E-01    2.006E-01    2.017E-01    2.029E-01    2.040E-01    2.052E-01    2.063E-01    2.075E-01    2.087E-01    2.098E-01
     2.110E-01    2.121E-01    2.133E-01    2.144E-01    2.156E-01    2.168E-01    2.179E-01    2.191E-01    2.202E-01    2.214E-01
     2.226E-01    2.237E-01    2.249E-01    2.260E-01    2.272E-01    2.283E-01    2.295E-01    2.307E-01    2.318E-01    2.330E-01
     2.341E-01    2.353E-01    2.364E-01    2.376E-01    2.388E-01    2.399E-01    2.411E-01    2.422E-01    2.434E-01    2.445E-01
     2.457E-01    2.469E-01    2.480E-01    2.492E-01    2.503E-01    2.515E-01    2.527E-01    2.538E-01    2.550E-01    2.561E-01
     2.573E-01    2.584E-01    2.596E-01    2.608E-01    2.619E-01    2.631E-01    2.642E-01    2.654E-01    2.665E-01    2.677E-01
     2.689E-01    2.700E-01    2.712E-01    2.723E-01    2.735E-01    2.746E-01    2.758E-01    2.770E-01    2.781E-01    2.793E-01
     2.804E-01    2.816E-01    2.827E-01    2.839E-01    2.851E-01    2.862E-01    2.874E-01    2.885E-01    2.897E-01    2.909E-01
     2.920E-01    2.932E-01    2.943E-01    2.955E-01    2.966E-01    2.978E-01    2.990E-01    3.001E-01    3.013E-01    3.024E-01
     3.036E-01    3.047E-01    3.059E-01    3.071E-01    3.082E-01    3.094E-01    3.105E-01    3.117E-01    3.129E-01    3.140E-01
     3.152E-01    3.163E-01    3.175E-01    3.186E-01    3.198E-01    3.210E-01    3.221E-01    3.233E-01    3.244E-01    3.256E-01
     3.267E-01    3.279E-01    3.291E-01    3.302E-01    3.314E-01    3.325E-01    3.337E-01    3.348E-01    3.360E-01    3.372E-01
     3.383E-01    3.395E-01    3.406E-01    3.418E-01    3.430E-01    3.441E-01    3.453E-01    3.464E-01    3.476E-01    3.487E-01
     3.499E-01    3.511E-01    3.522E-01    3.534E-01    3.545E-01    3.557E-01    3.568E-01    3.580E-01    3.592E-01    3.603E-01
     3.615E-01    3.626E-01    3.638E-01    3.649E-01    3.661E-01    3.673E-01    3.684E-01    3.696E-01    3.707E-01    3.719E-01
     3.730E-01    3.742E-01    3.754E-01    3.765E-01    3.777E-01    3.788E-01    3.800E-01    3.812E-01    3.823E-01    3.835E-01
     3.846E-01    3.858E-01    3.869E-01    3.881E-01    3.893E-01    3.904E-01    3.916E-01    3.927E-01    3.939E-01    3.950E-01
     3.962E-01    3.974E-01    3.985E-01    3.997E-01    4.008E-01    4.020E-01    4.031E-01    4.043E-01    4.055E-01    4.066E-01
     4.078E-01    4.089E-01    4.101E-01    4.113E-01    4.124E-01    4.136E-01    4.147E-01    4.159E-01    4.170E-01    4.182E-01
     4.194E-01    4.205E-01    4.217E-01    4.228E-01    4.240E-01    4.251E-01    4.263E-01    4.275E-01    4.286E-01    4.298E-01
     4.309E-01    4.321E-01    4.332E-01    4.344E-01    4.356E-01    4.367E-01    4.379E-01    4.390E-01    4.402E-01    4.414E-01
     4.425E-01    4.437E-01    4.448E-01    4.460E-01    4.471E-01    4.483E-01    4.495E-01    4.506E-01    4.518E-01    4.529E-01
     4.541E-01    4.552E-01    4.564E-01    4.576E-01    4.587E-01    4.599E-01    4.610E-01    4.622E-01    4.633E-01    4.645E-01
     4.657E-01    4.668E-01    4.680E-01    4.691E-01    4.703E-01    4.715E-01    4.726E-01    4.738E-01    4.749E-01    4.761E-01
     4.772E-01    4.784E-01    4.796E-01    4.807E-01    4.819E-01    4.830E-01    4.842E-01    4.853E-01    4.865E-01    4.877E-01
     4.888E-01    4.900E-01    4.911E-01    4.923E-01    4.934E-01    4.946E-01    4.958E-01    4.969E-01    4.981E-01    4.992E-01
     5.004E-01    5.015E-01    5.027E-01    5.039E-01    5.050E-01    5.062E-01    5.073E-01    5.085E-01    5.097E-01    5.108E-01
     5.120E-01    5.131E-01    5.143E-01    5.154E-01    5.166E-01    5.178E-01    5.189E-01    5.201E-01
 Ala      Conc. = 7.12E+02
