 LCModel (Version 6.3-1L) Copyright: S.W. Provencher.          Ref.: Magn. Reson. Med. 30:672-679 (1993).                
 Slice#1 Row#4 Col#7  PD_24_press_2_raw_act
 36 lines in following concentration table = NCONC+1
    Conc.  %SD /Cr+PCr  Metabolite                                         
  976.495  58%   0.781 Ala                                                 
  304.833 107%   0.244 Asp                                                 
  898.875  92%   0.719 Cr                                                  
  351.556 239%   0.281 PCr                                                 
  199.651 101%   0.160 GABA                                                
  120.367 166% 9.6E-02 Glc                                                 
 1.21E+03 103%   0.969 Gln                                                 
  658.491 212%   0.527 Glu                                                 
    0.000 999%   0.000 GPC                                                 
  679.287  11%   0.543 PCh                                                 
  674.109  45%   0.539 GSH                                                 
 2.17E+03  42%   1.733 Ins                                                 
  294.015 222%   0.235 Lac                                                 
 2.68E+03   9%   2.147 NAA                                                 
    0.000 999%   0.000 NAAG                                                
  106.071  55% 8.5E-02 Scyllo                                              
  343.917  92%   0.275 Tau                                                 
  897.561  32%   0.718 -CrCH2                                              
  679.287  11%   0.543 GPC+PCh                                             
 2.68E+03   9%   2.147 NAA+NAAG                                            
 1.25E+03  16%   1.000 Cr+PCr                                              
 1.87E+03 118%   1.495 Glu+Gln                                             
 2.23E+03  49%   1.780 Lip13a                                              
    0.000 999%   0.000 Lip13b                                              
  404.127 104%   0.323 Lip09                                               
 2.39E+03  24%   1.912 MM09                                                
  353.182  76%   0.282 Lip20                                               
 4.50E+03  21%   3.597 MM20                                                
  770.597  43%   0.616 MM12                                                
 3.33E+03  25%   2.665 MM14                                                
 1.07E+03  50%   0.855 MM17                                                
 2.23E+03  49%   1.780 Lip13a+Lip13b                                       
 6.33E+03  15%   5.062 MM14+Lip13a+Lip13b+MM12                             
 2.80E+03  16%   2.236 MM09+Lip09                                          
 4.85E+03  19%   3.880 MM20+Lip20                                          
   6 lines in following misc. output table
  FWHM = 0.069 ppm    S/N =   3                                            
  Data shift = 0.031 ppm                                                   
  Ph: -49 deg     -14.1 deg/ppm                                            
  alphaB,S = 8.5E+01,   2.0E+02                                            
   14 spline knots.   Ns = 9(1)                                            
   2 inflections.     1 extrema                                            
  498 points on ppm-axis = NY
      4.000000     3.992357     3.984714     3.977070     3.969427     3.961784     3.954141     3.946497     3.938854     3.931211
      3.923568     3.915925     3.908281     3.900638     3.892995     3.885352     3.877708     3.870065     3.862422     3.854779
      3.847136     3.839492     3.831849     3.824206     3.816563     3.808919     3.801276     3.793633     3.785990     3.778347
      3.770703     3.763060     3.755417     3.747774     3.740130     3.732487     3.724844     3.717201     3.709558     3.701914
      3.694271     3.686628     3.678985     3.671341     3.663698     3.656055     3.648412     3.640769     3.633125     3.625482
      3.617839     3.610196     3.602552     3.594909     3.587266     3.579623     3.571980     3.564336     3.556693     3.549050
      3.541407     3.533763     3.526120     3.518477     3.510834     3.503191     3.495547     3.487904     3.480261     3.472618
      3.464974     3.457331     3.449688     3.442045     3.434402     3.426758     3.419115     3.411472     3.403829     3.396185
      3.388542     3.380899     3.373256     3.365613     3.357969     3.350326     3.342683     3.335040     3.327396     3.319753
      3.312110     3.304467     3.296824     3.289180     3.281537     3.273894     3.266251     3.258607     3.250964     3.243321
      3.235678     3.228034     3.220391     3.212748     3.205105     3.197462     3.189818     3.182175     3.174532     3.166889
      3.159245     3.151602     3.143959     3.136316     3.128673     3.121029     3.113386     3.105743     3.098100     3.090456
      3.082813     3.075170     3.067527     3.059884     3.052240     3.044597     3.036954     3.029311     3.021667     3.014024
      3.006381     2.998738     2.991095     2.983451     2.975808     2.968165     2.960522     2.952878     2.945235     2.937592
      2.929949     2.922306     2.914662     2.907019     2.899376     2.891733     2.884089     2.876446     2.868803     2.861160
      2.853517     2.845873     2.838230     2.830587     2.822944     2.815300     2.807657     2.800014     2.792371     2.784728
      2.777084     2.769441     2.761798     2.754155     2.746511     2.738868     2.731225     2.723582     2.715939     2.708295
      2.700652     2.693009     2.685366     2.677722     2.670079     2.662436     2.654793     2.647150     2.639506     2.631863
      2.624220     2.616577     2.608933     2.601290     2.593647     2.586004     2.578361     2.570717     2.563074     2.555431
      2.547788     2.540144     2.532501     2.524858     2.517215     2.509572     2.501928     2.494285     2.486642     2.478999
      2.471355     2.463712     2.456069     2.448426     2.440783     2.433139     2.425496     2.417853     2.410210     2.402566
      2.394923     2.387280     2.379637     2.371994     2.364350     2.356707     2.349064     2.341421     2.333777     2.326134
      2.318491     2.310848     2.303205     2.295561     2.287918     2.280275     2.272632     2.264988     2.257345     2.249702
      2.242059     2.234416     2.226772     2.219129     2.211486     2.203843     2.196199     2.188556     2.180913     2.173270
      2.165627     2.157983     2.150340     2.142697     2.135054     2.127410     2.119767     2.112124     2.104481     2.096838
      2.089194     2.081551     2.073908     2.066265     2.058621     2.050978     2.043335     2.035692     2.028049     2.020405
      2.012762     2.005119     1.997476     1.989833     1.982190     1.974546     1.966903     1.959260     1.951617     1.943974
      1.936331     1.928688     1.921045     1.913402     1.905759     1.898115     1.890472     1.882829     1.875186     1.867543
      1.859900     1.852257     1.844614     1.836971     1.829327     1.821684     1.814041     1.806398     1.798755     1.791112
      1.783469     1.775826     1.768183     1.760540     1.752896     1.745253     1.737610     1.729967     1.722324     1.714681
      1.707038     1.699395     1.691752     1.684108     1.676465     1.668822     1.661179     1.653536     1.645893     1.638250
      1.630607     1.622964     1.615321     1.607677     1.600034     1.592391     1.584748     1.577105     1.569462     1.561819
      1.554176     1.546533     1.538890     1.531246     1.523603     1.515960     1.508317     1.500674     1.493031     1.485388
      1.477745     1.470102     1.462458     1.454815     1.447172     1.439529     1.431886     1.424243     1.416600     1.408957
      1.401314     1.393671     1.386027     1.378384     1.370741     1.363098     1.355455     1.347812     1.340169     1.332526
      1.324883     1.317240     1.309596     1.301953     1.294310     1.286667     1.279024     1.271381     1.263738     1.256095
      1.248452     1.240808     1.233165     1.225522     1.217879     1.210236     1.202593     1.194950     1.187307     1.179664
      1.172021     1.164377     1.156734     1.149091     1.141448     1.133805     1.126162     1.118519     1.110876     1.103233
      1.095590     1.087946     1.080303     1.072660     1.065017     1.057374     1.049731     1.042088     1.034445     1.026802
      1.019158     1.011515     1.003872     0.996229     0.988586     0.980943     0.973300     0.965657     0.958014     0.950371
      0.942727     0.935084     0.927441     0.919798     0.912155     0.904512     0.896869     0.889226     0.881583     0.873940
      0.866296     0.858653     0.851010     0.843367     0.835724     0.828081     0.820438     0.812795     0.805152     0.797508
      0.789865     0.782222     0.774579     0.766936     0.759293     0.751650     0.744007     0.736364     0.728721     0.721077
      0.713434     0.705791     0.698148     0.690505     0.682862     0.675219     0.667576     0.659933     0.652290     0.644646
      0.637003     0.629360     0.621717     0.614074     0.606431     0.598788     0.591145     0.583502     0.575858     0.568215
      0.560572     0.552929     0.545286     0.537643     0.530000     0.522357     0.514714     0.507071     0.499427     0.491784
      0.484141     0.476498     0.468855     0.461212     0.453569     0.445925     0.438282     0.430639     0.422996     0.415353
      0.407710     0.400067     0.392424     0.384780     0.377137     0.369494     0.361851     0.354208     0.346565     0.338922
      0.331278     0.323635     0.315992     0.308349     0.300706     0.293063     0.285420     0.277777     0.270133     0.262490
      0.254847     0.247204     0.239561     0.231918     0.224275     0.216631     0.208988     0.201345
 NY phased data points follow
  -3.61161E+01 -5.59498E+00 -2.63129E+01 -3.45802E+00  3.32702E+00 -2.06744E+01 -1.76473E+01 -9.79469E+00 -2.03092E+01 -1.19431E+01
  -2.08321E+01  2.17339E-01 -1.20095E+01 -4.84622E+00 -2.24391E+01  6.90293E+00 -8.16951E+00 -6.53129E+00  4.09289E-01 -1.16819E+01
  -3.08298E+01 -6.17446E+00 -1.02265E+01  2.05178E+01  3.27272E+00  7.25580E+00 -7.20350E+00 -8.28141E+00 -4.22376E+00 -1.56780E+01
  -1.20724E+01  2.26491E+01 -5.30887E+00  1.65093E+01 -2.72092E+00  1.72736E+00  6.37739E+00 -1.31611E+01 -7.25981E+00  1.60711E+00
  -1.41454E+01 -4.43613E+00 -3.24934E+01  1.54567E+01 -1.37497E+01  9.36987E+00  1.94590E+01  1.59004E+01  1.03390E+00  1.41283E+01
   1.37896E+01 -5.82079E+00  3.73534E+00  7.42440E+00  2.37429E+00 -2.84871E+00 -2.75475E+01  1.77582E+01 -1.56432E+01  2.41855E+00
   6.31121E-01  6.94454E+00  2.20604E+01  4.91425E-01 -7.68683E+00 -4.11803E+00 -1.34015E+01 -1.64572E+01 -1.04331E+01 -1.43827E+01
  -2.74178E+00 -1.76926E+00 -6.04273E+00  4.86680E+00 -3.38904E+01  1.23710E+01  2.72000E-01  2.87880E-01 -5.05906E+00 -6.46306E+00
  -1.80449E+01 -1.19225E+01 -9.45929E-01  1.44455E+00 -4.31505E+00 -6.38336E+00 -2.54947E+01  1.39675E+01 -6.02246E-01  2.18001E+01
  -1.17151E+01 -6.06163E-02  7.99509E+00  1.11141E+01 -8.46590E+00  1.54409E+01  1.38354E+01  5.79635E+00 -6.96432E-01  1.80504E+01
   3.55129E+01  5.08219E+01  4.14699E+01  4.39986E+01  3.44967E+01  3.45072E+01  3.46708E+01  2.97734E+01  1.43539E+01  1.92809E+01
   2.12391E+01  3.57738E+00  1.85863E+01  2.31526E+01  6.82515E+00 -3.61734E+00 -1.20027E+01  4.62485E-01  4.04161E-01  2.67179E+00
   1.65596E+01  1.26133E+01 -7.75933E+00  8.95137E+00  2.35129E+01  2.89695E+01  4.12275E+01  5.08404E+01  3.95071E+01  4.77400E+01
   2.06455E+01  1.41978E+01  6.00056E+00  6.30845E+00  4.30062E+00  1.09472E+01  9.07591E+00  1.58074E+01  1.22247E+01 -4.93016E+00
  -9.58833E+00 -7.77913E+00  1.23723E+01  3.67992E+00 -1.54373E+00  3.72150E+00 -5.00462E+00 -5.15519E+00  9.79224E+00 -3.76087E+00
   2.93957E+01 -4.59703E+00 -5.24343E+00  1.49716E+01  1.06681E+01 -9.45985E+00  1.05355E+01  1.71391E+01 -2.49383E+01  1.72457E+00
  -1.27214E+01 -1.26753E+01 -9.63114E-01 -2.90652E+00 -1.26440E+01  1.46948E+01 -7.43352E+00 -3.04478E+01  3.61041E+00 -1.00416E+01
  -1.51308E+01 -1.90240E+01 -4.04152E+00 -5.84814E+00 -2.17422E+01 -2.82849E+01  4.17896E+00 -1.42964E+01 -2.26227E+01 -3.22162E-01
  -2.34625E+01 -1.75980E+01 -9.82520E+00  3.85075E+00 -9.52800E+00 -2.03321E+00  9.14593E+00  2.01164E+00 -1.67030E+01 -2.30802E+01
  -3.64358E-01 -4.09979E-01 -2.07431E+01  1.26652E+00 -9.59152E+00 -4.13324E+00 -3.34400E+01 -1.69116E+01  1.63202E+00 -1.19299E+01
  -7.79303E-01  1.11030E+01  9.08050E+00  9.18187E+00  1.86011E+01  1.73197E+01  1.29449E+01  2.28238E+00  1.47863E+00  1.97848E+01
   6.95325E+00  1.61455E+01  5.39087E+00  5.97629E+00 -5.59311E+00 -3.31463E+00  1.43417E+01 -5.10449E+00  2.64643E+01  3.57705E+01
  -5.82389E+00 -6.09320E-01  9.79786E+00  6.40267E+00  1.73586E+01  1.64673E+01  2.67718E+00  1.41086E+01 -2.98424E+00  1.34040E+01
   9.12785E-01  1.07164E+01  6.31952E+00  1.19635E+01  1.96977E+01 -1.74496E+00  1.27852E+01  3.02231E+01  1.41609E+01  1.88520E+01
   6.71834E+00  1.04304E+01  8.62131E+00  1.65574E+01  1.90400E+01  9.92513E+00  2.02512E+01  2.53248E+01  2.87013E+01  1.79447E+01
   3.09709E+01  2.52894E+01  2.77363E+01  3.01613E+01  2.38181E+01  4.98458E+01  4.27131E+01  6.31294E+01  9.33777E+01  8.29053E+01
   9.31410E+01  7.85122E+01  7.58408E+01  7.45262E+01  6.11649E+01  4.45432E+01  4.43907E+01  3.51541E+01  3.74193E+01  3.77541E+01
   2.35157E+01 -8.13973E+00  1.98543E+01  3.58607E+00  1.49224E+01  3.57172E+00  1.51648E+01  1.37633E+01  2.71328E+01  1.83031E+01
   9.25144E+00  2.42162E+01  5.71188E+00 -6.91259E+00  2.46305E+01  6.20020E+00  1.88981E+01  1.81624E+01  6.97720E+00  1.65520E+01
   3.30511E-01  1.40292E+01  1.41569E+01  9.40667E+00  2.14127E+01  1.79916E+01  1.93140E+01  2.44837E+00  1.08719E+01  1.33371E+01
  -1.57677E+01  1.89372E+01  2.32162E+01  1.51047E+01 -8.91019E-01  4.31271E+01  1.10186E+01  1.01475E+00  1.07346E-01  2.43621E+01
   1.97707E+01  7.15636E+00  5.34401E+00  9.60324E-01  3.18852E+01  1.27520E+01  7.80354E+00  2.27211E+01  3.31913E+01  3.77845E+00
   2.28377E+01  1.17482E+01  2.18837E+01  3.61789E+01  2.01092E+01  3.90529E+01  1.93311E+01  2.92527E+01  1.04883E+01  5.72974E+00
   2.42446E+01  2.71494E+01  2.38098E+01  9.84051E+00  4.72392E+01  3.80392E+01  3.77283E+01  4.02394E+01  4.06129E+01  3.32697E+01
   3.64512E+01  3.82414E+01  3.02968E+01  1.25167E+01  1.69030E+01  2.32775E+01  4.44521E+01  2.12887E+01  3.95443E+01  2.47845E+01
  -6.05593E+00  3.70999E+01  1.76579E+01  2.83491E+01  3.40794E+01  3.24956E+01  1.37055E+01  2.81930E+01  3.47393E+01  3.02882E+01
   2.27970E+01  2.15168E+01  1.69177E+01  2.40164E+01  7.97594E+00  1.15899E+01  2.39474E+01  2.53597E+01  3.42506E+01  2.07805E+01
   3.48707E+01  2.51526E+01  3.36739E+01  1.68559E+01  3.41794E+01  2.41176E+01  1.22980E+01  6.82307E-01  1.19009E+01  4.25355E+00
   2.10161E+01 -3.37170E+00  1.77348E+01  5.26890E+00  4.28538E+00  9.16959E+00 -5.45353E-01 -2.64372E+00  1.79815E+01  4.50474E+01
  -7.42581E+00  9.33648E+00  9.49772E+00  2.49279E+01  2.87349E+01  1.87789E+01  2.07180E+01  3.70556E+01  3.16471E+01  1.81322E+01
   3.41356E+01  4.24364E-01  1.42373E+01  2.66590E+01  2.02662E+01  1.90809E+01  4.04180E+01  3.90507E+01  3.14020E+01  3.03021E+01
   1.69782E+01  2.89930E+01  1.97393E+01  3.27109E+01  2.93329E+01  2.32449E+01  2.98383E+01  2.29277E+00  1.00137E+01  1.51220E+01
   7.43769E+00  1.64130E+01  1.60984E+01  3.40463E+01  1.86824E+01  3.26190E+01  2.09398E+01  7.88282E+00  2.31172E+01  1.20271E+01
  -2.42586E+00  8.12303E+00  1.69030E+01  2.25581E+01  2.46434E+01  3.01000E+01 -7.42467E-01  2.16682E+01  1.01958E+01  1.25826E+00
   1.70056E+01  2.35483E+01 -5.36616E+00  1.40942E+01 -1.37699E+00  1.16505E+01  2.37643E+01  1.20059E+01  7.71509E+00  7.64362E+00
   1.15028E+01  5.56639E+00  1.98738E+01  1.50533E+00 -2.06369E+00  1.30664E+01  6.68606E-01  1.53833E+01  1.19417E+01  1.90979E+01
   2.02445E+01  1.90635E+01 -2.10757E+01 -7.40546E+00  8.82899E+00  3.47388E+01 -1.36066E+01  5.96691E+00  2.20021E+01  7.65750E+00
   1.57727E+01  2.04291E+01  2.47689E+01  3.70480E+00  2.61619E+01  1.54241E+01  8.31384E+00  1.22400E+01  1.62900E+01  4.90723E+00
   6.22787E+00  5.27660E-02  1.40359E+01 -1.04327E+01  3.41902E+00  2.33111E+01  1.29079E+01  1.76403E+01  1.91552E+01  4.24226E+00
   8.95680E+00  1.78594E-03  2.02342E+01  1.55870E+01  1.59320E+01 -2.22383E+00  5.50721E+00  1.73885E+01
 NY points of the fit to the data follow
  -6.82177E+00 -8.41842E+00 -9.85841E+00 -1.09085E+01 -1.16104E+01 -1.20259E+01 -1.19779E+01 -1.12176E+01 -9.77638E+00 -7.96167E+00
  -6.15733E+00 -4.69458E+00 -3.77258E+00 -3.44904E+00 -3.66485E+00 -4.24575E+00 -4.90648E+00 -5.45743E+00 -5.89784E+00 -6.37282E+00
  -6.99765E+00 -7.41421E+00 -7.32444E+00 -6.82782E+00 -6.05551E+00 -4.91615E+00 -3.33636E+00 -1.39866E+00  6.78967E-01  2.60705E+00
   4.10838E+00  4.94967E+00  5.03220E+00  4.40643E+00  3.22369E+00  1.70501E+00  5.01714E-02 -1.65293E+00 -3.22320E+00 -4.39870E+00
  -4.97724E+00 -4.81513E+00 -4.03878E+00 -2.75261E+00 -1.07501E+00  6.26801E-01  1.91999E+00  2.51337E+00  2.34946E+00  1.52555E+00
   2.68167E-01 -1.12660E+00 -2.38629E+00 -3.32000E+00 -3.88116E+00 -4.10441E+00 -4.08031E+00 -3.86377E+00 -3.43482E+00 -2.88979E+00
  -2.46065E+00 -2.32288E+00 -2.47968E+00 -2.77398E+00 -3.06126E+00 -3.26243E+00 -3.31262E+00 -3.17315E+00 -2.88677E+00 -2.52905E+00
  -2.12832E+00 -1.72020E+00 -1.37119E+00 -1.13450E+00 -1.07263E+00 -1.20577E+00 -1.49536E+00 -1.81160E+00 -2.04973E+00 -2.22308E+00
  -2.33968E+00 -2.40207E+00 -2.42598E+00 -2.45421E+00 -2.60872E+00 -2.97186E+00 -3.51104E+00 -4.12509E+00 -4.73302E+00 -5.27589E+00
  -5.69934E+00 -5.99364E+00 -6.15378E+00 -6.04333E+00 -4.94254E+00 -2.34928E+00  1.51709E+00  6.63535E+00  1.30758E+01  2.06350E+01
   2.86032E+01  3.58171E+01  4.10989E+01  4.36996E+01  4.34393E+01  4.06367E+01  3.59387E+01  3.01692E+01  2.41375E+01  1.84201E+01
   1.32548E+01  8.60599E+00  4.46460E+00  1.13419E+00 -7.79122E-01 -1.52403E+00 -1.87583E+00 -1.89352E+00 -1.07560E+00  7.80933E-01
   3.50927E+00  7.09447E+00  1.15919E+01  1.68380E+01  2.22988E+01  2.71774E+01  3.06880E+01  3.23683E+01  3.21534E+01  3.02649E+01
   2.71069E+01  2.31693E+01  1.89414E+01  1.47989E+01  1.09262E+01  7.43270E+00  4.47043E+00  2.35690E+00  1.44580E+00  1.33620E+00
   1.47970E+00  1.66821E+00  1.80066E+00  1.83849E+00  1.79704E+00  1.67993E+00  1.44629E+00  1.10309E+00  6.79647E-01  2.05520E-01
  -2.61216E-01 -6.78215E-01 -1.05359E+00 -1.39905E+00 -1.73518E+00 -2.06847E+00 -2.38895E+00 -2.70192E+00 -3.01182E+00 -3.28057E+00
  -3.45614E+00 -3.52244E+00 -3.50464E+00 -3.45323E+00 -3.42007E+00 -3.44660E+00 -3.56011E+00 -3.77745E+00 -4.09419E+00 -4.44703E+00
  -4.79735E+00 -5.15880E+00 -5.57762E+00 -6.02875E+00 -6.41425E+00 -6.66595E+00 -6.77797E+00 -6.82291E+00 -6.87101E+00 -6.91663E+00
  -6.90521E+00 -6.80171E+00 -6.57975E+00 -6.20163E+00 -5.63018E+00 -4.85372E+00 -3.90079E+00 -2.86637E+00 -1.86672E+00 -1.01233E+00
  -4.09015E-01 -1.23545E-01 -1.65158E-01 -4.28814E-01 -7.28299E-01 -8.71036E-01 -7.16239E-01 -2.09347E-01  6.08199E-01  1.66502E+00
   2.83419E+00  3.84602E+00  4.49438E+00  4.68482E+00  4.31471E+00  3.38793E+00  2.09456E+00  7.36191E-01 -4.15159E-01 -1.16913E+00
  -1.37290E+00 -9.94985E-01 -1.35695E-01  1.00004E+00  2.18198E+00  3.25683E+00  4.13904E+00  4.78520E+00  5.21758E+00  5.52389E+00
   5.78414E+00  6.02670E+00  6.32873E+00  6.72122E+00  7.12996E+00  7.51483E+00  7.85533E+00  8.10572E+00  8.27925E+00  8.48435E+00
   8.79509E+00  9.23885E+00  9.83766E+00  1.05819E+01  1.13989E+01  1.22455E+01  1.30644E+01  1.37700E+01  1.42961E+01  1.46253E+01
   1.47878E+01  1.48486E+01  1.49018E+01  1.50614E+01  1.54283E+01  1.60214E+01  1.67917E+01  1.76683E+01  1.86542E+01  1.97522E+01
   2.10193E+01  2.32272E+01  2.73542E+01  3.30567E+01  3.99947E+01  4.82846E+01  5.78731E+01  6.79578E+01  7.70072E+01  8.33819E+01
   8.59863E+01  8.45434E+01  7.95170E+01  7.18274E+01  6.26205E+01  5.30557E+01  4.40152E+01  3.58924E+01  2.87048E+01  2.24030E+01
   1.72451E+01  1.39848E+01  1.26488E+01  1.19733E+01  1.14825E+01  1.10712E+01  1.06917E+01  1.03241E+01  9.97207E+00  9.64271E+00
   9.34472E+00  9.08982E+00  8.89214E+00  8.75853E+00  8.69380E+00  8.69780E+00  8.76428E+00  8.88712E+00  9.05850E+00  9.26700E+00
   9.50476E+00  9.76693E+00  1.00481E+01  1.03444E+01  1.06522E+01  1.09669E+01  1.12858E+01  1.16049E+01  1.19179E+01  1.22178E+01
   1.25001E+01  1.27607E+01  1.29964E+01  1.32056E+01  1.33897E+01  1.35507E+01  1.36936E+01  1.38253E+01  1.39548E+01  1.40922E+01
   1.42496E+01  1.44399E+01  1.46777E+01  1.49793E+01  1.53640E+01  1.58565E+01  1.64954E+01  1.73578E+01  1.85400E+01  1.98965E+01
   2.12539E+01  2.25418E+01  2.36621E+01  2.44132E+01  2.45295E+01  2.38334E+01  2.25274E+01  2.09828E+01  1.94981E+01  1.83863E+01
   1.79763E+01  1.85149E+01  2.00303E+01  2.22796E+01  2.48628E+01  2.73995E+01  2.96483E+01  3.15348E+01  3.30310E+01  3.39292E+01
   3.42247E+01  3.41014E+01  3.36751E+01  3.29523E+01  3.18767E+01  3.04807E+01  2.90655E+01  2.77880E+01  2.66250E+01  2.56275E+01
   2.48809E+01  2.44507E+01  2.43373E+01  2.44612E+01  2.46963E+01  2.49227E+01  2.50627E+01  2.50894E+01  2.49977E+01  2.47416E+01
   2.43125E+01  2.37660E+01  2.31406E+01  2.24524E+01  2.17107E+01  2.09496E+01  2.02448E+01  1.96052E+01  1.90032E+01  1.84307E+01
   1.78875E+01  1.73762E+01  1.69004E+01  1.64640E+01  1.60708E+01  1.57246E+01  1.54286E+01  1.51860E+01  1.49997E+01  1.48723E+01
   1.48064E+01  1.48043E+01  1.48686E+01  1.50015E+01  1.52054E+01  1.54823E+01  1.58343E+01  1.62626E+01  1.67679E+01  1.73499E+01
   1.80069E+01  1.87355E+01  1.95304E+01  2.03838E+01  2.12853E+01  2.22221E+01  2.31784E+01  2.41362E+01  2.50752E+01  2.59735E+01
   2.68086E+01  2.75579E+01  2.81997E+01  2.87144E+01  2.90854E+01  2.92999E+01  2.93495E+01  2.92310E+01  2.89463E+01  2.85022E+01
   2.79107E+01  2.71875E+01  2.63521E+01  2.54258E+01  2.44317E+01  2.33928E+01  2.23319E+01  2.12698E+01  2.02255E+01  1.92150E+01
   1.82515E+01  1.73451E+01  1.65029E+01  1.57292E+01  1.50258E+01  1.43925E+01  1.38273E+01  1.33268E+01  1.28868E+01  1.25027E+01
   1.21692E+01  1.18813E+01  1.16341E+01  1.14227E+01  1.12428E+01  1.10905E+01  1.09621E+01  1.08545E+01  1.07649E+01  1.06910E+01
   1.06306E+01  1.05819E+01  1.05434E+01  1.05138E+01  1.04921E+01  1.04771E+01  1.04681E+01  1.04643E+01  1.04653E+01  1.04704E+01
   1.04792E+01  1.04913E+01  1.05064E+01  1.05241E+01  1.05442E+01  1.05665E+01  1.05908E+01  1.06169E+01  1.06446E+01  1.06738E+01
   1.07044E+01  1.07363E+01  1.07693E+01  1.08033E+01  1.08384E+01  1.08743E+01  1.09112E+01  1.09487E+01  1.09871E+01  1.10261E+01
   1.10657E+01  1.11060E+01  1.11468E+01  1.11881E+01  1.12300E+01  1.12723E+01  1.13151E+01  1.13583E+01  1.14020E+01  1.14460E+01
   1.14904E+01  1.15352E+01  1.15804E+01  1.16259E+01  1.16718E+01  1.17180E+01  1.17646E+01  1.18115E+01  1.18588E+01  1.19064E+01
   1.19545E+01  1.20029E+01  1.20517E+01  1.21009E+01  1.21507E+01  1.22008E+01  1.22516E+01  1.23029E+01
 NY background values follow
    -1.126E+01   -1.121E+01   -1.117E+01   -1.112E+01   -1.107E+01   -1.102E+01   -1.098E+01   -1.093E+01   -1.088E+01   -1.083E+01
    -1.079E+01   -1.074E+01   -1.069E+01   -1.064E+01   -1.060E+01   -1.055E+01   -1.050E+01   -1.045E+01   -1.041E+01   -1.036E+01
    -1.031E+01   -1.026E+01   -1.021E+01   -1.017E+01   -1.012E+01   -1.007E+01   -1.002E+01   -9.974E+00   -9.926E+00   -9.878E+00
    -9.830E+00   -9.782E+00   -9.734E+00   -9.686E+00   -9.638E+00   -9.590E+00   -9.542E+00   -9.494E+00   -9.446E+00   -9.397E+00
    -9.349E+00   -9.301E+00   -9.253E+00   -9.204E+00   -9.156E+00   -9.108E+00   -9.059E+00   -9.011E+00   -8.963E+00   -8.914E+00
    -8.866E+00   -8.818E+00   -8.769E+00   -8.721E+00   -8.672E+00   -8.624E+00   -8.575E+00   -8.527E+00   -8.478E+00   -8.429E+00
    -8.381E+00   -8.332E+00   -8.284E+00   -8.235E+00   -8.186E+00   -8.138E+00   -8.089E+00   -8.040E+00   -7.992E+00   -7.943E+00
    -7.894E+00   -7.845E+00   -7.797E+00   -7.748E+00   -7.699E+00   -7.650E+00   -7.601E+00   -7.552E+00   -7.504E+00   -7.455E+00
    -7.406E+00   -7.357E+00   -7.308E+00   -7.259E+00   -7.210E+00   -7.161E+00   -7.112E+00   -7.063E+00   -7.014E+00   -6.965E+00
    -6.916E+00   -6.867E+00   -6.818E+00   -6.769E+00   -6.719E+00   -6.670E+00   -6.621E+00   -6.572E+00   -6.523E+00   -6.474E+00
    -6.424E+00   -6.375E+00   -6.326E+00   -6.277E+00   -6.227E+00   -6.178E+00   -6.129E+00   -6.080E+00   -6.030E+00   -5.981E+00
    -5.932E+00   -5.882E+00   -5.833E+00   -5.784E+00   -5.734E+00   -5.685E+00   -5.635E+00   -5.586E+00   -5.537E+00   -5.487E+00
    -5.438E+00   -5.388E+00   -5.339E+00   -5.289E+00   -5.240E+00   -5.190E+00   -5.141E+00   -5.091E+00   -5.042E+00   -4.992E+00
    -4.943E+00   -4.893E+00   -4.843E+00   -4.794E+00   -4.744E+00   -4.695E+00   -4.645E+00   -4.595E+00   -4.546E+00   -4.496E+00
    -4.446E+00   -4.397E+00   -4.347E+00   -4.297E+00   -4.248E+00   -4.198E+00   -4.148E+00   -4.098E+00   -4.049E+00   -3.999E+00
    -3.949E+00   -3.899E+00   -3.850E+00   -3.800E+00   -3.750E+00   -3.700E+00   -3.650E+00   -3.601E+00   -3.551E+00   -3.501E+00
    -3.451E+00   -3.401E+00   -3.351E+00   -3.301E+00   -3.252E+00   -3.202E+00   -3.152E+00   -3.102E+00   -3.052E+00   -3.002E+00
    -2.952E+00   -2.902E+00   -2.852E+00   -2.802E+00   -2.752E+00   -2.702E+00   -2.652E+00   -2.603E+00   -2.553E+00   -2.503E+00
    -2.453E+00   -2.403E+00   -2.353E+00   -2.303E+00   -2.253E+00   -2.203E+00   -2.153E+00   -2.102E+00   -2.052E+00   -2.002E+00
    -1.952E+00   -1.902E+00   -1.852E+00   -1.802E+00   -1.752E+00   -1.702E+00   -1.652E+00   -1.602E+00   -1.552E+00   -1.502E+00
    -1.452E+00   -1.402E+00   -1.351E+00   -1.301E+00   -1.251E+00   -1.201E+00   -1.151E+00   -1.101E+00   -1.051E+00   -1.001E+00
    -9.505E-01   -9.004E-01   -8.503E-01   -8.001E-01   -7.500E-01   -6.999E-01   -6.497E-01   -5.996E-01   -5.494E-01   -4.993E-01
    -4.491E-01   -3.990E-01   -3.488E-01   -2.986E-01   -2.485E-01   -1.983E-01   -1.481E-01   -9.796E-02   -4.779E-02    2.380E-03
     5.255E-02    1.027E-01    1.529E-01    2.031E-01    2.533E-01    3.034E-01    3.536E-01    4.038E-01    4.540E-01    5.042E-01
     5.543E-01    6.045E-01    6.547E-01    7.049E-01    7.551E-01    8.053E-01    8.554E-01    9.056E-01    9.558E-01    1.006E+00
     1.056E+00    1.106E+00    1.157E+00    1.207E+00    1.257E+00    1.307E+00    1.357E+00    1.407E+00    1.458E+00    1.508E+00
     1.558E+00    1.608E+00    1.658E+00    1.708E+00    1.759E+00    1.809E+00    1.859E+00    1.909E+00    1.959E+00    2.009E+00
     2.060E+00    2.110E+00    2.160E+00    2.210E+00    2.260E+00    2.310E+00    2.360E+00    2.411E+00    2.461E+00    2.511E+00
     2.561E+00    2.611E+00    2.661E+00    2.711E+00    2.761E+00    2.812E+00    2.862E+00    2.912E+00    2.962E+00    3.012E+00
     3.062E+00    3.112E+00    3.162E+00    3.212E+00    3.262E+00    3.312E+00    3.362E+00    3.412E+00    3.462E+00    3.513E+00
     3.563E+00    3.613E+00    3.663E+00    3.713E+00    3.763E+00    3.813E+00    3.863E+00    3.913E+00    3.963E+00    4.013E+00
     4.063E+00    4.113E+00    4.163E+00    4.213E+00    4.263E+00    4.312E+00    4.362E+00    4.412E+00    4.462E+00    4.512E+00
     4.562E+00    4.612E+00    4.662E+00    4.712E+00    4.762E+00    4.812E+00    4.861E+00    4.911E+00    4.961E+00    5.011E+00
     5.061E+00    5.111E+00    5.160E+00    5.210E+00    5.260E+00    5.310E+00    5.360E+00    5.409E+00    5.459E+00    5.509E+00
     5.559E+00    5.609E+00    5.658E+00    5.708E+00    5.758E+00    5.807E+00    5.857E+00    5.907E+00    5.956E+00    6.006E+00
     6.056E+00    6.105E+00    6.155E+00    6.205E+00    6.254E+00    6.304E+00    6.354E+00    6.403E+00    6.453E+00    6.502E+00
     6.552E+00    6.601E+00    6.651E+00    6.700E+00    6.750E+00    6.799E+00    6.849E+00    6.898E+00    6.948E+00    6.997E+00
     7.047E+00    7.096E+00    7.146E+00    7.195E+00    7.244E+00    7.294E+00    7.343E+00    7.393E+00    7.442E+00    7.491E+00
     7.541E+00    7.590E+00    7.639E+00    7.688E+00    7.738E+00    7.787E+00    7.836E+00    7.885E+00    7.935E+00    7.984E+00
     8.033E+00    8.082E+00    8.131E+00    8.181E+00    8.230E+00    8.279E+00    8.328E+00    8.377E+00    8.426E+00    8.475E+00
     8.524E+00    8.573E+00    8.622E+00    8.671E+00    8.720E+00    8.769E+00    8.818E+00    8.867E+00    8.916E+00    8.965E+00
     9.014E+00    9.063E+00    9.112E+00    9.161E+00    9.209E+00    9.258E+00    9.307E+00    9.356E+00    9.405E+00    9.453E+00
     9.502E+00    9.551E+00    9.599E+00    9.648E+00    9.697E+00    9.745E+00    9.794E+00    9.843E+00    9.891E+00    9.940E+00
     9.989E+00    1.004E+01    1.009E+01    1.013E+01    1.018E+01    1.023E+01    1.028E+01    1.033E+01    1.038E+01    1.042E+01
     1.047E+01    1.052E+01    1.057E+01    1.062E+01    1.067E+01    1.072E+01    1.076E+01    1.081E+01    1.086E+01    1.091E+01
     1.096E+01    1.100E+01    1.105E+01    1.110E+01    1.115E+01    1.120E+01    1.125E+01    1.129E+01    1.134E+01    1.139E+01
     1.144E+01    1.149E+01    1.153E+01    1.158E+01    1.163E+01    1.168E+01    1.172E+01    1.177E+01    1.182E+01    1.187E+01
     1.192E+01    1.196E+01    1.201E+01    1.206E+01    1.211E+01    1.216E+01    1.220E+01    1.225E+01    1.230E+01    1.235E+01
     1.239E+01    1.244E+01    1.249E+01    1.254E+01    1.258E+01    1.263E+01    1.268E+01    1.273E+01    1.277E+01    1.282E+01
     1.287E+01    1.292E+01    1.296E+01    1.301E+01    1.306E+01    1.310E+01    1.315E+01    1.320E+01
 Ala      Conc. = 9.76E+02
