 LCModel (Version 6.3-1L) Copyright: S.W. Provencher.          Ref.: Magn. Reson. Med. 30:672-679 (1993).                
 Slice#1 Row#11 Col#1  PD_24_press_2_raw_act
 36 lines in following concentration table = NCONC+1
    Conc.  %SD /Cr+PCr  Metabolite                                         
 1.63E+03  65%   0.477 Ala                                                 
 1.52E+04   6%   4.423+Asp                                                 
 3.43E+03   6%   1.000 Cr                                                  
    0.000 999%   0.000 PCr                                                 
    0.000 999%   0.000 GABA                                                
  499.933 165%   0.146 Glc                                                 
    0.000 999%   0.000 Gln                                                 
    0.000 999%   0.000 Glu                                                 
    0.000 999%   0.000 GPC                                                 
  875.663  11%   0.256 PCh                                                 
 1.95E+03  19%   0.569 GSH                                                 
 9.36E+03  12%   2.732 Ins                                                 
  805.930 146%   0.235 Lac                                                 
 2.08E+04   6%   6.080 NAA                                                 
 4.44E+03  26%   1.296 NAAG                                                
  718.916  16%   0.210 Scyllo                                              
 8.27E+03  12%   2.413+Tau                                                 
  341.677   9%   0.100 -CrCH2                                              
  875.663  11%   0.256 GPC+PCh                                             
 2.53E+04   1%   7.376 NAA+NAAG                                            
 3.43E+03   6%   1.000 Cr+PCr                                              
    0.000 999%   0.000 Glu+Gln                                             
 1.43E+03  55%   0.416 Lip13a                                              
    0.000 999%   0.000 Lip13b                                              
  209.447 163% 6.1E-02 Lip09                                               
 1.44E+03  30%   0.419 MM09                                                
    0.000 999%   0.000 Lip20                                               
 2.02E+03  34%   0.590 MM20                                                
  449.942  33%   0.131 MM12                                                
 1.11E+03  37%   0.324 MM14                                                
  845.533  26%   0.247 MM17                                                
 1.43E+03  55%   0.416 Lip13a+Lip13b                                       
 2.99E+03  34%   0.872 MM14+Lip13a+Lip13b+MM12                             
 1.64E+03  27%   0.480 MM09+Lip09                                          
 2.02E+03  34%   0.590 MM20+Lip20                                          
   6 lines in following misc. output table
  FWHM = 0.168 ppm    S/N =  34                                            
  Data shift = 0.443 ppm                                                   
  Ph:-118 deg     215.0 deg/ppm                                            
  alphaB,S = 3.8E-01,   6.0E+02                                            
   11 spline knots.   Ns = 9(2)                                            
  ( 8) 4 infls.   ( 1) 1 extrs.                                            
  498 points on ppm-axis = NY
      4.000000     3.992357     3.984714     3.977070     3.969427     3.961784     3.954141     3.946497     3.938854     3.931211
      3.923568     3.915925     3.908281     3.900638     3.892995     3.885352     3.877708     3.870065     3.862422     3.854779
      3.847136     3.839492     3.831849     3.824206     3.816563     3.808919     3.801276     3.793633     3.785990     3.778347
      3.770703     3.763060     3.755417     3.747774     3.740130     3.732487     3.724844     3.717201     3.709558     3.701914
      3.694271     3.686628     3.678985     3.671341     3.663698     3.656055     3.648412     3.640769     3.633125     3.625482
      3.617839     3.610196     3.602552     3.594909     3.587266     3.579623     3.571980     3.564336     3.556693     3.549050
      3.541407     3.533763     3.526120     3.518477     3.510834     3.503191     3.495547     3.487904     3.480261     3.472618
      3.464974     3.457331     3.449688     3.442045     3.434402     3.426758     3.419115     3.411472     3.403829     3.396185
      3.388542     3.380899     3.373256     3.365613     3.357969     3.350326     3.342683     3.335040     3.327396     3.319753
      3.312110     3.304467     3.296824     3.289180     3.281537     3.273894     3.266251     3.258607     3.250964     3.243321
      3.235678     3.228034     3.220391     3.212748     3.205105     3.197462     3.189818     3.182175     3.174532     3.166889
      3.159245     3.151602     3.143959     3.136316     3.128673     3.121029     3.113386     3.105743     3.098100     3.090456
      3.082813     3.075170     3.067527     3.059884     3.052240     3.044597     3.036954     3.029311     3.021667     3.014024
      3.006381     2.998738     2.991095     2.983451     2.975808     2.968165     2.960522     2.952878     2.945235     2.937592
      2.929949     2.922306     2.914662     2.907019     2.899376     2.891733     2.884089     2.876446     2.868803     2.861160
      2.853517     2.845873     2.838230     2.830587     2.822944     2.815300     2.807657     2.800014     2.792371     2.784728
      2.777084     2.769441     2.761798     2.754155     2.746511     2.738868     2.731225     2.723582     2.715939     2.708295
      2.700652     2.693009     2.685366     2.677722     2.670079     2.662436     2.654793     2.647150     2.639506     2.631863
      2.624220     2.616577     2.608933     2.601290     2.593647     2.586004     2.578361     2.570717     2.563074     2.555431
      2.547788     2.540144     2.532501     2.524858     2.517215     2.509572     2.501928     2.494285     2.486642     2.478999
      2.471355     2.463712     2.456069     2.448426     2.440783     2.433139     2.425496     2.417853     2.410210     2.402566
      2.394923     2.387280     2.379637     2.371994     2.364350     2.356707     2.349064     2.341421     2.333777     2.326134
      2.318491     2.310848     2.303205     2.295561     2.287918     2.280275     2.272632     2.264988     2.257345     2.249702
      2.242059     2.234416     2.226772     2.219129     2.211486     2.203843     2.196199     2.188556     2.180913     2.173270
      2.165627     2.157983     2.150340     2.142697     2.135054     2.127410     2.119767     2.112124     2.104481     2.096838
      2.089194     2.081551     2.073908     2.066265     2.058621     2.050978     2.043335     2.035692     2.028049     2.020405
      2.012762     2.005119     1.997476     1.989833     1.982190     1.974546     1.966903     1.959260     1.951617     1.943974
      1.936331     1.928688     1.921045     1.913402     1.905759     1.898115     1.890472     1.882829     1.875186     1.867543
      1.859900     1.852257     1.844614     1.836971     1.829327     1.821684     1.814041     1.806398     1.798755     1.791112
      1.783469     1.775826     1.768183     1.760540     1.752896     1.745253     1.737610     1.729967     1.722324     1.714681
      1.707038     1.699395     1.691752     1.684108     1.676465     1.668822     1.661179     1.653536     1.645893     1.638250
      1.630607     1.622964     1.615321     1.607677     1.600034     1.592391     1.584748     1.577105     1.569462     1.561819
      1.554176     1.546533     1.538890     1.531246     1.523603     1.515960     1.508317     1.500674     1.493031     1.485388
      1.477745     1.470102     1.462458     1.454815     1.447172     1.439529     1.431886     1.424243     1.416600     1.408957
      1.401314     1.393671     1.386027     1.378384     1.370741     1.363098     1.355455     1.347812     1.340169     1.332526
      1.324883     1.317240     1.309596     1.301953     1.294310     1.286667     1.279024     1.271381     1.263738     1.256095
      1.248452     1.240808     1.233165     1.225522     1.217879     1.210236     1.202593     1.194950     1.187307     1.179664
      1.172021     1.164377     1.156734     1.149091     1.141448     1.133805     1.126162     1.118519     1.110876     1.103233
      1.095590     1.087946     1.080303     1.072660     1.065017     1.057374     1.049731     1.042088     1.034445     1.026802
      1.019158     1.011515     1.003872     0.996229     0.988586     0.980943     0.973300     0.965657     0.958014     0.950371
      0.942727     0.935084     0.927441     0.919798     0.912155     0.904512     0.896869     0.889226     0.881583     0.873940
      0.866296     0.858653     0.851010     0.843367     0.835724     0.828081     0.820438     0.812795     0.805152     0.797508
      0.789865     0.782222     0.774579     0.766936     0.759293     0.751650     0.744007     0.736364     0.728721     0.721077
      0.713434     0.705791     0.698148     0.690505     0.682862     0.675219     0.667576     0.659933     0.652290     0.644646
      0.637003     0.629360     0.621717     0.614074     0.606431     0.598788     0.591145     0.583502     0.575858     0.568215
      0.560572     0.552929     0.545286     0.537643     0.530000     0.522357     0.514714     0.507071     0.499427     0.491784
      0.484141     0.476498     0.468855     0.461212     0.453569     0.445925     0.438282     0.430639     0.422996     0.415353
      0.407710     0.400067     0.392424     0.384780     0.377137     0.369494     0.361851     0.354208     0.346565     0.338922
      0.331278     0.323635     0.315992     0.308349     0.300706     0.293063     0.285420     0.277777     0.270133     0.262490
      0.254847     0.247204     0.239561     0.231918     0.224275     0.216631     0.208988     0.201345
 NY phased data points follow
   1.25754E+00 -1.65279E+00  1.70153E+00  6.22655E-01 -2.78197E+00  2.88091E-01 -3.91155E+00 -1.58299E+00 -2.41815E+00 -2.52469E+00
  -3.17511E+00 -1.08973E+00 -2.03098E+00 -3.35240E+00 -1.55610E+00 -8.66874E-01 -3.73378E+00 -4.02134E+00 -1.13327E+00  8.49181E-01
  -2.28224E+00 -2.04168E+00 -8.64520E-01 -2.86471E+00 -2.42476E+00  8.73122E-01 -6.18202E-01 -2.06051E+00 -9.00746E-01  1.86692E-01
   7.55427E-01 -1.19201E+00  4.77933E-01 -2.57651E+00 -4.81620E-01  1.54124E+00  4.17254E+00  2.37636E+00  2.37377E+00  3.27486E+00
   3.53238E+00  3.44360E+00  6.05142E+00  6.50780E+00  4.19032E+00  5.85423E+00  8.80837E+00  6.59668E+00  6.26939E+00  8.25130E+00
   7.91193E+00  8.09275E+00  7.11051E+00  1.20194E+01  1.03520E+01  8.67021E+00  1.29566E+01  1.14972E+01  1.72466E+01  1.67385E+01
   1.59056E+01  1.90344E+01  1.98394E+01  1.87474E+01  1.79555E+01  1.99994E+01  2.01749E+01  2.30341E+01  2.15843E+01  2.07486E+01
   2.14858E+01  2.47053E+01  2.06298E+01  2.15146E+01  2.25926E+01  2.24144E+01  1.92059E+01  2.22437E+01  1.89600E+01  1.95150E+01
   2.08673E+01  1.94566E+01  1.70331E+01  1.73003E+01  1.78234E+01  1.89461E+01  1.88345E+01  1.56719E+01  1.75686E+01  2.03950E+01
   1.53445E+01  1.83587E+01  1.74278E+01  1.70446E+01  1.66998E+01  1.52974E+01  1.50485E+01  1.66875E+01  1.51253E+01  1.91605E+01
   1.71134E+01  2.03583E+01  1.79023E+01  1.90986E+01  1.77564E+01  1.98998E+01  1.80154E+01  1.71205E+01  1.84480E+01  2.00258E+01
   2.12106E+01  1.98257E+01  1.88452E+01  2.47719E+01  2.30899E+01  2.13749E+01  2.12801E+01  2.18019E+01  2.35463E+01  2.24665E+01
   2.38085E+01  2.06136E+01  2.06933E+01  1.98472E+01  1.62786E+01  1.85664E+01  1.82256E+01  1.66310E+01  1.35059E+01  1.39202E+01
   9.58626E+00  1.02466E+01  8.68677E+00  3.99418E+00  1.60151E+00  9.92406E-01 -4.15457E+00 -6.50533E+00 -6.01715E+00 -1.26522E+01
  -1.37768E+01 -1.58532E+01 -1.69140E+01 -2.06477E+01 -2.10390E+01 -2.60964E+01 -2.92367E+01 -3.19344E+01 -3.06813E+01 -3.78837E+01
  -4.16794E+01 -4.06819E+01 -4.73257E+01 -4.49612E+01 -5.06988E+01 -5.04230E+01 -5.64602E+01 -5.96231E+01 -6.22058E+01 -6.08712E+01
  -6.34846E+01 -6.61506E+01 -6.63526E+01 -6.76066E+01 -6.66116E+01 -6.77815E+01 -6.92214E+01 -6.91594E+01 -6.34306E+01 -6.38373E+01
  -6.18520E+01 -6.50118E+01 -6.09417E+01 -5.82514E+01 -5.43075E+01 -5.28034E+01 -5.09981E+01 -4.71662E+01 -4.29670E+01 -4.20233E+01
  -3.81468E+01 -3.75174E+01 -3.16063E+01 -3.10195E+01 -2.74037E+01 -2.77136E+01 -2.43931E+01 -2.41184E+01 -1.98078E+01 -1.75447E+01
  -1.68280E+01 -1.63341E+01 -1.55549E+01 -1.50835E+01 -1.18187E+01 -1.24882E+01 -1.09979E+01 -7.87451E+00 -7.21056E+00 -9.06864E+00
  -9.68190E+00 -6.72148E+00 -3.72800E+00 -5.97790E+00 -5.97848E+00 -9.01429E+00 -6.21708E+00 -9.39111E+00 -8.28657E+00 -7.99151E+00
  -9.60099E+00 -1.36867E+01 -1.42058E+01 -1.45680E+01 -9.08443E+00 -1.39135E+01 -1.58895E+01 -1.29277E+01 -1.54998E+01 -1.73135E+01
  -1.62104E+01 -1.83102E+01 -1.89495E+01 -2.38250E+01 -2.54902E+01 -2.38194E+01 -2.74095E+01 -2.48592E+01 -2.75394E+01 -3.05894E+01
  -3.08376E+01 -3.28978E+01 -3.38674E+01 -3.24154E+01 -3.18150E+01 -3.19244E+01 -2.95357E+01 -2.71597E+01 -2.36703E+01 -1.93552E+01
  -1.67683E+01 -1.08728E+01 -1.56543E+00  7.50831E+00  1.83772E+01  2.68625E+01  4.56746E+01  6.09893E+01  7.74461E+01  9.43575E+01
   1.16599E+02  1.33917E+02  1.54035E+02  1.76424E+02  1.92704E+02  2.08440E+02  2.23533E+02  2.36051E+02  2.44331E+02  2.53822E+02
   2.57396E+02  2.55697E+02  2.49945E+02  2.42676E+02  2.29361E+02  2.15626E+02  1.99229E+02  1.80166E+02  1.63660E+02  1.40766E+02
   1.17701E+02  1.01019E+02  7.86373E+01  6.26013E+01  4.47861E+01  3.29439E+01  1.47300E+01  3.04100E+00 -1.04400E+01 -1.67043E+01
  -3.05383E+01 -3.55292E+01 -4.38789E+01 -5.17905E+01 -5.52440E+01 -6.17766E+01 -6.38748E+01 -6.63086E+01 -7.03581E+01 -6.88555E+01
  -7.24726E+01 -7.51508E+01 -7.46336E+01 -7.41050E+01 -7.30660E+01 -7.46241E+01 -7.42334E+01 -7.31141E+01 -7.32626E+01 -6.79854E+01
  -6.85314E+01 -6.74536E+01 -6.97728E+01 -6.45110E+01 -6.36913E+01 -6.04547E+01 -6.04588E+01 -5.93123E+01 -5.91736E+01 -5.50758E+01
  -5.55846E+01 -5.46291E+01 -5.32333E+01 -5.08455E+01 -5.28052E+01 -4.80510E+01 -4.97894E+01 -4.82248E+01 -5.15619E+01 -4.78361E+01
  -4.67751E+01 -4.48442E+01 -4.69081E+01 -4.59017E+01 -4.46384E+01 -4.52498E+01 -4.57382E+01 -4.02171E+01 -4.48292E+01 -4.16897E+01
  -4.37661E+01 -4.14993E+01 -4.08769E+01 -3.83788E+01 -4.30287E+01 -3.80088E+01 -3.70015E+01 -3.83107E+01 -3.53394E+01 -3.64504E+01
  -3.41122E+01 -3.21890E+01 -3.39432E+01 -3.13818E+01 -2.76916E+01 -2.84388E+01 -2.76475E+01 -2.59536E+01 -2.58858E+01 -1.92561E+01
  -2.28519E+01 -2.01555E+01 -2.12202E+01 -2.17306E+01 -1.61507E+01 -1.81675E+01 -1.61231E+01 -1.31459E+01 -1.34316E+01 -1.10733E+01
  -1.40710E+01 -1.34380E+01 -1.00247E+01 -9.79867E+00 -8.64601E+00 -8.28817E+00 -6.36539E+00 -4.84358E+00 -7.26331E+00 -3.71057E+00
  -2.92618E+00 -2.91863E+00 -1.12034E+00 -4.60726E-01  2.45180E-01  1.74560E+00  3.42406E-01  3.76098E+00  3.24437E+00  4.50092E+00
   5.94463E+00  5.34905E+00  4.56623E+00  8.76567E+00  6.55926E+00  8.61252E+00  1.09564E+01  1.08629E+01  1.11251E+01  1.11957E+01
   1.17958E+01  1.57157E+01  1.41565E+01  1.44322E+01  1.75170E+01  1.52517E+01  1.85384E+01  1.72520E+01  1.75166E+01  2.16131E+01
   1.63286E+01  1.80509E+01  1.82003E+01  1.55962E+01  2.07349E+01  2.08525E+01  1.87922E+01  1.97026E+01  2.02788E+01  1.98946E+01
   1.98745E+01  2.00257E+01  1.99087E+01  2.04198E+01  1.98605E+01  1.92670E+01  2.10863E+01  2.37273E+01  2.47137E+01  2.19826E+01
   2.50678E+01  2.23215E+01  2.24733E+01  2.37890E+01  1.79410E+01  2.12177E+01  2.35112E+01  2.29559E+01  2.20175E+01  2.28208E+01
   1.85898E+01  1.88901E+01  1.77328E+01  2.00352E+01  1.89814E+01  1.83828E+01  2.19882E+01  1.71960E+01  1.91092E+01  1.75584E+01
   2.13619E+01  1.75367E+01  1.70138E+01  1.62972E+01  1.85441E+01  1.60192E+01  1.63742E+01  1.45431E+01  1.60169E+01  1.14604E+01
   1.15046E+01  1.15574E+01  1.38409E+01  1.31404E+01  1.26916E+01  1.24087E+01  1.03425E+01  1.00215E+01  1.22804E+01  1.07349E+01
   9.87392E+00  9.67394E+00  9.11665E+00  8.15312E+00  1.08635E+01  8.85330E+00  7.02150E+00  6.64603E+00  5.31028E+00  5.82074E+00
   4.28435E+00  6.11558E+00  5.69035E+00  5.75871E+00  2.97216E+00  4.30350E+00  1.62561E+00  2.60248E+00  2.47736E+00  2.20349E+00
   4.81927E-01 -2.29323E-01 -7.36022E-01 -1.75857E+00 -2.76019E+00 -1.97233E+00 -5.14869E-01 -1.83285E+00 -2.07245E+00 -3.04332E+00
  -5.18426E+00 -6.21264E+00 -4.34616E+00 -3.87431E+00 -4.14145E+00 -5.95310E+00 -5.00411E+00 -4.20756E+00
 NY points of the fit to the data follow
   7.93413E-01  6.31835E-01  1.43989E+00  7.29470E-01  1.22116E+00  6.03072E-01  7.25489E-01  1.99526E-01 -3.15076E-01 -8.19567E-01
  -2.08788E+00 -2.01847E+00 -3.53832E+00 -3.20312E+00 -5.18375E+00 -4.15187E+00 -6.02350E+00 -4.89822E+00 -6.39939E+00 -4.83480E+00
  -5.85169E+00 -3.96580E+00 -4.61341E+00 -2.66838E+00 -3.08039E+00 -1.19346E+00 -1.57220E+00  6.53580E-02 -3.39895E-01  1.03030E+00
   1.26913E+00  1.72469E+00  3.14678E+00  3.02917E+00  4.40145E+00  4.22320E+00  5.26624E+00  4.74734E+00  5.55822E+00  5.52717E+00
   6.60053E+00  6.30112E+00  7.44116E+00  6.32158E+00  7.67152E+00  6.72151E+00  8.07359E+00  7.09249E+00  8.17400E+00  6.98682E+00
   8.06424E+00  7.63486E+00  8.86529E+00  8.20468E+00  9.40120E+00  8.69420E+00  1.01549E+01  1.01144E+01  1.17978E+01  1.23102E+01
   1.40457E+01  1.48345E+01  1.58037E+01  1.67626E+01  1.70667E+01  1.81727E+01  1.76328E+01  1.90347E+01  1.83928E+01  2.04055E+01
   2.02218E+01  2.28703E+01  2.21809E+01  2.45974E+01  2.33642E+01  2.50003E+01  2.32482E+01  2.40514E+01  2.20317E+01  2.23523E+01
   2.07450E+01  2.04692E+01  1.92287E+01  1.86129E+01  1.74994E+01  1.64402E+01  1.53862E+01  1.53816E+01  1.46239E+01  1.50443E+01
   1.43727E+01  1.51396E+01  1.40204E+01  1.51852E+01  1.42499E+01  1.61096E+01  1.56604E+01  1.90565E+01  1.84265E+01  2.18737E+01
   2.04869E+01  2.33752E+01  2.10320E+01  2.35359E+01  2.06610E+01  2.22991E+01  1.90122E+01  2.02377E+01  1.90548E+01  1.97063E+01
   1.88994E+01  1.86581E+01  1.83231E+01  1.76953E+01  1.80187E+01  1.68848E+01  1.76601E+01  1.65091E+01  1.79342E+01  1.71832E+01
   1.97663E+01  1.87965E+01  2.10331E+01  1.96963E+01  2.11233E+01  1.88503E+01  1.91329E+01  1.80723E+01  1.72270E+01  1.64616E+01
   1.42899E+01  1.32317E+01  9.71148E+00  8.42204E+00  3.89592E+00  2.60257E+00 -2.39614E+00 -3.42435E+00 -8.32623E+00 -9.11652E+00
  -1.38096E+01 -1.46597E+01 -1.94707E+01 -2.10212E+01 -2.62435E+01 -2.82105E+01 -3.32963E+01 -3.50207E+01 -3.79219E+01 -3.97747E+01
  -4.22537E+01 -4.43393E+01 -4.65857E+01 -4.85964E+01 -5.05517E+01 -5.21219E+01 -5.40484E+01 -5.53812E+01 -5.72276E+01 -5.82125E+01
  -5.96690E+01 -5.97638E+01 -6.06716E+01 -6.00239E+01 -6.07886E+01 -5.99410E+01 -6.10459E+01 -5.93722E+01 -5.99400E+01 -5.73518E+01
  -5.74875E+01 -5.47976E+01 -5.46212E+01 -5.18589E+01 -5.13631E+01 -4.87495E+01 -4.83602E+01 -4.58018E+01 -4.49008E+01 -4.22222E+01
  -4.04619E+01 -3.77562E+01 -3.54158E+01 -3.35409E+01 -3.11344E+01 -2.95077E+01 -2.67149E+01 -2.52889E+01 -2.23753E+01 -2.16898E+01
  -1.84512E+01 -1.81197E+01 -1.50042E+01 -1.49756E+01 -1.20485E+01 -1.24952E+01 -1.00635E+01 -1.09677E+01 -8.92463E+00 -1.02205E+01
  -8.50815E+00 -9.70023E+00 -8.60240E+00 -9.95239E+00 -1.01605E+01 -1.14563E+01 -1.26524E+01 -1.37152E+01 -1.50388E+01 -1.60947E+01
  -1.78258E+01 -1.82311E+01 -1.98127E+01 -1.97193E+01 -2.11238E+01 -2.09457E+01 -2.27783E+01 -2.23370E+01 -2.38227E+01 -2.30327E+01
  -2.41505E+01 -2.33892E+01 -2.43501E+01 -2.39130E+01 -2.48778E+01 -2.47032E+01 -2.52844E+01 -2.49694E+01 -2.54374E+01 -2.51016E+01
  -2.55688E+01 -2.52871E+01 -2.56659E+01 -2.54369E+01 -2.57767E+01 -2.57650E+01 -2.61506E+01 -2.48296E+01 -2.29968E+01 -2.14449E+01
  -1.75421E+01 -1.55848E+01 -6.58311E+00  3.12703E+00  1.68153E+01  3.00888E+01  4.67685E+01  6.22851E+01  8.11698E+01  9.81662E+01
   1.18286E+02  1.36541E+02  1.56571E+02  1.74833E+02  1.92877E+02  2.09108E+02  2.23205E+02  2.36120E+02  2.44607E+02  2.52597E+02
   2.53886E+02  2.54902E+02  2.48570E+02  2.42188E+02  2.29139E+02  2.16626E+02  1.98997E+02  1.82049E+02  1.62107E+02  1.42463E+02
   1.22291E+02  1.02483E+02  8.34912E+01  6.55210E+01  4.79186E+01  3.20906E+01  1.56413E+01  2.23322E+00 -1.10708E+01 -2.55235E+01
  -3.69181E+01 -5.07373E+01 -5.58071E+01 -5.80424E+01 -5.94055E+01 -6.05306E+01 -6.13153E+01 -6.21323E+01 -6.26358E+01 -6.33188E+01
  -6.36587E+01 -6.42494E+01 -6.44483E+01 -6.49120E+01 -6.49427E+01 -6.52692E+01 -6.51357E+01 -6.53004E+01 -6.50591E+01 -6.51107E+01
  -6.47365E+01 -6.46169E+01 -6.40840E+01 -6.37589E+01 -6.30321E+01 -6.24312E+01 -6.14851E+01 -6.05992E+01 -5.93458E+01 -5.80709E+01
  -5.69148E+01 -5.55301E+01 -5.46102E+01 -5.31991E+01 -5.25828E+01 -5.12609E+01 -5.10835E+01 -4.95516E+01 -4.96654E+01 -4.80328E+01
  -4.85195E+01 -4.68807E+01 -4.76875E+01 -4.60285E+01 -4.70609E+01 -4.53369E+01 -4.64330E+01 -4.45990E+01 -4.55018E+01 -4.34647E+01
  -4.41250E+01 -4.20336E+01 -4.23598E+01 -4.02731E+01 -4.02283E+01 -3.82644E+01 -3.78886E+01 -3.59212E+01 -3.52848E+01 -3.34168E+01
  -3.27168E+01 -3.10668E+01 -3.04305E+01 -2.90423E+01 -2.84786E+01 -2.72508E+01 -2.66101E+01 -2.53217E+01 -2.43438E+01 -2.27519E+01
  -2.19480E+01 -2.04888E+01 -1.97708E+01 -1.84713E+01 -1.78722E+01 -1.68116E+01 -1.63647E+01 -1.50142E+01 -1.43541E+01 -1.30174E+01
  -1.23316E+01 -1.11366E+01 -1.04887E+01 -9.49216E+00 -8.88381E+00 -8.04710E+00 -7.41779E+00 -6.61823E+00 -5.86556E+00 -4.93861E+00
  -4.25027E+00 -3.48007E+00 -2.83010E+00 -2.20351E+00 -1.58750E+00 -1.09984E+00 -4.85432E-01  2.00299E-01  9.34492E-01  1.70440E+00
   2.51010E+00  3.34570E+00  4.21338E+00  5.10788E+00  6.03086E+00  6.97620E+00  7.94411E+00  8.92704E+00  9.92345E+00  1.09243E+01
   1.19262E+01  1.29187E+01  1.38968E+01  1.48491E+01  1.57700E+01  1.66480E+01  1.74777E+01  1.82486E+01  1.89566E+01  1.95936E+01
   2.01578E+01  2.06439E+01  2.10533E+01  2.13841E+01  2.16407E+01  2.18243E+01  2.19421E+01  2.19976E+01  2.19999E+01  2.19538E+01
   2.18690E+01  2.17506E+01  2.16079E+01  2.14455E+01  2.12712E+01  2.10884E+01  2.09033E+01  2.07178E+01  2.05362E+01  2.03588E+01
   2.01885E+01  2.00243E+01  1.98676E+01  1.97167E+01  1.95722E+01  1.94317E+01  1.92953E+01  1.91602E+01  1.90265E+01  1.88915E+01
   1.87550E+01  1.86144E+01  1.84697E+01  1.83185E+01  1.81608E+01  1.79947E+01  1.78202E+01  1.76360E+01  1.74425E+01  1.72387E+01
   1.70250E+01  1.68007E+01  1.65662E+01  1.63210E+01  1.60655E+01  1.57993E+01  1.55229E+01  1.52361E+01  1.49392E+01  1.46322E+01
   1.43155E+01  1.39890E+01  1.36532E+01  1.33082E+01  1.29542E+01  1.25914E+01  1.22202E+01  1.18409E+01  1.14535E+01  1.10586E+01
   1.06562E+01  1.02470E+01  9.83079E+00  9.40837E+00  8.97957E+00  8.54520E+00  8.10502E+00  7.65997E+00  7.20974E+00  6.75532E+00
   6.29630E+00  5.83378E+00  5.36729E+00  4.89804E+00  4.42546E+00  3.95081E+00  3.47345E+00  2.99474E+00  2.51399E+00  2.03264E+00
   1.54990E+00  1.06728E+00  5.83916E-01  1.01434E-01 -3.81104E-01 -8.61984E-01 -1.34224E+00 -1.82009E+00 -2.29662E+00 -2.76992E+00
  -3.24115E+00 -3.70831E+00 -4.17264E+00 -4.63203E+00 -5.08771E+00 -5.53744E+00 -5.98243E+00 -6.42022E+00
 NY background values follow
    -4.229E+01   -4.202E+01   -4.174E+01   -4.146E+01   -4.118E+01   -4.090E+01   -4.061E+01   -4.032E+01   -4.004E+01   -3.975E+01
    -3.946E+01   -3.916E+01   -3.887E+01   -3.858E+01   -3.829E+01   -3.800E+01   -3.771E+01   -3.741E+01   -3.712E+01   -3.683E+01
    -3.655E+01   -3.626E+01   -3.597E+01   -3.569E+01   -3.541E+01   -3.513E+01   -3.486E+01   -3.458E+01   -3.431E+01   -3.405E+01
    -3.378E+01   -3.352E+01   -3.327E+01   -3.301E+01   -3.277E+01   -3.252E+01   -3.229E+01   -3.205E+01   -3.182E+01   -3.160E+01
    -3.138E+01   -3.117E+01   -3.097E+01   -3.077E+01   -3.058E+01   -3.039E+01   -3.021E+01   -3.004E+01   -2.988E+01   -2.972E+01
    -2.957E+01   -2.943E+01   -2.930E+01   -2.918E+01   -2.906E+01   -2.895E+01   -2.886E+01   -2.877E+01   -2.869E+01   -2.862E+01
    -2.857E+01   -2.852E+01   -2.848E+01   -2.845E+01   -2.844E+01   -2.843E+01   -2.843E+01   -2.845E+01   -2.847E+01   -2.850E+01
    -2.854E+01   -2.858E+01   -2.864E+01   -2.870E+01   -2.876E+01   -2.884E+01   -2.892E+01   -2.900E+01   -2.909E+01   -2.919E+01
    -2.929E+01   -2.939E+01   -2.950E+01   -2.961E+01   -2.972E+01   -2.984E+01   -2.995E+01   -3.007E+01   -3.019E+01   -3.032E+01
    -3.044E+01   -3.056E+01   -3.069E+01   -3.081E+01   -3.093E+01   -3.105E+01   -3.117E+01   -3.129E+01   -3.140E+01   -3.152E+01
    -3.163E+01   -3.173E+01   -3.183E+01   -3.193E+01   -3.203E+01   -3.211E+01   -3.220E+01   -3.227E+01   -3.235E+01   -3.241E+01
    -3.247E+01   -3.252E+01   -3.256E+01   -3.260E+01   -3.263E+01   -3.265E+01   -3.266E+01   -3.266E+01   -3.265E+01   -3.263E+01
    -3.260E+01   -3.256E+01   -3.251E+01   -3.244E+01   -3.237E+01   -3.228E+01   -3.218E+01   -3.207E+01   -3.194E+01   -3.181E+01
    -3.167E+01   -3.151E+01   -3.135E+01   -3.118E+01   -3.100E+01   -3.081E+01   -3.062E+01   -3.041E+01   -3.020E+01   -2.999E+01
    -2.977E+01   -2.954E+01   -2.931E+01   -2.908E+01   -2.884E+01   -2.860E+01   -2.836E+01   -2.811E+01   -2.786E+01   -2.761E+01
    -2.736E+01   -2.711E+01   -2.686E+01   -2.661E+01   -2.637E+01   -2.612E+01   -2.587E+01   -2.563E+01   -2.539E+01   -2.516E+01
    -2.492E+01   -2.470E+01   -2.447E+01   -2.425E+01   -2.404E+01   -2.384E+01   -2.364E+01   -2.344E+01   -2.326E+01   -2.308E+01
    -2.291E+01   -2.276E+01   -2.261E+01   -2.247E+01   -2.234E+01   -2.222E+01   -2.211E+01   -2.202E+01   -2.194E+01   -2.187E+01
    -2.181E+01   -2.177E+01   -2.174E+01   -2.172E+01   -2.173E+01   -2.174E+01   -2.178E+01   -2.183E+01   -2.189E+01   -2.197E+01
    -2.207E+01   -2.219E+01   -2.232E+01   -2.246E+01   -2.262E+01   -2.280E+01   -2.299E+01   -2.320E+01   -2.342E+01   -2.365E+01
    -2.390E+01   -2.416E+01   -2.443E+01   -2.472E+01   -2.502E+01   -2.534E+01   -2.566E+01   -2.600E+01   -2.635E+01   -2.672E+01
    -2.709E+01   -2.748E+01   -2.788E+01   -2.828E+01   -2.870E+01   -2.913E+01   -2.957E+01   -3.002E+01   -3.048E+01   -3.095E+01
    -3.143E+01   -3.192E+01   -3.242E+01   -3.292E+01   -3.344E+01   -3.396E+01   -3.449E+01   -3.503E+01   -3.558E+01   -3.613E+01
    -3.669E+01   -3.726E+01   -3.784E+01   -3.842E+01   -3.901E+01   -3.960E+01   -4.020E+01   -4.081E+01   -4.142E+01   -4.204E+01
    -4.266E+01   -4.328E+01   -4.391E+01   -4.455E+01   -4.519E+01   -4.583E+01   -4.648E+01   -4.713E+01   -4.778E+01   -4.844E+01
    -4.910E+01   -4.976E+01   -5.042E+01   -5.108E+01   -5.174E+01   -5.241E+01   -5.307E+01   -5.373E+01   -5.438E+01   -5.504E+01
    -5.569E+01   -5.634E+01   -5.698E+01   -5.761E+01   -5.824E+01   -5.887E+01   -5.948E+01   -6.009E+01   -6.069E+01   -6.128E+01
    -6.186E+01   -6.243E+01   -6.299E+01   -6.353E+01   -6.407E+01   -6.459E+01   -6.510E+01   -6.559E+01   -6.607E+01   -6.654E+01
    -6.699E+01   -6.742E+01   -6.783E+01   -6.823E+01   -6.861E+01   -6.897E+01   -6.931E+01   -6.963E+01   -6.992E+01   -7.020E+01
    -7.046E+01   -7.069E+01   -7.090E+01   -7.108E+01   -7.124E+01   -7.138E+01   -7.148E+01   -7.157E+01   -7.162E+01   -7.165E+01
    -7.165E+01   -7.162E+01   -7.156E+01   -7.147E+01   -7.135E+01   -7.120E+01   -7.101E+01   -7.080E+01   -7.055E+01   -7.026E+01
    -6.995E+01   -6.959E+01   -6.920E+01   -6.878E+01   -6.832E+01   -6.784E+01   -6.731E+01   -6.676E+01   -6.618E+01   -6.557E+01
    -6.493E+01   -6.426E+01   -6.357E+01   -6.285E+01   -6.210E+01   -6.133E+01   -6.054E+01   -5.972E+01   -5.888E+01   -5.802E+01
    -5.714E+01   -5.624E+01   -5.533E+01   -5.439E+01   -5.344E+01   -5.247E+01   -5.149E+01   -5.049E+01   -4.948E+01   -4.845E+01
    -4.742E+01   -4.637E+01   -4.531E+01   -4.425E+01   -4.317E+01   -4.209E+01   -4.100E+01   -3.990E+01   -3.880E+01   -3.770E+01
    -3.659E+01   -3.548E+01   -3.436E+01   -3.325E+01   -3.213E+01   -3.102E+01   -2.991E+01   -2.879E+01   -2.769E+01   -2.658E+01
    -2.548E+01   -2.439E+01   -2.330E+01   -2.223E+01   -2.115E+01   -2.009E+01   -1.904E+01   -1.800E+01   -1.697E+01   -1.595E+01
    -1.494E+01   -1.395E+01   -1.297E+01   -1.201E+01   -1.107E+01   -1.014E+01   -9.228E+00   -8.332E+00   -7.452E+00   -6.588E+00
    -5.741E+00   -4.910E+00   -4.095E+00   -3.297E+00   -2.515E+00   -1.749E+00   -9.997E-01   -2.667E-01    4.499E-01    1.150E+00
     1.834E+00    2.502E+00    3.153E+00    3.787E+00    4.405E+00    5.007E+00    5.593E+00    6.161E+00    6.714E+00    7.250E+00
     7.769E+00    8.272E+00    8.758E+00    9.228E+00    9.682E+00    1.012E+01    1.054E+01    1.094E+01    1.133E+01    1.170E+01
     1.205E+01    1.239E+01    1.271E+01    1.302E+01    1.330E+01    1.357E+01    1.383E+01    1.407E+01    1.429E+01    1.449E+01
     1.468E+01    1.485E+01    1.500E+01    1.514E+01    1.526E+01    1.536E+01    1.545E+01    1.552E+01    1.557E+01    1.561E+01
     1.563E+01    1.563E+01    1.562E+01    1.559E+01    1.554E+01    1.548E+01    1.540E+01    1.530E+01    1.519E+01    1.506E+01
     1.491E+01    1.475E+01    1.458E+01    1.439E+01    1.418E+01    1.397E+01    1.374E+01    1.350E+01    1.324E+01    1.297E+01
     1.269E+01    1.240E+01    1.210E+01    1.179E+01    1.146E+01    1.113E+01    1.079E+01    1.043E+01    1.007E+01    9.703E+00
     9.325E+00    8.939E+00    8.545E+00    8.143E+00    7.735E+00    7.321E+00    6.900E+00    6.473E+00    6.041E+00    5.604E+00
     5.162E+00    4.715E+00    4.265E+00    3.811E+00    3.353E+00    2.893E+00    2.430E+00    1.964E+00    1.497E+00    1.028E+00
     5.582E-01    8.729E-02   -3.841E-01   -8.557E-01   -1.327E+00   -1.798E+00   -2.268E+00   -2.736E+00   -3.203E+00   -3.668E+00
    -4.131E+00   -4.591E+00   -5.048E+00   -5.502E+00   -5.951E+00   -6.397E+00   -6.838E+00   -7.275E+00
 Ala      Conc. = 1.63E+03
