 LCModel (Version 6.3-1L) Copyright: S.W. Provencher.          Ref.: Magn. Reson. Med. 30:672-679 (1993).                
 Slice#1 Row#5 Col#10  PD_24_press_2_raw_act
 36 lines in following concentration table = NCONC+1
    Conc.  %SD /Cr+PCr  Metabolite                                         
 1.51E+03  38%   1.367 Ala                                                 
    0.000 999%   0.000 Asp                                                 
 1.11E+03  12%   1.000 Cr                                                  
    0.000 999%   0.000 PCr                                                 
  179.753 134%   0.162 GABA                                                
  128.840 181%   0.116 Glc                                                 
 4.48E+03  30%   4.047 Gln                                                 
 2.47E+03  64%   2.232 Glu                                                 
  642.068   8%   0.580 GPC                                                 
    0.000 999%   0.000 PCh                                                 
  192.058 135%   0.173 GSH                                                 
 2.22E+03  27%   2.005 Ins                                                 
    0.000 999%   0.000 Lac                                                 
 2.45E+03  17%   2.207 NAA                                                 
  640.243  66%   0.578 NAAG                                                
  199.538  29%   0.180 Scyllo                                              
  345.175  98%   0.312 Tau                                                 
  597.993  42%   0.540 -CrCH2                                              
  642.068   8%   0.580 GPC+PCh                                             
 3.09E+03   6%   2.785 NAA+NAAG                                            
 1.11E+03  12%   1.000 Cr+PCr                                              
 6.96E+03  38%   6.279 Glu+Gln                                             
 2.46E+03  16%   2.216 Lip13a                                              
    0.000 999%   0.000 Lip13b                                              
    0.000 999%   0.000 Lip09                                               
 1.38E+03  17%   1.243 MM09                                                
  810.655  34%   0.732 Lip20                                               
 3.51E+03  15%   3.165 MM20                                                
  400.653  41%   0.362 MM12                                                
    0.000 999%   0.000 MM14                                                
 1.37E+03  23%   1.240 MM17                                                
 2.46E+03  16%   2.216 Lip13a+Lip13b                                       
 2.86E+03  14%   2.578 MM14+Lip13a+Lip13b+MM12                             
 1.38E+03  17%   1.243 MM09+Lip09                                          
 4.32E+03  13%   3.896 MM20+Lip20                                          
   6 lines in following misc. output table
  FWHM = 0.122 ppm    S/N =   6                                            
  Data shift =-0.031 ppm                                                   
  Ph: -60 deg     -15.2 deg/ppm                                            
  alphaB,S = 8.5E+01,   1.5E+02                                            
   14 spline knots.   Ns = 6(2)                                            
   2 inflections.     1 extrema                                            
  498 points on ppm-axis = NY
      4.000000     3.992357     3.984714     3.977070     3.969427     3.961784     3.954141     3.946497     3.938854     3.931211
      3.923568     3.915925     3.908281     3.900638     3.892995     3.885352     3.877708     3.870065     3.862422     3.854779
      3.847136     3.839492     3.831849     3.824206     3.816563     3.808919     3.801276     3.793633     3.785990     3.778347
      3.770703     3.763060     3.755417     3.747774     3.740130     3.732487     3.724844     3.717201     3.709558     3.701914
      3.694271     3.686628     3.678985     3.671341     3.663698     3.656055     3.648412     3.640769     3.633125     3.625482
      3.617839     3.610196     3.602552     3.594909     3.587266     3.579623     3.571980     3.564336     3.556693     3.549050
      3.541407     3.533763     3.526120     3.518477     3.510834     3.503191     3.495547     3.487904     3.480261     3.472618
      3.464974     3.457331     3.449688     3.442045     3.434402     3.426758     3.419115     3.411472     3.403829     3.396185
      3.388542     3.380899     3.373256     3.365613     3.357969     3.350326     3.342683     3.335040     3.327396     3.319753
      3.312110     3.304467     3.296824     3.289180     3.281537     3.273894     3.266251     3.258607     3.250964     3.243321
      3.235678     3.228034     3.220391     3.212748     3.205105     3.197462     3.189818     3.182175     3.174532     3.166889
      3.159245     3.151602     3.143959     3.136316     3.128673     3.121029     3.113386     3.105743     3.098100     3.090456
      3.082813     3.075170     3.067527     3.059884     3.052240     3.044597     3.036954     3.029311     3.021667     3.014024
      3.006381     2.998738     2.991095     2.983451     2.975808     2.968165     2.960522     2.952878     2.945235     2.937592
      2.929949     2.922306     2.914662     2.907019     2.899376     2.891733     2.884089     2.876446     2.868803     2.861160
      2.853517     2.845873     2.838230     2.830587     2.822944     2.815300     2.807657     2.800014     2.792371     2.784728
      2.777084     2.769441     2.761798     2.754155     2.746511     2.738868     2.731225     2.723582     2.715939     2.708295
      2.700652     2.693009     2.685366     2.677722     2.670079     2.662436     2.654793     2.647150     2.639506     2.631863
      2.624220     2.616577     2.608933     2.601290     2.593647     2.586004     2.578361     2.570717     2.563074     2.555431
      2.547788     2.540144     2.532501     2.524858     2.517215     2.509572     2.501928     2.494285     2.486642     2.478999
      2.471355     2.463712     2.456069     2.448426     2.440783     2.433139     2.425496     2.417853     2.410210     2.402566
      2.394923     2.387280     2.379637     2.371994     2.364350     2.356707     2.349064     2.341421     2.333777     2.326134
      2.318491     2.310848     2.303205     2.295561     2.287918     2.280275     2.272632     2.264988     2.257345     2.249702
      2.242059     2.234416     2.226772     2.219129     2.211486     2.203843     2.196199     2.188556     2.180913     2.173270
      2.165627     2.157983     2.150340     2.142697     2.135054     2.127410     2.119767     2.112124     2.104481     2.096838
      2.089194     2.081551     2.073908     2.066265     2.058621     2.050978     2.043335     2.035692     2.028049     2.020405
      2.012762     2.005119     1.997476     1.989833     1.982190     1.974546     1.966903     1.959260     1.951617     1.943974
      1.936331     1.928688     1.921045     1.913402     1.905759     1.898115     1.890472     1.882829     1.875186     1.867543
      1.859900     1.852257     1.844614     1.836971     1.829327     1.821684     1.814041     1.806398     1.798755     1.791112
      1.783469     1.775826     1.768183     1.760540     1.752896     1.745253     1.737610     1.729967     1.722324     1.714681
      1.707038     1.699395     1.691752     1.684108     1.676465     1.668822     1.661179     1.653536     1.645893     1.638250
      1.630607     1.622964     1.615321     1.607677     1.600034     1.592391     1.584748     1.577105     1.569462     1.561819
      1.554176     1.546533     1.538890     1.531246     1.523603     1.515960     1.508317     1.500674     1.493031     1.485388
      1.477745     1.470102     1.462458     1.454815     1.447172     1.439529     1.431886     1.424243     1.416600     1.408957
      1.401314     1.393671     1.386027     1.378384     1.370741     1.363098     1.355455     1.347812     1.340169     1.332526
      1.324883     1.317240     1.309596     1.301953     1.294310     1.286667     1.279024     1.271381     1.263738     1.256095
      1.248452     1.240808     1.233165     1.225522     1.217879     1.210236     1.202593     1.194950     1.187307     1.179664
      1.172021     1.164377     1.156734     1.149091     1.141448     1.133805     1.126162     1.118519     1.110876     1.103233
      1.095590     1.087946     1.080303     1.072660     1.065017     1.057374     1.049731     1.042088     1.034445     1.026802
      1.019158     1.011515     1.003872     0.996229     0.988586     0.980943     0.973300     0.965657     0.958014     0.950371
      0.942727     0.935084     0.927441     0.919798     0.912155     0.904512     0.896869     0.889226     0.881583     0.873940
      0.866296     0.858653     0.851010     0.843367     0.835724     0.828081     0.820438     0.812795     0.805152     0.797508
      0.789865     0.782222     0.774579     0.766936     0.759293     0.751650     0.744007     0.736364     0.728721     0.721077
      0.713434     0.705791     0.698148     0.690505     0.682862     0.675219     0.667576     0.659933     0.652290     0.644646
      0.637003     0.629360     0.621717     0.614074     0.606431     0.598788     0.591145     0.583502     0.575858     0.568215
      0.560572     0.552929     0.545286     0.537643     0.530000     0.522357     0.514714     0.507071     0.499427     0.491784
      0.484141     0.476498     0.468855     0.461212     0.453569     0.445925     0.438282     0.430639     0.422996     0.415353
      0.407710     0.400067     0.392424     0.384780     0.377137     0.369494     0.361851     0.354208     0.346565     0.338922
      0.331278     0.323635     0.315992     0.308349     0.300706     0.293063     0.285420     0.277777     0.270133     0.262490
      0.254847     0.247204     0.239561     0.231918     0.224275     0.216631     0.208988     0.201345
 NY phased data points follow
   3.04640E+00  1.60264E+01  1.64608E+01  1.01906E+01  1.03909E+01  7.13711E+00  1.00882E+01  1.44888E+01  1.57413E+01  9.12123E+00
   1.32669E+01  1.32776E+01  1.80184E+01  1.28321E+01  6.87034E+00  1.60504E+01  2.40525E+01  2.04828E+01  1.50092E+01  2.58264E+01
   9.89264E+00  1.54762E+01  1.64652E+01  1.53059E+01  9.77512E+00  9.40086E+00  1.39809E+01  1.07727E+01  8.69229E+00  1.72295E+01
   9.51311E+00  7.31018E+00  8.28722E+00  1.42170E+01  6.26148E+00  1.29517E+01  1.26815E+01  1.19592E+01  1.38031E+01  1.62899E+01
   1.98530E+01  1.51333E+01  2.13978E+01  1.80053E+01  1.34825E+01  1.01655E+01  1.60816E+01  1.89295E+01  1.19107E+01  9.72240E+00
   2.11282E+01  1.13406E+01  1.24507E+01  2.15164E+01  2.29725E+01  2.46034E+01  1.31022E+01  1.89435E+01  7.06829E+00  1.08866E+01
   1.59728E+01  6.65500E+00  1.00039E+01  8.19076E+00  7.71692E+00  5.76705E+00  8.16658E+00  5.84410E+00  1.97692E+00  1.46377E+01
   8.51426E+00  1.13424E+01  9.39449E+00  8.25744E+00  7.65411E+00  1.24894E+01  7.98496E+00  3.52585E+00  6.20488E+00  1.53904E+01
   4.96117E+00  2.03043E+01  5.82293E+00  9.87883E+00  1.03828E+01  1.80741E+01  1.04566E+01  1.16577E+01  1.26978E+01  1.68563E+01
   5.48573E+00  1.55020E+01  5.58798E+00  1.51245E+01  1.92281E+01  1.37157E+01  1.77062E+01  1.89567E+01  3.07334E+01  2.38588E+01
   3.23829E+01  2.99409E+01  2.63539E+01  3.61386E+01  3.07337E+01  3.16336E+01  3.00307E+01  2.74246E+01  3.39022E+01  2.55631E+01
   3.64911E+01  2.52725E+01  2.46608E+01  1.78332E+01  1.24221E+01  6.73107E+00  5.39495E+00  1.30156E+01  3.92393E+00  1.24116E+01
   2.53479E+00  1.55290E+01  9.49317E+00  2.00571E+01  1.78219E+01  2.17750E+01  2.79654E+01  2.52604E+01  2.26564E+01  3.12908E+01
   2.24959E+01  1.68574E+01  1.01119E+01  1.96356E+01  1.99431E+01  2.15156E+01  1.97237E+01  1.69321E+01  1.39961E+01  3.64630E+00
   1.24729E+00  1.17562E+01  8.87496E-01  6.12558E+00  6.24040E+00  1.12130E+01  1.01906E+01  1.52652E+01  2.21412E+00  3.03363E+00
   3.54607E+00  7.50276E+00  9.56636E+00  5.81977E+00  3.66005E+00  5.70312E+00  1.93436E+00  7.66798E+00 -1.12223E+00  1.78446E+01
   2.51810E+00  4.48520E+00 -1.41720E-01  7.30166E+00  1.07692E+00 -8.76305E-02  1.45389E+00 -9.75993E-02 -1.09209E+00  2.48371E+00
  -8.06446E+00 -7.74580E+00 -1.28271E+01 -6.41639E+00 -4.95612E+00 -9.43397E+00 -2.06415E+00 -8.06264E+00 -1.22829E+01 -1.68825E+01
  -9.99738E+00 -1.20261E+01 -9.26286E+00 -7.94012E+00 -2.33198E+00 -7.06493E+00  1.30659E+00 -3.13656E+00  9.54129E-01  3.08809E-01
  -5.68877E+00 -9.70645E+00 -1.86126E+00  6.70697E+00 -2.97458E-02 -8.97459E+00 -4.15125E+00 -6.88694E+00  3.12373E+00  7.74715E+00
  -1.50065E+00 -4.31838E+00  3.75019E+00  3.98185E-01  4.45670E+00  6.62846E+00 -1.80141E+00  4.32841E+00  2.21859E+00  9.19725E+00
   1.24240E+00  5.52256E+00  8.57476E+00  9.59083E+00  1.22968E+01  3.83142E+00  5.45835E+00  1.80872E+01  1.64185E+01  1.64132E+01
   1.22331E+01  1.17320E+01  8.38573E+00  1.79887E+01  9.22392E+00  8.39363E+00  1.51811E+01  3.81770E+00  1.12943E+01  9.00300E+00
   6.19549E+00  1.21964E+01  7.03592E+00  1.47179E+01  1.28954E+01  2.04649E+01  1.50112E+01  1.07597E+01  1.02818E+01  1.84854E+01
   1.04363E+01  9.03775E+00  1.22320E+01  6.86769E+00  2.02246E+01  2.33167E+01  1.81576E+01  2.26938E+01  1.96368E+01  2.74388E+01
   2.48663E+01  3.71430E+01  3.67802E+01  3.77944E+01  4.49008E+01  4.56128E+01  5.23116E+01  6.23320E+01  5.99309E+01  6.17565E+01
   6.14484E+01  7.48728E+01  7.08492E+01  6.56937E+01  5.54452E+01  5.10653E+01  4.84308E+01  4.68488E+01  3.93548E+01  4.68384E+01
   4.04446E+01  2.28071E+01  2.88698E+01  2.37514E+01  2.48022E+01  2.10069E+01  2.47740E+01  8.79965E+00  9.96978E+00  1.51100E+01
   1.90413E+01  2.69235E+01  2.14661E+01  1.27109E+01  2.43958E+01  1.77203E+01  1.64355E+01  1.65431E+01  1.56875E+01  1.46362E+01
   1.79631E+01  1.25451E+01  1.90315E+01  1.49482E+01  6.02527E+00 -3.13537E+00  7.71489E+00  9.63842E+00  4.02139E-02  1.15571E+01
   1.46220E+01  1.92757E+00  2.48376E+00  6.74296E+00  1.46314E+01  9.90868E+00  3.16381E+00  3.34655E+00  1.17085E+01  8.19520E+00
   1.84341E+01  1.26977E+01  1.91423E+01  8.46547E+00  8.85140E+00  9.96731E+00  8.19488E+00  1.24543E+01  3.78796E+00  4.06500E+00
   7.14151E+00 -2.85521E+00  2.82733E+00  3.23394E+00 -7.46112E+00 -1.76537E+00 -3.73229E+00 -4.54338E-01 -7.99946E+00 -9.89798E+00
  -1.20350E+01 -1.55950E+01 -1.30106E+01 -6.92623E+00 -5.29453E+00 -2.21110E-01  5.12348E+00  3.21477E+00 -2.25530E+00  8.55905E+00
   6.03846E+00  1.07885E+01  1.42132E+01  1.22470E+01  1.35945E+01  1.18229E+01  2.01461E+01  5.73778E+00  2.57996E+01  2.46751E+01
   1.83449E+01  1.55229E+01  2.62349E+01  2.07472E+01  2.50243E+01  2.80668E+01  2.00190E+01  2.52666E+01  2.36442E+01  1.94496E+01
   2.16507E+01  2.56174E+01  1.55875E+01  1.72545E+01  1.49414E+01  2.25484E+01  1.88179E+01  2.02111E+01  1.88682E+01  1.92537E+01
   9.81681E+00  9.32478E+00  1.01011E+01  1.38459E+01  1.37104E+01  1.03106E+01  4.13105E+00  1.36152E+01  7.81045E+00  6.29321E+00
   6.98676E-01  4.56916E+00  3.17683E+00  5.75344E+00 -2.67992E+00  6.61481E+00  7.65503E+00 -4.35892E+00 -2.97965E+00 -5.69509E+00
  -6.42265E+00  2.28719E+00 -9.23929E-01  3.21304E+00 -4.07658E+00  9.96264E+00  2.27907E+00  1.17238E+00  1.30062E+01  6.39691E+00
   6.72631E+00  9.63900E+00  4.51351E+00  6.96327E+00  1.07987E+01  1.25884E+01  1.38803E+01  1.04526E+01  9.23629E+00  1.35000E+01
   1.07504E+01  8.09150E-01  1.16345E+01  1.36389E+01  1.34458E+01  1.74859E+01  1.18023E+01  7.24595E+00  5.56849E+00  8.99016E+00
   9.33224E+00  9.40023E+00  1.15236E+01  3.28101E-01  4.50261E+00  3.60763E+00  1.33369E+01  8.14116E+00  1.16088E+00  3.33479E+00
  -2.98492E+00  2.46992E+00  7.96964E+00 -4.85117E-01 -7.98998E-01  4.95557E-01  8.06452E+00  3.52631E+00  5.81548E+00  2.96735E+00
   1.27982E+01 -1.74158E+00  7.06393E+00  1.09795E+01  8.96559E-01  8.98027E+00  1.28700E+01  6.00681E+00  1.67013E+00  1.16186E+01
   8.61148E+00  2.79999E+00  5.11612E+00  3.37975E+00 -3.02192E-01  5.84425E-01  9.84101E+00  5.73503E+00  1.65746E+00  5.22102E+00
  -9.69358E-02  5.46940E+00  4.89434E+00  2.89100E+00 -1.20022E+00 -2.63472E+00 -3.05382E+00 -3.18463E+00 -1.93196E+00  1.30625E+00
   9.79156E+00  5.60246E+00  1.14367E+01  4.88702E+00  5.98520E+00  6.31496E+00 -2.29369E+00 -9.11023E-01  1.59865E+00  1.15686E+00
   1.64389E+00 -1.90179E+00 -1.17158E+00  5.56540E+00  2.80006E+00  2.35865E-01 -5.05056E-03 -3.11146E+00  5.90019E-01  1.92389E+00
   2.55934E+00  3.30938E+00  4.14954E+00 -2.82204E+00  4.12633E+00  4.79087E+00  2.54893E-01  5.19291E+00
 NY points of the fit to the data follow
   1.17112E+01  1.14497E+01  1.15025E+01  1.12233E+01  1.15206E+01  1.14290E+01  1.20277E+01  1.22130E+01  1.30450E+01  1.35759E+01
   1.43655E+01  1.51185E+01  1.58925E+01  1.63863E+01  1.65541E+01  1.67971E+01  1.62075E+01  1.65163E+01  1.53662E+01  1.60449E+01
   1.44003E+01  1.52414E+01  1.31942E+01  1.42329E+01  1.18457E+01  1.30266E+01  1.11073E+01  1.31979E+01  1.18284E+01  1.36700E+01
   1.26274E+01  1.39275E+01  1.30349E+01  1.35964E+01  1.30827E+01  1.34480E+01  1.38475E+01  1.41118E+01  1.52489E+01  1.52118E+01
   1.65066E+01  1.58920E+01  1.65116E+01  1.56713E+01  1.58853E+01  1.51904E+01  1.54411E+01  1.54422E+01  1.56551E+01  1.57555E+01
   1.56360E+01  1.54916E+01  1.48975E+01  1.44775E+01  1.38402E+01  1.32251E+01  1.24556E+01  1.16818E+01  1.08599E+01  1.01936E+01
   9.62493E+00  9.14913E+00  9.01086E+00  9.04739E+00  9.27346E+00  9.33954E+00  9.54533E+00  9.50522E+00  9.62880E+00  9.43117E+00
   9.47508E+00  9.19518E+00  9.24250E+00  9.00459E+00  9.23885E+00  9.34902E+00  9.58199E+00  9.83782E+00  9.89309E+00  1.01813E+01
   9.97961E+00  1.03840E+01  9.86792E+00  1.04409E+01  9.59871E+00  1.02955E+01  9.18493E+00  9.95536E+00  8.73308E+00  9.51741E+00
   8.62087E+00  1.08837E+01  1.10017E+01  1.38112E+01  1.46686E+01  1.74081E+01  1.90306E+01  2.15263E+01  2.40762E+01  2.59184E+01
   2.91342E+01  2.97110E+01  3.31619E+01  3.22589E+01  3.50486E+01  3.22314E+01  3.41519E+01  3.01297E+01  3.13229E+01  2.67958E+01
   2.72992E+01  2.20517E+01  2.16790E+01  1.61094E+01  1.53101E+01  1.17054E+01  1.08772E+01  9.93484E+00  9.58709E+00  1.20401E+01
   1.23155E+01  1.56549E+01  1.56435E+01  1.93556E+01  1.87993E+01  2.22931E+01  2.10577E+01  2.39216E+01  2.20208E+01  2.38391E+01
   2.15256E+01  2.23881E+01  1.99444E+01  2.00728E+01  1.75547E+01  1.66636E+01  1.42015E+01  1.23487E+01  1.03320E+01  8.21018E+00
   6.94609E+00  5.28061E+00  4.93965E+00  4.59095E+00  4.53325E+00  4.31511E+00  4.30459E+00  4.17310E+00  4.14210E+00  3.98633E+00
   3.87591E+00  3.66131E+00  3.48293E+00  3.29919E+00  3.05478E+00  2.89814E+00  2.61889E+00  2.46625E+00  2.15170E+00  2.00847E+00
   1.66084E+00  1.51737E+00  1.14591E+00  9.66531E-01  5.36218E-01  2.95881E-01 -1.24469E-01 -4.31493E-01 -8.06354E-01 -1.19114E+00
  -1.51096E+00 -1.90530E+00 -2.07559E+00 -2.48999E+00 -2.51752E+00 -2.98494E+00 -2.89561E+00 -3.30889E+00 -3.05697E+00 -3.23412E+00
  -2.81884E+00 -2.85275E+00 -2.43061E+00 -2.47566E+00 -2.18418E+00 -2.13775E+00 -2.08777E+00 -1.89735E+00 -1.95115E+00 -1.35085E+00
  -1.43622E+00 -4.85066E-01 -4.18368E-01  8.90684E-01  1.14718E+00  2.64690E+00  2.68543E+00  3.50640E+00  3.13516E+00  3.67141E+00
   2.91976E+00  3.17203E+00  1.96509E+00  2.12166E+00  8.72097E-01  1.44207E+00  2.09440E-01  1.37690E+00  1.65134E-01  1.69653E+00
   2.71872E-01  2.04418E+00  3.53605E-01  2.47456E+00  6.44853E-01  3.11353E+00  1.67772E+00  4.88569E+00  4.03817E+00  7.35846E+00
   7.06676E+00  9.91632E+00  9.49836E+00  1.09125E+01  9.90205E+00  9.94269E+00  8.78223E+00  9.04652E+00  8.54343E+00  9.02755E+00
   9.01785E+00  1.00011E+01  1.03688E+01  1.17538E+01  1.17119E+01  1.30858E+01  1.23304E+01  1.35520E+01  1.20665E+01  1.31187E+01
   1.14567E+01  1.28011E+01  1.13535E+01  1.33274E+01  1.29488E+01  1.53030E+01  1.57766E+01  1.80887E+01  2.04255E+01  2.39822E+01
   2.72954E+01  3.16053E+01  3.54256E+01  4.09724E+01  4.47557E+01  5.14325E+01  5.40224E+01  6.10222E+01  6.05067E+01  6.69119E+01
   6.32449E+01  6.85284E+01  6.20221E+01  6.55926E+01  5.71915E+01  5.92578E+01  5.01794E+01  5.12340E+01  4.18137E+01  4.15261E+01
   3.26162E+01  3.10136E+01  2.43007E+01  2.19147E+01  1.77193E+01  1.57291E+01  1.48908E+01  1.46770E+01  1.45155E+01  1.45131E+01
   1.46393E+01  1.47008E+01  1.48757E+01  1.49247E+01  1.50469E+01  1.49908E+01  1.49807E+01  1.47928E+01  1.46340E+01  1.43219E+01
   1.40457E+01  1.36311E+01  1.32284E+01  1.27038E+01  1.21870E+01  1.15850E+01  1.09984E+01  1.03589E+01  9.76112E+00  9.15217E+00
   8.59298E+00  8.05209E+00  7.56580E+00  7.11661E+00  6.71702E+00  6.36983E+00  6.06729E+00  5.82771E+00  5.63442E+00  5.51040E+00
   5.42833E+00  5.43358E+00  5.49998E+00  5.72057E+00  6.17335E+00  6.85476E+00  7.03422E+00  7.91598E+00  7.54589E+00  8.51948E+00
   7.42482E+00  8.32040E+00  6.23592E+00  7.60152E+00  4.73865E+00  6.49390E+00  3.03758E+00  5.09077E+00  1.31117E+00  3.70682E+00
   1.71835E-01  2.98898E+00  3.86016E-02  3.06939E+00  6.67260E-01  3.53750E+00  1.92073E+00  4.36219E+00  3.82296E+00  6.02520E+00
   6.60584E+00  8.87396E+00  1.04149E+01  1.25608E+01  1.38706E+01  1.51425E+01  1.62293E+01  1.69177E+01  1.78313E+01  1.83036E+01
   1.91550E+01  2.02137E+01  2.12738E+01  2.22927E+01  2.31576E+01  2.38652E+01  2.43298E+01  2.45722E+01  2.45313E+01  2.42524E+01
   2.36985E+01  2.29372E+01  2.19510E+01  2.08232E+01  1.95472E+01  1.82121E+01  1.68125E+01  1.54336E+01  1.40630E+01  1.27759E+01
   1.15478E+01  1.04411E+01  9.41896E+00  8.53214E+00  7.73388E+00  7.06662E+00  6.47751E+00  6.00469E+00  5.59298E+00  5.27963E+00
   5.00997E+00  4.82248E+00  4.66448E+00  4.57669E+00  4.50895E+00  4.50436E+00  4.51512E+00  4.58625E+00  4.67172E+00  4.81782E+00
   4.97955E+00  5.20364E+00  5.44519E+00  5.75040E+00  6.07343E+00  6.45894E+00  6.85922E+00  7.31643E+00  7.78016E+00  8.28946E+00
   8.79087E+00  9.32037E+00  9.82189E+00  1.03291E+01  1.07846E+01  1.12214E+01  1.15825E+01  1.19023E+01  1.21266E+01  1.22933E+01
   1.23526E+01  1.23474E+01  1.22333E+01  1.20585E+01  1.17838E+01  1.14621E+01  1.10579E+01  1.06269E+01  1.01357E+01  9.64059E+00
   9.10805E+00  8.59324E+00  8.06076E+00  7.56330E+00  7.06276E+00  6.60883E+00  6.16051E+00  5.76462E+00  5.37771E+00  5.04436E+00
   4.71938E+00  4.44588E+00  4.17765E+00  3.95704E+00  3.73750E+00  3.56113E+00  3.38150E+00  3.24077E+00  3.09281E+00  2.98004E+00
   2.85674E+00  2.76563E+00  2.66140E+00  2.58700E+00  2.49746E+00  2.43596E+00  2.35784E+00  2.30641E+00  2.23725E+00  2.19376E+00
   2.13170E+00  2.09453E+00  2.03818E+00  2.00614E+00  1.95446E+00  1.92662E+00  1.87876E+00  1.85438E+00  1.80973E+00  1.78827E+00
   1.74632E+00  1.72730E+00  1.68763E+00  1.67070E+00  1.63300E+00  1.61786E+00  1.58184E+00  1.56823E+00  1.53366E+00  1.52138E+00
   1.48808E+00  1.47696E+00  1.44476E+00  1.43462E+00  1.40338E+00  1.39411E+00  1.36372E+00  1.35519E+00  1.32551E+00  1.31763E+00
   1.28858E+00  1.28126E+00  1.25275E+00  1.24590E+00  1.21784E+00  1.21136E+00  1.18368E+00  1.17752E+00  1.15015E+00  1.14420E+00
   1.11703E+00  1.11123E+00  1.08420E+00  1.07847E+00  1.05148E+00  1.04570E+00  1.01863E+00  1.01271E+00
 NY background values follow
     2.214E+00    2.210E+00    2.206E+00    2.201E+00    2.197E+00    2.192E+00    2.188E+00    2.184E+00    2.179E+00    2.175E+00
     2.171E+00    2.166E+00    2.162E+00    2.157E+00    2.153E+00    2.149E+00    2.144E+00    2.140E+00    2.135E+00    2.131E+00
     2.127E+00    2.122E+00    2.118E+00    2.113E+00    2.109E+00    2.105E+00    2.100E+00    2.096E+00    2.092E+00    2.087E+00
     2.083E+00    2.078E+00    2.074E+00    2.070E+00    2.065E+00    2.061E+00    2.056E+00    2.052E+00    2.048E+00    2.043E+00
     2.039E+00    2.034E+00    2.030E+00    2.026E+00    2.021E+00    2.017E+00    2.012E+00    2.008E+00    2.004E+00    1.999E+00
     1.995E+00    1.990E+00    1.986E+00    1.982E+00    1.977E+00    1.973E+00    1.968E+00    1.964E+00    1.960E+00    1.955E+00
     1.951E+00    1.946E+00    1.942E+00    1.938E+00    1.933E+00    1.929E+00    1.924E+00    1.920E+00    1.916E+00    1.911E+00
     1.907E+00    1.902E+00    1.898E+00    1.894E+00    1.889E+00    1.885E+00    1.880E+00    1.876E+00    1.872E+00    1.867E+00
     1.863E+00    1.858E+00    1.854E+00    1.850E+00    1.845E+00    1.841E+00    1.836E+00    1.832E+00    1.828E+00    1.823E+00
     1.819E+00    1.814E+00    1.810E+00    1.805E+00    1.801E+00    1.797E+00    1.792E+00    1.788E+00    1.783E+00    1.779E+00
     1.775E+00    1.770E+00    1.766E+00    1.761E+00    1.757E+00    1.753E+00    1.748E+00    1.744E+00    1.739E+00    1.735E+00
     1.731E+00    1.726E+00    1.722E+00    1.717E+00    1.713E+00    1.708E+00    1.704E+00    1.700E+00    1.695E+00    1.691E+00
     1.686E+00    1.682E+00    1.678E+00    1.673E+00    1.669E+00    1.664E+00    1.660E+00    1.655E+00    1.651E+00    1.647E+00
     1.642E+00    1.638E+00    1.633E+00    1.629E+00    1.625E+00    1.620E+00    1.616E+00    1.611E+00    1.607E+00    1.603E+00
     1.598E+00    1.594E+00    1.589E+00    1.585E+00    1.580E+00    1.576E+00    1.572E+00    1.567E+00    1.563E+00    1.558E+00
     1.554E+00    1.549E+00    1.545E+00    1.541E+00    1.536E+00    1.532E+00    1.527E+00    1.523E+00    1.519E+00    1.514E+00
     1.510E+00    1.505E+00    1.501E+00    1.496E+00    1.492E+00    1.488E+00    1.483E+00    1.479E+00    1.474E+00    1.470E+00
     1.466E+00    1.461E+00    1.457E+00    1.452E+00    1.448E+00    1.443E+00    1.439E+00    1.435E+00    1.430E+00    1.426E+00
     1.421E+00    1.417E+00    1.412E+00    1.408E+00    1.404E+00    1.399E+00    1.395E+00    1.390E+00    1.386E+00    1.381E+00
     1.377E+00    1.373E+00    1.368E+00    1.364E+00    1.359E+00    1.355E+00    1.351E+00    1.346E+00    1.342E+00    1.337E+00
     1.333E+00    1.328E+00    1.324E+00    1.320E+00    1.315E+00    1.311E+00    1.306E+00    1.302E+00    1.297E+00    1.293E+00
     1.289E+00    1.284E+00    1.280E+00    1.275E+00    1.271E+00    1.266E+00    1.262E+00    1.258E+00    1.253E+00    1.249E+00
     1.244E+00    1.240E+00    1.236E+00    1.231E+00    1.227E+00    1.222E+00    1.218E+00    1.213E+00    1.209E+00    1.205E+00
     1.200E+00    1.196E+00    1.191E+00    1.187E+00    1.182E+00    1.178E+00    1.174E+00    1.169E+00    1.165E+00    1.160E+00
     1.156E+00    1.151E+00    1.147E+00    1.143E+00    1.138E+00    1.134E+00    1.129E+00    1.125E+00    1.120E+00    1.116E+00
     1.112E+00    1.107E+00    1.103E+00    1.098E+00    1.094E+00    1.090E+00    1.085E+00    1.081E+00    1.076E+00    1.072E+00
     1.067E+00    1.063E+00    1.059E+00    1.054E+00    1.050E+00    1.045E+00    1.041E+00    1.036E+00    1.032E+00    1.028E+00
     1.023E+00    1.019E+00    1.014E+00    1.010E+00    1.005E+00    1.001E+00    9.966E-01    9.922E-01    9.878E-01    9.833E-01
     9.789E-01    9.745E-01    9.701E-01    9.656E-01    9.612E-01    9.568E-01    9.524E-01    9.479E-01    9.435E-01    9.391E-01
     9.347E-01    9.303E-01    9.258E-01    9.214E-01    9.170E-01    9.126E-01    9.081E-01    9.037E-01    8.993E-01    8.949E-01
     8.905E-01    8.860E-01    8.816E-01    8.772E-01    8.728E-01    8.684E-01    8.639E-01    8.595E-01    8.551E-01    8.507E-01
     8.463E-01    8.418E-01    8.374E-01    8.330E-01    8.286E-01    8.242E-01    8.197E-01    8.153E-01    8.109E-01    8.065E-01
     8.021E-01    7.976E-01    7.932E-01    7.888E-01    7.844E-01    7.800E-01    7.755E-01    7.711E-01    7.667E-01    7.623E-01
     7.579E-01    7.535E-01    7.490E-01    7.446E-01    7.402E-01    7.358E-01    7.314E-01    7.270E-01    7.225E-01    7.181E-01
     7.137E-01    7.093E-01    7.049E-01    7.005E-01    6.961E-01    6.916E-01    6.872E-01    6.828E-01    6.784E-01    6.740E-01
     6.696E-01    6.652E-01    6.607E-01    6.563E-01    6.519E-01    6.475E-01    6.431E-01    6.387E-01    6.343E-01    6.299E-01
     6.254E-01    6.210E-01    6.166E-01    6.122E-01    6.078E-01    6.034E-01    5.990E-01    5.946E-01    5.902E-01    5.858E-01
     5.813E-01    5.769E-01    5.725E-01    5.681E-01    5.637E-01    5.593E-01    5.549E-01    5.505E-01    5.461E-01    5.417E-01
     5.373E-01    5.329E-01    5.285E-01    5.241E-01    5.196E-01    5.152E-01    5.108E-01    5.064E-01    5.020E-01    4.976E-01
     4.932E-01    4.888E-01    4.844E-01    4.800E-01    4.756E-01    4.712E-01    4.668E-01    4.624E-01    4.580E-01    4.536E-01
     4.492E-01    4.448E-01    4.404E-01    4.360E-01    4.316E-01    4.272E-01    4.228E-01    4.184E-01    4.140E-01    4.096E-01
     4.052E-01    4.008E-01    3.964E-01    3.920E-01    3.876E-01    3.832E-01    3.788E-01    3.744E-01    3.700E-01    3.656E-01
     3.612E-01    3.568E-01    3.524E-01    3.480E-01    3.436E-01    3.393E-01    3.349E-01    3.305E-01    3.261E-01    3.217E-01
     3.173E-01    3.129E-01    3.085E-01    3.041E-01    2.997E-01    2.953E-01    2.909E-01    2.865E-01    2.822E-01    2.778E-01
     2.734E-01    2.690E-01    2.646E-01    2.602E-01    2.558E-01    2.514E-01    2.470E-01    2.427E-01    2.383E-01    2.339E-01
     2.295E-01    2.251E-01    2.207E-01    2.163E-01    2.120E-01    2.076E-01    2.032E-01    1.988E-01    1.944E-01    1.900E-01
     1.856E-01    1.813E-01    1.769E-01    1.725E-01    1.681E-01    1.637E-01    1.594E-01    1.550E-01    1.506E-01    1.462E-01
     1.418E-01    1.375E-01    1.331E-01    1.287E-01    1.243E-01    1.199E-01    1.156E-01    1.112E-01    1.068E-01    1.024E-01
     9.806E-02    9.368E-02    8.930E-02    8.493E-02    8.055E-02    7.618E-02    7.181E-02    6.743E-02    6.306E-02    5.869E-02
     5.431E-02    4.994E-02    4.557E-02    4.120E-02    3.683E-02    3.246E-02    2.809E-02    2.372E-02
 Ala      Conc. = 1.51E+03
