 LCModel (Version 6.3-1L) Copyright: S.W. Provencher.          Ref.: Magn. Reson. Med. 30:672-679 (1993).                
 Slice#1 Row#4 Col#12  PD_24_press_2_raw_act
 36 lines in following concentration table = NCONC+1
    Conc.  %SD /Cr+PCr  Metabolite                                         
    0.000 999%   0.000 Ala                                                 
    6.882  93%   2.579 Asp                                                 
    2.668 812%   1.000 Cr                                                  
    0.000 999%   0.000 PCr                                                 
    3.958  96%   1.484 GABA                                                
    4.014  95%   1.504 Glc                                                 
    0.000 999%   0.000 Gln                                                 
   20.157 348%   7.555 Glu                                                 
    0.000 999%   0.000 GPC                                                 
    6.580 133%   2.466 PCh                                                 
    0.000 999%   0.000 GSH                                                 
    0.000 999%   0.000 Ins                                                 
   17.574 209%   6.587 Lac                                                 
  108.859  48%  40.801 NAA                                                 
    0.000 999%   0.000 NAAG                                                
    1.507  84%   0.565 Scyllo                                              
    6.581  97%   2.467 Tau                                                 
    0.777 846%   0.291 -CrCH2                                              
    6.580 133%   2.466 GPC+PCh                                             
  108.859  48%  40.801 NAA+NAAG                                            
    2.668 812%   1.000 Cr+PCr                                              
   20.157 348%   7.555 Glu+Gln                                             
    0.000 999%   0.000 Lip13a                                              
    0.000 999%   0.000 Lip13b                                              
    0.000 999%   0.000 Lip09                                               
 1.17E+03  14% 437.959 MM09                                                
    0.000 999%   0.000 Lip20                                               
  913.582  34% 342.413 MM20                                                
  421.910  35% 158.133 MM12                                                
 1.37E+03  20% 513.160 MM14                                                
 1.76E+03  15% 659.429 MM17                                                
    0.000 999%   0.000 Lip13a+Lip13b                                       
 1.79E+03  17% 671.293 MM14+Lip13a+Lip13b+MM12                             
 1.17E+03  14% 437.959 MM09+Lip09                                          
  913.582  34% 342.413 MM20+Lip20                                          
   6 lines in following misc. output table
  FWHM = 0.031 ppm    S/N =   2                                            
  Data shift = 0.008 ppm                                                   
  Ph:  92 deg      41.9 deg/ppm                                            
  alphaB,S = 8.5E+01,   3.2E+00                                            
   14 spline knots.   Ns = 5(1)                                            
   2 inflections.     2 extrema                                            
  498 points on ppm-axis = NY
      4.000000     3.992357     3.984714     3.977070     3.969427     3.961784     3.954141     3.946497     3.938854     3.931211
      3.923568     3.915925     3.908281     3.900638     3.892995     3.885352     3.877708     3.870065     3.862422     3.854779
      3.847136     3.839492     3.831849     3.824206     3.816563     3.808919     3.801276     3.793633     3.785990     3.778347
      3.770703     3.763060     3.755417     3.747774     3.740130     3.732487     3.724844     3.717201     3.709558     3.701914
      3.694271     3.686628     3.678985     3.671341     3.663698     3.656055     3.648412     3.640769     3.633125     3.625482
      3.617839     3.610196     3.602552     3.594909     3.587266     3.579623     3.571980     3.564336     3.556693     3.549050
      3.541407     3.533763     3.526120     3.518477     3.510834     3.503191     3.495547     3.487904     3.480261     3.472618
      3.464974     3.457331     3.449688     3.442045     3.434402     3.426758     3.419115     3.411472     3.403829     3.396185
      3.388542     3.380899     3.373256     3.365613     3.357969     3.350326     3.342683     3.335040     3.327396     3.319753
      3.312110     3.304467     3.296824     3.289180     3.281537     3.273894     3.266251     3.258607     3.250964     3.243321
      3.235678     3.228034     3.220391     3.212748     3.205105     3.197462     3.189818     3.182175     3.174532     3.166889
      3.159245     3.151602     3.143959     3.136316     3.128673     3.121029     3.113386     3.105743     3.098100     3.090456
      3.082813     3.075170     3.067527     3.059884     3.052240     3.044597     3.036954     3.029311     3.021667     3.014024
      3.006381     2.998738     2.991095     2.983451     2.975808     2.968165     2.960522     2.952878     2.945235     2.937592
      2.929949     2.922306     2.914662     2.907019     2.899376     2.891733     2.884089     2.876446     2.868803     2.861160
      2.853517     2.845873     2.838230     2.830587     2.822944     2.815300     2.807657     2.800014     2.792371     2.784728
      2.777084     2.769441     2.761798     2.754155     2.746511     2.738868     2.731225     2.723582     2.715939     2.708295
      2.700652     2.693009     2.685366     2.677722     2.670079     2.662436     2.654793     2.647150     2.639506     2.631863
      2.624220     2.616577     2.608933     2.601290     2.593647     2.586004     2.578361     2.570717     2.563074     2.555431
      2.547788     2.540144     2.532501     2.524858     2.517215     2.509572     2.501928     2.494285     2.486642     2.478999
      2.471355     2.463712     2.456069     2.448426     2.440783     2.433139     2.425496     2.417853     2.410210     2.402566
      2.394923     2.387280     2.379637     2.371994     2.364350     2.356707     2.349064     2.341421     2.333777     2.326134
      2.318491     2.310848     2.303205     2.295561     2.287918     2.280275     2.272632     2.264988     2.257345     2.249702
      2.242059     2.234416     2.226772     2.219129     2.211486     2.203843     2.196199     2.188556     2.180913     2.173270
      2.165627     2.157983     2.150340     2.142697     2.135054     2.127410     2.119767     2.112124     2.104481     2.096838
      2.089194     2.081551     2.073908     2.066265     2.058621     2.050978     2.043335     2.035692     2.028049     2.020405
      2.012762     2.005119     1.997476     1.989833     1.982190     1.974546     1.966903     1.959260     1.951617     1.943974
      1.936331     1.928688     1.921045     1.913402     1.905759     1.898115     1.890472     1.882829     1.875186     1.867543
      1.859900     1.852257     1.844614     1.836971     1.829327     1.821684     1.814041     1.806398     1.798755     1.791112
      1.783469     1.775826     1.768183     1.760540     1.752896     1.745253     1.737610     1.729967     1.722324     1.714681
      1.707038     1.699395     1.691752     1.684108     1.676465     1.668822     1.661179     1.653536     1.645893     1.638250
      1.630607     1.622964     1.615321     1.607677     1.600034     1.592391     1.584748     1.577105     1.569462     1.561819
      1.554176     1.546533     1.538890     1.531246     1.523603     1.515960     1.508317     1.500674     1.493031     1.485388
      1.477745     1.470102     1.462458     1.454815     1.447172     1.439529     1.431886     1.424243     1.416600     1.408957
      1.401314     1.393671     1.386027     1.378384     1.370741     1.363098     1.355455     1.347812     1.340169     1.332526
      1.324883     1.317240     1.309596     1.301953     1.294310     1.286667     1.279024     1.271381     1.263738     1.256095
      1.248452     1.240808     1.233165     1.225522     1.217879     1.210236     1.202593     1.194950     1.187307     1.179664
      1.172021     1.164377     1.156734     1.149091     1.141448     1.133805     1.126162     1.118519     1.110876     1.103233
      1.095590     1.087946     1.080303     1.072660     1.065017     1.057374     1.049731     1.042088     1.034445     1.026802
      1.019158     1.011515     1.003872     0.996229     0.988586     0.980943     0.973300     0.965657     0.958014     0.950371
      0.942727     0.935084     0.927441     0.919798     0.912155     0.904512     0.896869     0.889226     0.881583     0.873940
      0.866296     0.858653     0.851010     0.843367     0.835724     0.828081     0.820438     0.812795     0.805152     0.797508
      0.789865     0.782222     0.774579     0.766936     0.759293     0.751650     0.744007     0.736364     0.728721     0.721077
      0.713434     0.705791     0.698148     0.690505     0.682862     0.675219     0.667576     0.659933     0.652290     0.644646
      0.637003     0.629360     0.621717     0.614074     0.606431     0.598788     0.591145     0.583502     0.575858     0.568215
      0.560572     0.552929     0.545286     0.537643     0.530000     0.522357     0.514714     0.507071     0.499427     0.491784
      0.484141     0.476498     0.468855     0.461212     0.453569     0.445925     0.438282     0.430639     0.422996     0.415353
      0.407710     0.400067     0.392424     0.384780     0.377137     0.369494     0.361851     0.354208     0.346565     0.338922
      0.331278     0.323635     0.315992     0.308349     0.300706     0.293063     0.285420     0.277777     0.270133     0.262490
      0.254847     0.247204     0.239561     0.231918     0.224275     0.216631     0.208988     0.201345
 NY phased data points follow
  -2.08928E+00  1.04161E+01  7.01861E+00  8.76741E+00  4.22085E+00  3.32590E+00  6.48541E-01 -3.04038E+00 -2.76354E+00  6.74810E+00
   3.64448E+00  5.79899E+00  1.45785E+00 -3.22853E-01  3.70607E+00  2.22109E+00  1.83913E+00 -1.27196E+00  2.87546E+00  3.23608E+00
  -3.83330E+00  2.27695E+00  3.48800E+00  8.17910E+00  4.88691E+00 -9.79017E-01  1.05765E+01 -2.52021E+00 -7.92530E-01  1.54545E+00
   4.28761E+00 -1.75708E+00  3.35635E+00  6.16276E-01  8.85991E-01  2.31137E+00  5.76416E+00 -1.06118E-01  1.07504E+00  3.40726E+00
   6.40287E+00  3.00632E+00  1.53224E+00  2.64087E+00  1.12283E+00  9.04063E-01  2.13002E+00  5.24360E+00  6.26668E-01 -3.39882E+00
  -3.46987E-01  1.35058E+00  3.40023E+00  6.35937E-01 -1.52835E-01  3.88782E+00  5.80143E+00 -2.09548E+00 -1.49410E-01  6.80339E-01
   5.33075E+00 -2.73958E-02  5.13995E+00  4.68991E+00  8.31203E-01  4.11865E+00  7.00064E-01  2.13474E+00  1.91993E+00 -5.71372E-01
   2.54171E+00  3.93848E+00  3.75877E+00 -1.45875E+00  3.16375E+00  2.43655E+00  3.67104E+00 -1.12464E+00  3.94632E+00  7.73127E-01
   2.35169E+00  3.18656E+00  4.45921E+00  9.65390E-01  3.50828E+00  5.53306E+00  7.32446E+00  7.72365E+00  3.91564E+00 -1.84239E+00
   7.06595E-01  2.40366E+00  2.83262E-01 -7.71348E-01  1.38493E-01 -3.09445E+00 -6.09978E-01 -2.36266E+00 -1.17210E+00  2.73766E+00
   3.70632E+00  1.64834E+00  1.54377E+00  4.75684E+00 -8.24838E-01 -8.40009E-01  2.76016E+00  3.19222E+00 -4.07916E+00 -8.49166E-01
   1.49237E+00 -2.65818E+00  2.67302E+00 -4.25927E-02  3.38134E+00  5.31826E+00  6.51033E+00  3.68321E+00 -1.43347E+00 -3.83225E+00
  -1.35537E+00 -1.73451E+00 -2.49604E+00  6.96489E+00 -1.69781E+00 -2.82534E+00  1.73766E+00  2.26180E+00  1.07699E+00 -1.70444E+00
  -1.65181E+00 -7.19462E+00  2.79884E+00 -3.31255E+00  1.29797E+00 -3.64457E+00  3.22583E+00  1.08527E+00  7.88517E-01  7.82152E+00
  -4.18147E+00 -1.50366E-01  2.58406E+00  4.11527E-01  4.00384E+00 -3.22485E+00  7.53609E+00  2.47409E+00 -2.10076E+00 -3.26933E+00
   5.14783E+00  4.06030E+00  1.34128E+00  7.60980E-01  4.54521E+00 -2.88351E-01  4.65596E-01  8.94408E-01  5.28046E+00 -4.19611E+00
   5.03162E+00 -6.14324E+00 -5.17050E+00  1.87405E+00  6.23620E-01  1.75665E+00 -1.39644E+00 -4.34913E-01  5.16270E+00  1.76868E+00
   2.06499E+00  1.15626E+00  6.16488E-01 -4.28348E+00 -2.08806E+00  3.15919E+00  3.73092E+00  1.43561E+00  2.38464E+00  3.67509E+00
  -4.15209E+00 -3.94472E+00 -5.57921E-01 -6.32889E-01  7.11526E-01  8.83425E-01  1.23386E-01 -2.71688E+00 -1.21136E+00  4.47947E+00
  -1.45665E+00  5.44324E+00  1.31933E+00 -1.02797E+00 -4.29961E+00 -1.77245E+00  1.74700E+00 -1.10540E+00  2.48519E+00 -2.31328E+00
  -1.46676E+00  3.46448E+00 -3.22175E+00  8.14617E-01 -3.21091E+00  4.59202E+00  5.91060E+00 -1.52720E+00  1.26816E+00 -2.19371E+00
   3.37361E+00 -7.74287E-01  3.58898E+00  1.20502E+00  1.84220E+00  3.14676E+00  4.60461E+00  5.52312E+00  2.74206E+00 -1.54296E+00
   2.38813E+00  5.13297E+00  1.23074E+00 -1.20839E+00  5.29804E-01  1.33500E+00  5.57978E-01  2.83284E+00  1.50693E+00  2.34186E+00
   2.37780E+00 -1.79163E-01  4.86730E+00  4.05899E+00  7.93486E+00 -7.74470E-01  5.98252E+00  4.60976E+00 -1.35123E+00  5.97259E-01
   6.25006E+00  3.52234E+00 -2.71016E+00  4.66992E+00  4.15266E+00  2.58408E+00  4.63195E+00  4.90199E+00  6.07293E-01  5.16883E+00
  -1.18299E+00  8.00890E+00  6.41270E-01  4.86461E+00 -1.23451E+00 -8.17830E-01  3.40329E+00  1.15337E+01  8.02881E+00  1.11626E+01
   8.95143E+00  7.58711E+00  3.62369E+00  5.13342E+00  4.19133E-01 -5.70943E+00 -4.28178E-01  2.70654E+00  1.68054E+00  2.11305E+00
   4.54889E+00 -6.87020E-01  1.43538E+01 -2.91927E+00  1.94330E+00 -4.14196E-01 -2.70611E+00  1.64521E+00  5.77464E+00 -3.32830E+00
   1.80722E+00  1.47062E+00 -1.58602E-01  1.88102E+00 -1.59059E+00 -2.82473E-01  5.25571E+00  3.31126E+00  6.35496E+00  4.70275E+00
   9.09772E+00  8.25570E+00  2.12069E+00  2.57554E+00  3.01987E+00  7.87999E+00  8.93794E+00  1.40221E+01  1.10480E+01  9.05187E+00
   1.38052E+01  1.06169E+01  8.69304E+00  1.58928E+01  9.09715E+00  9.52484E+00  1.76933E+01  1.80570E+01  1.87108E+01  1.53317E+01
   9.18281E+00  1.29473E+01  1.37986E+01  1.02968E+01  7.92358E+00  6.21491E-01  9.73810E+00  7.41162E+00  5.51745E+00  1.99307E+00
   5.00499E+00  5.70064E+00  3.49772E+00  1.10008E+01  3.47731E+00  2.03832E+00  7.45311E+00  4.92290E+00  1.42372E+01  4.10668E+00
   9.41507E+00  9.81702E+00  4.11209E+00  7.22652E+00  1.02461E+01  4.82755E+00  8.72066E+00  1.04990E+01  6.19929E+00  5.07993E+00
  -5.70417E-01  2.85902E+00  6.52928E+00  9.57263E+00  2.33602E+00  5.83007E+00  2.35814E+00  1.04668E+01  3.64543E+00  5.96982E+00
   3.35620E+00 -6.35939E-01 -3.98248E-01  4.03558E+00  5.66106E+00  1.13999E+00 -1.87273E-01  1.49847E+00  3.67623E+00  2.06264E+00
  -1.20297E+00 -2.16838E+00  4.99916E-01  3.70065E+00  3.51959E+00 -1.02281E+00  5.82858E+00  2.04854E+00  1.94720E+00  4.13733E+00
   7.74267E+00  3.83851E+00  3.07502E+00  1.84991E+00  5.67000E+00  3.29404E+00  1.63659E+00  1.27082E+00  3.73699E+00  7.27457E+00
   5.39100E+00 -1.45953E+00  8.57154E+00 -1.02260E+00  4.96917E+00  5.35522E+00  4.15313E+00  6.55391E+00  5.56982E+00  1.09724E+01
   7.70636E+00 -4.53207E+00  3.15044E+00  5.95187E+00  9.96787E+00  2.26760E-01  9.42767E+00  1.92256E+00  1.03976E+01  5.44130E+00
   8.74072E+00  3.72160E+00 -4.51347E-01  1.08133E+01  9.87308E+00  2.09534E+00  6.76386E+00  3.11025E+00  7.55438E+00  8.74159E+00
   4.03755E+00  4.71238E+00  8.50752E+00  1.72504E+00  1.07093E+00  2.50104E+00  2.57163E+00 -1.44710E+00  1.56070E+00  2.30417E+00
   5.84427E+00  1.18442E+01 -3.02675E+00  4.42426E+00  1.86274E+00 -1.42919E+00  3.28314E+00  1.52787E+00 -1.80516E+00  6.47358E+00
   5.70174E+00  4.16414E+00  8.22582E-01  5.93394E+00 -1.73719E+00  4.35157E+00  5.13440E+00 -9.87656E-01  8.36771E-01  2.91208E+00
   4.66544E+00  3.12806E+00 -1.83498E+00  6.91350E+00 -2.02238E-01  5.68855E+00  2.81253E+00  2.71540E+00  6.11647E+00  6.18917E+00
   2.94343E+00  6.77807E+00  2.28227E+00 -3.49333E+00  7.78178E-02 -2.14209E+00 -9.35951E-01  1.65482E+00 -2.86950E+00 -8.39214E-01
  -7.79963E+00 -3.18939E+00 -1.94530E-01 -9.35654E-01  1.07709E+00 -2.67714E+00 -7.76172E-02 -2.85921E+00 -4.21670E-01 -5.59193E-01
  -6.46047E+00 -8.17899E+00  3.68699E+00 -3.04585E+00  6.26137E-01 -4.64076E+00 -2.07410E+00  1.36593E+00 -6.13266E+00 -3.18230E+00
  -6.72281E-01 -8.41560E+00  1.05583E+00 -3.61407E+00 -1.16260E+01 -2.15809E+00 -4.31285E+00 -2.75893E+00 -6.96856E+00 -5.64974E+00
  -1.67939E+00 -2.34343E+00 -6.37998E+00 -7.15568E+00 -3.98906E+00 -3.88588E+00 -5.61969E+00  3.98855E-03
 NY points of the fit to the data follow
   2.19575E+00  2.21628E+00  2.23473E+00  2.23083E+00  2.19953E+00  2.15929E+00  2.12662E+00  2.12974E+00  2.16699E+00  2.19920E+00
   2.21096E+00  2.20856E+00  2.20119E+00  2.17585E+00  2.11059E+00  2.02524E+00  1.97682E+00  1.99105E+00  2.02138E+00  2.03354E+00
   2.04312E+00  2.06200E+00  2.09155E+00  2.11216E+00  2.09018E+00  2.03177E+00  1.96768E+00  1.92586E+00  1.91648E+00  1.93717E+00
   1.98212E+00  2.04114E+00  2.08280E+00  2.06611E+00  1.99002E+00  1.89701E+00  1.82320E+00  1.78781E+00  1.79969E+00  1.84421E+00
   1.89149E+00  1.91217E+00  1.90404E+00  1.87403E+00  1.82583E+00  1.79001E+00  1.78934E+00  1.79632E+00  1.79521E+00  1.79346E+00
   1.79419E+00  1.79138E+00  1.78768E+00  1.78105E+00  1.76825E+00  1.75364E+00  1.73588E+00  1.71627E+00  1.70502E+00  1.70100E+00
   1.69782E+00  1.69696E+00  1.69932E+00  1.70069E+00  1.69361E+00  1.68533E+00  1.67298E+00  1.65315E+00  1.63257E+00  1.61578E+00
   1.60335E+00  1.61381E+00  1.65007E+00  1.67880E+00  1.68578E+00  1.67020E+00  1.62508E+00  1.57216E+00  1.53059E+00  1.49789E+00
   1.48961E+00  1.52867E+00  1.61382E+00  1.70023E+00  1.74460E+00  1.73564E+00  1.68168E+00  1.61267E+00  1.55161E+00  1.47820E+00
   1.39206E+00  1.35324E+00  1.37961E+00  1.40514E+00  1.41855E+00  1.45218E+00  1.49532E+00  1.54792E+00  1.63367E+00  1.89529E+00
   2.36955E+00  2.73007E+00  2.82771E+00  2.68627E+00  2.38923E+00  2.01283E+00  1.54303E+00  1.02782E+00  7.94330E-01  1.04455E+00
   1.38896E+00  1.49839E+00  1.52821E+00  1.55103E+00  1.57734E+00  1.59936E+00  1.61668E+00  1.63366E+00  1.65282E+00  1.67073E+00
   1.68817E+00  1.70896E+00  1.74354E+00  1.82148E+00  1.91990E+00  1.98614E+00  2.01121E+00  2.00319E+00  1.96341E+00  1.89628E+00
   1.80357E+00  1.70829E+00  1.67228E+00  1.69582E+00  1.70576E+00  1.69230E+00  1.68147E+00  1.67093E+00  1.64948E+00  1.61346E+00
   1.57075E+00  1.53337E+00  1.50502E+00  1.47348E+00  1.43651E+00  1.40079E+00  1.36442E+00  1.32123E+00  1.27019E+00  1.22073E+00
   1.18059E+00  1.15339E+00  1.13489E+00  1.11311E+00  1.08764E+00  1.06255E+00  1.02487E+00  9.35217E-01  8.19941E-01  7.35415E-01
   7.11733E-01  7.73147E-01  8.56163E-01  9.06074E-01  9.37865E-01  9.41127E-01  8.64625E-01  7.17917E-01  5.82471E-01  5.08019E-01
   5.19597E-01  5.60937E-01  5.18011E-01  4.29453E-01  4.09156E-01  4.55490E-01  5.26218E-01  5.59876E-01  5.54336E-01  5.64882E-01
   5.95327E-01  5.81829E-01  4.96792E-01  4.17553E-01  4.42876E-01  5.44551E-01  6.28822E-01  6.66251E-01  7.14157E-01  7.77547E-01
   8.41781E-01  8.74705E-01  8.26690E-01  7.66779E-01  7.64425E-01  7.72520E-01  7.38373E-01  6.69724E-01  5.83598E-01  5.22908E-01
   5.38990E-01  6.17926E-01  7.51034E-01  8.65664E-01  8.79479E-01  8.30782E-01  7.41916E-01  6.10417E-01  4.78912E-01  3.96944E-01
   3.93689E-01  4.51798E-01  5.91849E-01  7.68114E-01  9.19867E-01  1.01376E+00  1.05394E+00  1.03649E+00  8.98458E-01  6.84109E-01
   5.81412E-01  6.71220E-01  8.68793E-01  1.05858E+00  1.21760E+00  1.35623E+00  1.45493E+00  1.46731E+00  1.40222E+00  1.35875E+00
   1.39523E+00  1.47747E+00  1.57073E+00  1.67852E+00  1.79424E+00  1.90518E+00  1.99251E+00  2.06088E+00  2.13939E+00  2.22848E+00
   2.33255E+00  2.46141E+00  2.60848E+00  2.76026E+00  2.91135E+00  3.04763E+00  3.15024E+00  3.21676E+00  3.25107E+00  3.27381E+00
   3.31460E+00  3.36482E+00  3.40669E+00  3.44746E+00  3.51141E+00  3.76068E+00  5.18168E+00  7.90736E+00  1.00422E+01  1.07642E+01
   1.00776E+01  8.29838E+00  5.97695E+00  3.13452E+00 -1.35292E-02 -1.54519E+00 -3.31088E-01  1.33256E+00  1.71475E+00  1.71040E+00
   1.65444E+00  1.58304E+00  1.51245E+00  1.45354E+00  1.39549E+00  1.33180E+00  1.26588E+00  1.20265E+00  1.15041E+00  1.12260E+00
   1.12509E+00  1.16249E+00  1.24330E+00  1.36994E+00  1.54326E+00  1.76896E+00  2.05221E+00  2.39802E+00  2.81256E+00  3.29860E+00
   3.85775E+00  4.49184E+00  5.19690E+00  5.96284E+00  6.77803E+00  7.62828E+00  8.49406E+00  9.35273E+00  1.01811E+01  1.09544E+01
   1.16482E+01  1.22404E+01  1.27119E+01  1.30477E+01  1.32379E+01  1.32790E+01  1.31731E+01  1.29284E+01  1.25590E+01  1.20833E+01
   1.15233E+01  1.09032E+01  1.02481E+01  9.58270E+00  8.92987E+00  8.31008E+00  7.74045E+00  7.23419E+00  6.80043E+00  6.44432E+00
   6.16733E+00  5.96766E+00  5.84066E+00  5.77934E+00  5.77492E+00  5.81752E+00  5.89663E+00  6.00157E+00  6.12182E+00  6.24735E+00
   6.36887E+00  6.47819E+00  6.56831E+00  6.63359E+00  6.66971E+00  6.67379E+00  6.64441E+00  6.58171E+00  6.48740E+00  6.36489E+00
   6.21973E+00  6.06137E+00  5.91074E+00  5.81374E+00  5.69934E+00  5.42418E+00  5.01056E+00  4.52652E+00  4.03232E+00  3.56977E+00
   3.14096E+00  2.90401E+00  3.02424E+00  3.34721E+00  3.55549E+00  3.57015E+00  3.50978E+00  3.40535E+00  3.21389E+00  2.90618E+00
   2.63893E+00  2.57484E+00  2.60005E+00  2.59388E+00  2.57180E+00  2.54358E+00  2.51167E+00  2.47683E+00  2.43945E+00  2.40007E+00
   2.35947E+00  2.31879E+00  2.27954E+00  2.24350E+00  2.21267E+00  2.18926E+00  2.17562E+00  2.17421E+00  2.18750E+00  2.21794E+00
   2.26784E+00  2.33937E+00  2.43443E+00  2.55468E+00  2.70130E+00  2.87500E+00  3.07589E+00  3.30339E+00  3.55616E+00  3.83205E+00
   4.12794E+00  4.43982E+00  4.76278E+00  5.09110E+00  5.41832E+00  5.73745E+00  6.04115E+00  6.32198E+00  6.57272E+00  6.78665E+00
   6.95784E+00  7.08136E+00  7.15356E+00  7.17221E+00  7.13658E+00  7.04752E+00  6.90732E+00  6.71960E+00  6.48910E+00  6.22150E+00
   5.92311E+00  5.60060E+00  5.26067E+00  4.90987E+00  4.55432E+00  4.19960E+00  3.85057E+00  3.51132E+00  3.18513E+00  2.87447E+00
   2.58105E+00  2.30594E+00  2.04962E+00  1.81204E+00  1.59276E+00  1.39105E+00  1.20594E+00  1.03636E+00  8.81162E-01  7.39138E-01
   6.09102E-01  4.89922E-01  3.80538E-01  2.79975E-01  1.87324E-01  1.01755E-01  2.25128E-02 -5.10605E-02 -1.19547E-01 -1.83457E-01
  -2.43263E-01 -2.99381E-01 -3.52185E-01 -4.01984E-01 -4.49053E-01 -4.93634E-01 -5.35965E-01 -5.76250E-01 -6.14670E-01 -6.51367E-01
  -6.86477E-01 -7.20124E-01 -7.52437E-01 -7.83523E-01 -8.13471E-01 -8.42350E-01 -8.70235E-01 -8.97197E-01 -9.23316E-01 -9.48646E-01
  -9.73235E-01 -9.97115E-01 -1.02034E+00 -1.04294E+00 -1.06499E+00 -1.08650E+00 -1.10750E+00 -1.12800E+00 -1.14805E+00 -1.16767E+00
  -1.18690E+00 -1.20575E+00 -1.22423E+00 -1.24235E+00 -1.26015E+00 -1.27765E+00 -1.29486E+00 -1.31178E+00 -1.32843E+00 -1.34482E+00
  -1.36097E+00 -1.37690E+00 -1.39261E+00 -1.40810E+00 -1.42338E+00 -1.43846E+00 -1.45337E+00 -1.46811E+00 -1.48268E+00 -1.49708E+00
  -1.51132E+00 -1.52541E+00 -1.53936E+00 -1.55319E+00 -1.56688E+00 -1.58043E+00 -1.59386E+00 -1.60717E+00
 NY background values follow
     2.098E+00    2.089E+00    2.081E+00    2.072E+00    2.064E+00    2.056E+00    2.047E+00    2.039E+00    2.030E+00    2.022E+00
     2.013E+00    2.005E+00    1.997E+00    1.988E+00    1.980E+00    1.971E+00    1.963E+00    1.954E+00    1.946E+00    1.937E+00
     1.929E+00    1.921E+00    1.912E+00    1.904E+00    1.895E+00    1.887E+00    1.878E+00    1.870E+00    1.861E+00    1.853E+00
     1.845E+00    1.836E+00    1.828E+00    1.819E+00    1.811E+00    1.802E+00    1.794E+00    1.785E+00    1.777E+00    1.769E+00
     1.760E+00    1.752E+00    1.743E+00    1.735E+00    1.726E+00    1.718E+00    1.709E+00    1.701E+00    1.692E+00    1.684E+00
     1.676E+00    1.667E+00    1.659E+00    1.650E+00    1.642E+00    1.633E+00    1.625E+00    1.616E+00    1.608E+00    1.599E+00
     1.591E+00    1.582E+00    1.574E+00    1.565E+00    1.557E+00    1.549E+00    1.540E+00    1.532E+00    1.523E+00    1.515E+00
     1.506E+00    1.498E+00    1.489E+00    1.481E+00    1.472E+00    1.464E+00    1.455E+00    1.447E+00    1.438E+00    1.430E+00
     1.421E+00    1.413E+00    1.405E+00    1.396E+00    1.388E+00    1.379E+00    1.371E+00    1.362E+00    1.354E+00    1.345E+00
     1.337E+00    1.328E+00    1.320E+00    1.311E+00    1.303E+00    1.294E+00    1.286E+00    1.277E+00    1.269E+00    1.260E+00
     1.252E+00    1.243E+00    1.235E+00    1.227E+00    1.218E+00    1.210E+00    1.201E+00    1.193E+00    1.184E+00    1.176E+00
     1.167E+00    1.159E+00    1.150E+00    1.142E+00    1.133E+00    1.125E+00    1.116E+00    1.108E+00    1.099E+00    1.091E+00
     1.082E+00    1.074E+00    1.065E+00    1.057E+00    1.048E+00    1.040E+00    1.031E+00    1.023E+00    1.014E+00    1.006E+00
     9.975E-01    9.890E-01    9.805E-01    9.720E-01    9.635E-01    9.550E-01    9.465E-01    9.380E-01    9.296E-01    9.211E-01
     9.126E-01    9.041E-01    8.956E-01    8.871E-01    8.786E-01    8.701E-01    8.617E-01    8.532E-01    8.447E-01    8.362E-01
     8.277E-01    8.192E-01    8.107E-01    8.022E-01    7.938E-01    7.853E-01    7.768E-01    7.683E-01    7.598E-01    7.513E-01
     7.428E-01    7.343E-01    7.258E-01    7.174E-01    7.089E-01    7.004E-01    6.919E-01    6.834E-01    6.749E-01    6.664E-01
     6.579E-01    6.495E-01    6.410E-01    6.325E-01    6.240E-01    6.155E-01    6.070E-01    5.985E-01    5.900E-01    5.816E-01
     5.731E-01    5.646E-01    5.561E-01    5.476E-01    5.391E-01    5.306E-01    5.221E-01    5.137E-01    5.052E-01    4.967E-01
     4.882E-01    4.797E-01    4.712E-01    4.627E-01    4.543E-01    4.458E-01    4.373E-01    4.288E-01    4.203E-01    4.118E-01
     4.034E-01    3.949E-01    3.864E-01    3.779E-01    3.694E-01    3.609E-01    3.525E-01    3.440E-01    3.355E-01    3.270E-01
     3.185E-01    3.100E-01    3.016E-01    2.931E-01    2.846E-01    2.761E-01    2.676E-01    2.592E-01    2.507E-01    2.422E-01
     2.337E-01    2.252E-01    2.168E-01    2.083E-01    1.998E-01    1.913E-01    1.828E-01    1.744E-01    1.659E-01    1.574E-01
     1.489E-01    1.405E-01    1.320E-01    1.235E-01    1.150E-01    1.066E-01    9.809E-02    8.961E-02    8.114E-02    7.267E-02
     6.420E-02    5.572E-02    4.725E-02    3.878E-02    3.031E-02    2.184E-02    1.337E-02    4.897E-03   -3.572E-03   -1.204E-02
    -2.051E-02   -2.898E-02   -3.745E-02   -4.591E-02   -5.438E-02   -6.285E-02   -7.131E-02   -7.978E-02   -8.824E-02   -9.671E-02
    -1.052E-01   -1.136E-01   -1.221E-01   -1.306E-01   -1.390E-01   -1.475E-01   -1.559E-01   -1.644E-01   -1.729E-01   -1.813E-01
    -1.898E-01   -1.982E-01   -2.067E-01   -2.152E-01   -2.236E-01   -2.321E-01   -2.405E-01   -2.490E-01   -2.574E-01   -2.659E-01
    -2.743E-01   -2.828E-01   -2.913E-01   -2.997E-01   -3.082E-01   -3.166E-01   -3.251E-01   -3.335E-01   -3.420E-01   -3.504E-01
    -3.588E-01   -3.673E-01   -3.757E-01   -3.842E-01   -3.926E-01   -4.011E-01   -4.095E-01   -4.180E-01   -4.264E-01   -4.348E-01
    -4.433E-01   -4.517E-01   -4.602E-01   -4.686E-01   -4.770E-01   -4.855E-01   -4.939E-01   -5.024E-01   -5.108E-01   -5.192E-01
    -5.277E-01   -5.361E-01   -5.445E-01   -5.530E-01   -5.614E-01   -5.698E-01   -5.783E-01   -5.867E-01   -5.951E-01   -6.035E-01
    -6.120E-01   -6.204E-01   -6.288E-01   -6.372E-01   -6.457E-01   -6.541E-01   -6.625E-01   -6.709E-01   -6.794E-01   -6.878E-01
    -6.962E-01   -7.046E-01   -7.130E-01   -7.214E-01   -7.299E-01   -7.383E-01   -7.467E-01   -7.551E-01   -7.635E-01   -7.719E-01
    -7.803E-01   -7.887E-01   -7.972E-01   -8.056E-01   -8.140E-01   -8.224E-01   -8.308E-01   -8.392E-01   -8.476E-01   -8.560E-01
    -8.644E-01   -8.728E-01   -8.812E-01   -8.896E-01   -8.980E-01   -9.064E-01   -9.148E-01   -9.232E-01   -9.316E-01   -9.400E-01
    -9.484E-01   -9.568E-01   -9.651E-01   -9.735E-01   -9.819E-01   -9.903E-01   -9.987E-01   -1.007E+00   -1.015E+00   -1.024E+00
    -1.032E+00   -1.041E+00   -1.049E+00   -1.057E+00   -1.066E+00   -1.074E+00   -1.083E+00   -1.091E+00   -1.099E+00   -1.108E+00
    -1.116E+00   -1.124E+00   -1.133E+00   -1.141E+00   -1.149E+00   -1.158E+00   -1.166E+00   -1.175E+00   -1.183E+00   -1.191E+00
    -1.200E+00   -1.208E+00   -1.216E+00   -1.225E+00   -1.233E+00   -1.241E+00   -1.250E+00   -1.258E+00   -1.267E+00   -1.275E+00
    -1.283E+00   -1.292E+00   -1.300E+00   -1.308E+00   -1.317E+00   -1.325E+00   -1.333E+00   -1.342E+00   -1.350E+00   -1.358E+00
    -1.367E+00   -1.375E+00   -1.383E+00   -1.392E+00   -1.400E+00   -1.408E+00   -1.417E+00   -1.425E+00   -1.433E+00   -1.442E+00
    -1.450E+00   -1.458E+00   -1.467E+00   -1.475E+00   -1.483E+00   -1.492E+00   -1.500E+00   -1.508E+00   -1.517E+00   -1.525E+00
    -1.533E+00   -1.542E+00   -1.550E+00   -1.558E+00   -1.566E+00   -1.575E+00   -1.583E+00   -1.591E+00   -1.600E+00   -1.608E+00
    -1.616E+00   -1.625E+00   -1.633E+00   -1.641E+00   -1.649E+00   -1.658E+00   -1.666E+00   -1.674E+00   -1.683E+00   -1.691E+00
    -1.699E+00   -1.707E+00   -1.716E+00   -1.724E+00   -1.732E+00   -1.741E+00   -1.749E+00   -1.757E+00   -1.765E+00   -1.774E+00
    -1.782E+00   -1.790E+00   -1.799E+00   -1.807E+00   -1.815E+00   -1.823E+00   -1.832E+00   -1.840E+00   -1.848E+00   -1.856E+00
    -1.865E+00   -1.873E+00   -1.881E+00   -1.889E+00   -1.898E+00   -1.906E+00   -1.914E+00   -1.922E+00   -1.931E+00   -1.939E+00
    -1.947E+00   -1.955E+00   -1.964E+00   -1.972E+00   -1.980E+00   -1.988E+00   -1.997E+00   -2.005E+00   -2.013E+00   -2.021E+00
    -2.030E+00   -2.038E+00   -2.046E+00   -2.054E+00   -2.062E+00   -2.071E+00   -2.079E+00   -2.087E+00
 Asp      Conc. = 6.88E+00
