 LCModel (Version 6.3-1L) Copyright: S.W. Provencher.          Ref.: Magn. Reson. Med. 30:672-679 (1993).                
 Slice#1 Row#7 Col#7  PD_24_press_2_raw_act
 Data of: Institute of Biomedical Engineering, Bogazici University, Istanbul
 07-January-2018  10:44
 36 lines in following concentration table = NCONC+1
    Conc.  %SD /Cr+PCr  Metabolite                                         
  524.000  48%   0.301 Ala                                                 
  150.941 202% 8.7E-02 Asp                                                 
    0.000 999%   0.000 Cr                                                  
 1.74E+03   7%   1.000 PCr                                                 
   13.771 999% 7.9E-03 GABA                                                
   79.595 239% 4.6E-02 Glc                                                 
    0.000 999%   0.000 Gln                                                 
 2.08E+03  28%   1.198 Glu                                                 
  484.488   9%   0.278 GPC                                                 
    0.000 999%   0.000 PCh                                                 
  177.194  88%   0.102 GSH                                                 
  929.615  54%   0.534 Ins                                                 
  411.690  68%   0.237 Lac                                                 
 2.70E+03   8%   1.553 NAA                                                 
   97.519 250% 5.6E-02 NAAG                                                
  128.698  36% 7.4E-02 Scyllo                                              
  387.411  75%   0.223 Tau                                                 
  701.299  28%   0.403 -CrCH2                                              
  484.488   9%   0.278 GPC+PCh                                             
 2.80E+03   6%   1.609 NAA+NAAG                                            
 1.74E+03   7%   1.000 Cr+PCr                                              
 2.08E+03  28%   1.198 Glu+Gln                                             
 3.10E+03  23%   1.782 Lip13a                                              
    0.000 999%   0.000 Lip13b                                              
  681.944  63%   0.392 Lip09                                               
 2.49E+03  19%   1.431 MM09                                                
  576.535  54%   0.331 Lip20                                               
 5.51E+03  13%   3.169 MM20                                                
  633.239  59%   0.364 MM12                                                
    0.000 999%   0.000 MM14                                                
 2.15E+03  12%   1.236 MM17                                                
 3.10E+03  23%   1.782 Lip13a+Lip13b                                       
 3.73E+03  16%   2.146 MM14+Lip13a+Lip13b+MM12                             
 3.17E+03  11%   1.823 MM09+Lip09                                          
 6.09E+03  12%   3.500 MM20+Lip20                                          
   6 lines in following misc. output table
  FWHM = 0.054 ppm    S/N =   7                                            
  Data shift = 0.000 ppm                                                   
  Ph: -56 deg     -10.6 deg/ppm                                            
  alphaB,S = 8.5E+01,   2.0E+02                                            
   14 spline knots.   Ns = 7(1)                                            
   2 inflections.     1 extrema                                            
  498 points on ppm-axis = NY
      4.000000     3.992357     3.984714     3.977070     3.969427     3.961784     3.954141     3.946497     3.938854     3.931211
      3.923568     3.915925     3.908281     3.900638     3.892995     3.885352     3.877708     3.870065     3.862422     3.854779
      3.847136     3.839492     3.831849     3.824206     3.816563     3.808919     3.801276     3.793633     3.785990     3.778347
      3.770703     3.763060     3.755417     3.747774     3.740130     3.732487     3.724844     3.717201     3.709558     3.701914
      3.694271     3.686628     3.678985     3.671341     3.663698     3.656055     3.648412     3.640769     3.633125     3.625482
      3.617839     3.610196     3.602552     3.594909     3.587266     3.579623     3.571980     3.564336     3.556693     3.549050
      3.541407     3.533763     3.526120     3.518477     3.510834     3.503191     3.495547     3.487904     3.480261     3.472618
      3.464974     3.457331     3.449688     3.442045     3.434402     3.426758     3.419115     3.411472     3.403829     3.396185
      3.388542     3.380899     3.373256     3.365613     3.357969     3.350326     3.342683     3.335040     3.327396     3.319753
      3.312110     3.304467     3.296824     3.289180     3.281537     3.273894     3.266251     3.258607     3.250964     3.243321
      3.235678     3.228034     3.220391     3.212748     3.205105     3.197462     3.189818     3.182175     3.174532     3.166889
      3.159245     3.151602     3.143959     3.136316     3.128673     3.121029     3.113386     3.105743     3.098100     3.090456
      3.082813     3.075170     3.067527     3.059884     3.052240     3.044597     3.036954     3.029311     3.021667     3.014024
      3.006381     2.998738     2.991095     2.983451     2.975808     2.968165     2.960522     2.952878     2.945235     2.937592
      2.929949     2.922306     2.914662     2.907019     2.899376     2.891733     2.884089     2.876446     2.868803     2.861160
      2.853517     2.845873     2.838230     2.830587     2.822944     2.815300     2.807657     2.800014     2.792371     2.784728
      2.777084     2.769441     2.761798     2.754155     2.746511     2.738868     2.731225     2.723582     2.715939     2.708295
      2.700652     2.693009     2.685366     2.677722     2.670079     2.662436     2.654793     2.647150     2.639506     2.631863
      2.624220     2.616577     2.608933     2.601290     2.593647     2.586004     2.578361     2.570717     2.563074     2.555431
      2.547788     2.540144     2.532501     2.524858     2.517215     2.509572     2.501928     2.494285     2.486642     2.478999
      2.471355     2.463712     2.456069     2.448426     2.440783     2.433139     2.425496     2.417853     2.410210     2.402566
      2.394923     2.387280     2.379637     2.371994     2.364350     2.356707     2.349064     2.341421     2.333777     2.326134
      2.318491     2.310848     2.303205     2.295561     2.287918     2.280275     2.272632     2.264988     2.257345     2.249702
      2.242059     2.234416     2.226772     2.219129     2.211486     2.203843     2.196199     2.188556     2.180913     2.173270
      2.165627     2.157983     2.150340     2.142697     2.135054     2.127410     2.119767     2.112124     2.104481     2.096838
      2.089194     2.081551     2.073908     2.066265     2.058621     2.050978     2.043335     2.035692     2.028049     2.020405
      2.012762     2.005119     1.997476     1.989833     1.982190     1.974546     1.966903     1.959260     1.951617     1.943974
      1.936331     1.928688     1.921045     1.913402     1.905759     1.898115     1.890472     1.882829     1.875186     1.867543
      1.859900     1.852257     1.844614     1.836971     1.829327     1.821684     1.814041     1.806398     1.798755     1.791112
      1.783469     1.775826     1.768183     1.760540     1.752896     1.745253     1.737610     1.729967     1.722324     1.714681
      1.707038     1.699395     1.691752     1.684108     1.676465     1.668822     1.661179     1.653536     1.645893     1.638250
      1.630607     1.622964     1.615321     1.607677     1.600034     1.592391     1.584748     1.577105     1.569462     1.561819
      1.554176     1.546533     1.538890     1.531246     1.523603     1.515960     1.508317     1.500674     1.493031     1.485388
      1.477745     1.470102     1.462458     1.454815     1.447172     1.439529     1.431886     1.424243     1.416600     1.408957
      1.401314     1.393671     1.386027     1.378384     1.370741     1.363098     1.355455     1.347812     1.340169     1.332526
      1.324883     1.317240     1.309596     1.301953     1.294310     1.286667     1.279024     1.271381     1.263738     1.256095
      1.248452     1.240808     1.233165     1.225522     1.217879     1.210236     1.202593     1.194950     1.187307     1.179664
      1.172021     1.164377     1.156734     1.149091     1.141448     1.133805     1.126162     1.118519     1.110876     1.103233
      1.095590     1.087946     1.080303     1.072660     1.065017     1.057374     1.049731     1.042088     1.034445     1.026802
      1.019158     1.011515     1.003872     0.996229     0.988586     0.980943     0.973300     0.965657     0.958014     0.950371
      0.942727     0.935084     0.927441     0.919798     0.912155     0.904512     0.896869     0.889226     0.881583     0.873940
      0.866296     0.858653     0.851010     0.843367     0.835724     0.828081     0.820438     0.812795     0.805152     0.797508
      0.789865     0.782222     0.774579     0.766936     0.759293     0.751650     0.744007     0.736364     0.728721     0.721077
      0.713434     0.705791     0.698148     0.690505     0.682862     0.675219     0.667576     0.659933     0.652290     0.644646
      0.637003     0.629360     0.621717     0.614074     0.606431     0.598788     0.591145     0.583502     0.575858     0.568215
      0.560572     0.552929     0.545286     0.537643     0.530000     0.522357     0.514714     0.507071     0.499427     0.491784
      0.484141     0.476498     0.468855     0.461212     0.453569     0.445925     0.438282     0.430639     0.422996     0.415353
      0.407710     0.400067     0.392424     0.384780     0.377137     0.369494     0.361851     0.354208     0.346565     0.338922
      0.331278     0.323635     0.315992     0.308349     0.300706     0.293063     0.285420     0.277777     0.270133     0.262490
      0.254847     0.247204     0.239561     0.231918     0.224275     0.216631     0.208988     0.201345
 NY phased data points follow
  -2.03499E+01 -3.19208E+00 -3.03035E+00 -1.30593E+01 -2.57872E+00 -2.32549E+00  7.72984E+00  6.31243E+00  1.58306E+01  1.80148E+01
   1.56223E+01  1.99830E+01  1.78950E+01 -9.46455E-01  6.04423E+00 -4.55272E-01 -1.14645E+01 -1.00543E+00 -5.10137E+00 -4.85530E+00
  -4.99327E+00 -9.03337E+00 -4.72867E+00 -7.18716E+00 -6.56612E+00 -1.14948E+01  3.13355E-01 -8.19507E+00  4.52998E+00 -2.79648E+00
  -9.51470E+00 -6.31023E+00 -9.75380E-01 -2.47758E+00  3.39640E+00 -1.50266E+00  1.00791E+00 -2.05763E+00 -5.25113E+00 -3.10841E-01
  -1.40966E+01  2.51912E-01  3.33736E-01 -5.97092E-01 -8.19473E-01 -1.97447E+00  8.72902E+00  7.54787E+00  1.35617E+01 -3.93151E+00
   6.61280E+00  4.50829E+00  6.90270E-01  1.35752E+01  6.89001E+00 -5.82031E+00  7.51604E+00  1.05868E+01  2.32113E-02  7.21835E+00
  -7.26075E+00 -4.54571E+00 -6.21356E+00 -6.79525E+00 -1.06504E+00 -9.41307E+00 -1.91155E+00 -9.10859E+00  1.55061E-02 -8.23922E+00
  -6.22243E+00 -1.05806E+01  3.55820E+00  2.12595E-01 -1.18149E+01  9.73021E-01 -2.73091E+00 -2.50075E+00 -7.59711E+00 -6.90984E+00
  -4.22846E+00 -1.33918E+01 -3.37755E+00 -7.65813E+00 -3.94486E+00  6.35771E+00  1.37228E-01  4.73161E+00  2.08275E+00 -6.26163E-01
   1.12313E+01  9.96665E+00  4.58210E+00  9.08848E+00  1.56179E+01  6.90377E+00  1.03332E+01  8.71694E-01  6.67135E+00  1.43271E+01
   2.44135E+01  3.02573E+01  3.53318E+01  4.94925E+01  4.38478E+01  3.42945E+01  1.92119E+01  8.27928E+00  8.74604E+00  2.78930E+01
   4.26806E+00  8.85763E+00  5.30891E+00  1.07448E+00  6.34346E+00 -2.28171E+00 -1.04796E+01  9.60449E-01  7.38433E-01 -9.66466E-01
  -2.45628E+00  8.13393E+00  3.59439E+00  2.06890E+01  2.70023E+01  2.59179E+01  5.85866E+01  5.96205E+01  5.74324E+01  5.45795E+01
   4.11318E+01  2.87228E+01  2.14763E+01  1.69252E+01  7.50121E+00  1.58409E+01  1.39473E+01  4.03390E+00  1.10458E+01 -4.76432E+00
   6.17581E+00 -3.71733E+00 -1.95463E+00 -9.56891E+00  3.12006E+00  3.18273E-01  2.29652E-01  2.70953E+00  9.92514E+00 -8.92843E-01
   3.05972E+00 -2.35435E+00 -1.44747E+01 -1.24527E+01 -2.08608E+00 -1.07918E+01 -3.15377E+00  1.49647E+00  1.16779E+01 -1.43218E+00
  -4.77067E+00 -4.11538E+00  2.79629E+00  6.35287E-01  7.54805E-01  4.17347E+00 -1.34196E+01  3.58653E+00 -4.07046E+00 -1.55839E+01
  -1.44364E+01 -1.02134E+01 -1.73537E+01 -1.72454E+01 -7.91511E+00 -7.75347E+00 -5.45239E+00 -1.62785E+01 -3.90717E+00 -1.40543E+01
  -8.24601E+00 -1.83680E+01 -9.76938E+00 -8.86595E+00 -8.28451E+00 -1.72409E+00 -1.17522E+00 -4.39734E+00  3.98637E-01 -4.59603E+00
  -3.41954E-01 -1.29455E+00  4.23416E+00 -1.75960E-01  6.06960E+00 -8.89516E+00  1.67345E+00  3.92360E+00 -1.54344E+01 -2.61860E+00
   6.01521E+00 -3.70632E+00 -9.59109E-01  1.46787E+00 -9.47789E-01  9.89327E+00  1.23647E+01 -2.89056E+00  1.12043E+01 -4.36827E+00
   9.35055E+00  1.30475E+01  1.25111E+01  1.29023E+01  1.70256E+01  1.50809E+01  1.72593E+01  1.45665E+01  8.49443E+00  6.76058E+00
   5.24363E+00 -4.96040E+00 -1.05976E+01  3.63267E+00  5.83551E+00  5.25221E+00  1.79983E+01  1.07036E+01  1.55637E+01  1.90485E+01
   9.04510E+00  1.81123E+01  2.73397E+01  9.67454E+00  1.13632E+01  8.22483E+00  1.17754E+01  7.28755E+00  1.18192E+01  1.15763E+01
   1.23276E+01  9.20302E+00  7.27776E+00  4.55634E+00  1.38412E+01  1.79678E+01  2.65952E+01  2.17269E+01  1.93840E+01  1.83795E+01
   2.82199E+01  3.88204E+01  2.12960E+01  4.20177E+01  3.61824E+01  5.12993E+01  5.11788E+01  5.84518E+01  7.10895E+01  9.69067E+01
   1.21456E+02  1.17562E+02  9.39654E+01  7.98897E+01  6.33170E+01  4.12080E+01  3.50777E+01  4.07546E+01  2.27318E+01  2.79132E+01
   2.17785E+01  9.83162E+00  2.02390E+01  1.93013E+00  5.47276E+00  2.42614E+01  1.23675E+01  9.12282E+00 -3.33499E+00  1.48349E+01
   7.39342E+00  1.29398E+01  1.28265E+01 -6.87344E+00  2.12238E+00  5.16512E+00  1.17843E+01  1.19043E+01  5.93117E+00  1.73156E+01
   1.72429E+01  1.01712E+01  7.28599E+00  8.98947E+00  1.31384E+01  9.44058E+00  5.90517E+00  1.86496E+01  6.24769E+00  1.83224E+01
   2.38881E+01  2.79968E+01  1.83213E+01  2.53188E+01  1.77157E+01  1.57410E+01  3.03406E+01  1.88806E+01  2.51128E+01  1.71173E+01
   2.60127E+01  1.46390E+01  3.04820E+01  1.65748E+01  1.33816E+01  1.09903E+01 -7.09814E+00  3.34715E-01 -1.26627E-01  7.22776E+00
  -9.45742E+00 -6.50070E+00 -4.90162E+00 -6.40888E+00  8.91174E-01 -5.35637E+00 -1.09320E+01 -1.92628E+01 -1.82372E+01 -3.58051E+00
   4.00840E+00 -1.38800E+01 -1.09903E+01 -1.15775E-01  5.70905E+00  1.28965E+01  6.66815E+00  1.35428E+01  2.17005E+01  1.34152E+01
   2.31155E+01  3.30537E+01  2.49546E+01  2.32605E+01  3.02040E+01  3.16027E+01  2.62987E+01  3.19827E+01  2.39550E+01  2.62950E+01
   1.73678E+01  1.55339E+01  2.72883E+01  1.76086E+01  1.97716E+01  2.08783E+01  1.03741E+01  2.10229E+01  1.41418E+01  1.21110E+01
   1.92256E+01  7.51018E+00  2.40573E+01  1.61419E+01  1.49058E+01  1.96836E+01  1.90185E+01  3.11418E+01  1.78851E+01  2.33440E+01
   4.42017E+00  2.43954E+01  9.95073E+00  9.78299E+00  1.86887E+01  6.83855E+00  1.42372E+01  2.15834E+01  3.92537E+00  6.67604E+00
  -2.66004E-01  3.24914E+00  1.03445E+01  1.32005E+01  1.03509E+01  4.83197E+00  1.67994E+01 -1.09852E+00  1.73366E+00  6.13115E+00
   7.82714E+00  1.21806E+01  2.08739E+01  1.50790E+01  2.87010E+01  1.11244E+01  1.80984E+01  2.60609E+01  2.74110E+01  1.32875E+01
   2.35000E+01  2.87855E+01  3.09411E+01  1.78230E+01  2.52393E+01  2.76157E+01  3.31281E+01  3.12959E+01  2.94013E+01  2.86909E+01
   2.84020E+01  1.86153E+01  3.12485E+01  1.84578E+01  1.70351E+01  1.94256E+01  1.91159E+01  1.93745E+01  1.20191E+01  1.43176E+01
   1.39137E+01  9.34447E+00  1.57747E+01  1.85089E+01  1.36249E+01  1.76099E+01  1.31428E+01  2.10005E+01  6.96177E+00  8.51554E+00
   1.54918E+01  6.57991E+00  1.17632E+01  1.27788E+01  8.91307E+00 -2.36826E+00  1.01907E+01  7.39336E+00  3.86756E+00  9.53970E+00
  -4.34214E+00  5.32545E+00  4.91985E-01  1.35696E+01  2.68630E+00  1.04831E+01  4.65813E+00  9.85450E+00  1.25389E+01  6.95863E+00
   3.50594E+00  1.21703E+01  8.54934E+00  1.54809E+00  1.99132E-01  7.38812E+00  9.82403E-01 -3.55626E+00  4.35766E+00 -4.94796E+00
   9.76840E-01  9.17633E+00 -8.67278E+00  2.34363E+00  3.53258E+00  2.39290E+00  9.23537E+00  5.51826E+00  8.60834E+00  5.45923E+00
   8.13969E+00  1.08911E+01  9.60078E+00  1.14207E+01  3.73763E+00  1.32142E+01  9.52142E+00  7.22582E+00  1.23539E+01  1.79853E+00
   1.01694E+01  5.46360E+00  3.75213E+00  1.19454E+01  6.59327E+00  2.93923E+00  1.68289E+01  7.13623E+00  1.14064E+01  4.69941E+00
   1.71459E+00 -2.08118E+00  5.47524E+00  2.81668E+00  9.20275E+00  7.81446E-01  1.40426E+01  3.44184E+00
 NY points of the fit to the data follow
  -6.00564E+00 -6.12923E+00 -5.66161E+00 -4.19235E+00 -1.80544E+00  1.39357E+00  5.25650E+00  9.47292E+00  1.34655E+01  1.63835E+01
   1.74651E+01  1.64873E+01  1.38688E+01  1.03830E+01  6.79157E+00  3.56118E+00  7.97158E-01 -1.45573E+00 -2.84379E+00 -3.15281E+00
  -3.06349E+00 -2.93777E+00 -2.91868E+00 -3.05343E+00 -3.37738E+00 -3.87269E+00 -4.34668E+00 -4.52774E+00 -4.18405E+00 -3.26574E+00
  -1.89708E+00 -3.84713E-01  8.73872E-01  1.56780E+00  1.53286E+00  8.20645E-01 -3.44339E-01 -1.71084E+00 -2.90357E+00 -3.60564E+00
  -3.74582E+00 -3.34535E+00 -2.44477E+00 -1.18986E+00  1.91475E-01  1.48953E+00  2.49853E+00  2.97467E+00  2.79036E+00  2.02221E+00
   8.25028E-01 -5.21593E-01 -1.73568E+00 -2.69962E+00 -3.36954E+00 -3.67574E+00 -3.60396E+00 -3.26601E+00 -2.84522E+00 -2.48468E+00
  -2.28600E+00 -2.30838E+00 -2.52200E+00 -2.84419E+00 -3.15922E+00 -3.36298E+00 -3.43559E+00 -3.40716E+00 -3.25641E+00 -2.96957E+00
  -2.59358E+00 -2.18933E+00 -1.82613E+00 -1.56345E+00 -1.45007E+00 -1.51253E+00 -1.75595E+00 -2.15425E+00 -2.58727E+00 -2.87414E+00
  -2.77960E+00 -2.27616E+00 -1.47397E+00 -4.87885E-01  5.92104E-01  1.59007E+00  2.20884E+00  2.23970E+00  1.68424E+00  7.33022E-01
  -3.50063E-01 -1.33132E+00 -2.08847E+00 -2.61996E+00 -2.84700E+00 -2.26383E+00  1.20828E-01  4.26832E+00  9.85845E+00  1.67094E+01
   2.44214E+01  3.20414E+01  3.79639E+01  4.05756E+01  3.92067E+01  3.44542E+01  2.77242E+01  2.05594E+01  1.40055E+01  8.36357E+00
   3.69562E+00  4.57483E-01 -8.58402E-01 -1.20808E+00 -1.30552E+00 -1.29102E+00 -1.19863E+00 -1.00795E+00 -6.78231E-01  2.45171E-02
   2.12167E+00  6.38925E+00  1.26027E+01  2.05719E+01  2.99783E+01  3.99050E+01  4.85878E+01  5.38520E+01  5.42426E+01  4.98682E+01
   4.21946E+01  3.31803E+01  2.44196E+01  1.66574E+01  1.00136E+01  4.80477E+00  1.91385E+00  9.45642E-01  5.75624E-01  4.44801E-01
   4.32570E-01  4.54388E-01  4.67493E-01  4.46180E-01  3.60019E-01  2.04215E-01 -7.75489E-03 -2.62199E-01 -5.32809E-01 -7.89439E-01
  -1.01457E+00 -1.19865E+00 -1.34819E+00 -1.47550E+00 -1.63197E+00 -1.84849E+00 -2.13161E+00 -2.48175E+00 -2.85649E+00 -3.22832E+00
  -3.54273E+00 -3.70380E+00 -3.66288E+00 -3.47857E+00 -3.29309E+00 -3.25135E+00 -3.41936E+00 -3.75927E+00 -4.18833E+00 -4.68463E+00
  -5.27273E+00 -5.87120E+00 -6.40838E+00 -6.84399E+00 -7.15020E+00 -7.33454E+00 -7.35512E+00 -7.19555E+00 -6.93879E+00 -6.70531E+00
  -6.57263E+00 -6.48994E+00 -6.33376E+00 -6.04798E+00 -5.64622E+00 -5.15602E+00 -4.51022E+00 -3.58023E+00 -2.40462E+00 -1.14750E+00
  -1.06723E-02  8.66736E-01  1.47269E+00  1.85320E+00  2.05054E+00  2.06013E+00  1.88752E+00  1.68302E+00  1.59400E+00  1.69227E+00
   2.00089E+00  2.50926E+00  3.11726E+00  3.61088E+00  3.79770E+00  3.56449E+00  2.88721E+00  1.88107E+00  8.75888E-01  3.32384E-01
   4.44203E-01  1.26931E+00  2.81880E+00  4.91619E+00  6.99616E+00  8.24335E+00  8.01635E+00  6.27718E+00  3.42443E+00  6.13281E-02
  -2.99875E+00 -5.03153E+00 -5.56603E+00 -4.41508E+00 -1.80657E+00  1.69881E+00  5.20611E+00  8.12596E+00  1.02769E+01  1.17062E+01
   1.25215E+01  1.28431E+01  1.29689E+01  1.32205E+01  1.36610E+01  1.41492E+01  1.45442E+01  1.47795E+01  1.48878E+01  1.49644E+01
   1.51307E+01  1.55793E+01  1.64540E+01  1.77176E+01  1.91909E+01  2.06466E+01  2.19045E+01  2.28468E+01  2.34674E+01  2.39082E+01
   2.43876E+01  2.50930E+01  2.63720E+01  2.95992E+01  3.60951E+01  4.53713E+01  5.69356E+01  7.03898E+01  8.45635E+01  9.69916E+01
   1.04432E+02  1.04492E+02  9.70563E+01  8.41715E+01  6.89056E+01  5.39701E+01  4.07217E+01  2.93903E+01  2.03461E+01  1.48176E+01
   1.26045E+01  1.14938E+01  1.07728E+01  1.02741E+01  9.85170E+00  9.42446E+00  8.97684E+00  8.49696E+00  8.00030E+00  7.51723E+00
   7.07669E+00  6.70572E+00  6.44193E+00  6.30789E+00  6.29996E+00  6.41055E+00  6.64000E+00  6.99507E+00  7.48274E+00  8.10357E+00
   8.85873E+00  9.74953E+00  1.07663E+01  1.18891E+01  1.30908E+01  1.43389E+01  1.55957E+01  1.68193E+01  1.79671E+01  1.89965E+01
   1.98666E+01  2.05414E+01  2.09916E+01  2.11957E+01  2.11434E+01  2.08358E+01  2.02865E+01  1.95195E+01  1.85680E+01  1.74721E+01
   1.62763E+01  1.50260E+01  1.37666E+01  1.25403E+01  1.13855E+01  1.03356E+01  9.42072E+00  8.66958E+00  8.11924E+00  7.83902E+00
   7.88596E+00  8.11771E+00  8.39063E+00  8.58680E+00  8.54253E+00  8.04336E+00  6.89715E+00  5.10738E+00  3.08403E+00  1.33632E+00
   2.56088E-01  9.80583E-02  9.50565E-01  2.72807E+00  5.19056E+00  7.99127E+00  1.06887E+01  1.28123E+01  1.43126E+01  1.54031E+01
   1.63617E+01  1.73307E+01  1.82285E+01  1.90517E+01  1.99215E+01  2.06789E+01  2.10271E+01  2.07798E+01  2.00420E+01  1.91583E+01
   1.84624E+01  1.82215E+01  1.85823E+01  1.95307E+01  2.08928E+01  2.23938E+01  2.37432E+01  2.46158E+01  2.47802E+01  2.43385E+01
   2.34849E+01  2.23748E+01  2.10898E+01  1.97025E+01  1.83904E+01  1.72531E+01  1.62230E+01  1.52687E+01  1.43838E+01  1.35685E+01
   1.28248E+01  1.21544E+01  1.15588E+01  1.10380E+01  1.05918E+01  1.02194E+01  9.91997E+00  9.69229E+00  9.53562E+00  9.44929E+00
   9.43348E+00  9.48869E+00  9.61635E+00  9.81806E+00  1.00962E+01  1.04532E+01  1.08920E+01  1.14151E+01  1.20247E+01  1.27217E+01
   1.35061E+01  1.43754E+01  1.53254E+01  1.63486E+01  1.74348E+01  1.85698E+01  1.97365E+01  2.09142E+01  2.20794E+01  2.32062E+01
   2.42674E+01  2.52350E+01  2.60822E+01  2.67840E+01  2.73187E+01  2.76690E+01  2.78229E+01  2.77743E+01  2.75236E+01  2.70776E+01
   2.64490E+01  2.56557E+01  2.47200E+01  2.36672E+01  2.25249E+01  2.13208E+01  2.00824E+01  1.88353E+01  1.76027E+01  1.64045E+01
   1.52572E+01  1.41736E+01  1.31628E+01  1.22304E+01  1.13791E+01  1.06088E+01  9.91779E+00  9.30219E+00  8.75735E+00  8.27755E+00
   7.85707E+00  7.48985E+00  7.17023E+00  6.89253E+00  6.65171E+00  6.44296E+00  6.26226E+00  6.10584E+00  5.97060E+00  5.85354E+00
   5.75236E+00  5.66482E+00  5.58933E+00  5.52425E+00  5.46838E+00  5.42044E+00  5.37957E+00  5.34484E+00  5.31574E+00  5.29151E+00
   5.27174E+00  5.25580E+00  5.24341E+00  5.23414E+00  5.22786E+00  5.22414E+00  5.22285E+00  5.22360E+00  5.22636E+00  5.23087E+00
   5.23714E+00  5.24486E+00  5.25402E+00  5.26436E+00  5.27595E+00  5.28860E+00  5.30238E+00  5.31703E+00  5.33259E+00  5.34887E+00
   5.36602E+00  5.38385E+00  5.40245E+00  5.42159E+00  5.44136E+00  5.46162E+00  5.48251E+00  5.50386E+00  5.52576E+00  5.54801E+00
   5.57072E+00  5.59378E+00  5.61735E+00  5.64124E+00  5.66554E+00  5.69009E+00  5.71503E+00  5.74026E+00  5.76592E+00  5.79183E+00
   5.81810E+00  5.84457E+00  5.87143E+00  5.89858E+00  5.92615E+00  5.95396E+00  5.98215E+00  6.01061E+00
 NY background values follow
    -8.797E+00   -8.767E+00   -8.737E+00   -8.707E+00   -8.677E+00   -8.646E+00   -8.616E+00   -8.586E+00   -8.556E+00   -8.526E+00
    -8.496E+00   -8.465E+00   -8.435E+00   -8.405E+00   -8.375E+00   -8.345E+00   -8.315E+00   -8.284E+00   -8.254E+00   -8.224E+00
    -8.194E+00   -8.164E+00   -8.134E+00   -8.103E+00   -8.073E+00   -8.043E+00   -8.013E+00   -7.983E+00   -7.953E+00   -7.922E+00
    -7.892E+00   -7.862E+00   -7.832E+00   -7.802E+00   -7.771E+00   -7.741E+00   -7.711E+00   -7.681E+00   -7.651E+00   -7.621E+00
    -7.590E+00   -7.560E+00   -7.530E+00   -7.500E+00   -7.470E+00   -7.439E+00   -7.409E+00   -7.379E+00   -7.349E+00   -7.319E+00
    -7.288E+00   -7.258E+00   -7.228E+00   -7.198E+00   -7.168E+00   -7.137E+00   -7.107E+00   -7.077E+00   -7.047E+00   -7.017E+00
    -6.986E+00   -6.956E+00   -6.926E+00   -6.896E+00   -6.866E+00   -6.835E+00   -6.805E+00   -6.775E+00   -6.745E+00   -6.715E+00
    -6.684E+00   -6.654E+00   -6.624E+00   -6.594E+00   -6.564E+00   -6.533E+00   -6.503E+00   -6.473E+00   -6.443E+00   -6.413E+00
    -6.382E+00   -6.352E+00   -6.322E+00   -6.292E+00   -6.261E+00   -6.231E+00   -6.201E+00   -6.171E+00   -6.141E+00   -6.110E+00
    -6.080E+00   -6.050E+00   -6.020E+00   -5.990E+00   -5.959E+00   -5.929E+00   -5.899E+00   -5.869E+00   -5.838E+00   -5.808E+00
    -5.778E+00   -5.748E+00   -5.718E+00   -5.687E+00   -5.657E+00   -5.627E+00   -5.597E+00   -5.566E+00   -5.536E+00   -5.506E+00
    -5.476E+00   -5.446E+00   -5.415E+00   -5.385E+00   -5.355E+00   -5.325E+00   -5.294E+00   -5.264E+00   -5.234E+00   -5.204E+00
    -5.173E+00   -5.143E+00   -5.113E+00   -5.083E+00   -5.053E+00   -5.022E+00   -4.992E+00   -4.962E+00   -4.932E+00   -4.901E+00
    -4.871E+00   -4.841E+00   -4.811E+00   -4.781E+00   -4.750E+00   -4.720E+00   -4.690E+00   -4.660E+00   -4.629E+00   -4.599E+00
    -4.569E+00   -4.539E+00   -4.508E+00   -4.478E+00   -4.448E+00   -4.418E+00   -4.387E+00   -4.357E+00   -4.327E+00   -4.297E+00
    -4.267E+00   -4.236E+00   -4.206E+00   -4.176E+00   -4.146E+00   -4.115E+00   -4.085E+00   -4.055E+00   -4.025E+00   -3.994E+00
    -3.964E+00   -3.934E+00   -3.904E+00   -3.874E+00   -3.843E+00   -3.813E+00   -3.783E+00   -3.753E+00   -3.722E+00   -3.692E+00
    -3.662E+00   -3.632E+00   -3.601E+00   -3.571E+00   -3.541E+00   -3.511E+00   -3.480E+00   -3.450E+00   -3.420E+00   -3.390E+00
    -3.360E+00   -3.329E+00   -3.299E+00   -3.269E+00   -3.239E+00   -3.208E+00   -3.178E+00   -3.148E+00   -3.118E+00   -3.087E+00
    -3.057E+00   -3.027E+00   -2.997E+00   -2.966E+00   -2.936E+00   -2.906E+00   -2.876E+00   -2.845E+00   -2.815E+00   -2.785E+00
    -2.755E+00   -2.725E+00   -2.694E+00   -2.664E+00   -2.634E+00   -2.604E+00   -2.573E+00   -2.543E+00   -2.513E+00   -2.483E+00
    -2.452E+00   -2.422E+00   -2.392E+00   -2.362E+00   -2.332E+00   -2.301E+00   -2.271E+00   -2.241E+00   -2.211E+00   -2.180E+00
    -2.150E+00   -2.120E+00   -2.090E+00   -2.059E+00   -2.029E+00   -1.999E+00   -1.969E+00   -1.939E+00   -1.908E+00   -1.878E+00
    -1.848E+00   -1.818E+00   -1.787E+00   -1.757E+00   -1.727E+00   -1.697E+00   -1.666E+00   -1.636E+00   -1.606E+00   -1.576E+00
    -1.546E+00   -1.515E+00   -1.485E+00   -1.455E+00   -1.425E+00   -1.394E+00   -1.364E+00   -1.334E+00   -1.304E+00   -1.274E+00
    -1.243E+00   -1.213E+00   -1.183E+00   -1.153E+00   -1.122E+00   -1.092E+00   -1.062E+00   -1.032E+00   -1.002E+00   -9.713E-01
    -9.411E-01   -9.109E-01   -8.807E-01   -8.504E-01   -8.202E-01   -7.900E-01   -7.598E-01   -7.296E-01   -6.994E-01   -6.691E-01
    -6.389E-01   -6.087E-01   -5.785E-01   -5.483E-01   -5.181E-01   -4.879E-01   -4.576E-01   -4.274E-01   -3.972E-01   -3.670E-01
    -3.368E-01   -3.066E-01   -2.764E-01   -2.462E-01   -2.160E-01   -1.858E-01   -1.555E-01   -1.253E-01   -9.513E-02   -6.493E-02
    -3.472E-02   -4.515E-03    2.569E-02    5.589E-02    8.610E-02    1.163E-01    1.465E-01    1.767E-01    2.069E-01    2.371E-01
     2.673E-01    2.975E-01    3.277E-01    3.579E-01    3.881E-01    4.183E-01    4.485E-01    4.787E-01    5.089E-01    5.391E-01
     5.693E-01    5.995E-01    6.297E-01    6.599E-01    6.901E-01    7.202E-01    7.504E-01    7.806E-01    8.108E-01    8.410E-01
     8.712E-01    9.014E-01    9.316E-01    9.618E-01    9.919E-01    1.022E+00    1.052E+00    1.082E+00    1.113E+00    1.143E+00
     1.173E+00    1.203E+00    1.233E+00    1.264E+00    1.294E+00    1.324E+00    1.354E+00    1.384E+00    1.414E+00    1.445E+00
     1.475E+00    1.505E+00    1.535E+00    1.565E+00    1.596E+00    1.626E+00    1.656E+00    1.686E+00    1.716E+00    1.746E+00
     1.777E+00    1.807E+00    1.837E+00    1.867E+00    1.897E+00    1.927E+00    1.958E+00    1.988E+00    2.018E+00    2.048E+00
     2.078E+00    2.108E+00    2.138E+00    2.169E+00    2.199E+00    2.229E+00    2.259E+00    2.289E+00    2.319E+00    2.350E+00
     2.380E+00    2.410E+00    2.440E+00    2.470E+00    2.500E+00    2.530E+00    2.561E+00    2.591E+00    2.621E+00    2.651E+00
     2.681E+00    2.711E+00    2.741E+00    2.772E+00    2.802E+00    2.832E+00    2.862E+00    2.892E+00    2.922E+00    2.952E+00
     2.983E+00    3.013E+00    3.043E+00    3.073E+00    3.103E+00    3.133E+00    3.163E+00    3.193E+00    3.224E+00    3.254E+00
     3.284E+00    3.314E+00    3.344E+00    3.374E+00    3.404E+00    3.434E+00    3.464E+00    3.495E+00    3.525E+00    3.555E+00
     3.585E+00    3.615E+00    3.645E+00    3.675E+00    3.705E+00    3.735E+00    3.766E+00    3.796E+00    3.826E+00    3.856E+00
     3.886E+00    3.916E+00    3.946E+00    3.976E+00    4.006E+00    4.036E+00    4.067E+00    4.097E+00    4.127E+00    4.157E+00
     4.187E+00    4.217E+00    4.247E+00    4.277E+00    4.307E+00    4.337E+00    4.367E+00    4.397E+00    4.427E+00    4.458E+00
     4.488E+00    4.518E+00    4.548E+00    4.578E+00    4.608E+00    4.638E+00    4.668E+00    4.698E+00    4.728E+00    4.758E+00
     4.788E+00    4.818E+00    4.848E+00    4.878E+00    4.909E+00    4.939E+00    4.969E+00    4.999E+00    5.029E+00    5.059E+00
     5.089E+00    5.119E+00    5.149E+00    5.179E+00    5.209E+00    5.239E+00    5.269E+00    5.299E+00    5.329E+00    5.359E+00
     5.389E+00    5.419E+00    5.449E+00    5.479E+00    5.509E+00    5.539E+00    5.569E+00    5.599E+00    5.629E+00    5.659E+00
     5.689E+00    5.719E+00    5.749E+00    5.779E+00    5.809E+00    5.839E+00    5.869E+00    5.899E+00    5.929E+00    5.959E+00
     5.989E+00    6.019E+00    6.049E+00    6.079E+00    6.109E+00    6.139E+00    6.169E+00    6.199E+00
