 LCModel (Version 6.3-1L) Copyright: S.W. Provencher.          Ref.: Magn. Reson. Med. 30:672-679 (1993).                
 Slice#3 Row#9 Col#6  PD_24_press_2_raw_act
 36 lines in following concentration table = NCONC+1
    Conc.  %SD /Cr+PCr  Metabolite                                         
   77.138 149% 3.5E-02 Ala                                                 
  159.616 160% 7.3E-02 Asp                                                 
 1.24E+03  19%   0.564 Cr                                                  
  954.253  25%   0.436 PCr                                                 
    0.000 999%   0.000 GABA                                                
   83.650 201% 3.8E-02 Glc                                                 
  852.184  28%   0.389 Gln                                                 
 1.63E+03  16%   0.744 Glu                                                 
  508.147   5%   0.232 GPC                                                 
    0.000 999%   0.000 PCh                                                 
  819.230  10%   0.374 GSH                                                 
 1.76E+03  16%   0.802 Ins                                                 
  239.157  53%   0.109 Lac                                                 
 2.61E+03   5%   1.194 NAA                                                 
   11.021 999% 5.0E-03 NAAG                                                
   66.268  43% 3.0E-02 Scyllo                                              
    0.000 999%   0.000 Tau                                                 
    0.000 999%   0.000 -CrCH2                                              
  508.147   5%   0.232 GPC+PCh                                             
 2.63E+03   4%   1.199 NAA+NAAG                                            
 2.19E+03   3%   1.000 Cr+PCr                                              
 2.48E+03  15%   1.134 Glu+Gln                                             
 2.34E+03  23%   1.069 Lip13a                                              
    0.000 999%   0.000 Lip13b                                              
    0.000 999%   0.000 Lip09                                               
 1.65E+03  14%   0.754 MM09                                                
  399.278  68%   0.182 Lip20                                               
 3.79E+03  12%   1.729 MM20                                                
  536.470  33%   0.245 MM12                                                
 1.05E+03  38%   0.481 MM14                                                
 1.76E+03   9%   0.805 MM17                                                
 2.34E+03  23%   1.069 Lip13a+Lip13b                                       
 3.93E+03  12%   1.794 MM14+Lip13a+Lip13b+MM12                             
 1.65E+03  14%   0.754 MM09+Lip09                                          
 4.18E+03  11%   1.911 MM20+Lip20                                          
   6 lines in following misc. output table
  FWHM = 0.054 ppm    S/N =  12                                            
  Data shift = 0.015 ppm                                                   
  Ph:   3 deg       4.8 deg/ppm                                            
  alphaB,S = 1.5E+00,   1.3E+02                                            
   14 spline knots.   Ns = 6(1)                                            
  ( 9) 2 infls.   ( 5) 1 extrs.                                            
  498 points on ppm-axis = NY
      4.000000     3.992357     3.984714     3.977070     3.969427     3.961784     3.954141     3.946497     3.938854     3.931211
      3.923568     3.915925     3.908281     3.900638     3.892995     3.885352     3.877708     3.870065     3.862422     3.854779
      3.847136     3.839492     3.831849     3.824206     3.816563     3.808919     3.801276     3.793633     3.785990     3.778347
      3.770703     3.763060     3.755417     3.747774     3.740130     3.732487     3.724844     3.717201     3.709558     3.701914
      3.694271     3.686628     3.678985     3.671341     3.663698     3.656055     3.648412     3.640769     3.633125     3.625482
      3.617839     3.610196     3.602552     3.594909     3.587266     3.579623     3.571980     3.564336     3.556693     3.549050
      3.541407     3.533763     3.526120     3.518477     3.510834     3.503191     3.495547     3.487904     3.480261     3.472618
      3.464974     3.457331     3.449688     3.442045     3.434402     3.426758     3.419115     3.411472     3.403829     3.396185
      3.388542     3.380899     3.373256     3.365613     3.357969     3.350326     3.342683     3.335040     3.327396     3.319753
      3.312110     3.304467     3.296824     3.289180     3.281537     3.273894     3.266251     3.258607     3.250964     3.243321
      3.235678     3.228034     3.220391     3.212748     3.205105     3.197462     3.189818     3.182175     3.174532     3.166889
      3.159245     3.151602     3.143959     3.136316     3.128673     3.121029     3.113386     3.105743     3.098100     3.090456
      3.082813     3.075170     3.067527     3.059884     3.052240     3.044597     3.036954     3.029311     3.021667     3.014024
      3.006381     2.998738     2.991095     2.983451     2.975808     2.968165     2.960522     2.952878     2.945235     2.937592
      2.929949     2.922306     2.914662     2.907019     2.899376     2.891733     2.884089     2.876446     2.868803     2.861160
      2.853517     2.845873     2.838230     2.830587     2.822944     2.815300     2.807657     2.800014     2.792371     2.784728
      2.777084     2.769441     2.761798     2.754155     2.746511     2.738868     2.731225     2.723582     2.715939     2.708295
      2.700652     2.693009     2.685366     2.677722     2.670079     2.662436     2.654793     2.647150     2.639506     2.631863
      2.624220     2.616577     2.608933     2.601290     2.593647     2.586004     2.578361     2.570717     2.563074     2.555431
      2.547788     2.540144     2.532501     2.524858     2.517215     2.509572     2.501928     2.494285     2.486642     2.478999
      2.471355     2.463712     2.456069     2.448426     2.440783     2.433139     2.425496     2.417853     2.410210     2.402566
      2.394923     2.387280     2.379637     2.371994     2.364350     2.356707     2.349064     2.341421     2.333777     2.326134
      2.318491     2.310848     2.303205     2.295561     2.287918     2.280275     2.272632     2.264988     2.257345     2.249702
      2.242059     2.234416     2.226772     2.219129     2.211486     2.203843     2.196199     2.188556     2.180913     2.173270
      2.165627     2.157983     2.150340     2.142697     2.135054     2.127410     2.119767     2.112124     2.104481     2.096838
      2.089194     2.081551     2.073908     2.066265     2.058621     2.050978     2.043335     2.035692     2.028049     2.020405
      2.012762     2.005119     1.997476     1.989833     1.982190     1.974546     1.966903     1.959260     1.951617     1.943974
      1.936331     1.928688     1.921045     1.913402     1.905759     1.898115     1.890472     1.882829     1.875186     1.867543
      1.859900     1.852257     1.844614     1.836971     1.829327     1.821684     1.814041     1.806398     1.798755     1.791112
      1.783469     1.775826     1.768183     1.760540     1.752896     1.745253     1.737610     1.729967     1.722324     1.714681
      1.707038     1.699395     1.691752     1.684108     1.676465     1.668822     1.661179     1.653536     1.645893     1.638250
      1.630607     1.622964     1.615321     1.607677     1.600034     1.592391     1.584748     1.577105     1.569462     1.561819
      1.554176     1.546533     1.538890     1.531246     1.523603     1.515960     1.508317     1.500674     1.493031     1.485388
      1.477745     1.470102     1.462458     1.454815     1.447172     1.439529     1.431886     1.424243     1.416600     1.408957
      1.401314     1.393671     1.386027     1.378384     1.370741     1.363098     1.355455     1.347812     1.340169     1.332526
      1.324883     1.317240     1.309596     1.301953     1.294310     1.286667     1.279024     1.271381     1.263738     1.256095
      1.248452     1.240808     1.233165     1.225522     1.217879     1.210236     1.202593     1.194950     1.187307     1.179664
      1.172021     1.164377     1.156734     1.149091     1.141448     1.133805     1.126162     1.118519     1.110876     1.103233
      1.095590     1.087946     1.080303     1.072660     1.065017     1.057374     1.049731     1.042088     1.034445     1.026802
      1.019158     1.011515     1.003872     0.996229     0.988586     0.980943     0.973300     0.965657     0.958014     0.950371
      0.942727     0.935084     0.927441     0.919798     0.912155     0.904512     0.896869     0.889226     0.881583     0.873940
      0.866296     0.858653     0.851010     0.843367     0.835724     0.828081     0.820438     0.812795     0.805152     0.797508
      0.789865     0.782222     0.774579     0.766936     0.759293     0.751650     0.744007     0.736364     0.728721     0.721077
      0.713434     0.705791     0.698148     0.690505     0.682862     0.675219     0.667576     0.659933     0.652290     0.644646
      0.637003     0.629360     0.621717     0.614074     0.606431     0.598788     0.591145     0.583502     0.575858     0.568215
      0.560572     0.552929     0.545286     0.537643     0.530000     0.522357     0.514714     0.507071     0.499427     0.491784
      0.484141     0.476498     0.468855     0.461212     0.453569     0.445925     0.438282     0.430639     0.422996     0.415353
      0.407710     0.400067     0.392424     0.384780     0.377137     0.369494     0.361851     0.354208     0.346565     0.338922
      0.331278     0.323635     0.315992     0.308349     0.300706     0.293063     0.285420     0.277777     0.270133     0.262490
      0.254847     0.247204     0.239561     0.231918     0.224275     0.216631     0.208988     0.201345
 NY phased data points follow
   2.44999E+01  3.02653E+01  3.09911E+01  2.94191E+01  3.80883E+01  4.25440E+01  5.38484E+01  5.90397E+01  6.35670E+01  7.60725E+01
   8.23349E+01  8.33499E+01  8.02228E+01  8.38253E+01  6.99392E+01  5.57211E+01  4.82068E+01  5.19227E+01  3.64107E+01  3.65555E+01
   2.98666E+01  3.56652E+01  3.11519E+01  3.34157E+01  3.49791E+01  3.76949E+01  3.89417E+01  4.90618E+01  4.58536E+01  4.53230E+01
   5.12271E+01  5.31622E+01  4.67274E+01  4.50401E+01  4.15419E+01  3.90088E+01  3.81146E+01  3.34912E+01  3.54727E+01  3.35464E+01
   3.56961E+01  3.68805E+01  3.12714E+01  3.82911E+01  3.11153E+01  3.04405E+01  3.70759E+01  4.35478E+01  4.00171E+01  3.80507E+01
   3.76454E+01  3.21348E+01  3.38572E+01  2.81117E+01  3.00569E+01  2.28971E+01  3.07351E+01  2.97797E+01  3.34655E+01  3.07963E+01
   2.82377E+01  2.74252E+01  2.61143E+01  2.27964E+01  1.91141E+01  2.09096E+01  1.79099E+01  1.21656E+01  1.90478E+01  1.51221E+01
   1.95042E+01  1.95584E+01  1.67331E+01  2.53072E+01  2.00811E+01  1.95961E+01  1.86675E+01  2.33406E+01  1.69700E+01  1.25597E+01
   7.73941E+00  1.53370E+01  1.54634E+01  1.78261E+01  1.73951E+01  1.92276E+01  1.77614E+01  1.66321E+01  1.55627E+01  1.60697E+01
   1.51619E+01  1.43587E+01  1.32417E+01  1.25211E+01  1.63516E+01  1.58522E+01  1.89895E+01  1.64568E+01  2.35540E+01  1.81160E+01
   2.78228E+01  4.17426E+01  4.78546E+01  6.56260E+01  6.28725E+01  6.24005E+01  5.19516E+01  3.82859E+01  2.22066E+01  2.60895E+01
   2.30792E+01  1.72531E+01  2.01483E+01  2.19165E+01  1.58709E+01  1.36435E+01  1.65602E+01  1.46928E+01  1.08816E+01  7.03555E+00
   9.70865E+00  7.33840E+00  1.48620E+01  2.74078E+01  4.23404E+01  5.29155E+01  7.55106E+01  9.07759E+01  9.06149E+01  8.33190E+01
   6.75244E+01  5.73525E+01  3.79709E+01  3.33375E+01  2.81745E+01  1.46613E+01  1.14549E+01  1.10413E+01  1.11481E+01  1.02947E+01
   1.23500E+01  7.41928E+00  6.27573E+00  1.04695E+01  9.99529E+00  5.03379E+00  3.97389E+00  3.20346E+00  1.03240E+01  4.21738E+00
   8.98785E+00  1.06733E+01 -2.95961E-01  2.92983E+00  5.01232E+00 -4.79849E-01  5.36353E+00  4.84116E+00  1.50015E+01 -7.70709E-02
   6.32822E+00  9.37307E+00 -5.63367E-01  3.67819E+00 -2.51421E+00  4.62646E-01  3.52668E+00  5.11041E+00  9.92006E-01 -4.24237E-01
   2.86649E-01  1.21564E+00  8.67862E-01 -4.69609E+00 -3.50139E+00 -5.64640E+00 -9.80064E+00 -9.22716E+00 -2.91373E+00 -5.20213E+00
  -7.48532E+00 -4.11805E+00 -1.05738E+01 -8.99392E+00 -5.23312E+00 -4.44219E+00 -4.86226E+00 -2.23250E+00 -1.82937E+00 -1.36342E-01
   1.24306E+01  5.60676E+00  4.02032E+00  7.34775E+00  7.08453E+00  1.08584E+01  6.01661E+00  1.78733E-01 -2.16769E+00  2.70883E-01
   9.53369E-01 -1.27515E-01  3.42674E+00  7.42130E+00  3.62381E+00  5.50174E+00  5.51624E+00  7.21040E+00 -2.31252E+00 -9.02628E-01
  -1.49423E+00 -4.48557E+00  1.74501E+00  7.62271E+00  1.05238E+01  1.90807E+01  1.66675E+01  8.67163E+00  1.67270E+01  2.25524E+00
   1.72360E-01  1.77854E+00  9.47295E-01  5.63280E+00  3.72782E-01  5.51315E+00  1.34082E+01  1.15746E+01  1.44839E+01  1.29997E+01
   1.21473E+01  1.09065E+01  1.12924E+01  1.27339E+01  1.14740E+01  1.33878E+01  4.82955E+00  1.11065E+01  1.35084E+01  1.29827E+01
   1.23901E+01  1.16419E+01  9.25152E+00  1.39358E+01  1.24994E+01  1.20258E+01  1.32266E+01  1.39614E+01  1.40941E+01  1.33249E+01
   1.63375E+01  1.41249E+01  1.28664E+01  1.93239E+01  2.39812E+01  2.97504E+01  4.16047E+01  4.65102E+01  7.17530E+01  9.50968E+01
   1.05057E+02  1.07408E+02  9.69580E+01  7.84636E+01  5.11641E+01  4.12385E+01  2.51467E+01  2.66372E+01  1.78426E+01  1.81480E+01
   8.61647E+00  9.57692E+00  1.36401E+01  9.87755E+00  7.97815E+00  2.81413E+00  4.81670E+00  9.44425E+00  5.60313E+00 -3.50264E-01
   4.25579E+00  6.17665E+00  4.20352E+00  1.56713E+00  1.04808E+01  8.25259E+00 -1.34511E+00 -3.31425E-01  2.42258E+00  2.11966E+00
   2.38769E+00  4.10901E+00  7.52951E+00  2.96967E+00  7.15454E+00  8.51536E+00  2.30796E+00  1.12806E+01  6.75140E+00  1.27266E+01
   6.02596E+00  1.21573E+01  1.13197E+01  1.60654E+01  2.23420E+01  9.79785E+00  1.65639E+01  1.47284E+01  1.85148E+01  1.38316E+01
   1.44963E+01  1.92615E+01  1.95305E+01  1.43592E+01  1.60060E+01  1.17948E+01  1.13221E+01  7.52175E+00  3.07682E+00  8.15551E+00
   4.68593E+00  8.03695E+00  1.06384E+01  4.14939E+00 -6.76991E-01  8.28996E+00  5.48203E-01  1.19489E+00  8.91078E+00  3.18601E+00
   9.04434E+00  5.14355E+00  1.51336E+00  7.01975E+00  2.66487E+00  5.43452E+00  9.34697E+00  1.04401E+01  1.46325E+01  6.99178E+00
   1.46219E+01  8.87070E+00  1.11582E+01  8.87029E+00  1.29031E+01  1.77776E+01  9.80634E+00  1.73963E+01  1.03909E+01  6.70557E+00
   1.13766E+01  9.14044E+00  9.96716E+00  2.00481E+01  1.19941E+01  9.42929E+00  1.77003E+01  1.92945E+01  9.90560E+00  1.38128E+01
   1.90706E+01  1.17107E+01  1.77438E+01  1.15226E+01  1.14626E+01  1.60815E+01  8.35167E+00  8.85388E+00  1.19808E+01  1.14408E+01
   1.25949E+01  1.09284E+01  1.24085E+01  9.36060E+00  8.44358E+00 -1.60112E+00  6.07956E+00  5.27637E+00  5.52546E+00  6.80195E+00
   5.74661E+00 -1.47317E+00  8.72592E+00  6.56138E+00  2.41731E-01  4.16644E+00  7.50852E+00 -5.38103E+00  1.63345E-01  6.57987E+00
   6.80772E+00  4.73790E+00  3.68477E-01  6.54150E+00  2.54023E+00  4.51732E+00  1.27972E+01  6.54334E+00  1.08508E+01  6.14782E+00
   9.18423E+00  1.81763E+01  6.18504E+00  9.38890E+00  1.05715E+01  1.52510E+01  1.11778E+01  1.02363E+01  1.74321E+01  1.23099E+01
   1.14059E+01  1.11959E+01  5.95847E+00  1.04572E+01  8.99253E+00  1.15525E+01  9.04981E+00  5.76728E+00  8.89200E+00  3.51298E+00
   8.67326E+00  6.49445E+00  4.39291E+00 -6.65015E-01  2.52401E+00  7.01088E+00  3.11743E+00  5.47490E+00 -2.16225E-01  4.10935E+00
  -1.16818E+00 -2.86638E+00  3.26169E+00  2.82322E+00  5.24447E+00  4.38624E+00 -6.66144E-01 -3.51885E+00  4.42738E+00  6.00020E+00
   1.67341E+00 -1.48687E+00  5.90805E+00  2.30134E+00  2.03766E+00 -6.79103E-01  4.28881E+00  2.67670E+00  1.90390E+00 -5.60545E-01
  -6.80463E-01  2.57013E+00  6.65480E+00  1.39539E+00  4.02047E+00 -1.49616E+00  9.76092E-01  4.90189E+00 -2.81300E+00  6.72329E-01
   2.73157E+00  1.39343E+00 -7.64290E-01 -5.06375E+00  2.67139E+00  4.16578E-01 -6.17568E-01  3.52638E+00  2.47742E+00 -1.94972E+00
  -1.26744E+00  2.64575E+00 -2.58679E+00 -2.13020E+00  1.31077E+00  6.94352E+00  4.81493E+00  5.69107E+00  5.93980E+00  4.21711E+00
   3.72759E+00  1.56326E+00  7.27732E+00  5.64477E+00  4.50434E+00  2.63733E+00  7.05823E-01  5.21416E+00  7.53891E+00  9.61186E-01
  -1.70600E-01 -2.98169E-01  1.53453E+00  8.89889E+00  2.36774E+00 -1.83296E+00  3.24660E+00  2.81264E+00
 NY points of the fit to the data follow
   3.55794E+01  3.47561E+01  3.44520E+01  3.49048E+01  3.67656E+01  4.01903E+01  4.59077E+01  5.38243E+01  6.30675E+01  7.22446E+01
   7.93965E+01  8.24838E+01  8.04931E+01  7.41909E+01  6.55550E+01  5.66625E+01  4.88767E+01  4.30219E+01  3.90032E+01  3.59398E+01
   3.44623E+01  3.37555E+01  3.30957E+01  3.26704E+01  3.29547E+01  3.39226E+01  3.59030E+01  3.92882E+01  4.36634E+01  4.78774E+01
   5.07136E+01  5.13023E+01  4.93498E+01  4.56101E+01  4.13399E+01  3.71011E+01  3.29586E+01  2.97517E+01  2.83201E+01  2.77884E+01
   2.76926E+01  2.82225E+01  2.94493E+01  3.11802E+01  3.33369E+01  3.59470E+01  3.84269E+01  3.98582E+01  3.96707E+01  3.76759E+01
   3.43247E+01  3.06721E+01  2.76788E+01  2.55759E+01  2.42075E+01  2.36484E+01  2.40036E+01  2.49267E+01  2.59577E+01  2.67964E+01
   2.71361E+01  2.67648E+01  2.56644E+01  2.41165E+01  2.26051E+01  2.14964E+01  2.09271E+01  2.08894E+01  2.12662E+01  2.18462E+01
   2.24739E+01  2.29431E+01  2.31192E+01  2.29556E+01  2.24804E+01  2.18305E+01  2.11653E+01  2.05851E+01  2.00771E+01  1.96040E+01
   1.93025E+01  1.91705E+01  1.90867E+01  1.89945E+01  1.88317E+01  1.84203E+01  1.75791E+01  1.63432E+01  1.49968E+01  1.39188E+01
   1.34243E+01  1.35622E+01  1.40401E+01  1.45161E+01  1.49091E+01  1.51621E+01  1.52176E+01  1.59084E+01  1.87518E+01  2.38876E+01
   3.16216E+01  4.19798E+01  5.31325E+01  6.15813E+01  6.43092E+01  6.04497E+01  5.15309E+01  4.08941E+01  3.16854E+01  2.48141E+01
   1.92101E+01  1.49708E+01  1.33813E+01  1.29067E+01  1.26764E+01  1.25163E+01  1.23812E+01  1.22598E+01  1.21925E+01  1.22803E+01
   1.28075E+01  1.51189E+01  2.10532E+01  3.03436E+01  4.31611E+01  5.93465E+01  7.61005E+01  8.84387E+01  9.21293E+01  8.60908E+01
   7.28582E+01  5.73201E+01  4.36563E+01  3.26946E+01  2.27860E+01  1.47471E+01  1.09886E+01  9.67011E+00  9.74995E+00  1.06592E+01
   1.17801E+01  1.27202E+01  1.32079E+01  1.30887E+01  1.25312E+01  1.17631E+01  1.09111E+01  1.00924E+01  9.29309E+00  8.58249E+00
   7.98873E+00  7.46474E+00  7.01946E+00  6.68034E+00  6.44836E+00  6.22223E+00  5.92732E+00  5.52306E+00  4.95263E+00  4.28938E+00
   3.68138E+00  3.32608E+00  3.34855E+00  3.65970E+00  3.99294E+00  4.04460E+00  3.70223E+00  3.11013E+00  2.48443E+00  1.87000E+00
   1.24362E+00  5.56433E-01 -1.56774E-01 -8.07465E-01 -1.41275E+00 -1.92074E+00 -2.16798E+00 -2.10984E+00 -1.92183E+00 -1.85264E+00
  -2.01308E+00 -2.35002E+00 -2.64777E+00 -2.71661E+00 -2.60454E+00 -2.27529E+00 -1.39380E+00  2.14241E-01  2.41122E+00  4.64736E+00
   6.30272E+00  6.93584E+00  6.42589E+00  5.09093E+00  3.38621E+00  1.65678E+00  3.66778E-01 -4.11252E-02  5.90062E-01  2.17175E+00
   4.44143E+00  6.88672E+00  9.01523E+00  1.04216E+01  1.06927E+01  9.56098E+00  7.17807E+00  4.00083E+00  6.53167E-01 -2.01059E+00
  -3.11141E+00 -2.34963E+00  1.86353E-01  3.94981E+00  7.91668E+00  1.07669E+01  1.16513E+01  1.04112E+01  7.33986E+00  3.34616E+00
  -3.16387E-01 -2.78058E+00 -3.52224E+00 -2.34363E+00  5.69067E-01  4.05050E+00  6.99635E+00  8.88872E+00  9.75651E+00  9.87691E+00
   9.44375E+00  8.91922E+00  8.92777E+00  9.59079E+00  1.05920E+01  1.16192E+01  1.23461E+01  1.24897E+01  1.20871E+01  1.12790E+01
   1.02777E+01  9.43686E+00  9.15754E+00  9.59321E+00  1.05069E+01  1.17154E+01  1.30078E+01  1.39565E+01  1.43792E+01  1.45819E+01
   1.49530E+01  1.54526E+01  1.61555E+01  1.75124E+01  2.12187E+01  2.87424E+01  3.97677E+01  5.48815E+01  7.36394E+01  9.21402E+01
   1.04316E+02  1.05681E+02  9.56980E+01  7.80526E+01  5.89314E+01  4.31040E+01  3.09411E+01  2.05586E+01  1.33226E+01  1.04618E+01
   9.05397E+00  8.12884E+00  7.54373E+00  7.14667E+00  6.80492E+00  6.45838E+00  6.05396E+00  5.58759E+00  5.09465E+00  4.60567E+00
   4.13522E+00  3.71962E+00  3.39133E+00  3.14721E+00  2.96967E+00  2.84620E+00  2.77822E+00  2.77675E+00  2.84641E+00  2.99311E+00
   3.23258E+00  3.57584E+00  4.02909E+00  4.59416E+00  5.27018E+00  6.05249E+00  6.92995E+00  7.88823E+00  8.90928E+00  9.96770E+00
   1.10327E+01  1.20711E+01  1.30474E+01  1.39251E+01  1.46696E+01  1.52512E+01  1.56467E+01  1.58416E+01  1.58305E+01  1.56168E+01
   1.52124E+01  1.46384E+01  1.39224E+01  1.30974E+01  1.21994E+01  1.12656E+01  1.03318E+01  9.43136E+00  8.59437E+00  7.84754E+00
   7.21695E+00  6.73141E+00  6.38528E+00  6.14920E+00  6.00226E+00  5.89505E+00  5.75176E+00  5.52034E+00  5.21127E+00  4.91338E+00
   4.75134E+00  4.79849E+00  5.07878E+00  5.57452E+00  6.24590E+00  7.04497E+00  7.85221E+00  8.54321E+00  9.09794E+00  9.57354E+00
   1.00785E+01  1.07161E+01  1.14303E+01  1.21505E+01  1.28646E+01  1.34073E+01  1.35413E+01  1.31250E+01  1.22431E+01  1.12570E+01
   1.05448E+01  1.03574E+01  1.07924E+01  1.17518E+01  1.30336E+01  1.44381E+01  1.55793E+01  1.61371E+01  1.61311E+01  1.57639E+01
   1.52486E+01  1.46335E+01  1.38829E+01  1.31493E+01  1.24848E+01  1.18385E+01  1.11941E+01  1.05501E+01  9.91073E+00  9.28180E+00
   8.66987E+00  8.08118E+00  7.52144E+00  6.99569E+00  6.50824E+00  6.06260E+00  5.66148E+00  5.30685E+00  5.00016E+00  4.74257E+00
   4.53504E+00  4.37834E+00  4.27307E+00  4.21979E+00  4.21916E+00  4.27193E+00  4.37888E+00  4.54056E+00  4.75720E+00  5.02853E+00
   5.35375E+00  5.73124E+00  6.15821E+00  6.63048E+00  7.14225E+00  7.68612E+00  8.25311E+00  8.83265E+00  9.41262E+00  9.97968E+00
   1.05197E+01  1.10184E+01  1.14618E+01  1.18369E+01  1.21323E+01  1.23384E+01  1.24485E+01  1.24587E+01  1.23684E+01  1.21801E+01
   1.18992E+01  1.15337E+01  1.10942E+01  1.05927E+01  1.00425E+01  9.45735E+00  8.85063E+00  8.23514E+00  7.62264E+00  7.02348E+00
   6.44632E+00  5.89793E+00  5.38331E+00  4.90581E+00  4.46733E+00  4.06847E+00  3.70868E+00  3.38649E+00  3.09979E+00  2.84612E+00
   2.62284E+00  2.42720E+00  2.25640E+00  2.10768E+00  1.97850E+00  1.86658E+00  1.76990E+00  1.68661E+00  1.61500E+00  1.55358E+00
   1.50107E+00  1.45644E+00  1.41881E+00  1.38734E+00  1.36127E+00  1.33995E+00  1.32288E+00  1.30967E+00  1.29996E+00  1.29336E+00
   1.28950E+00  1.28812E+00  1.28903E+00  1.29211E+00  1.29717E+00  1.30399E+00  1.31237E+00  1.32222E+00  1.33347E+00  1.34605E+00
   1.35985E+00  1.37470E+00  1.39052E+00  1.40729E+00  1.42501E+00  1.44361E+00  1.46300E+00  1.48306E+00  1.50376E+00  1.52512E+00
   1.54715E+00  1.56979E+00  1.59293E+00  1.61654E+00  1.64061E+00  1.66518E+00  1.69023E+00  1.71570E+00  1.74151E+00  1.76763E+00
   1.79410E+00  1.82096E+00  1.84816E+00  1.87564E+00  1.90335E+00  1.93129E+00  1.95953E+00  1.98806E+00  2.01684E+00  2.04579E+00
   2.07491E+00  2.10423E+00  2.13379E+00  2.16359E+00  2.19356E+00  2.22366E+00  2.25391E+00  2.28437E+00
 NY background values follow
     3.104E+01    3.085E+01    3.065E+01    3.045E+01    3.025E+01    3.005E+01    2.986E+01    2.966E+01    2.946E+01    2.926E+01
     2.906E+01    2.887E+01    2.867E+01    2.847E+01    2.827E+01    2.807E+01    2.787E+01    2.768E+01    2.748E+01    2.728E+01
     2.708E+01    2.688E+01    2.669E+01    2.649E+01    2.629E+01    2.609E+01    2.589E+01    2.570E+01    2.550E+01    2.530E+01
     2.510E+01    2.490E+01    2.471E+01    2.451E+01    2.431E+01    2.411E+01    2.392E+01    2.372E+01    2.352E+01    2.333E+01
     2.313E+01    2.293E+01    2.274E+01    2.254E+01    2.234E+01    2.215E+01    2.195E+01    2.176E+01    2.156E+01    2.136E+01
     2.117E+01    2.097E+01    2.078E+01    2.058E+01    2.039E+01    2.020E+01    2.000E+01    1.981E+01    1.962E+01    1.942E+01
     1.923E+01    1.904E+01    1.885E+01    1.865E+01    1.846E+01    1.827E+01    1.808E+01    1.789E+01    1.770E+01    1.752E+01
     1.733E+01    1.714E+01    1.695E+01    1.677E+01    1.658E+01    1.639E+01    1.621E+01    1.603E+01    1.584E+01    1.566E+01
     1.548E+01    1.529E+01    1.511E+01    1.493E+01    1.475E+01    1.458E+01    1.440E+01    1.422E+01    1.404E+01    1.387E+01
     1.369E+01    1.352E+01    1.334E+01    1.317E+01    1.300E+01    1.283E+01    1.266E+01    1.249E+01    1.232E+01    1.216E+01
     1.199E+01    1.182E+01    1.166E+01    1.150E+01    1.133E+01    1.117E+01    1.101E+01    1.085E+01    1.069E+01    1.053E+01
     1.038E+01    1.022E+01    1.007E+01    9.912E+00    9.759E+00    9.607E+00    9.456E+00    9.306E+00    9.157E+00    9.010E+00
     8.863E+00    8.717E+00    8.573E+00    8.430E+00    8.287E+00    8.146E+00    8.006E+00    7.867E+00    7.730E+00    7.593E+00
     7.458E+00    7.323E+00    7.190E+00    7.058E+00    6.927E+00    6.798E+00    6.670E+00    6.543E+00    6.417E+00    6.292E+00
     6.168E+00    6.046E+00    5.925E+00    5.805E+00    5.687E+00    5.569E+00    5.453E+00    5.338E+00    5.224E+00    5.112E+00
     5.000E+00    4.890E+00    4.781E+00    4.673E+00    4.566E+00    4.461E+00    4.357E+00    4.254E+00    4.152E+00    4.051E+00
     3.952E+00    3.854E+00    3.757E+00    3.661E+00    3.566E+00    3.472E+00    3.380E+00    3.289E+00    3.199E+00    3.110E+00
     3.023E+00    2.936E+00    2.851E+00    2.767E+00    2.684E+00    2.603E+00    2.522E+00    2.443E+00    2.365E+00    2.288E+00
     2.212E+00    2.137E+00    2.064E+00    1.991E+00    1.920E+00    1.850E+00    1.781E+00    1.713E+00    1.647E+00    1.581E+00
     1.516E+00    1.453E+00    1.390E+00    1.329E+00    1.268E+00    1.208E+00    1.150E+00    1.092E+00    1.035E+00    9.795E-01
     9.246E-01    8.706E-01    8.174E-01    7.651E-01    7.137E-01    6.631E-01    6.133E-01    5.643E-01    5.161E-01    4.687E-01
     4.220E-01    3.761E-01    3.309E-01    2.864E-01    2.427E-01    1.996E-01    1.572E-01    1.154E-01    7.429E-02    3.380E-02
    -6.066E-03   -4.534E-02   -8.403E-02   -1.221E-01   -1.597E-01   -1.967E-01   -2.332E-01   -2.692E-01   -3.047E-01   -3.396E-01
    -3.741E-01   -4.081E-01   -4.416E-01   -4.746E-01   -5.071E-01   -5.391E-01   -5.707E-01   -6.018E-01   -6.324E-01   -6.626E-01
    -6.923E-01   -7.215E-01   -7.503E-01   -7.787E-01   -8.066E-01   -8.341E-01   -8.612E-01   -8.878E-01   -9.140E-01   -9.398E-01
    -9.652E-01   -9.901E-01   -1.015E+00   -1.039E+00   -1.063E+00   -1.086E+00   -1.109E+00   -1.132E+00   -1.154E+00   -1.176E+00
    -1.197E+00   -1.218E+00   -1.239E+00   -1.259E+00   -1.279E+00   -1.299E+00   -1.318E+00   -1.337E+00   -1.356E+00   -1.374E+00
    -1.392E+00   -1.410E+00   -1.427E+00   -1.444E+00   -1.461E+00   -1.477E+00   -1.494E+00   -1.509E+00   -1.525E+00   -1.540E+00
    -1.555E+00   -1.569E+00   -1.583E+00   -1.597E+00   -1.611E+00   -1.624E+00   -1.637E+00   -1.650E+00   -1.662E+00   -1.674E+00
    -1.686E+00   -1.697E+00   -1.708E+00   -1.719E+00   -1.729E+00   -1.740E+00   -1.750E+00   -1.759E+00   -1.768E+00   -1.777E+00
    -1.786E+00   -1.794E+00   -1.802E+00   -1.810E+00   -1.818E+00   -1.825E+00   -1.832E+00   -1.838E+00   -1.845E+00   -1.850E+00
    -1.856E+00   -1.862E+00   -1.867E+00   -1.871E+00   -1.876E+00   -1.880E+00   -1.884E+00   -1.888E+00   -1.891E+00   -1.894E+00
    -1.897E+00   -1.899E+00   -1.902E+00   -1.903E+00   -1.905E+00   -1.906E+00   -1.907E+00   -1.908E+00   -1.909E+00   -1.909E+00
    -1.909E+00   -1.908E+00   -1.907E+00   -1.906E+00   -1.905E+00   -1.903E+00   -1.901E+00   -1.899E+00   -1.897E+00   -1.894E+00
    -1.891E+00   -1.887E+00   -1.884E+00   -1.880E+00   -1.875E+00   -1.871E+00   -1.866E+00   -1.861E+00   -1.855E+00   -1.850E+00
    -1.844E+00   -1.837E+00   -1.831E+00   -1.824E+00   -1.816E+00   -1.809E+00   -1.801E+00   -1.793E+00   -1.784E+00   -1.776E+00
    -1.767E+00   -1.757E+00   -1.748E+00   -1.738E+00   -1.727E+00   -1.717E+00   -1.706E+00   -1.695E+00   -1.683E+00   -1.672E+00
    -1.660E+00   -1.647E+00   -1.635E+00   -1.622E+00   -1.608E+00   -1.595E+00   -1.581E+00   -1.567E+00   -1.552E+00   -1.537E+00
    -1.522E+00   -1.507E+00   -1.491E+00   -1.475E+00   -1.459E+00   -1.442E+00   -1.425E+00   -1.408E+00   -1.391E+00   -1.373E+00
    -1.355E+00   -1.336E+00   -1.317E+00   -1.298E+00   -1.279E+00   -1.259E+00   -1.239E+00   -1.219E+00   -1.198E+00   -1.177E+00
    -1.156E+00   -1.134E+00   -1.112E+00   -1.090E+00   -1.067E+00   -1.045E+00   -1.021E+00   -9.980E-01   -9.742E-01   -9.501E-01
    -9.257E-01   -9.010E-01   -8.760E-01   -8.507E-01   -8.251E-01   -7.992E-01   -7.731E-01   -7.467E-01   -7.200E-01   -6.930E-01
    -6.658E-01   -6.383E-01   -6.105E-01   -5.825E-01   -5.543E-01   -5.258E-01   -4.971E-01   -4.681E-01   -4.389E-01   -4.095E-01
    -3.799E-01   -3.500E-01   -3.200E-01   -2.897E-01   -2.592E-01   -2.285E-01   -1.977E-01   -1.666E-01   -1.354E-01   -1.039E-01
    -7.230E-02   -4.050E-02   -8.539E-03    2.359E-02    5.589E-02    8.834E-02    1.209E-01    1.537E-01    1.866E-01    2.197E-01
     2.528E-01    2.862E-01    3.196E-01    3.532E-01    3.869E-01    4.207E-01    4.546E-01    4.886E-01    5.228E-01    5.570E-01
     5.914E-01    6.259E-01    6.604E-01    6.950E-01    7.298E-01    7.646E-01    7.995E-01    8.344E-01    8.695E-01    9.046E-01
     9.398E-01    9.750E-01    1.010E+00    1.046E+00    1.081E+00    1.117E+00    1.152E+00    1.188E+00    1.223E+00    1.259E+00
     1.295E+00    1.330E+00    1.366E+00    1.402E+00    1.438E+00    1.473E+00    1.509E+00    1.545E+00    1.581E+00    1.617E+00
     1.652E+00    1.688E+00    1.724E+00    1.760E+00    1.796E+00    1.831E+00    1.867E+00    1.903E+00
 Ala      Conc. = 7.71E+01
