 LCModel (Version 6.3-1L) Copyright: S.W. Provencher.          Ref.: Magn. Reson. Med. 30:672-679 (1993).                
 Slice#2 Row#12 Col#12  PD_24_press_2_raw_act
 36 lines in following concentration table = NCONC+1
    Conc.  %SD /Cr+PCr  Metabolite                                         
  409.095  38%  23.854 Ala                                                 
    3.889  59%   0.227 Asp                                                 
   17.150 128%   1.000 Cr                                                  
    0.000 999%   0.000 PCr                                                 
    2.336  59%   0.136 GABA                                                
    2.346  59%   0.137 Glc                                                 
    0.000 999%   0.000 Gln                                                 
    0.000 999%   0.000 Glu                                                 
   20.379  41%   1.188 GPC                                                 
    0.000 999%   0.000 PCh                                                 
   90.809  41%   5.295 GSH                                                 
  190.287  42%  11.096 Ins                                                 
    0.000 999%   0.000 Lac                                                 
    0.000 999%   0.000 NAA                                                 
    0.000 999%   0.000 NAAG                                                
    0.781  59% 4.6E-02 Scyllo                                              
    3.916  58%   0.228 Tau                                                 
    1.636 162% 9.5E-02 -CrCH2                                              
   20.379  41%   1.188 GPC+PCh                                             
    0.000 999%   0.000 NAA+NAAG                                            
   17.150 128%   1.000 Cr+PCr                                              
    0.000 999%   0.000 Glu+Gln                                             
    0.000 999%   0.000 Lip13a                                              
    0.000 999%   0.000 Lip13b                                              
    0.000 999%   0.000 Lip09                                               
   77.374  37%   4.512 MM09                                                
    0.000 999%   0.000 Lip20                                               
    0.000 999%   0.000 MM20                                                
    3.355 647%   0.196 MM12                                                
  358.589  15%  20.909 MM14                                                
  283.173  18%  16.512+MM17                                                
    0.000 999%   0.000 Lip13a+Lip13b                                       
  361.944  17%  21.105 MM14+Lip13a+Lip13b+MM12                             
   77.374  37%   4.512 MM09+Lip09                                          
    0.000 999%   0.000 MM20+Lip20                                          
   6 lines in following misc. output table
  FWHM = 0.138 ppm    S/N =   2                                            
  Data shift = 0.122 ppm                                                   
  Ph:-156 deg      -0.4 deg/ppm                                            
  alphaB,S = 8.5E+01,   2.0E+02                                            
    9 spline knots.   Ns = 9(2)                                            
   2 inflections.     1 extrema                                            
  498 points on ppm-axis = NY
      4.000000     3.992357     3.984714     3.977070     3.969427     3.961784     3.954141     3.946497     3.938854     3.931211
      3.923568     3.915925     3.908281     3.900638     3.892995     3.885352     3.877708     3.870065     3.862422     3.854779
      3.847136     3.839492     3.831849     3.824206     3.816563     3.808919     3.801276     3.793633     3.785990     3.778347
      3.770703     3.763060     3.755417     3.747774     3.740130     3.732487     3.724844     3.717201     3.709558     3.701914
      3.694271     3.686628     3.678985     3.671341     3.663698     3.656055     3.648412     3.640769     3.633125     3.625482
      3.617839     3.610196     3.602552     3.594909     3.587266     3.579623     3.571980     3.564336     3.556693     3.549050
      3.541407     3.533763     3.526120     3.518477     3.510834     3.503191     3.495547     3.487904     3.480261     3.472618
      3.464974     3.457331     3.449688     3.442045     3.434402     3.426758     3.419115     3.411472     3.403829     3.396185
      3.388542     3.380899     3.373256     3.365613     3.357969     3.350326     3.342683     3.335040     3.327396     3.319753
      3.312110     3.304467     3.296824     3.289180     3.281537     3.273894     3.266251     3.258607     3.250964     3.243321
      3.235678     3.228034     3.220391     3.212748     3.205105     3.197462     3.189818     3.182175     3.174532     3.166889
      3.159245     3.151602     3.143959     3.136316     3.128673     3.121029     3.113386     3.105743     3.098100     3.090456
      3.082813     3.075170     3.067527     3.059884     3.052240     3.044597     3.036954     3.029311     3.021667     3.014024
      3.006381     2.998738     2.991095     2.983451     2.975808     2.968165     2.960522     2.952878     2.945235     2.937592
      2.929949     2.922306     2.914662     2.907019     2.899376     2.891733     2.884089     2.876446     2.868803     2.861160
      2.853517     2.845873     2.838230     2.830587     2.822944     2.815300     2.807657     2.800014     2.792371     2.784728
      2.777084     2.769441     2.761798     2.754155     2.746511     2.738868     2.731225     2.723582     2.715939     2.708295
      2.700652     2.693009     2.685366     2.677722     2.670079     2.662436     2.654793     2.647150     2.639506     2.631863
      2.624220     2.616577     2.608933     2.601290     2.593647     2.586004     2.578361     2.570717     2.563074     2.555431
      2.547788     2.540144     2.532501     2.524858     2.517215     2.509572     2.501928     2.494285     2.486642     2.478999
      2.471355     2.463712     2.456069     2.448426     2.440783     2.433139     2.425496     2.417853     2.410210     2.402566
      2.394923     2.387280     2.379637     2.371994     2.364350     2.356707     2.349064     2.341421     2.333777     2.326134
      2.318491     2.310848     2.303205     2.295561     2.287918     2.280275     2.272632     2.264988     2.257345     2.249702
      2.242059     2.234416     2.226772     2.219129     2.211486     2.203843     2.196199     2.188556     2.180913     2.173270
      2.165627     2.157983     2.150340     2.142697     2.135054     2.127410     2.119767     2.112124     2.104481     2.096838
      2.089194     2.081551     2.073908     2.066265     2.058621     2.050978     2.043335     2.035692     2.028049     2.020405
      2.012762     2.005119     1.997476     1.989833     1.982190     1.974546     1.966903     1.959260     1.951617     1.943974
      1.936331     1.928688     1.921045     1.913402     1.905759     1.898115     1.890472     1.882829     1.875186     1.867543
      1.859900     1.852257     1.844614     1.836971     1.829327     1.821684     1.814041     1.806398     1.798755     1.791112
      1.783469     1.775826     1.768183     1.760540     1.752896     1.745253     1.737610     1.729967     1.722324     1.714681
      1.707038     1.699395     1.691752     1.684108     1.676465     1.668822     1.661179     1.653536     1.645893     1.638250
      1.630607     1.622964     1.615321     1.607677     1.600034     1.592391     1.584748     1.577105     1.569462     1.561819
      1.554176     1.546533     1.538890     1.531246     1.523603     1.515960     1.508317     1.500674     1.493031     1.485388
      1.477745     1.470102     1.462458     1.454815     1.447172     1.439529     1.431886     1.424243     1.416600     1.408957
      1.401314     1.393671     1.386027     1.378384     1.370741     1.363098     1.355455     1.347812     1.340169     1.332526
      1.324883     1.317240     1.309596     1.301953     1.294310     1.286667     1.279024     1.271381     1.263738     1.256095
      1.248452     1.240808     1.233165     1.225522     1.217879     1.210236     1.202593     1.194950     1.187307     1.179664
      1.172021     1.164377     1.156734     1.149091     1.141448     1.133805     1.126162     1.118519     1.110876     1.103233
      1.095590     1.087946     1.080303     1.072660     1.065017     1.057374     1.049731     1.042088     1.034445     1.026802
      1.019158     1.011515     1.003872     0.996229     0.988586     0.980943     0.973300     0.965657     0.958014     0.950371
      0.942727     0.935084     0.927441     0.919798     0.912155     0.904512     0.896869     0.889226     0.881583     0.873940
      0.866296     0.858653     0.851010     0.843367     0.835724     0.828081     0.820438     0.812795     0.805152     0.797508
      0.789865     0.782222     0.774579     0.766936     0.759293     0.751650     0.744007     0.736364     0.728721     0.721077
      0.713434     0.705791     0.698148     0.690505     0.682862     0.675219     0.667576     0.659933     0.652290     0.644646
      0.637003     0.629360     0.621717     0.614074     0.606431     0.598788     0.591145     0.583502     0.575858     0.568215
      0.560572     0.552929     0.545286     0.537643     0.530000     0.522357     0.514714     0.507071     0.499427     0.491784
      0.484141     0.476498     0.468855     0.461212     0.453569     0.445925     0.438282     0.430639     0.422996     0.415353
      0.407710     0.400067     0.392424     0.384780     0.377137     0.369494     0.361851     0.354208     0.346565     0.338922
      0.331278     0.323635     0.315992     0.308349     0.300706     0.293063     0.285420     0.277777     0.270133     0.262490
      0.254847     0.247204     0.239561     0.231918     0.224275     0.216631     0.208988     0.201345
 NY phased data points follow
   1.03492E+00 -4.49238E-01  1.55165E+00  1.13267E+00  3.56796E+00  1.75369E+00  1.89481E+00  2.26547E+00  1.65286E+00  3.17243E+00
   1.02358E+00  2.14670E+00  8.12768E-01  1.25474E+00  2.29897E+00  1.59112E+00  8.21711E-01  1.36213E+00  2.73812E+00  7.23639E-01
   6.52774E-01  1.10840E+00  1.86906E+00  5.18080E-01  1.28157E+00  2.03299E+00  1.80415E+00  1.36711E+00  2.11615E+00  1.82557E+00
   1.63744E+00  2.70215E+00  3.20412E+00  8.44734E-01  1.43931E+00  8.08932E-01  3.50907E+00  1.00679E+00  1.54994E+00 -6.62331E-02
   7.79642E-01  1.75414E+00  1.33922E+00  7.58459E-01  1.04672E+00  6.57014E-01  1.45052E+00  2.00373E+00  9.14730E-01  1.76087E+00
   1.98016E+00  9.59237E-01  1.61593E+00  1.81494E+00  2.83222E+00  2.85823E+00  2.34367E+00  1.28520E+00 -9.33148E-01  1.89356E+00
   1.15640E+00  1.11023E+00  2.06745E+00  9.89136E-01  8.39985E-01  2.13557E+00  8.15577E-01  1.49375E+00  3.57714E-01  1.50800E+00
   1.56438E+00 -9.98737E-02  1.60320E+00  1.95421E+00  1.82357E+00  1.62129E+00  4.32086E-01  5.38726E-01  6.96893E-02  4.06954E-01
  -4.10707E-01  1.09718E-01  7.00591E-01 -2.87109E-01  1.96258E+00  1.84005E+00  5.69750E-01  2.38107E+00  2.57932E+00  9.32311E-01
   6.15094E-01 -1.16450E+00  1.08357E+00  1.32298E+00  1.20172E+00  2.03019E+00  1.14021E+00  1.50767E+00  3.76207E-01  1.61621E+00
   2.43124E+00  2.25447E+00  9.89392E-01  1.65823E+00  5.46867E-01  1.26661E+00  9.52088E-01  1.10309E+00  1.50921E+00  8.95954E-01
   2.14557E+00  9.35456E-01  1.96453E+00  4.66569E-01  7.11353E-01 -6.31715E-01 -9.76092E-01  9.48982E-01  7.85934E-01  1.46448E+00
   2.13243E+00  1.11282E-01  2.82037E-01  2.42392E-01  1.96505E+00  1.73774E+00  1.94041E+00  1.10032E+00  4.87371E-02  1.51728E+00
  -1.20558E-01  1.82665E+00  1.11937E+00 -6.11429E-01  1.52688E+00  9.50655E-01  5.30166E-01  1.50505E+00  1.50896E-01  7.40166E-01
   1.03980E+00  7.31116E-01  8.32370E-01  2.80225E+00  1.65552E+00  1.64169E+00  9.60514E-01  1.67225E+00  1.97637E+00  9.39155E-01
  -9.91877E-02  8.76390E-01  1.13037E+00  1.30285E+00  1.06880E+00  1.52434E+00  1.73812E-01  8.78110E-01  1.52884E+00  7.68036E-01
   1.27602E+00  5.62227E-01  2.28379E+00  1.09677E+00  1.39636E+00  7.45976E-01  5.22933E-01  2.03787E+00  1.23559E+00  8.31334E-01
   1.69417E+00  3.28452E-01  5.67932E-02 -2.57835E-02  1.34651E+00  9.78472E-01  1.25046E+00  8.86357E-01  9.99108E-01  5.12103E-01
   2.53213E-01  1.08620E+00  1.23922E+00  7.39698E-01  8.06883E-01  1.84531E+00  1.10239E+00  2.14305E+00  8.54262E-01  4.70342E-01
   1.12513E+00  8.06923E-01  1.14932E+00  2.23938E+00  1.03234E+00  1.19270E+00  1.17622E+00 -5.42414E-01  7.94779E-01  1.43433E+00
   1.36691E+00  1.22201E+00  2.43256E+00  2.16997E+00 -4.95492E-01  9.48299E-01  1.77277E+00  2.19808E+00  1.21912E+00  2.24116E+00
   1.63503E+00  1.15123E+00  2.63901E+00  9.30184E-01  1.75035E+00  2.61034E-01  1.95399E+00  5.17908E-01  1.24883E+00  1.97773E+00
   1.00523E+00  7.18544E-01  1.04937E+00 -1.33875E+00  1.53689E+00  5.24289E-01  1.18077E-01 -3.89924E-01 -7.15805E-01 -4.24529E-01
  -1.07375E-01 -5.45679E-01  1.42350E-02 -1.23472E+00  1.99463E+00 -2.06180E+00  1.34513E-01 -1.40669E+00  9.24570E-01 -3.46765E-01
   9.43827E-02  1.43480E+00  2.23843E+00 -4.93258E-01 -1.29777E+00  1.32816E+00 -4.12229E-01  2.32795E+00 -4.48135E-01  7.19233E-01
  -1.87350E-01  1.82202E+00  1.44375E+00  2.17466E+00  1.32380E+00  6.13782E-01  1.91216E+00  1.18496E+00  6.37950E-02  1.17999E+00
   4.89129E-01  2.45687E-01 -3.45582E-01 -1.30064E-01 -5.42290E-02 -6.57745E-01 -1.94142E-01 -9.29415E-01 -1.68357E+00 -1.51855E+00
  -1.08331E+00  5.06806E-01 -4.76101E-01  1.98203E-01  3.98905E-01 -6.11164E-01  4.55477E-01  5.08747E-01  6.03495E-01  3.96547E-01
   5.28503E-01 -1.48388E+00 -4.04047E-01  1.20129E+00 -2.96810E-01  5.41687E-01 -9.79257E-02  3.91951E-01  1.10886E+00  1.47993E+00
   1.89929E+00  2.52542E+00  1.49567E-01  3.62122E+00  1.55214E+00  1.73213E+00  2.22574E+00  1.19785E+00  4.01064E+00  3.13534E+00
   3.48143E+00  4.09014E+00  4.84940E+00  3.66727E+00  4.41420E+00  4.27128E+00  5.22571E+00  5.08907E+00  4.75045E+00  4.69327E+00
   5.50970E+00  6.89363E+00  6.16997E+00  5.93559E+00  5.94431E+00  5.31743E+00  6.06910E+00  6.53214E+00  4.60703E+00  5.48610E+00
   4.85376E+00  4.67572E+00  5.39532E+00  3.62165E+00  3.22667E+00  3.88302E+00  2.58753E+00  2.85558E+00  3.36159E+00  8.99615E-01
   1.29357E+00  2.43284E+00  2.16074E+00  2.28439E+00  2.00559E+00  1.84045E+00  2.78084E+00  2.50936E+00  7.20199E-01  7.02534E-01
   1.27951E+00  1.67432E+00  1.02918E+00  2.65574E+00 -1.69617E-01  4.51536E-01  8.09312E-01 -5.04291E-01  7.37117E-01  1.18948E+00
   5.61049E-01  9.77429E-02 -1.06339E+00  8.38823E-01  2.30459E-01  7.58466E-01 -5.88178E-01 -3.27931E-02 -3.61542E-01  2.68676E-01
   1.47203E+00  3.71073E-01  1.04648E-01 -1.05133E+00  3.97966E-01  1.00805E+00  1.55082E+00  4.65247E-01 -5.74778E-01 -4.07789E-02
   1.25472E+00  8.48651E-02 -2.94664E-01 -1.84104E-01  2.67849E+00  1.36719E+00 -5.63419E-01 -4.80208E-01  6.37359E-01 -2.19074E-01
   1.91651E+00  2.39597E-01  1.25154E+00 -5.90954E-01  5.83881E-01 -1.19368E-02  3.73743E-01 -1.15240E+00  1.76462E+00  1.44310E+00
  -2.59334E-01  1.82928E+00 -4.26566E-01  5.87275E-01  1.79192E+00 -8.72101E-01  3.51825E-01  1.25503E+00  8.41861E-01  1.11661E+00
   1.12563E+00  1.43355E+00  1.58168E+00  1.25882E+00 -4.94450E-01  8.37736E-02  1.21502E+00  1.78559E+00  8.31309E-01  2.32683E+00
   1.71995E+00  5.68418E-01  2.14350E+00  3.11091E-01  7.26225E-01  1.11163E+00  1.24560E+00  5.94548E-01  2.43560E+00  7.82612E-01
   1.60556E+00  1.38304E+00  2.62714E+00  7.99621E-01  1.73513E+00  1.92345E-01  8.18169E-01 -6.78592E-01  1.13570E+00  7.30226E-01
   1.87898E-01  1.09848E-01  9.06556E-01  6.79552E-01  1.66876E+00 -6.00390E-01  1.95122E+00  1.44698E+00  1.77192E+00  1.72944E+00
   6.13689E-01  1.33195E+00  1.62541E+00  5.89245E-01  1.87140E+00  1.89046E+00  1.25689E+00 -9.78647E-02  1.69785E+00 -1.31694E-01
   9.80962E-01  2.05099E+00  2.50878E-01  3.72710E-01  9.60410E-01  9.66062E-01  8.70035E-01 -1.04642E+00  1.10456E+00 -4.12919E-02
  -4.31185E-01  9.54610E-01  5.25477E-01  2.87472E-01 -5.49482E-02  1.76781E+00  2.41473E-01  1.49823E-01  1.63523E+00  7.41371E-02
   7.11651E-01  4.41239E-01  2.75053E-01  1.00869E+00  3.38968E-01  1.29702E+00  7.13987E-01  1.32781E+00  1.81786E+00  9.58732E-01
   6.22896E-01 -3.23243E-01  5.31043E-01  1.04847E+00  1.76525E+00  4.55500E-01  1.49736E+00  7.67497E-01 -3.74167E-01  5.89124E-01
  -2.37472E-01  7.18243E-01  6.05516E-01  1.27904E+00  4.55503E-01  9.48359E-01  8.85632E-01  1.14600E+00
 NY points of the fit to the data follow
   1.38537E+00  1.36880E+00  1.33237E+00  1.32644E+00  1.29316E+00  1.30210E+00  1.27609E+00  1.31025E+00  1.26751E+00  1.31627E+00
   1.25214E+00  1.32831E+00  1.28244E+00  1.36330E+00  1.33200E+00  1.42156E+00  1.41168E+00  1.49557E+00  1.51533E+00  1.58075E+00
   1.63543E+00  1.66542E+00  1.74174E+00  1.72006E+00  1.81872E+00  1.74660E+00  1.86738E+00  1.75033E+00  1.88834E+00  1.75081E+00
   1.89962E+00  1.74610E+00  1.88581E+00  1.72203E+00  1.84717E+00  1.68093E+00  1.78973E+00  1.63198E+00  1.72392E+00  1.58244E+00
   1.65540E+00  1.53787E+00  1.59636E+00  1.50280E+00  1.54841E+00  1.46905E+00  1.49657E+00  1.42670E+00  1.43082E+00  1.36968E+00
   1.36562E+00  1.32169E+00  1.32299E+00  1.28616E+00  1.28592E+00  1.25749E+00  1.26211E+00  1.23539E+00  1.24334E+00  1.21928E+00
   1.23013E+00  1.20600E+00  1.21612E+00  1.19036E+00  1.20252E+00  1.17606E+00  1.18877E+00  1.16200E+00  1.17503E+00  1.14589E+00
   1.15460E+00  1.11510E+00  1.11529E+00  1.06793E+00  1.06372E+00  1.01278E+00  1.00830E+00  9.55305E-01  9.54543E-01  9.00391E-01
   9.03549E-01  8.52391E-01  8.62663E-01  8.19731E-01  8.53528E-01  8.49266E-01  8.90752E-01  9.26035E-01  9.58474E-01  1.02818E+00
   1.04274E+00  1.14466E+00  1.13498E+00  1.26657E+00  1.22611E+00  1.37833E+00  1.30168E+00  1.46185E+00  1.35017E+00  1.50524E+00
   1.36345E+00  1.49926E+00  1.33680E+00  1.44505E+00  1.27624E+00  1.35638E+00  1.19761E+00  1.25673E+00  1.11891E+00  1.16921E+00
   1.05324E+00  1.09612E+00  1.00384E+00  1.04403E+00  9.77150E-01  1.02491E+00  9.81595E-01  1.03062E+00  9.99435E-01  1.04043E+00
   1.01154E+00  1.04384E+00  1.02075E+00  1.05027E+00  1.03821E+00  1.06455E+00  1.05220E+00  1.06152E+00  1.04951E+00  1.04259E+00
   1.03450E+00  1.01584E+00  1.01358E+00  9.86522E-01  9.90360E-01  9.57368E-01  9.66769E-01  9.30747E-01  9.44692E-01  9.06401E-01
   9.21265E-01  8.80952E-01  8.93049E-01  8.53223E-01  8.61988E-01  8.24838E-01  8.31355E-01  7.98982E-01  8.03673E-01  7.77745E-01
   7.79347E-01  7.57167E-01  7.56821E-01  7.40613E-01  7.40505E-01  7.31354E-01  7.30952E-01  7.22734E-01  7.20028E-01  7.12938E-01
   7.08902E-01  7.05073E-01  7.01783E-01  7.00728E-01  6.98114E-01  6.96815E-01  6.93733E-01  6.88804E-01  6.85682E-01  6.76637E-01
   6.74758E-01  6.64520E-01  6.68625E-01  6.60993E-01  6.73212E-01  6.66100E-01  6.83554E-01  6.74401E-01  6.93547E-01  6.77918E-01
   6.96019E-01  6.82071E-01  6.99773E-01  6.91754E-01  7.06681E-01  7.04399E-01  7.13177E-01  7.16251E-01  7.16840E-01  7.26152E-01
   7.19196E-01  7.36321E-01  7.23738E-01  7.49472E-01  7.34121E-01  7.67946E-01  7.51553E-01  7.89597E-01  7.73173E-01  8.11031E-01
   7.95196E-01  8.29390E-01  8.14659E-01  8.44108E-01  8.31337E-01  8.55696E-01  8.45268E-01  8.62661E-01  8.54030E-01  8.65251E-01
   8.58618E-01  8.65389E-01  8.60667E-01  8.60366E-01  8.55014E-01  8.50354E-01  8.44847E-01  8.39470E-01  8.36310E-01  8.35586E-01
   8.34927E-01  8.34520E-01  8.32865E-01  8.27783E-01  8.23876E-01  8.13933E-01  8.08891E-01  7.99206E-01  7.97740E-01  7.88365E-01
   7.91003E-01  7.79668E-01  7.85188E-01  7.70387E-01  7.76857E-01  7.58527E-01  7.65575E-01  7.46939E-01  7.55899E-01  7.40707E-01
   7.51905E-01  7.41835E-01  7.53909E-01  7.47753E-01  7.58265E-01  7.54300E-01  7.61938E-01  7.60616E-01  7.65646E-01  7.67790E-01
   7.71223E-01  7.76056E-01  7.77936E-01  7.82783E-01  7.83170E-01  7.89454E-01  7.90220E-01  7.98573E-01  8.00840E-01  8.11407E-01
   8.14523E-01  8.22958E-01  8.25606E-01  8.32314E-01  8.34982E-01  8.40818E-01  8.44099E-01  8.51111E-01  8.56381E-01  8.63788E-01
   8.70130E-01  8.77660E-01  8.84772E-01  8.92314E-01  8.99857E-01  9.07838E-01  9.16344E-01  9.25615E-01  9.35782E-01  9.47102E-01
   9.59870E-01  9.74444E-01  9.91334E-01  1.01112E+00  1.03458E+00  1.06259E+00  1.09626E+00  1.13681E+00  1.18568E+00  1.24440E+00
   1.31466E+00  1.39811E+00  1.49639E+00  1.61096E+00  1.74299E+00  1.89326E+00  2.06197E+00  2.24872E+00  2.45236E+00  2.67103E+00
   2.90213E+00  3.14251E+00  3.38855E+00  3.63652E+00  3.88289E+00  4.12491E+00  4.36149E+00  4.59527E+00  4.83881E+00  5.09652E+00
   5.25148E+00  5.46318E+00  5.48333E+00  5.61254E+00  5.49031E+00  5.52348E+00  5.24921E+00  5.27712E+00  4.92400E+00  4.94081E+00
   4.53751E+00  4.50971E+00  4.07555E+00  3.99651E+00  3.56669E+00  3.44831E+00  3.07864E+00  2.93572E+00  2.67030E+00  2.51385E+00
   2.37113E+00  2.21146E+00  2.17572E+00  2.00010E+00  2.03395E+00  1.83047E+00  1.90386E+00  1.68159E+00  1.76607E+00  1.54678E+00
   1.63074E+00  1.42927E+00  1.50010E+00  1.31112E+00  1.35746E+00  1.18626E+00  1.21878E+00  1.08132E+00  1.10620E+00  1.01220E+00
   1.00469E+00  9.19829E-01  8.97642E-01  8.20488E-01  7.84850E-01  7.20642E-01  6.80883E-01  6.57293E-01  6.41388E-01  6.30134E-01
   6.21956E-01  6.16025E-01  6.11714E-01  6.08697E-01  6.06643E-01  6.05418E-01  6.04824E-01  6.04824E-01  6.05291E-01  6.06240E-01
   6.07588E-01  6.09384E-01  6.11572E-01  6.14230E-01  6.17324E-01  6.20953E-01  6.25103E-01  6.29891E-01  6.35324E-01  6.41542E-01
   6.48571E-01  6.56573E-01  6.65594E-01  6.75813E-01  6.87292E-01  7.00219E-01  7.14655E-01  7.30779E-01  7.48624E-01  7.68325E-01
   7.89851E-01  8.13248E-01  8.38373E-01  8.65135E-01  8.93234E-01  9.22406E-01  9.52168E-01  9.82075E-01  1.01148E+00  1.03978E+00
   1.06622E+00  1.09015E+00  1.11080E+00  1.12760E+00  1.13990E+00  1.14731E+00  1.14947E+00  1.14628E+00  1.13769E+00  1.12397E+00
   1.10539E+00  1.08252E+00  1.05592E+00  1.02635E+00  9.94506E-01  9.61224E-01  9.27194E-01  8.93186E-01  8.59767E-01  8.27543E-01
   7.96889E-01  7.68203E-01  7.41648E-01  7.17420E-01  6.95502E-01  6.75932E-01  6.58561E-01  6.43325E-01  6.30004E-01  6.18486E-01
   6.08527E-01  6.00010E-01  5.92697E-01  5.86491E-01  5.81180E-01  5.76695E-01  5.72855E-01  5.69624E-01  5.66848E-01  5.64519E-01
   5.62507E-01  5.60825E-01  5.59362E-01  5.58146E-01  5.57081E-01  5.56205E-01  5.55430E-01  5.54804E-01  5.54245E-01  5.53806E-01
   5.53409E-01  5.53111E-01  5.52838E-01  5.52649E-01  5.52472E-01  5.52368E-01  5.52265E-01  5.52226E-01  5.52182E-01  5.52196E-01
   5.52199E-01  5.52256E-01  5.52296E-01  5.52386E-01  5.52457E-01  5.52576E-01  5.52673E-01  5.52814E-01  5.52932E-01  5.53094E-01
   5.53231E-01  5.53410E-01  5.53563E-01  5.53758E-01  5.53926E-01  5.54136E-01  5.54319E-01  5.54543E-01  5.54741E-01  5.54981E-01
   5.55194E-01  5.55450E-01  5.55681E-01  5.55955E-01  5.56206E-01  5.56502E-01  5.56776E-01  5.57099E-01  5.57402E-01  5.57757E-01
   5.58098E-01  5.58495E-01  5.58883E-01  5.59337E-01  5.59792E-01  5.60323E-01  5.60871E-01  5.61517E-01
 NY background values follow
     7.212E-01    7.210E-01    7.207E-01    7.205E-01    7.203E-01    7.200E-01    7.198E-01    7.196E-01    7.193E-01    7.191E-01
     7.189E-01    7.187E-01    7.184E-01    7.182E-01    7.180E-01    7.177E-01    7.175E-01    7.173E-01    7.171E-01    7.168E-01
     7.166E-01    7.164E-01    7.161E-01    7.159E-01    7.157E-01    7.155E-01    7.152E-01    7.150E-01    7.148E-01    7.145E-01
     7.143E-01    7.141E-01    7.138E-01    7.136E-01    7.134E-01    7.132E-01    7.129E-01    7.127E-01    7.125E-01    7.122E-01
     7.120E-01    7.118E-01    7.116E-01    7.113E-01    7.111E-01    7.109E-01    7.106E-01    7.104E-01    7.102E-01    7.100E-01
     7.097E-01    7.095E-01    7.093E-01    7.090E-01    7.088E-01    7.086E-01    7.084E-01    7.081E-01    7.079E-01    7.077E-01
     7.074E-01    7.072E-01    7.070E-01    7.067E-01    7.065E-01    7.063E-01    7.061E-01    7.058E-01    7.056E-01    7.054E-01
     7.051E-01    7.049E-01    7.047E-01    7.045E-01    7.042E-01    7.040E-01    7.038E-01    7.035E-01    7.033E-01    7.031E-01
     7.029E-01    7.026E-01    7.024E-01    7.022E-01    7.019E-01    7.017E-01    7.015E-01    7.013E-01    7.010E-01    7.008E-01
     7.006E-01    7.003E-01    7.001E-01    6.999E-01    6.997E-01    6.994E-01    6.992E-01    6.990E-01    6.987E-01    6.985E-01
     6.983E-01    6.981E-01    6.978E-01    6.976E-01    6.974E-01    6.971E-01    6.969E-01    6.967E-01    6.965E-01    6.962E-01
     6.960E-01    6.958E-01    6.955E-01    6.953E-01    6.951E-01    6.949E-01    6.946E-01    6.944E-01    6.942E-01    6.939E-01
     6.937E-01    6.935E-01    6.933E-01    6.930E-01    6.928E-01    6.926E-01    6.923E-01    6.921E-01    6.919E-01    6.917E-01
     6.914E-01    6.912E-01    6.910E-01    6.907E-01    6.905E-01    6.903E-01    6.901E-01    6.898E-01    6.896E-01    6.894E-01
     6.891E-01    6.889E-01    6.887E-01    6.885E-01    6.882E-01    6.880E-01    6.878E-01    6.875E-01    6.873E-01    6.871E-01
     6.869E-01    6.866E-01    6.864E-01    6.862E-01    6.859E-01    6.857E-01    6.855E-01    6.853E-01    6.850E-01    6.848E-01
     6.846E-01    6.843E-01    6.841E-01    6.839E-01    6.837E-01    6.834E-01    6.832E-01    6.830E-01    6.827E-01    6.825E-01
     6.823E-01    6.821E-01    6.818E-01    6.816E-01    6.814E-01    6.811E-01    6.809E-01    6.807E-01    6.805E-01    6.802E-01
     6.800E-01    6.798E-01    6.796E-01    6.793E-01    6.791E-01    6.789E-01    6.786E-01    6.784E-01    6.782E-01    6.780E-01
     6.777E-01    6.775E-01    6.773E-01    6.770E-01    6.768E-01    6.766E-01    6.764E-01    6.761E-01    6.759E-01    6.757E-01
     6.754E-01    6.752E-01    6.750E-01    6.748E-01    6.745E-01    6.743E-01    6.741E-01    6.739E-01    6.736E-01    6.734E-01
     6.732E-01    6.729E-01    6.727E-01    6.725E-01    6.723E-01    6.720E-01    6.718E-01    6.716E-01    6.714E-01    6.711E-01
     6.709E-01    6.707E-01    6.704E-01    6.702E-01    6.700E-01    6.698E-01    6.695E-01    6.693E-01    6.691E-01    6.689E-01
     6.686E-01    6.684E-01    6.682E-01    6.679E-01    6.677E-01    6.675E-01    6.673E-01    6.670E-01    6.668E-01    6.666E-01
     6.664E-01    6.661E-01    6.659E-01    6.657E-01    6.655E-01    6.652E-01    6.650E-01    6.648E-01    6.645E-01    6.643E-01
     6.641E-01    6.639E-01    6.636E-01    6.634E-01    6.632E-01    6.630E-01    6.627E-01    6.625E-01    6.623E-01    6.621E-01
     6.618E-01    6.616E-01    6.614E-01    6.612E-01    6.609E-01    6.607E-01    6.605E-01    6.603E-01    6.600E-01    6.598E-01
     6.596E-01    6.594E-01    6.591E-01    6.589E-01    6.587E-01    6.585E-01    6.582E-01    6.580E-01    6.578E-01    6.576E-01
     6.573E-01    6.571E-01    6.569E-01    6.567E-01    6.564E-01    6.562E-01    6.560E-01    6.558E-01    6.555E-01    6.553E-01
     6.551E-01    6.549E-01    6.546E-01    6.544E-01    6.542E-01    6.540E-01    6.537E-01    6.535E-01    6.533E-01    6.531E-01
     6.528E-01    6.526E-01    6.524E-01    6.522E-01    6.520E-01    6.517E-01    6.515E-01    6.513E-01    6.511E-01    6.508E-01
     6.506E-01    6.504E-01    6.502E-01    6.499E-01    6.497E-01    6.495E-01    6.493E-01    6.491E-01    6.488E-01    6.486E-01
     6.484E-01    6.482E-01    6.479E-01    6.477E-01    6.475E-01    6.473E-01    6.470E-01    6.468E-01    6.466E-01    6.464E-01
     6.462E-01    6.459E-01    6.457E-01    6.455E-01    6.453E-01    6.450E-01    6.448E-01    6.446E-01    6.444E-01    6.442E-01
     6.439E-01    6.437E-01    6.435E-01    6.433E-01    6.430E-01    6.428E-01    6.426E-01    6.424E-01    6.422E-01    6.419E-01
     6.417E-01    6.415E-01    6.413E-01    6.411E-01    6.408E-01    6.406E-01    6.404E-01    6.402E-01    6.399E-01    6.397E-01
     6.395E-01    6.393E-01    6.391E-01    6.388E-01    6.386E-01    6.384E-01    6.382E-01    6.380E-01    6.377E-01    6.375E-01
     6.373E-01    6.371E-01    6.368E-01    6.366E-01    6.364E-01    6.362E-01    6.360E-01    6.357E-01    6.355E-01    6.353E-01
     6.351E-01    6.349E-01    6.346E-01    6.344E-01    6.342E-01    6.340E-01    6.338E-01    6.335E-01    6.333E-01    6.331E-01
     6.329E-01    6.327E-01    6.324E-01    6.322E-01    6.320E-01    6.318E-01    6.316E-01    6.313E-01    6.311E-01    6.309E-01
     6.307E-01    6.305E-01    6.302E-01    6.300E-01    6.298E-01    6.296E-01    6.294E-01    6.291E-01    6.289E-01    6.287E-01
     6.285E-01    6.283E-01    6.280E-01    6.278E-01    6.276E-01    6.274E-01    6.272E-01    6.269E-01    6.267E-01    6.265E-01
     6.263E-01    6.261E-01    6.258E-01    6.256E-01    6.254E-01    6.252E-01    6.250E-01    6.247E-01    6.245E-01    6.243E-01
     6.241E-01    6.239E-01    6.236E-01    6.234E-01    6.232E-01    6.230E-01    6.228E-01    6.225E-01    6.223E-01    6.221E-01
     6.219E-01    6.217E-01    6.215E-01    6.212E-01    6.210E-01    6.208E-01    6.206E-01    6.204E-01    6.201E-01    6.199E-01
     6.197E-01    6.195E-01    6.193E-01    6.190E-01    6.188E-01    6.186E-01    6.184E-01    6.182E-01    6.179E-01    6.177E-01
     6.175E-01    6.173E-01    6.171E-01    6.168E-01    6.166E-01    6.164E-01    6.162E-01    6.160E-01    6.158E-01    6.155E-01
     6.153E-01    6.151E-01    6.149E-01    6.147E-01    6.144E-01    6.142E-01    6.140E-01    6.138E-01    6.136E-01    6.133E-01
     6.131E-01    6.129E-01    6.127E-01    6.125E-01    6.122E-01    6.120E-01    6.118E-01    6.116E-01    6.114E-01    6.112E-01
     6.109E-01    6.107E-01    6.105E-01    6.103E-01    6.101E-01    6.098E-01    6.096E-01    6.094E-01
 Ala      Conc. = 4.09E+02
