 LCModel (Version 6.3-1L) Copyright: S.W. Provencher.          Ref.: Magn. Reson. Med. 30:672-679 (1993).                
 Slice#3 Row#2 Col#3  PD_24_press_2_raw_act
 36 lines in following concentration table = NCONC+1
    Conc.  %SD /Cr+PCr  Metabolite                                         
    0.000 999%   0.000 Ala                                                 
   34.020  39%   0.150 Asp                                                 
    0.000 999%   0.000 Cr                                                  
  226.678  26%   1.000 PCr                                                 
   20.154  40% 8.9E-02 GABA                                                
   20.452  39% 9.0E-02 Glc                                                 
   37.582 456%   0.166 Gln                                                 
  357.278  56%   1.576 Glu                                                 
   68.025  32%   0.300 GPC                                                 
    0.000 999%   0.000 PCh                                                 
   33.339 201%   0.147 GSH                                                 
    0.000 999%   0.000 Ins                                                 
  194.716  53%   0.859 Lac                                                 
  243.314  27%   1.073 NAA                                                 
    0.000 999%   0.000 NAAG                                                
    6.674  40% 2.9E-02 Scyllo                                              
   33.281  40%   0.147 Tau                                                 
   25.592  79%   0.113 -CrCH2                                              
   68.025  32%   0.300 GPC+PCh                                             
  243.314  27%   1.073 NAA+NAAG                                            
  226.678  26%   1.000 Cr+PCr                                              
  394.860  62%   1.742 Glu+Gln                                             
 2.11E+03  27%   9.287 Lip13a                                              
    0.000 999%   0.000 Lip13b                                              
  501.401  41%   2.212 Lip09                                               
  818.763  28%   3.612 MM09                                                
  323.636  42%   1.428 Lip20                                               
 1.22E+03  28%   5.384 MM20                                                
  248.647  47%   1.097 MM12                                                
 1.51E+03  19%   6.668 MM14                                                
    0.000 999%   0.000 MM17                                                
 2.11E+03  27%   9.287 Lip13a+Lip13b                                       
 3.87E+03  11%  17.052 MM14+Lip13a+Lip13b+MM12                             
 1.32E+03  15%   5.824 MM09+Lip09                                          
 1.54E+03  21%   6.811 MM20+Lip20                                          
   6 lines in following misc. output table
  FWHM = 0.038 ppm    S/N =   2                                            
  Data shift =-0.015 ppm                                                   
  Ph: 165 deg     -42.0 deg/ppm                                            
  alphaB,S = 8.5E+01,   1.3E+01                                            
   14 spline knots.   Ns = 5(1)                                            
   1 inflections.     2 extrema                                            
  498 points on ppm-axis = NY
      4.000000     3.992357     3.984714     3.977070     3.969427     3.961784     3.954141     3.946497     3.938854     3.931211
      3.923568     3.915925     3.908281     3.900638     3.892995     3.885352     3.877708     3.870065     3.862422     3.854779
      3.847136     3.839492     3.831849     3.824206     3.816563     3.808919     3.801276     3.793633     3.785990     3.778347
      3.770703     3.763060     3.755417     3.747774     3.740130     3.732487     3.724844     3.717201     3.709558     3.701914
      3.694271     3.686628     3.678985     3.671341     3.663698     3.656055     3.648412     3.640769     3.633125     3.625482
      3.617839     3.610196     3.602552     3.594909     3.587266     3.579623     3.571980     3.564336     3.556693     3.549050
      3.541407     3.533763     3.526120     3.518477     3.510834     3.503191     3.495547     3.487904     3.480261     3.472618
      3.464974     3.457331     3.449688     3.442045     3.434402     3.426758     3.419115     3.411472     3.403829     3.396185
      3.388542     3.380899     3.373256     3.365613     3.357969     3.350326     3.342683     3.335040     3.327396     3.319753
      3.312110     3.304467     3.296824     3.289180     3.281537     3.273894     3.266251     3.258607     3.250964     3.243321
      3.235678     3.228034     3.220391     3.212748     3.205105     3.197462     3.189818     3.182175     3.174532     3.166889
      3.159245     3.151602     3.143959     3.136316     3.128673     3.121029     3.113386     3.105743     3.098100     3.090456
      3.082813     3.075170     3.067527     3.059884     3.052240     3.044597     3.036954     3.029311     3.021667     3.014024
      3.006381     2.998738     2.991095     2.983451     2.975808     2.968165     2.960522     2.952878     2.945235     2.937592
      2.929949     2.922306     2.914662     2.907019     2.899376     2.891733     2.884089     2.876446     2.868803     2.861160
      2.853517     2.845873     2.838230     2.830587     2.822944     2.815300     2.807657     2.800014     2.792371     2.784728
      2.777084     2.769441     2.761798     2.754155     2.746511     2.738868     2.731225     2.723582     2.715939     2.708295
      2.700652     2.693009     2.685366     2.677722     2.670079     2.662436     2.654793     2.647150     2.639506     2.631863
      2.624220     2.616577     2.608933     2.601290     2.593647     2.586004     2.578361     2.570717     2.563074     2.555431
      2.547788     2.540144     2.532501     2.524858     2.517215     2.509572     2.501928     2.494285     2.486642     2.478999
      2.471355     2.463712     2.456069     2.448426     2.440783     2.433139     2.425496     2.417853     2.410210     2.402566
      2.394923     2.387280     2.379637     2.371994     2.364350     2.356707     2.349064     2.341421     2.333777     2.326134
      2.318491     2.310848     2.303205     2.295561     2.287918     2.280275     2.272632     2.264988     2.257345     2.249702
      2.242059     2.234416     2.226772     2.219129     2.211486     2.203843     2.196199     2.188556     2.180913     2.173270
      2.165627     2.157983     2.150340     2.142697     2.135054     2.127410     2.119767     2.112124     2.104481     2.096838
      2.089194     2.081551     2.073908     2.066265     2.058621     2.050978     2.043335     2.035692     2.028049     2.020405
      2.012762     2.005119     1.997476     1.989833     1.982190     1.974546     1.966903     1.959260     1.951617     1.943974
      1.936331     1.928688     1.921045     1.913402     1.905759     1.898115     1.890472     1.882829     1.875186     1.867543
      1.859900     1.852257     1.844614     1.836971     1.829327     1.821684     1.814041     1.806398     1.798755     1.791112
      1.783469     1.775826     1.768183     1.760540     1.752896     1.745253     1.737610     1.729967     1.722324     1.714681
      1.707038     1.699395     1.691752     1.684108     1.676465     1.668822     1.661179     1.653536     1.645893     1.638250
      1.630607     1.622964     1.615321     1.607677     1.600034     1.592391     1.584748     1.577105     1.569462     1.561819
      1.554176     1.546533     1.538890     1.531246     1.523603     1.515960     1.508317     1.500674     1.493031     1.485388
      1.477745     1.470102     1.462458     1.454815     1.447172     1.439529     1.431886     1.424243     1.416600     1.408957
      1.401314     1.393671     1.386027     1.378384     1.370741     1.363098     1.355455     1.347812     1.340169     1.332526
      1.324883     1.317240     1.309596     1.301953     1.294310     1.286667     1.279024     1.271381     1.263738     1.256095
      1.248452     1.240808     1.233165     1.225522     1.217879     1.210236     1.202593     1.194950     1.187307     1.179664
      1.172021     1.164377     1.156734     1.149091     1.141448     1.133805     1.126162     1.118519     1.110876     1.103233
      1.095590     1.087946     1.080303     1.072660     1.065017     1.057374     1.049731     1.042088     1.034445     1.026802
      1.019158     1.011515     1.003872     0.996229     0.988586     0.980943     0.973300     0.965657     0.958014     0.950371
      0.942727     0.935084     0.927441     0.919798     0.912155     0.904512     0.896869     0.889226     0.881583     0.873940
      0.866296     0.858653     0.851010     0.843367     0.835724     0.828081     0.820438     0.812795     0.805152     0.797508
      0.789865     0.782222     0.774579     0.766936     0.759293     0.751650     0.744007     0.736364     0.728721     0.721077
      0.713434     0.705791     0.698148     0.690505     0.682862     0.675219     0.667576     0.659933     0.652290     0.644646
      0.637003     0.629360     0.621717     0.614074     0.606431     0.598788     0.591145     0.583502     0.575858     0.568215
      0.560572     0.552929     0.545286     0.537643     0.530000     0.522357     0.514714     0.507071     0.499427     0.491784
      0.484141     0.476498     0.468855     0.461212     0.453569     0.445925     0.438282     0.430639     0.422996     0.415353
      0.407710     0.400067     0.392424     0.384780     0.377137     0.369494     0.361851     0.354208     0.346565     0.338922
      0.331278     0.323635     0.315992     0.308349     0.300706     0.293063     0.285420     0.277777     0.270133     0.262490
      0.254847     0.247204     0.239561     0.231918     0.224275     0.216631     0.208988     0.201345
 NY phased data points follow
  -1.47710E+01 -1.08218E+01 -5.01165E+00 -9.67642E+00 -2.48270E+00  4.21272E+00 -7.48487E+00 -1.07261E+01 -2.71047E+00 -3.13699E+00
   4.81805E+00  3.50918E+00  4.86998E+00 -1.07188E+01 -7.37696E+00 -6.19495E+00 -3.19439E-01 -5.27426E+00 -8.44648E+00 -1.08599E+01
  -8.86838E+00  2.44349E+00 -7.35137E+00 -1.21060E+01  3.81709E+00 -1.17448E+00  1.97892E+00  7.20487E+00 -5.10007E+00 -6.52068E-02
  -6.05185E+00  1.36091E-02 -3.11681E+00 -3.24448E+00 -8.48505E+00 -2.81771E+00 -3.64161E+00 -1.00695E+01 -9.52136E+00 -1.84894E+00
  -8.94831E+00 -7.85777E+00 -5.93726E+00 -4.61438E+00 -1.72142E+00 -5.78030E+00  4.75936E+00 -7.38469E-01 -6.43559E+00 -6.96144E+00
  -7.28483E+00  4.42827E+00 -7.02019E+00  2.11471E-01 -1.84021E+00 -4.72737E+00 -7.04112E+00 -9.03252E-01 -4.65359E+00 -5.61739E-01
  -6.26791E+00 -4.49713E+00  7.78993E-01 -1.03504E+01 -1.22102E+01 -5.82429E+00 -1.19794E+01 -6.73514E+00 -1.07131E+00 -8.64291E+00
   3.17035E+00 -7.01769E+00 -5.84907E+00  9.26105E-01 -1.04645E+01 -9.89560E-01  1.34823E+00 -8.26948E+00 -6.09089E+00  2.71070E-01
  -8.04247E+00 -2.66437E+00 -1.67745E+00  3.08600E+00 -7.71353E+00  4.85936E-01  4.11127E+00 -1.03966E+01 -1.68551E+00 -5.10572E+00
  -3.72056E+00 -8.67424E+00 -5.60645E+00  4.29404E-01 -5.41284E+00 -1.57945E+01 -1.30818E+01 -1.60061E+01 -9.32698E+00 -4.44446E+00
  -4.66035E+00 -1.89670E+00  1.43456E+00  9.83604E+00  6.82239E+00  1.61326E+01 -5.38671E+00 -5.04927E+00 -5.85119E+00  2.41049E-01
  -5.33815E+00 -2.21717E+00 -5.15801E+00 -3.35649E+00 -5.08749E+00 -8.12691E+00 -1.68083E+00 -4.95219E+00 -7.00168E+00  1.33229E+00
  -7.66575E+00 -1.10917E+01 -1.00876E+01 -7.27974E+00  8.99481E+00  7.98097E+00 -1.19686E+00  7.00220E+00  8.87091E+00  1.59813E+01
   5.85311E+00 -2.33534E+00 -2.60833E-01  9.74571E-01  3.07755E+00 -1.07623E+01 -1.26991E+01  2.61301E+00 -2.97914E+00  3.05857E+00
  -4.59300E+00 -1.37524E+00 -7.74147E+00 -1.82664E-01  5.68917E-01 -2.44791E+00 -1.32544E+01  5.03308E+00 -1.60935E+01  3.16218E+00
  -2.66556E+00 -1.20669E+00 -7.91606E+00 -9.04225E+00  3.10843E+00  1.51025E+00 -4.76060E+00  4.34073E+00 -1.64725E+01  5.41296E+00
  -3.05521E+00  4.29019E+00  4.77715E-01 -4.00976E+00 -7.38982E-02 -1.32037E+01 -3.30266E+00 -2.55701E+00  1.84958E+00 -1.57118E+00
  -7.90806E+00  1.98192E+00 -5.33681E+00 -9.63867E+00  8.23900E-01 -4.05869E+00 -2.18262E+00 -2.86738E+00 -9.24357E+00  2.52770E+00
  -1.54887E+00 -7.37740E+00 -9.46821E+00 -3.18781E+00 -3.68063E+00  3.47165E+00  3.79694E-02 -6.14638E+00 -3.59501E+00  2.80545E+00
   1.54153E+00 -1.65763E+00 -8.63837E+00  1.91254E-01  4.89419E+00 -4.08900E+00 -3.59504E+00  1.19181E+00 -3.92091E+00 -1.14282E+00
  -1.50816E+01 -2.64370E+00 -3.76665E+00  7.55359E-01 -4.61166E+00  1.14323E+01 -2.65327E+00 -3.04788E+00  1.38917E+01 -1.74356E+00
   3.35626E+00  1.71633E+00 -7.14946E+00  1.62905E+00  5.67095E-01 -1.06941E+00 -1.43201E+00  9.10322E+00  1.71295E+00  1.02098E+01
   3.67311E+00  4.45577E+00  6.65065E+00 -5.39364E+00  1.41863E-02 -7.17679E-01  2.42662E+00 -1.96418E+00  2.49321E+00  8.49652E+00
   2.26031E+00  2.01579E+00  3.69191E+00  5.27963E+00  1.73667E+00  7.96307E+00  7.61708E-01  8.39605E+00 -2.16880E+00  5.71329E+00
   9.09423E+00  1.61527E-02  9.16920E+00  1.27386E+00 -3.58063E-01  7.74683E+00 -3.59330E+00  5.07067E+00  4.06202E+00  8.13641E+00
   1.17282E+01 -1.82427E+00  7.44899E+00  1.94670E+00  2.11640E+00  1.23922E+00 -1.15764E+01 -1.79446E+00  3.81919E+00  1.45360E+01
   9.72193E+00  4.13651E+00  1.60460E+01  1.46654E+01  1.36889E+01  1.29643E+01  9.23838E+00  2.18251E+00  9.42151E+00 -2.26852E+00
  -5.21632E+00 -6.46454E-02  6.56905E-01 -6.68782E+00  2.43802E+00  1.62269E+00  6.67484E-01 -9.83053E-01  1.25132E+00  8.80235E-01
  -3.99155E+00 -1.64391E+00  9.02491E-01  7.85327E+00 -3.16638E+00 -1.07915E+00  6.16686E+00 -5.76158E+00  1.05774E+01 -7.65675E+00
   4.35904E-01 -1.48986E+00 -2.87769E+00  4.17516E+00  2.95457E+00  5.56715E+00  1.92176E+00  2.57244E+00 -2.07692E+00  5.96386E+00
   5.52108E+00  4.46623E+00  2.25135E-01  2.11679E+00  5.79206E+00 -4.78301E+00 -2.35888E+00 -1.60081E+00 -2.46304E+00 -8.47762E+00
  -8.90234E+00 -9.09950E+00 -2.55903E+00 -1.52347E+00 -3.85100E+00 -4.20544E+00 -4.45403E+00 -1.04287E+01 -5.71037E+00 -2.18893E+00
   1.23498E+01  1.55557E+00 -4.05391E+00  1.91982E+00  3.53288E+00 -9.11296E+00 -1.36632E+00  4.77624E+00  1.25419E+01  1.25147E+01
   5.80596E+00  1.30426E+01  1.44167E+01  1.11789E+01  6.35116E+00  1.86488E+01  1.77641E+01  1.69632E+01  1.35932E+01  1.31455E+01
   2.02371E+01  1.73803E+01  1.80488E+01  3.22295E+01  2.37547E+01  2.87082E+01  1.89316E+01  2.57511E+01  1.00808E+01  1.00974E+01
   2.35485E+01  1.25628E+01  1.23971E+01 -6.12827E-01  1.45026E+01  1.19190E+01  1.09918E+01  1.19828E+01  1.20865E+01  9.16464E+00
   1.50300E+01  5.62870E+00  1.30798E+01  1.72557E+01  1.05086E+01  1.05684E+01  7.58338E+00  8.01566E+00  1.12564E+01 -4.92575E+00
   1.57517E+01  8.66827E+00  5.88627E+00  5.55466E+00 -9.63451E-01  8.69603E+00  5.63389E-01 -7.62686E-02  1.03197E+01  8.22549E+00
   1.10142E+01  1.15969E+01  9.40210E+00  8.24221E+00  1.20946E+01  1.59009E+00  6.50185E+00  1.94482E+00  1.09692E+01 -6.78809E-01
  -2.96146E+00  2.48044E+01  1.30453E+01  3.15412E+00  1.93216E+01  1.72663E+01  2.00790E-01  1.91634E+01 -1.78886E+00  9.41837E+00
   3.17747E+00  1.90758E+00  8.11201E+00  7.62921E+00  4.42318E+00  1.43705E+01  1.08621E+01  7.75896E+00  1.40541E+01  1.02207E+01
   1.44825E+01  5.15573E+00  3.64871E+00  5.95769E+00  4.98253E+00  1.50523E+01 -1.34847E+00  6.17229E+00  9.97802E+00 -5.10563E+00
   4.44127E+00  3.11497E+00  8.78567E+00  6.81139E+00 -2.90226E+00 -3.19740E+00  1.27084E+00  4.24834E-01 -5.99577E+00  7.79391E+00
   1.12803E+01  4.81420E+00  9.24233E+00  1.95454E+00  7.88929E+00  3.18116E+00  2.55865E+00 -8.67255E-01  5.65858E+00  7.99335E-01
  -4.51260E+00 -1.92672E+00  7.21061E+00 -3.93515E+00  4.90244E+00  5.36990E+00  4.29596E+00  6.07559E+00  7.14333E+00  1.31700E+01
  -6.47746E-01  2.46161E+00  1.45198E+01  6.68056E+00  2.22507E+00 -4.77098E+00  5.72079E+00 -6.61089E+00  2.25110E+00  7.94869E+00
  -6.02884E+00 -2.49895E-01  1.54626E+00  1.38172E+00 -5.82136E+00  8.71482E-01  6.62805E+00 -1.96418E+00 -1.75583E+00 -3.83557E-01
   2.15034E+00  9.30159E+00  3.03808E+00 -6.01017E-01 -3.83622E+00  2.70170E+00  3.08039E+00  1.57006E-01  1.09380E+01 -2.75092E+00
  -6.37520E-01  1.99743E+00  4.19383E-02  1.23793E+00  1.98274E+00  1.03415E+00 -4.39358E+00 -5.67799E+00  9.25044E+00  1.84360E+00
  -6.69680E+00 -7.94348E+00 -5.23926E+00  8.57428E+00  4.30334E+00  4.32764E+00 -2.97251E+00  2.65475E+00
 NY points of the fit to the data follow
  -5.82624E+00 -5.83073E+00 -5.82335E+00 -6.25910E+00 -6.75085E+00 -5.94799E+00 -4.13651E+00 -2.23563E+00 -5.78284E-01  9.14551E-01
   1.99912E+00  1.96629E+00  5.53131E-01 -1.51892E+00 -3.25064E+00 -4.12388E+00 -4.36376E+00 -4.47232E+00 -4.54262E+00 -4.59467E+00
  -4.67933E+00 -4.78138E+00 -4.82300E+00 -4.61787E+00 -4.33288E+00 -4.35216E+00 -4.52201E+00 -4.63073E+00 -4.74666E+00 -4.86892E+00
  -4.86226E+00 -4.44771E+00 -3.71690E+00 -3.01068E+00 -2.57841E+00 -2.57904E+00 -3.01837E+00 -3.72876E+00 -4.50785E+00 -5.05223E+00
  -5.23952E+00 -5.11044E+00 -4.68343E+00 -4.15867E+00 -3.83217E+00 -3.81372E+00 -3.96212E+00 -4.09703E+00 -4.15939E+00 -4.19298E+00
  -4.19818E+00 -4.15185E+00 -4.07250E+00 -4.02949E+00 -4.07307E+00 -4.16634E+00 -4.24604E+00 -4.29626E+00 -4.33736E+00 -4.37794E+00
  -4.41158E+00 -4.43003E+00 -4.42822E+00 -4.39713E+00 -4.36423E+00 -4.32770E+00 -4.28488E+00 -4.25509E+00 -4.24661E+00 -4.25518E+00
  -4.30325E+00 -4.37112E+00 -4.37192E+00 -4.28686E+00 -4.16019E+00 -4.03386E+00 -3.92846E+00 -3.87659E+00 -3.89532E+00 -3.97798E+00
  -4.10512E+00 -4.27029E+00 -4.34066E+00 -4.20741E+00 -3.95938E+00 -3.71922E+00 -3.53689E+00 -3.40323E+00 -3.30895E+00 -3.29519E+00
  -3.40411E+00 -3.58910E+00 -3.75712E+00 -3.87290E+00 -3.97275E+00 -4.05454E+00 -4.25666E+00 -5.24383E+00 -6.13425E+00 -4.95665E+00
  -2.23856E+00  6.18080E-01  3.06162E+00  5.23187E+00  6.82388E+00  6.78855E+00  4.65687E+00  1.45098E+00 -1.26113E+00 -2.61131E+00
  -2.94389E+00 -3.02458E+00 -3.05024E+00 -3.05160E+00 -3.03092E+00 -2.98221E+00 -2.93010E+00 -2.89032E+00 -2.85684E+00 -2.85851E+00
  -3.08996E+00 -4.27532E+00 -5.29893E+00 -4.02779E+00 -1.06762E+00  2.07766E+00  4.84820E+00  7.38834E+00  9.23875E+00  9.18321E+00
   6.80342E+00  3.29146E+00  3.45239E-01 -1.13007E+00 -1.58200E+00 -1.83481E+00 -2.06941E+00 -2.28548E+00 -2.42665E+00 -2.46851E+00
  -2.41185E+00 -2.28952E+00 -2.14808E+00 -2.03138E+00 -1.98527E+00 -2.00704E+00 -2.05274E+00 -2.09190E+00 -2.12624E+00 -2.16744E+00
  -2.21910E+00 -2.27069E+00 -2.31228E+00 -2.33706E+00 -2.34601E+00 -2.33290E+00 -2.28141E+00 -2.24895E+00 -2.29469E+00 -2.40267E+00
  -2.54837E+00 -2.65665E+00 -2.70326E+00 -2.70883E+00 -2.65867E+00 -2.54339E+00 -2.40641E+00 -2.32716E+00 -2.35728E+00 -2.46049E+00
  -2.55891E+00 -2.59531E+00 -2.60062E+00 -2.69090E+00 -2.82328E+00 -2.90782E+00 -2.90892E+00 -2.89531E+00 -2.92492E+00 -2.93855E+00
  -2.87808E+00 -2.77840E+00 -2.71381E+00 -2.75729E+00 -2.87760E+00 -2.93392E+00 -2.89712E+00 -2.81491E+00 -2.71184E+00 -2.56192E+00
  -2.33798E+00 -2.07323E+00 -1.86016E+00 -1.73395E+00 -1.74029E+00 -1.85049E+00 -1.97330E+00 -2.05204E+00 -2.08868E+00 -2.12443E+00
  -2.10948E+00 -1.98379E+00 -1.71456E+00 -1.32368E+00 -9.73128E-01 -6.35791E-01 -4.24307E-01 -5.08048E-01 -8.48161E-01 -1.40437E+00
  -2.09819E+00 -2.82906E+00 -3.22214E+00 -2.72214E+00 -1.55827E+00 -2.18683E-01  1.05979E+00  2.20196E+00  2.90295E+00  2.45764E+00
   7.11437E-01 -1.38911E+00 -2.95914E+00 -3.76853E+00 -3.89117E+00 -3.34293E+00 -2.05209E+00 -3.76596E-01  9.94170E-01  1.67748E+00
   1.78901E+00  1.66036E+00  1.46297E+00  1.27965E+00  1.27436E+00  1.52690E+00  1.95632E+00  2.35776E+00  2.70546E+00  2.90663E+00
   2.86184E+00  2.63629E+00  2.44941E+00  2.39313E+00  2.48771E+00  2.80697E+00  3.36387E+00  3.99223E+00  4.40337E+00  4.49173E+00
   4.35892E+00  4.15855E+00  3.96532E+00  3.84525E+00  3.71061E+00  2.74100E+00  1.40252E+00  2.20663E+00  4.94882E+00  8.01536E+00
   1.06911E+01  1.32701E+01  1.54288E+01  1.58140E+01  1.35661E+01  9.65687E+00  5.97070E+00  3.74794E+00  2.82035E+00  2.26660E+00
   1.83855E+00  1.51952E+00  1.28971E+00  1.12665E+00  1.04260E+00  1.03015E+00  1.06233E+00  1.07422E+00  1.01483E+00  8.81450E-01
   7.07068E-01  5.28584E-01  3.68097E-01  2.38704E-01  1.48033E-01  9.13275E-02  5.90002E-02  4.07757E-02  2.42107E-02  5.66226E-03
  -1.60941E-02 -3.94364E-02 -6.03680E-02 -7.69449E-02 -8.96367E-02 -9.85279E-02 -1.02960E-01 -1.02117E-01 -9.67817E-02 -8.81108E-02
  -7.57894E-02 -6.00199E-02 -4.10275E-02 -1.89411E-02  6.42678E-03  3.56095E-02  6.89137E-02  1.06568E-01  1.49279E-01  1.98617E-01
   2.56713E-01  3.25983E-01  4.08827E-01  5.08154E-01  6.27337E-01  7.70350E-01  9.41739E-01  1.14661E+00  1.39036E+00  1.67856E+00
   2.01658E+00  2.40961E+00  2.86227E+00  3.37836E+00  3.96025E+00  4.60863E+00  5.32205E+00  6.09685E+00  6.92689E+00  7.80364E+00
   8.71600E+00  9.65067E+00  1.05924E+01  1.15247E+01  1.24304E+01  1.32927E+01  1.40951E+01  1.48227E+01  1.54612E+01  1.59966E+01
   1.64073E+01  1.66324E+01  1.66313E+01  1.71535E+01  1.84249E+01  1.95586E+01  2.00164E+01  1.98950E+01  1.93604E+01  1.80981E+01
   1.53508E+01  1.20421E+01  9.88835E+00  9.40712E+00  1.00549E+01  1.11258E+01  1.24308E+01  1.38432E+01  1.47515E+01  1.46484E+01
   1.36778E+01  1.24128E+01  1.13929E+01  1.06469E+01  1.00240E+01  9.46520E+00  8.94802E+00  8.46278E+00  8.00552E+00  7.57523E+00
   7.17246E+00  6.79854E+00  6.45496E+00  6.14328E+00  5.86496E+00  5.62148E+00  5.41421E+00  5.24443E+00  5.11313E+00  5.02119E+00
   4.96936E+00  4.95838E+00  4.98887E+00  5.06125E+00  5.17559E+00  5.33156E+00  5.52836E+00  5.76468E+00  6.03842E+00  6.34661E+00
   6.68517E+00  7.04898E+00  7.43186E+00  7.82666E+00  8.22523E+00  8.61866E+00  8.99744E+00  9.35187E+00  9.67245E+00  9.95026E+00
   1.01772E+01  1.03466E+01  1.04530E+01  1.04932E+01  1.04656E+01  1.03709E+01  1.02117E+01  9.99225E+00  9.71840E+00  9.39729E+00
   9.03697E+00  8.64602E+00  8.23308E+00  7.80662E+00  7.37458E+00  6.94427E+00  6.52207E+00  6.11338E+00  5.72243E+00  5.35246E+00
   5.00570E+00  4.68356E+00  4.38663E+00  4.11484E+00  3.86753E+00  3.64367E+00  3.44194E+00  3.26089E+00  3.09893E+00  2.95442E+00
   2.82569E+00  2.71120E+00  2.60948E+00  2.51923E+00  2.43918E+00  2.36822E+00  2.30526E+00  2.24943E+00  2.19994E+00  2.15612E+00
   2.11733E+00  2.08300E+00  2.05261E+00  2.02579E+00  2.00217E+00  1.98147E+00  1.96335E+00  1.94755E+00  1.93383E+00  1.92203E+00
   1.91200E+00  1.90358E+00  1.89660E+00  1.89093E+00  1.88645E+00  1.88312E+00  1.88084E+00  1.87954E+00  1.87910E+00  1.87946E+00
   1.88056E+00  1.88239E+00  1.88489E+00  1.88802E+00  1.89168E+00  1.89586E+00  1.90054E+00  1.90573E+00  1.91136E+00  1.91740E+00
   1.92379E+00  1.93054E+00  1.93765E+00  1.94511E+00  1.95288E+00  1.96093E+00  1.96922E+00  1.97779E+00  1.98661E+00  1.99570E+00
   2.00500E+00  2.01449E+00  2.02415E+00  2.03403E+00  2.04411E+00  2.05438E+00  2.06478E+00  2.07534E+00  2.08603E+00  2.09690E+00
   2.10792E+00  2.11908E+00  2.13034E+00  2.14171E+00  2.15319E+00  2.16483E+00  2.17658E+00  2.18843E+00
 NY background values follow
    -5.593E+00   -5.578E+00   -5.563E+00   -5.547E+00   -5.532E+00   -5.517E+00   -5.502E+00   -5.486E+00   -5.471E+00   -5.456E+00
    -5.441E+00   -5.425E+00   -5.410E+00   -5.395E+00   -5.380E+00   -5.364E+00   -5.349E+00   -5.334E+00   -5.319E+00   -5.303E+00
    -5.288E+00   -5.273E+00   -5.257E+00   -5.242E+00   -5.227E+00   -5.212E+00   -5.196E+00   -5.181E+00   -5.166E+00   -5.151E+00
    -5.135E+00   -5.120E+00   -5.105E+00   -5.090E+00   -5.074E+00   -5.059E+00   -5.044E+00   -5.028E+00   -5.013E+00   -4.998E+00
    -4.983E+00   -4.967E+00   -4.952E+00   -4.937E+00   -4.922E+00   -4.906E+00   -4.891E+00   -4.876E+00   -4.861E+00   -4.845E+00
    -4.830E+00   -4.815E+00   -4.799E+00   -4.784E+00   -4.769E+00   -4.754E+00   -4.738E+00   -4.723E+00   -4.708E+00   -4.693E+00
    -4.677E+00   -4.662E+00   -4.647E+00   -4.632E+00   -4.616E+00   -4.601E+00   -4.586E+00   -4.571E+00   -4.555E+00   -4.540E+00
    -4.525E+00   -4.509E+00   -4.494E+00   -4.479E+00   -4.464E+00   -4.448E+00   -4.433E+00   -4.418E+00   -4.403E+00   -4.387E+00
    -4.372E+00   -4.357E+00   -4.342E+00   -4.326E+00   -4.311E+00   -4.296E+00   -4.280E+00   -4.265E+00   -4.250E+00   -4.235E+00
    -4.219E+00   -4.204E+00   -4.189E+00   -4.174E+00   -4.158E+00   -4.143E+00   -4.128E+00   -4.113E+00   -4.097E+00   -4.082E+00
    -4.067E+00   -4.052E+00   -4.036E+00   -4.021E+00   -4.006E+00   -3.990E+00   -3.975E+00   -3.960E+00   -3.945E+00   -3.929E+00
    -3.914E+00   -3.899E+00   -3.884E+00   -3.868E+00   -3.853E+00   -3.838E+00   -3.823E+00   -3.807E+00   -3.792E+00   -3.777E+00
    -3.761E+00   -3.746E+00   -3.731E+00   -3.716E+00   -3.700E+00   -3.685E+00   -3.670E+00   -3.655E+00   -3.639E+00   -3.624E+00
    -3.609E+00   -3.594E+00   -3.578E+00   -3.563E+00   -3.548E+00   -3.533E+00   -3.517E+00   -3.502E+00   -3.487E+00   -3.471E+00
    -3.456E+00   -3.441E+00   -3.426E+00   -3.410E+00   -3.395E+00   -3.380E+00   -3.365E+00   -3.349E+00   -3.334E+00   -3.319E+00
    -3.304E+00   -3.288E+00   -3.273E+00   -3.258E+00   -3.242E+00   -3.227E+00   -3.212E+00   -3.197E+00   -3.181E+00   -3.166E+00
    -3.151E+00   -3.136E+00   -3.120E+00   -3.105E+00   -3.090E+00   -3.075E+00   -3.059E+00   -3.044E+00   -3.029E+00   -3.013E+00
    -2.998E+00   -2.983E+00   -2.968E+00   -2.952E+00   -2.937E+00   -2.922E+00   -2.907E+00   -2.891E+00   -2.876E+00   -2.861E+00
    -2.846E+00   -2.830E+00   -2.815E+00   -2.800E+00   -2.785E+00   -2.769E+00   -2.754E+00   -2.739E+00   -2.723E+00   -2.708E+00
    -2.693E+00   -2.678E+00   -2.662E+00   -2.647E+00   -2.632E+00   -2.617E+00   -2.601E+00   -2.586E+00   -2.571E+00   -2.556E+00
    -2.540E+00   -2.525E+00   -2.510E+00   -2.494E+00   -2.479E+00   -2.464E+00   -2.449E+00   -2.433E+00   -2.418E+00   -2.403E+00
    -2.388E+00   -2.372E+00   -2.357E+00   -2.342E+00   -2.327E+00   -2.311E+00   -2.296E+00   -2.281E+00   -2.266E+00   -2.250E+00
    -2.235E+00   -2.220E+00   -2.204E+00   -2.189E+00   -2.174E+00   -2.159E+00   -2.143E+00   -2.128E+00   -2.113E+00   -2.098E+00
    -2.082E+00   -2.067E+00   -2.052E+00   -2.037E+00   -2.021E+00   -2.006E+00   -1.991E+00   -1.975E+00   -1.960E+00   -1.945E+00
    -1.930E+00   -1.914E+00   -1.899E+00   -1.884E+00   -1.869E+00   -1.853E+00   -1.838E+00   -1.823E+00   -1.808E+00   -1.792E+00
    -1.777E+00   -1.762E+00   -1.747E+00   -1.731E+00   -1.716E+00   -1.701E+00   -1.685E+00   -1.670E+00   -1.655E+00   -1.640E+00
    -1.624E+00   -1.609E+00   -1.594E+00   -1.579E+00   -1.563E+00   -1.548E+00   -1.533E+00   -1.518E+00   -1.502E+00   -1.487E+00
    -1.472E+00   -1.456E+00   -1.441E+00   -1.426E+00   -1.411E+00   -1.395E+00   -1.380E+00   -1.365E+00   -1.350E+00   -1.334E+00
    -1.319E+00   -1.304E+00   -1.289E+00   -1.273E+00   -1.258E+00   -1.243E+00   -1.228E+00   -1.212E+00   -1.197E+00   -1.182E+00
    -1.166E+00   -1.151E+00   -1.136E+00   -1.121E+00   -1.105E+00   -1.090E+00   -1.075E+00   -1.060E+00   -1.044E+00   -1.029E+00
    -1.014E+00   -9.986E-01   -9.833E-01   -9.680E-01   -9.528E-01   -9.375E-01   -9.222E-01   -9.070E-01   -8.917E-01   -8.765E-01
    -8.612E-01   -8.459E-01   -8.307E-01   -8.154E-01   -8.001E-01   -7.849E-01   -7.696E-01   -7.543E-01   -7.391E-01   -7.238E-01
    -7.086E-01   -6.933E-01   -6.780E-01   -6.628E-01   -6.475E-01   -6.322E-01   -6.170E-01   -6.017E-01   -5.864E-01   -5.712E-01
    -5.559E-01   -5.406E-01   -5.254E-01   -5.101E-01   -4.949E-01   -4.796E-01   -4.643E-01   -4.491E-01   -4.338E-01   -4.185E-01
    -4.033E-01   -3.880E-01   -3.727E-01   -3.575E-01   -3.422E-01   -3.270E-01   -3.117E-01   -2.964E-01   -2.812E-01   -2.659E-01
    -2.506E-01   -2.354E-01   -2.201E-01   -2.048E-01   -1.896E-01   -1.743E-01   -1.590E-01   -1.438E-01   -1.285E-01   -1.133E-01
    -9.799E-02   -8.273E-02   -6.746E-02   -5.220E-02   -3.694E-02   -2.167E-02   -6.409E-03    8.855E-03    2.412E-02    3.938E-02
     5.465E-02    6.991E-02    8.517E-02    1.004E-01    1.157E-01    1.310E-01    1.462E-01    1.615E-01    1.768E-01    1.920E-01
     2.073E-01    2.225E-01    2.378E-01    2.531E-01    2.683E-01    2.836E-01    2.989E-01    3.141E-01    3.294E-01    3.447E-01
     3.599E-01    3.752E-01    3.904E-01    4.057E-01    4.210E-01    4.362E-01    4.515E-01    4.668E-01    4.820E-01    4.973E-01
     5.126E-01    5.278E-01    5.431E-01    5.583E-01    5.736E-01    5.889E-01    6.041E-01    6.194E-01    6.347E-01    6.499E-01
     6.652E-01    6.805E-01    6.957E-01    7.110E-01    7.262E-01    7.415E-01    7.568E-01    7.720E-01    7.873E-01    8.026E-01
     8.178E-01    8.331E-01    8.484E-01    8.636E-01    8.789E-01    8.941E-01    9.094E-01    9.247E-01    9.399E-01    9.552E-01
     9.705E-01    9.857E-01    1.001E+00    1.016E+00    1.032E+00    1.047E+00    1.062E+00    1.077E+00    1.093E+00    1.108E+00
     1.123E+00    1.138E+00    1.154E+00    1.169E+00    1.184E+00    1.199E+00    1.215E+00    1.230E+00    1.245E+00    1.260E+00
     1.276E+00    1.291E+00    1.306E+00    1.322E+00    1.337E+00    1.352E+00    1.367E+00    1.383E+00    1.398E+00    1.413E+00
     1.428E+00    1.444E+00    1.459E+00    1.474E+00    1.489E+00    1.505E+00    1.520E+00    1.535E+00    1.550E+00    1.566E+00
     1.581E+00    1.596E+00    1.612E+00    1.627E+00    1.642E+00    1.657E+00    1.673E+00    1.688E+00    1.703E+00    1.718E+00
     1.734E+00    1.749E+00    1.764E+00    1.779E+00    1.795E+00    1.810E+00    1.825E+00    1.840E+00    1.856E+00    1.871E+00
     1.886E+00    1.902E+00    1.917E+00    1.932E+00    1.947E+00    1.963E+00    1.978E+00    1.993E+00
 Asp      Conc. = 3.40E+01
