 LCModel (Version 6.3-1L) Copyright: S.W. Provencher.          Ref.: Magn. Reson. Med. 30:672-679 (1993).                
 Slice#2 Row#9 Col#8  PD_24_press_2_raw_act
 36 lines in following concentration table = NCONC+1
    Conc.  %SD /Cr+PCr  Metabolite                                         
   31.100 452% 1.1E-02 Ala                                                 
    0.000 999%   0.000 Asp                                                 
  930.560  33%   0.316 Cr                                                  
 2.01E+03  16%   0.684 PCr                                                 
    0.000 999%   0.000 GABA                                                
    0.000 999%   0.000 Glc                                                 
  994.159  29%   0.338 Gln                                                 
 2.33E+03  14%   0.792 Glu                                                 
  919.979   3%   0.312 GPC                                                 
    0.000 999%   0.000 PCh                                                 
  601.144  16%   0.204 GSH                                                 
 2.15E+03  17%   0.729 Ins                                                 
   84.795 182% 2.9E-02 Lac                                                 
 4.31E+03   4%   1.465 NAA                                                 
  371.900  47%   0.126 NAAG                                                
  227.587  17% 7.7E-02 Scyllo                                              
    0.000 999%   0.000 Tau                                                 
  213.469  74% 7.2E-02 -CrCH2                                              
  919.979   3%   0.312 GPC+PCh                                             
 4.68E+03   3%   1.591 NAA+NAAG                                            
 2.94E+03   3%   1.000 Cr+PCr                                              
 3.33E+03  14%   1.130 Glu+Gln                                             
 1.56E+03  47%   0.531 Lip13a                                              
    0.000 999%   0.000 Lip13b                                              
   94.512 388% 3.2E-02 Lip09                                               
 2.66E+03  18%   0.903 MM09                                                
  275.056  88% 9.3E-02 Lip20                                               
 6.59E+03  11%   2.239 MM20                                                
  879.221  38%   0.299 MM12                                                
 2.08E+03  29%   0.706 MM14                                                
  959.622  41%   0.326 MM17                                                
 1.56E+03  47%   0.531 Lip13a+Lip13b                                       
 4.52E+03  17%   1.536 MM14+Lip13a+Lip13b+MM12                             
 2.75E+03  15%   0.935 MM09+Lip09                                          
 6.87E+03  10%   2.332 MM20+Lip20                                          
   6 lines in following misc. output table
  FWHM = 0.054 ppm    S/N =  19                                            
  Data shift = 0.015 ppm                                                   
  Ph: -28 deg      -5.5 deg/ppm                                            
  alphaB,S = 6.2E-01,   1.8E+02                                            
   14 spline knots.   Ns = 7(1)                                            
  (15) 4 infls.   ( 7) 1 extrs.                                            
  498 points on ppm-axis = NY
      4.000000     3.992357     3.984714     3.977070     3.969427     3.961784     3.954141     3.946497     3.938854     3.931211
      3.923568     3.915925     3.908281     3.900638     3.892995     3.885352     3.877708     3.870065     3.862422     3.854779
      3.847136     3.839492     3.831849     3.824206     3.816563     3.808919     3.801276     3.793633     3.785990     3.778347
      3.770703     3.763060     3.755417     3.747774     3.740130     3.732487     3.724844     3.717201     3.709558     3.701914
      3.694271     3.686628     3.678985     3.671341     3.663698     3.656055     3.648412     3.640769     3.633125     3.625482
      3.617839     3.610196     3.602552     3.594909     3.587266     3.579623     3.571980     3.564336     3.556693     3.549050
      3.541407     3.533763     3.526120     3.518477     3.510834     3.503191     3.495547     3.487904     3.480261     3.472618
      3.464974     3.457331     3.449688     3.442045     3.434402     3.426758     3.419115     3.411472     3.403829     3.396185
      3.388542     3.380899     3.373256     3.365613     3.357969     3.350326     3.342683     3.335040     3.327396     3.319753
      3.312110     3.304467     3.296824     3.289180     3.281537     3.273894     3.266251     3.258607     3.250964     3.243321
      3.235678     3.228034     3.220391     3.212748     3.205105     3.197462     3.189818     3.182175     3.174532     3.166889
      3.159245     3.151602     3.143959     3.136316     3.128673     3.121029     3.113386     3.105743     3.098100     3.090456
      3.082813     3.075170     3.067527     3.059884     3.052240     3.044597     3.036954     3.029311     3.021667     3.014024
      3.006381     2.998738     2.991095     2.983451     2.975808     2.968165     2.960522     2.952878     2.945235     2.937592
      2.929949     2.922306     2.914662     2.907019     2.899376     2.891733     2.884089     2.876446     2.868803     2.861160
      2.853517     2.845873     2.838230     2.830587     2.822944     2.815300     2.807657     2.800014     2.792371     2.784728
      2.777084     2.769441     2.761798     2.754155     2.746511     2.738868     2.731225     2.723582     2.715939     2.708295
      2.700652     2.693009     2.685366     2.677722     2.670079     2.662436     2.654793     2.647150     2.639506     2.631863
      2.624220     2.616577     2.608933     2.601290     2.593647     2.586004     2.578361     2.570717     2.563074     2.555431
      2.547788     2.540144     2.532501     2.524858     2.517215     2.509572     2.501928     2.494285     2.486642     2.478999
      2.471355     2.463712     2.456069     2.448426     2.440783     2.433139     2.425496     2.417853     2.410210     2.402566
      2.394923     2.387280     2.379637     2.371994     2.364350     2.356707     2.349064     2.341421     2.333777     2.326134
      2.318491     2.310848     2.303205     2.295561     2.287918     2.280275     2.272632     2.264988     2.257345     2.249702
      2.242059     2.234416     2.226772     2.219129     2.211486     2.203843     2.196199     2.188556     2.180913     2.173270
      2.165627     2.157983     2.150340     2.142697     2.135054     2.127410     2.119767     2.112124     2.104481     2.096838
      2.089194     2.081551     2.073908     2.066265     2.058621     2.050978     2.043335     2.035692     2.028049     2.020405
      2.012762     2.005119     1.997476     1.989833     1.982190     1.974546     1.966903     1.959260     1.951617     1.943974
      1.936331     1.928688     1.921045     1.913402     1.905759     1.898115     1.890472     1.882829     1.875186     1.867543
      1.859900     1.852257     1.844614     1.836971     1.829327     1.821684     1.814041     1.806398     1.798755     1.791112
      1.783469     1.775826     1.768183     1.760540     1.752896     1.745253     1.737610     1.729967     1.722324     1.714681
      1.707038     1.699395     1.691752     1.684108     1.676465     1.668822     1.661179     1.653536     1.645893     1.638250
      1.630607     1.622964     1.615321     1.607677     1.600034     1.592391     1.584748     1.577105     1.569462     1.561819
      1.554176     1.546533     1.538890     1.531246     1.523603     1.515960     1.508317     1.500674     1.493031     1.485388
      1.477745     1.470102     1.462458     1.454815     1.447172     1.439529     1.431886     1.424243     1.416600     1.408957
      1.401314     1.393671     1.386027     1.378384     1.370741     1.363098     1.355455     1.347812     1.340169     1.332526
      1.324883     1.317240     1.309596     1.301953     1.294310     1.286667     1.279024     1.271381     1.263738     1.256095
      1.248452     1.240808     1.233165     1.225522     1.217879     1.210236     1.202593     1.194950     1.187307     1.179664
      1.172021     1.164377     1.156734     1.149091     1.141448     1.133805     1.126162     1.118519     1.110876     1.103233
      1.095590     1.087946     1.080303     1.072660     1.065017     1.057374     1.049731     1.042088     1.034445     1.026802
      1.019158     1.011515     1.003872     0.996229     0.988586     0.980943     0.973300     0.965657     0.958014     0.950371
      0.942727     0.935084     0.927441     0.919798     0.912155     0.904512     0.896869     0.889226     0.881583     0.873940
      0.866296     0.858653     0.851010     0.843367     0.835724     0.828081     0.820438     0.812795     0.805152     0.797508
      0.789865     0.782222     0.774579     0.766936     0.759293     0.751650     0.744007     0.736364     0.728721     0.721077
      0.713434     0.705791     0.698148     0.690505     0.682862     0.675219     0.667576     0.659933     0.652290     0.644646
      0.637003     0.629360     0.621717     0.614074     0.606431     0.598788     0.591145     0.583502     0.575858     0.568215
      0.560572     0.552929     0.545286     0.537643     0.530000     0.522357     0.514714     0.507071     0.499427     0.491784
      0.484141     0.476498     0.468855     0.461212     0.453569     0.445925     0.438282     0.430639     0.422996     0.415353
      0.407710     0.400067     0.392424     0.384780     0.377137     0.369494     0.361851     0.354208     0.346565     0.338922
      0.331278     0.323635     0.315992     0.308349     0.300706     0.293063     0.285420     0.277777     0.270133     0.262490
      0.254847     0.247204     0.239561     0.231918     0.224275     0.216631     0.208988     0.201345
 NY phased data points follow
  -6.11540E+01 -6.28548E+01 -5.29365E+01 -5.72531E+01 -4.61466E+01 -4.49050E+01 -2.93402E+01 -2.27552E+01 -8.40429E+00 -9.65605E+00
   2.59213E+00 -3.75108E+00 -4.40171E+00 -2.29721E+01 -1.94601E+01 -3.88003E+01 -4.18478E+01 -5.88506E+01 -5.36950E+01 -5.99864E+01
  -5.25977E+01 -5.81590E+01 -5.09305E+01 -5.80553E+01 -4.66235E+01 -5.01697E+01 -4.33825E+01 -4.98392E+01 -4.04711E+01 -4.06082E+01
  -3.37458E+01 -4.33421E+01 -3.93545E+01 -4.69343E+01 -3.94034E+01 -4.51213E+01 -4.55121E+01 -5.02896E+01 -4.75257E+01 -4.73986E+01
  -4.34562E+01 -4.14777E+01 -3.58332E+01 -3.61343E+01 -3.32104E+01 -3.35420E+01 -2.60208E+01 -2.77231E+01 -2.50208E+01 -3.40633E+01
  -3.02589E+01 -3.98017E+01 -3.53360E+01 -4.18548E+01 -3.45094E+01 -4.13977E+01 -3.17389E+01 -3.99657E+01 -3.68424E+01 -3.78361E+01
  -3.59705E+01 -4.66252E+01 -4.25104E+01 -4.75908E+01 -4.52618E+01 -4.89030E+01 -4.46312E+01 -4.97392E+01 -4.25945E+01 -4.66661E+01
  -3.97754E+01 -4.57330E+01 -4.07232E+01 -4.68377E+01 -3.62073E+01 -4.48023E+01 -3.56443E+01 -3.91509E+01 -3.38478E+01 -4.40036E+01
  -3.36193E+01 -3.74484E+01 -3.15380E+01 -3.54747E+01 -3.21188E+01 -3.10671E+01 -2.43576E+01 -3.38450E+01 -2.69040E+01 -2.91219E+01
  -2.97399E+01 -3.01423E+01 -2.64606E+01 -2.63023E+01 -2.46839E+01 -2.70913E+01 -1.83722E+01 -1.76423E+01 -2.98886E+00  1.80865E+00
   1.94124E+01  3.28468E+01  4.70887E+01  4.54809E+01  3.82940E+01  2.56652E+01  1.46906E+01 -3.40198E+00 -4.82140E+00 -1.12733E+01
  -1.66228E+01 -2.33932E+01 -2.16953E+01 -2.91935E+01 -2.28944E+01 -2.68026E+01 -2.25114E+01 -3.22036E+01 -2.18086E+01 -2.52894E+01
  -1.72558E+01 -1.38492E+01 -1.64010E+00  6.63041E+00  2.17859E+01  4.52057E+01  6.19141E+01  7.09547E+01  6.61012E+01  5.29573E+01
   2.88024E+01  1.65200E+01  6.45249E+00 -4.08017E+00 -5.31742E+00 -1.30324E+01 -2.66909E+01 -2.59469E+01 -2.77213E+01 -2.93571E+01
  -1.72248E+01 -2.76215E+01 -2.40378E+01 -2.77665E+01 -2.76237E+01 -3.17444E+01 -2.74224E+01 -2.99053E+01 -2.03976E+01 -2.87013E+01
  -2.71382E+01 -2.92071E+01 -2.67939E+01 -2.95882E+01 -2.60654E+01 -3.00726E+01 -2.91370E+01 -2.96192E+01 -2.83354E+01 -2.66667E+01
  -2.65912E+01 -3.72687E+01 -3.09731E+01 -3.43605E+01 -3.21568E+01 -3.59441E+01 -2.51009E+01 -3.17193E+01 -3.16810E+01 -4.12534E+01
  -3.96946E+01 -4.52566E+01 -4.35830E+01 -4.38526E+01 -4.12048E+01 -4.57025E+01 -4.57597E+01 -4.80549E+01 -4.12226E+01 -4.24322E+01
  -4.10836E+01 -4.49938E+01 -4.44820E+01 -4.46707E+01 -4.43988E+01 -3.62690E+01 -3.55433E+01 -3.77907E+01 -3.22458E+01 -2.68150E+01
  -1.93084E+01 -2.31075E+01 -1.80747E+01 -1.36289E+01 -1.96033E+01 -1.99234E+01 -1.27083E+01 -1.78465E+01 -1.94910E+01 -2.74085E+01
  -1.89510E+01 -2.37730E+01 -1.57696E+01 -1.43288E+01 -1.33828E+01 -2.16334E+01 -2.02786E+01 -2.67812E+01 -2.62386E+01 -2.71569E+01
  -2.46392E+01 -2.47582E+01 -2.03015E+01 -1.34422E+01 -5.96965E+00 -8.21682E+00  8.49141E-01 -7.74578E+00 -5.12771E+00 -1.40636E+01
  -1.29993E+01 -2.23295E+01 -2.16706E+01 -2.02812E+01 -1.56510E+01 -1.53706E+01 -2.68185E+00 -2.44316E+00 -1.60794E+00 -8.16848E+00
   2.62929E+00  9.31561E-01 -1.73869E-01 -2.91979E-01 -5.50696E-01 -6.49945E-01 -1.55628E+00 -2.31116E+00 -3.81018E+00 -4.46556E+00
  -1.32870E+00 -6.38641E+00 -6.66299E+00 -2.25037E+00  6.23797E-02  2.71742E+00  8.01723E+00  9.74940E+00  1.44550E+01  1.21756E+01
   1.53714E+01  1.26423E+01  2.14467E+01  2.60541E+01  4.56854E+01  5.24150E+01  6.56870E+01  8.98717E+01  1.07046E+02  1.28563E+02
   1.52283E+02  1.56749E+02  1.39744E+02  1.08362E+02  7.65794E+01  5.50023E+01  4.12485E+01  2.39557E+01  1.47368E+01  1.04157E+01
   5.54249E+00  6.55129E+00  5.24425E+00 -2.35000E-01 -7.27922E-01 -3.30329E+00 -1.39101E+00 -3.85852E+00 -5.86900E+00 -9.63867E+00
  -3.10972E+00 -4.56927E+00 -4.20835E+00 -4.88500E+00 -4.88410E+00 -6.62320E+00 -7.40125E+00 -1.82534E+00 -4.55060E+00 -7.62819E+00
  -3.77269E+00 -3.69301E+00 -4.13359E+00 -8.29034E+00 -6.24146E+00 -9.17816E+00 -9.31120E+00 -7.92311E+00  3.94027E-01 -9.34840E+00
  -8.67379E+00 -7.90238E+00 -1.03961E+00 -8.48752E+00 -3.96948E+00 -7.15696E+00 -1.73927E+00  1.46357E+00 -3.63742E+00 -3.29803E+00
   1.98646E+00  1.46211E+00  4.06330E+00  2.44111E+00  7.92186E-01 -3.39841E+00  6.76499E-01  2.47106E+00  3.75910E+00  8.99206E-01
   2.87770E-01 -2.10730E+00  4.44156E+00 -1.17794E+00  3.57340E+00 -3.14921E+00  6.29754E-01 -1.30606E+00  4.91370E+00  2.57431E+00
   4.03043E+00  1.10975E+00  1.68399E+00  6.53370E+00  2.85226E+00  4.74768E+00  7.63689E+00  3.74340E+00  4.69949E+00  5.93230E+00
   1.18363E+01  1.21732E+01  8.21885E+00  5.79725E+00  4.78700E+00  7.17832E+00  9.45482E+00  6.84563E+00  1.13163E+01  9.07559E+00
   1.01038E+01  9.56133E+00  5.35990E+00  2.99096E+00  6.37343E+00  9.69671E+00  8.08108E+00  1.08484E+01  7.00577E+00  8.34037E+00
   8.93750E+00  7.83159E+00  9.30663E+00  6.40988E+00  6.42330E+00  2.87158E+00  3.40963E+00  5.46955E+00  6.49737E+00  2.76729E+00
   6.34692E+00  6.37454E+00  6.47303E+00  7.37334E+00  4.60715E+00  3.11267E+00  4.92232E+00  2.48780E+00  2.09788E+00  6.91264E-01
   3.28032E+00  1.37915E+00  4.52283E+00 -3.22363E+00  5.22537E-01  6.39507E+00 -1.45384E-01  1.78902E+00  8.67468E+00  5.42682E+00
  -7.10204E-01  9.50371E+00  6.15160E+00  1.06543E+01  1.43854E+01  5.91152E+00  9.06276E+00  1.32648E+01  1.12731E+01  7.37259E+00
   1.48022E+01  1.26818E+01  1.40135E+01  1.07810E+01  1.71843E+01  1.62775E+01  1.27184E+01  1.51263E+01  1.96260E+01  1.25661E+01
   1.49932E+01  1.14624E+01  1.31233E+01  1.26321E+01  1.33974E+01  7.15286E+00  9.47447E+00  7.97107E+00  9.04777E+00  3.96212E+00
   7.34873E+00  4.64417E+00  4.78388E+00  6.92335E+00  4.29037E+00  1.18991E+00  6.22470E+00  3.78474E+00  2.05321E+00  1.73749E+00
   3.48462E+00 -2.35809E+00  4.03391E+00  2.32434E-01  1.27775E+00  6.20138E-01  4.13693E+00  1.77369E+00  2.23152E+00 -3.50430E+00
  -9.89483E-01 -7.84018E-01 -1.76253E+00  2.06151E+00 -5.97898E-02 -4.75491E-01  5.74253E-01 -1.35247E+00  1.23837E+00  9.52317E-01
  -1.49616E+00 -5.06155E+00 -5.39581E-01  3.45373E-01 -3.56784E-01  4.13200E+00 -2.53859E+00 -5.98045E+00 -6.25479E-02  1.01316E+00
  -2.30079E+00 -5.49849E+00 -1.27929E+00  2.62689E-01 -1.66918E+00 -3.62562E+00  3.60905E+00 -2.68785E+00  3.47618E+00 -1.79923E+00
   5.67866E+00 -2.85068E+00 -2.15992E+00 -2.03649E+00 -5.58658E-01 -4.00144E+00 -9.18615E-01  4.44346E+00  3.22812E+00 -8.02765E-01
  -1.11829E-01 -1.67067E+00  1.64225E+00 -1.22596E+00  6.13929E+00 -5.26347E+00 -2.48437E+00 -6.02592E-01 -2.07612E+00  4.55776E-01
  -7.81904E-01  4.43535E-01  3.82751E-02 -8.43528E-01 -1.38649E+00 -1.71526E+00  4.19487E+00  4.09120E+00
 NY points of the fit to the data follow
  -6.11931E+01 -6.05848E+01 -5.82882E+01 -5.39616E+01 -4.80638E+01 -4.06052E+01 -3.17246E+01 -2.16070E+01 -1.13733E+01 -3.33575E+00
  -1.09796E-02 -2.58749E+00 -9.99863E+00 -1.95058E+01 -2.84305E+01 -3.55533E+01 -4.11843E+01 -4.60132E+01 -4.97182E+01 -5.19025E+01
  -5.29828E+01 -5.33890E+01 -5.33749E+01 -5.28286E+01 -5.20406E+01 -5.08365E+01 -4.89201E+01 -4.61940E+01 -4.29026E+01 -3.97232E+01
  -3.73582E+01 -3.63270E+01 -3.67968E+01 -3.83368E+01 -4.04332E+01 -4.27261E+01 -4.48976E+01 -4.68745E+01 -4.80752E+01 -4.78894E+01
  -4.64854E+01 -4.42702E+01 -4.17175E+01 -3.89188E+01 -3.58981E+01 -3.29832E+01 -3.07654E+01 -3.00500E+01 -3.13212E+01 -3.41562E+01
  -3.75774E+01 -4.04890E+01 -4.22609E+01 -4.31495E+01 -4.35365E+01 -4.34133E+01 -4.26328E+01 -4.14006E+01 -4.01707E+01 -3.92941E+01
  -3.90166E+01 -3.94462E+01 -4.03945E+01 -4.14591E+01 -4.21323E+01 -4.21735E+01 -4.17368E+01 -4.10164E+01 -4.01037E+01 -3.91365E+01
  -3.82290E+01 -3.75251E+01 -3.71433E+01 -3.70898E+01 -3.72670E+01 -3.75019E+01 -3.76357E+01 -3.76382E+01 -3.75243E+01 -3.72615E+01
  -3.64741E+01 -3.53948E+01 -3.42544E+01 -3.29023E+01 -3.12676E+01 -2.95662E+01 -2.82778E+01 -2.79167E+01 -2.86384E+01 -3.00033E+01
  -3.13362E+01 -3.21077E+01 -3.22426E+01 -3.20040E+01 -3.14548E+01 -2.93445E+01 -2.36285E+01 -1.58971E+01 -6.79810E+00  4.75856E+00
   1.89525E+01  3.36727E+01  4.47341E+01  4.78457E+01  4.15045E+01  2.82981E+01  1.31908E+01  3.33017E-01 -9.17094E+00 -1.66123E+01
  -2.32832E+01 -2.84162E+01 -3.03824E+01 -3.06893E+01 -3.05527E+01 -3.02380E+01 -2.97995E+01 -2.92010E+01 -2.82932E+01 -2.63472E+01
  -2.08128E+01 -1.18380E+01 -1.50045E+00  1.08841E+01  2.63285E+01  4.37856E+01  5.94673E+01  6.79407E+01  6.54434E+01  5.28834E+01
   3.53731E+01  1.87472E+01  5.89419E+00 -4.06138E+00 -1.31437E+01 -2.15497E+01 -2.64869E+01 -2.77270E+01 -2.75863E+01 -2.69383E+01
  -2.62694E+01 -2.58491E+01 -2.57143E+01 -2.58573E+01 -2.62186E+01 -2.66528E+01 -2.70956E+01 -2.75649E+01 -2.80276E+01 -2.84687E+01
  -2.88295E+01 -2.91091E+01 -2.93127E+01 -2.94482E+01 -2.96286E+01 -2.98694E+01 -3.00917E+01 -3.03478E+01 -3.06811E+01 -3.11999E+01
  -3.18721E+01 -3.23340E+01 -3.22915E+01 -3.18149E+01 -3.12914E+01 -3.11910E+01 -3.17426E+01 -3.27431E+01 -3.37691E+01 -3.45834E+01
  -3.52991E+01 -3.59060E+01 -3.64960E+01 -3.71679E+01 -3.78175E+01 -3.82629E+01 -3.82293E+01 -3.76519E+01 -3.68610E+01 -3.62892E+01
  -3.61970E+01 -3.63303E+01 -3.60990E+01 -3.53351E+01 -3.42322E+01 -3.30401E+01 -3.17510E+01 -2.99251E+01 -2.74640E+01 -2.48293E+01
  -2.27458E+01 -2.17535E+01 -2.17442E+01 -2.22568E+01 -2.27892E+01 -2.30535E+01 -2.30309E+01 -2.25113E+01 -2.13905E+01 -1.98677E+01
  -1.81371E+01 -1.64401E+01 -1.51312E+01 -1.46171E+01 -1.49935E+01 -1.64541E+01 -1.90397E+01 -2.22057E+01 -2.49158E+01 -2.61475E+01
  -2.56424E+01 -2.38236E+01 -2.09716E+01 -1.72536E+01 -1.32877E+01 -1.01517E+01 -8.90485E+00 -9.92403E+00 -1.28417E+01 -1.68948E+01
  -2.07034E+01 -2.32228E+01 -2.39944E+01 -2.27935E+01 -1.98229E+01 -1.57001E+01 -1.15319E+01 -8.38824E+00 -6.49582E+00 -5.45755E+00
  -4.71361E+00 -4.17135E+00 -3.77359E+00 -3.12943E+00 -2.03438E+00 -7.99694E-01  2.49624E-01  9.95598E-01  1.36431E+00  1.26079E+00
   6.90709E-01  9.56658E-02  7.26496E-02  9.07953E-01  2.45249E+00  4.37785E+00  6.40010E+00  8.15244E+00  9.64862E+00  1.13727E+01
   1.33628E+01  1.56069E+01  1.87177E+01  2.57004E+01  3.91455E+01  5.44552E+01  7.05173E+01  8.94198E+01  1.11828E+02  1.34454E+02
   1.50190E+02  1.51593E+02  1.36472E+02  1.10077E+02  8.18643E+01  5.90849E+01  4.24908E+01  2.88381E+01  1.58706E+01  5.96937E+00
   2.12534E+00  5.71286E-01 -3.70576E-01 -9.75404E-01 -1.43008E+00 -1.91885E+00 -2.46362E+00 -3.05707E+00 -3.65794E+00 -4.21564E+00
  -4.70626E+00 -5.14164E+00 -5.51724E+00 -5.81549E+00 -6.04679E+00 -6.24012E+00 -6.41264E+00 -6.55502E+00 -6.65021E+00 -6.69212E+00
  -6.68460E+00 -6.62226E+00 -6.50729E+00 -6.35069E+00 -6.16614E+00 -5.95834E+00 -5.72476E+00 -5.46181E+00 -5.16834E+00 -4.84510E+00
  -4.49330E+00 -4.11411E+00 -3.71658E+00 -3.31347E+00 -2.91625E+00 -2.53324E+00 -2.16995E+00 -1.83173E+00 -1.52420E+00 -1.24870E+00
  -1.00622E+00 -7.97246E-01 -6.19285E-01 -4.67853E-01 -3.37544E-01 -2.22194E-01 -1.14666E-01 -6.81027E-03  1.10941E-01  2.50084E-01
   4.23577E-01  6.24911E-01  8.46589E-01  1.09555E+00  1.37098E+00  1.65765E+00  1.93231E+00  2.17754E+00  2.40991E+00  2.66681E+00
   2.97081E+00  3.33542E+00  3.76039E+00  4.23301E+00  4.73536E+00  5.24530E+00  5.73558E+00  6.16731E+00  6.52540E+00  6.83832E+00
   7.15201E+00  7.45899E+00  7.71766E+00  7.93268E+00  8.11514E+00  8.24208E+00  8.24962E+00  8.09242E+00  7.82349E+00  7.53758E+00
   7.31579E+00  7.23081E+00  7.30990E+00  7.52736E+00  7.82661E+00  8.13764E+00  8.39287E+00  8.51010E+00  8.44889E+00  8.26662E+00
   8.02815E+00  7.75832E+00  7.44497E+00  7.07678E+00  6.69454E+00  6.32342E+00  5.95168E+00  5.57617E+00  5.19915E+00  4.82475E+00
   4.45790E+00  4.10359E+00  3.76703E+00  3.45340E+00  3.16805E+00  2.91599E+00  2.70190E+00  2.52990E+00  2.40404E+00  2.32818E+00
   2.30621E+00  2.34154E+00  2.43726E+00  2.59599E+00  2.82027E+00  3.11226E+00  3.47366E+00  3.90513E+00  4.40633E+00  4.97556E+00
   5.60999E+00  6.30504E+00  7.05433E+00  7.84905E+00  8.67831E+00  9.52908E+00  1.03867E+01  1.12347E+01  1.20554E+01  1.28303E+01
   1.35406E+01  1.41686E+01  1.46980E+01  1.51146E+01  1.54071E+01  1.55672E+01  1.55905E+01  1.54767E+01  1.52295E+01  1.48563E+01
   1.43676E+01  1.37767E+01  1.30993E+01  1.23523E+01  1.15537E+01  1.07207E+01  9.87037E+00  9.01791E+00  8.17731E+00  7.36051E+00
   6.57730E+00  5.83501E+00  5.13896E+00  4.49246E+00  3.89734E+00  3.35388E+00  2.86109E+00  2.41687E+00  2.01853E+00  1.66297E+00
   1.34705E+00  1.06735E+00  8.20467E-01  6.02945E-01  4.11697E-01  2.43877E-01  9.70493E-02 -3.11942E-02 -1.43008E-01 -2.40438E-01
  -3.25070E-01 -3.98316E-01 -4.61310E-01 -5.15276E-01 -5.61257E-01 -6.00242E-01 -6.32864E-01 -6.59736E-01 -6.81342E-01 -6.98347E-01
  -7.11246E-01 -7.20514E-01 -7.26340E-01 -7.29012E-01 -7.28755E-01 -7.25981E-01 -7.20911E-01 -7.13760E-01 -7.04526E-01 -6.93382E-01
  -6.80473E-01 -6.66091E-01 -6.50306E-01 -6.33195E-01 -6.14694E-01 -5.94956E-01 -5.74092E-01 -5.52318E-01 -5.29602E-01 -5.05961E-01
  -4.81320E-01 -4.55845E-01 -4.29617E-01 -4.02774E-01 -3.75213E-01 -3.46933E-01 -3.17891E-01 -2.88270E-01 -2.58118E-01 -2.27510E-01
  -1.96300E-01 -1.64502E-01 -1.32109E-01 -9.93049E-02 -6.60855E-02 -3.24664E-02  1.70737E-03  3.63852E-02  7.15418E-02  1.07011E-01
   1.42851E-01  1.79086E-01  2.15857E-01  2.53069E-01  2.90681E-01  3.28567E-01  3.66845E-01  4.05557E-01
 NY background values follow
    -6.970E+01   -6.933E+01   -6.897E+01   -6.860E+01   -6.823E+01   -6.786E+01   -6.750E+01   -6.713E+01   -6.676E+01   -6.640E+01
    -6.603E+01   -6.566E+01   -6.529E+01   -6.493E+01   -6.456E+01   -6.419E+01   -6.382E+01   -6.346E+01   -6.309E+01   -6.273E+01
    -6.236E+01   -6.199E+01   -6.163E+01   -6.127E+01   -6.090E+01   -6.054E+01   -6.018E+01   -5.981E+01   -5.945E+01   -5.909E+01
    -5.873E+01   -5.838E+01   -5.802E+01   -5.766E+01   -5.730E+01   -5.695E+01   -5.660E+01   -5.624E+01   -5.589E+01   -5.554E+01
    -5.519E+01   -5.484E+01   -5.450E+01   -5.415E+01   -5.381E+01   -5.346E+01   -5.312E+01   -5.278E+01   -5.244E+01   -5.211E+01
    -5.177E+01   -5.144E+01   -5.111E+01   -5.078E+01   -5.045E+01   -5.012E+01   -4.980E+01   -4.947E+01   -4.915E+01   -4.883E+01
    -4.852E+01   -4.820E+01   -4.789E+01   -4.758E+01   -4.727E+01   -4.697E+01   -4.666E+01   -4.636E+01   -4.606E+01   -4.577E+01
    -4.547E+01   -4.518E+01   -4.490E+01   -4.461E+01   -4.433E+01   -4.405E+01   -4.377E+01   -4.349E+01   -4.322E+01   -4.295E+01
    -4.269E+01   -4.243E+01   -4.217E+01   -4.191E+01   -4.166E+01   -4.141E+01   -4.116E+01   -4.091E+01   -4.067E+01   -4.044E+01
    -4.020E+01   -3.997E+01   -3.975E+01   -3.952E+01   -3.930E+01   -3.909E+01   -3.888E+01   -3.867E+01   -3.846E+01   -3.826E+01
    -3.806E+01   -3.786E+01   -3.767E+01   -3.748E+01   -3.729E+01   -3.711E+01   -3.693E+01   -3.676E+01   -3.658E+01   -3.641E+01
    -3.625E+01   -3.608E+01   -3.592E+01   -3.577E+01   -3.561E+01   -3.546E+01   -3.532E+01   -3.517E+01   -3.503E+01   -3.489E+01
    -3.476E+01   -3.463E+01   -3.450E+01   -3.437E+01   -3.425E+01   -3.413E+01   -3.401E+01   -3.390E+01   -3.379E+01   -3.368E+01
    -3.358E+01   -3.348E+01   -3.338E+01   -3.328E+01   -3.319E+01   -3.310E+01   -3.301E+01   -3.293E+01   -3.285E+01   -3.277E+01
    -3.269E+01   -3.262E+01   -3.254E+01   -3.247E+01   -3.240E+01   -3.234E+01   -3.227E+01   -3.220E+01   -3.214E+01   -3.207E+01
    -3.201E+01   -3.195E+01   -3.189E+01   -3.182E+01   -3.176E+01   -3.170E+01   -3.164E+01   -3.157E+01   -3.151E+01   -3.144E+01
    -3.138E+01   -3.131E+01   -3.124E+01   -3.117E+01   -3.110E+01   -3.103E+01   -3.095E+01   -3.087E+01   -3.079E+01   -3.071E+01
    -3.062E+01   -3.053E+01   -3.044E+01   -3.035E+01   -3.025E+01   -3.014E+01   -3.004E+01   -2.993E+01   -2.982E+01   -2.970E+01
    -2.958E+01   -2.945E+01   -2.932E+01   -2.918E+01   -2.904E+01   -2.889E+01   -2.875E+01   -2.859E+01   -2.844E+01   -2.828E+01
    -2.811E+01   -2.795E+01   -2.778E+01   -2.760E+01   -2.743E+01   -2.725E+01   -2.707E+01   -2.689E+01   -2.670E+01   -2.651E+01
    -2.632E+01   -2.613E+01   -2.594E+01   -2.575E+01   -2.555E+01   -2.536E+01   -2.516E+01   -2.496E+01   -2.476E+01   -2.456E+01
    -2.436E+01   -2.416E+01   -2.396E+01   -2.376E+01   -2.356E+01   -2.336E+01   -2.316E+01   -2.297E+01   -2.277E+01   -2.257E+01
    -2.238E+01   -2.219E+01   -2.199E+01   -2.180E+01   -2.162E+01   -2.143E+01   -2.124E+01   -2.106E+01   -2.088E+01   -2.070E+01
    -2.053E+01   -2.036E+01   -2.018E+01   -2.001E+01   -1.985E+01   -1.968E+01   -1.952E+01   -1.936E+01   -1.920E+01   -1.904E+01
    -1.888E+01   -1.873E+01   -1.858E+01   -1.843E+01   -1.828E+01   -1.813E+01   -1.798E+01   -1.784E+01   -1.770E+01   -1.755E+01
    -1.741E+01   -1.728E+01   -1.714E+01   -1.700E+01   -1.687E+01   -1.674E+01   -1.661E+01   -1.647E+01   -1.635E+01   -1.622E+01
    -1.609E+01   -1.596E+01   -1.584E+01   -1.572E+01   -1.559E+01   -1.547E+01   -1.535E+01   -1.523E+01   -1.511E+01   -1.499E+01
    -1.488E+01   -1.476E+01   -1.464E+01   -1.453E+01   -1.441E+01   -1.430E+01   -1.419E+01   -1.408E+01   -1.396E+01   -1.385E+01
    -1.374E+01   -1.363E+01   -1.353E+01   -1.342E+01   -1.331E+01   -1.320E+01   -1.310E+01   -1.299E+01   -1.289E+01   -1.279E+01
    -1.268E+01   -1.258E+01   -1.248E+01   -1.238E+01   -1.228E+01   -1.218E+01   -1.208E+01   -1.198E+01   -1.189E+01   -1.179E+01
    -1.170E+01   -1.160E+01   -1.151E+01   -1.141E+01   -1.132E+01   -1.123E+01   -1.114E+01   -1.105E+01   -1.096E+01   -1.087E+01
    -1.078E+01   -1.069E+01   -1.061E+01   -1.052E+01   -1.044E+01   -1.035E+01   -1.027E+01   -1.018E+01   -1.010E+01   -1.002E+01
    -9.939E+00   -9.859E+00   -9.779E+00   -9.700E+00   -9.622E+00   -9.544E+00   -9.468E+00   -9.391E+00   -9.316E+00   -9.241E+00
    -9.167E+00   -9.093E+00   -9.020E+00   -8.948E+00   -8.876E+00   -8.805E+00   -8.735E+00   -8.665E+00   -8.596E+00   -8.527E+00
    -8.459E+00   -8.392E+00   -8.325E+00   -8.259E+00   -8.193E+00   -8.128E+00   -8.063E+00   -8.000E+00   -7.936E+00   -7.873E+00
    -7.811E+00   -7.749E+00   -7.688E+00   -7.627E+00   -7.567E+00   -7.507E+00   -7.448E+00   -7.389E+00   -7.331E+00   -7.273E+00
    -7.216E+00   -7.159E+00   -7.103E+00   -7.047E+00   -6.992E+00   -6.937E+00   -6.883E+00   -6.829E+00   -6.775E+00   -6.722E+00
    -6.669E+00   -6.616E+00   -6.564E+00   -6.512E+00   -6.460E+00   -6.409E+00   -6.358E+00   -6.307E+00   -6.257E+00   -6.206E+00
    -6.156E+00   -6.107E+00   -6.057E+00   -6.008E+00   -5.958E+00   -5.909E+00   -5.860E+00   -5.811E+00   -5.763E+00   -5.714E+00
    -5.665E+00   -5.617E+00   -5.569E+00   -5.520E+00   -5.472E+00   -5.424E+00   -5.375E+00   -5.327E+00   -5.279E+00   -5.230E+00
    -5.182E+00   -5.133E+00   -5.085E+00   -5.036E+00   -4.987E+00   -4.938E+00   -4.889E+00   -4.840E+00   -4.791E+00   -4.741E+00
    -4.691E+00   -4.642E+00   -4.592E+00   -4.542E+00   -4.492E+00   -4.441E+00   -4.391E+00   -4.341E+00   -4.290E+00   -4.239E+00
    -4.189E+00   -4.138E+00   -4.087E+00   -4.036E+00   -3.986E+00   -3.935E+00   -3.884E+00   -3.833E+00   -3.782E+00   -3.731E+00
    -3.680E+00   -3.629E+00   -3.578E+00   -3.527E+00   -3.477E+00   -3.426E+00   -3.375E+00   -3.324E+00   -3.274E+00   -3.223E+00
    -3.173E+00   -3.122E+00   -3.072E+00   -3.022E+00   -2.972E+00   -2.922E+00   -2.872E+00   -2.823E+00   -2.773E+00   -2.724E+00
    -2.675E+00   -2.626E+00   -2.577E+00   -2.528E+00   -2.480E+00   -2.431E+00   -2.383E+00   -2.335E+00   -2.287E+00   -2.239E+00
    -2.192E+00   -2.144E+00   -2.097E+00   -2.049E+00   -2.002E+00   -1.955E+00   -1.908E+00   -1.861E+00   -1.814E+00   -1.767E+00
    -1.720E+00   -1.673E+00   -1.627E+00   -1.580E+00   -1.533E+00   -1.486E+00   -1.440E+00   -1.393E+00   -1.346E+00   -1.299E+00
    -1.253E+00   -1.206E+00   -1.159E+00   -1.112E+00   -1.065E+00   -1.018E+00   -9.709E-01   -9.236E-01   -8.763E-01   -8.289E-01
    -7.814E-01   -7.338E-01   -6.860E-01   -6.381E-01   -5.901E-01   -5.419E-01   -4.936E-01   -4.451E-01
 Ala      Conc. = 3.11E+01
