 LCModel (Version 6.3-1L) Copyright: S.W. Provencher.          Ref.: Magn. Reson. Med. 30:672-679 (1993).                
 Slice#2 Row#3 Col#9  PD_24_press_2_raw_act
 36 lines in following concentration table = NCONC+1
    Conc.  %SD /Cr+PCr  Metabolite                                         
    0.000 999%   0.000 Ala                                                 
    0.000 999%   0.000 Asp                                                 
 1.76E+03  11%   1.000 Cr                                                  
    0.000 999%   0.000 PCr                                                 
  262.650 102%   0.149 GABA                                                
  148.136 178% 8.4E-02 Glc                                                 
 3.87E+03  37%   2.200 Gln                                                 
 4.64E+03  39%   2.636 Glu                                                 
  840.169   9%   0.477 GPC                                                 
    0.000 999%   0.000 PCh                                                 
    0.000 999%   0.000 GSH                                                 
  838.346  98%   0.476 Ins                                                 
 1.89E+03  58%   1.074 Lac                                                 
 2.48E+03  25%   1.410 NAA                                                 
  632.853 103%   0.359 NAAG                                                
  180.750  41%   0.103 Scyllo                                              
  231.788 170%   0.132 Tau                                                 
  984.568  37%   0.559 -CrCH2                                              
  840.169   9%   0.477 GPC+PCh                                             
 3.12E+03   8%   1.769 NAA+NAAG                                            
 1.76E+03  11%   1.000 Cr+PCr                                              
 8.52E+03  32%   4.836 Glu+Gln                                             
 2.51E+03  36%   1.426 Lip13a                                              
    0.000 999%   0.000 Lip13b                                              
  569.237  59%   0.323 Lip09                                               
  936.504  40%   0.532 MM09                                                
  495.165  46%   0.281 Lip20                                               
 1.90E+03  34%   1.077 MM20                                                
  296.571  54%   0.168 MM12                                                
  180.338 271%   0.102 MM14                                                
    0.000 999%   0.000 MM17                                                
 2.51E+03  36%   1.426 Lip13a+Lip13b                                       
 2.99E+03  31%   1.697 MM14+Lip13a+Lip13b+MM12                             
 1.51E+03  20%   0.855 MM09+Lip09                                          
 2.39E+03  26%   1.358 MM20+Lip20                                          
   6 lines in following misc. output table
  FWHM = 0.138 ppm    S/N =   4                                            
  Data shift = 0.015 ppm                                                   
  Ph: -60 deg     -10.7 deg/ppm                                            
  alphaB,S = 5.1E-01,   2.2E+02                                            
   14 spline knots.   Ns = 8(2)                                            
  ( 5) 4 infls.   ( 3) 1 extrs.                                            
  498 points on ppm-axis = NY
      4.000000     3.992357     3.984714     3.977070     3.969427     3.961784     3.954141     3.946497     3.938854     3.931211
      3.923568     3.915925     3.908281     3.900638     3.892995     3.885352     3.877708     3.870065     3.862422     3.854779
      3.847136     3.839492     3.831849     3.824206     3.816563     3.808919     3.801276     3.793633     3.785990     3.778347
      3.770703     3.763060     3.755417     3.747774     3.740130     3.732487     3.724844     3.717201     3.709558     3.701914
      3.694271     3.686628     3.678985     3.671341     3.663698     3.656055     3.648412     3.640769     3.633125     3.625482
      3.617839     3.610196     3.602552     3.594909     3.587266     3.579623     3.571980     3.564336     3.556693     3.549050
      3.541407     3.533763     3.526120     3.518477     3.510834     3.503191     3.495547     3.487904     3.480261     3.472618
      3.464974     3.457331     3.449688     3.442045     3.434402     3.426758     3.419115     3.411472     3.403829     3.396185
      3.388542     3.380899     3.373256     3.365613     3.357969     3.350326     3.342683     3.335040     3.327396     3.319753
      3.312110     3.304467     3.296824     3.289180     3.281537     3.273894     3.266251     3.258607     3.250964     3.243321
      3.235678     3.228034     3.220391     3.212748     3.205105     3.197462     3.189818     3.182175     3.174532     3.166889
      3.159245     3.151602     3.143959     3.136316     3.128673     3.121029     3.113386     3.105743     3.098100     3.090456
      3.082813     3.075170     3.067527     3.059884     3.052240     3.044597     3.036954     3.029311     3.021667     3.014024
      3.006381     2.998738     2.991095     2.983451     2.975808     2.968165     2.960522     2.952878     2.945235     2.937592
      2.929949     2.922306     2.914662     2.907019     2.899376     2.891733     2.884089     2.876446     2.868803     2.861160
      2.853517     2.845873     2.838230     2.830587     2.822944     2.815300     2.807657     2.800014     2.792371     2.784728
      2.777084     2.769441     2.761798     2.754155     2.746511     2.738868     2.731225     2.723582     2.715939     2.708295
      2.700652     2.693009     2.685366     2.677722     2.670079     2.662436     2.654793     2.647150     2.639506     2.631863
      2.624220     2.616577     2.608933     2.601290     2.593647     2.586004     2.578361     2.570717     2.563074     2.555431
      2.547788     2.540144     2.532501     2.524858     2.517215     2.509572     2.501928     2.494285     2.486642     2.478999
      2.471355     2.463712     2.456069     2.448426     2.440783     2.433139     2.425496     2.417853     2.410210     2.402566
      2.394923     2.387280     2.379637     2.371994     2.364350     2.356707     2.349064     2.341421     2.333777     2.326134
      2.318491     2.310848     2.303205     2.295561     2.287918     2.280275     2.272632     2.264988     2.257345     2.249702
      2.242059     2.234416     2.226772     2.219129     2.211486     2.203843     2.196199     2.188556     2.180913     2.173270
      2.165627     2.157983     2.150340     2.142697     2.135054     2.127410     2.119767     2.112124     2.104481     2.096838
      2.089194     2.081551     2.073908     2.066265     2.058621     2.050978     2.043335     2.035692     2.028049     2.020405
      2.012762     2.005119     1.997476     1.989833     1.982190     1.974546     1.966903     1.959260     1.951617     1.943974
      1.936331     1.928688     1.921045     1.913402     1.905759     1.898115     1.890472     1.882829     1.875186     1.867543
      1.859900     1.852257     1.844614     1.836971     1.829327     1.821684     1.814041     1.806398     1.798755     1.791112
      1.783469     1.775826     1.768183     1.760540     1.752896     1.745253     1.737610     1.729967     1.722324     1.714681
      1.707038     1.699395     1.691752     1.684108     1.676465     1.668822     1.661179     1.653536     1.645893     1.638250
      1.630607     1.622964     1.615321     1.607677     1.600034     1.592391     1.584748     1.577105     1.569462     1.561819
      1.554176     1.546533     1.538890     1.531246     1.523603     1.515960     1.508317     1.500674     1.493031     1.485388
      1.477745     1.470102     1.462458     1.454815     1.447172     1.439529     1.431886     1.424243     1.416600     1.408957
      1.401314     1.393671     1.386027     1.378384     1.370741     1.363098     1.355455     1.347812     1.340169     1.332526
      1.324883     1.317240     1.309596     1.301953     1.294310     1.286667     1.279024     1.271381     1.263738     1.256095
      1.248452     1.240808     1.233165     1.225522     1.217879     1.210236     1.202593     1.194950     1.187307     1.179664
      1.172021     1.164377     1.156734     1.149091     1.141448     1.133805     1.126162     1.118519     1.110876     1.103233
      1.095590     1.087946     1.080303     1.072660     1.065017     1.057374     1.049731     1.042088     1.034445     1.026802
      1.019158     1.011515     1.003872     0.996229     0.988586     0.980943     0.973300     0.965657     0.958014     0.950371
      0.942727     0.935084     0.927441     0.919798     0.912155     0.904512     0.896869     0.889226     0.881583     0.873940
      0.866296     0.858653     0.851010     0.843367     0.835724     0.828081     0.820438     0.812795     0.805152     0.797508
      0.789865     0.782222     0.774579     0.766936     0.759293     0.751650     0.744007     0.736364     0.728721     0.721077
      0.713434     0.705791     0.698148     0.690505     0.682862     0.675219     0.667576     0.659933     0.652290     0.644646
      0.637003     0.629360     0.621717     0.614074     0.606431     0.598788     0.591145     0.583502     0.575858     0.568215
      0.560572     0.552929     0.545286     0.537643     0.530000     0.522357     0.514714     0.507071     0.499427     0.491784
      0.484141     0.476498     0.468855     0.461212     0.453569     0.445925     0.438282     0.430639     0.422996     0.415353
      0.407710     0.400067     0.392424     0.384780     0.377137     0.369494     0.361851     0.354208     0.346565     0.338922
      0.331278     0.323635     0.315992     0.308349     0.300706     0.293063     0.285420     0.277777     0.270133     0.262490
      0.254847     0.247204     0.239561     0.231918     0.224275     0.216631     0.208988     0.201345
 NY phased data points follow
  -3.02266E+01 -3.55440E+01 -3.13860E+01 -2.26378E+01  3.29469E+00 -3.53097E+00 -1.01949E+01 -1.09281E+01 -1.20609E+01 -5.93727E+00
  -9.75913E-01 -6.13801E+00  2.75126E+00 -8.83896E+00 -2.35668E+00 -8.75588E-01 -1.23708E+01  1.06228E+01 -4.84554E+00 -9.56965E+00
  -1.44837E+01 -1.32755E+01 -2.31753E+01 -1.55026E+01 -1.37691E+01 -1.67954E+01 -1.27544E+01 -2.80746E+00 -4.87967E+00 -6.34226E+00
  -1.46292E+01 -1.63605E+01 -7.79386E+00 -2.42928E+01 -8.38009E+00 -2.37784E+00 -7.06009E-01 -1.18277E+01 -1.90977E+01 -1.29002E+01
  -1.36832E+01 -8.14168E+00 -6.47640E+00 -1.26429E+01 -1.48262E+01 -2.41409E+00  1.06427E+01  3.76458E+00 -1.23701E+00  1.27852E+00
  -8.60532E+00 -8.36994E+00 -5.05000E+00 -1.37324E+01 -9.21263E+00 -1.94013E+01 -1.93931E+01 -1.03551E+01 -8.47688E+00 -1.43727E+01
  -1.53659E+01 -1.75736E+01 -5.25054E+00 -2.51601E+01 -1.07008E+01 -2.17147E+01 -1.51638E+01 -1.65001E+01 -1.37743E+01 -1.66149E+01
  -1.39162E+01 -1.24247E+01 -1.91920E+01 -1.97524E+01 -8.90926E+00 -1.38911E+01 -1.53689E+01 -8.62216E+00 -1.02960E+01 -1.08627E+01
  -1.75542E+01 -1.51189E+01 -5.53554E+00 -3.34994E+00 -1.16576E+01 -6.22516E+00 -7.50621E+00 -1.25618E+01 -3.94763E+00 -3.86136E+00
  -5.62657E+00  3.97380E+00  4.31899E+00  1.48564E+01  1.47040E+01  1.63399E+01  2.54538E+01  7.09085E+00  5.43621E+00  2.83543E-01
   4.07850E+00  1.04258E+01  1.69105E+01  1.58486E+01  2.43250E+01  2.54694E+01  2.39848E+01  1.92175E+01  1.60380E+01  1.48946E+01
   1.29444E+01 -4.48044E+00 -8.50002E+00 -1.60329E+00  5.24492E-01 -1.83798E+00 -8.14086E+00 -5.94241E-01  1.43632E+00  1.47290E+01
   8.00726E+00  2.27943E+00  4.35228E+00  1.96891E+00  3.98138E-01  4.88324E+00  3.91406E+00  1.36110E+01  1.10474E+01  2.36095E+01
   1.35790E+01  1.01611E+01  9.83169E+00  2.78553E+00  7.51403E+00 -8.04470E-01 -8.06191E+00 -1.05189E+01 -1.81709E+01 -1.35800E+01
  -9.49926E+00 -9.63880E+00 -9.45276E+00 -1.31144E+01 -1.09253E+01 -1.00347E+01 -1.18017E+01 -1.17017E+01 -9.53052E+00 -3.21362E+00
  -1.38867E+01 -9.46692E+00 -8.19702E+00 -1.22526E+01 -9.86465E+00 -9.44837E+00 -1.71149E+01 -1.61355E+01 -1.41780E+01 -1.51298E+01
  -1.09162E+01 -1.37450E+01 -1.46980E+01 -1.73387E+01 -1.78384E+01 -1.43997E+01 -1.62330E+01 -1.87198E+01 -1.99505E+01 -1.96565E+01
  -1.52947E+01 -2.38966E+01 -1.92297E+01 -1.28006E+01 -1.26711E+01 -2.36034E+01 -1.92996E+01 -2.22265E+01 -3.17885E+01 -1.71721E+01
  -2.95635E+01 -1.78978E+01 -2.19163E+01 -2.34679E+01 -1.84967E+01 -2.08282E+01 -2.09997E+01 -1.25939E+01 -2.20281E+01 -2.31455E+01
  -8.69018E+00 -3.14990E+01 -1.51334E+01 -1.73193E+01 -1.03991E+01 -1.11553E+01 -6.58853E+00 -8.50755E+00 -6.26842E+00 -6.11791E+00
  -9.01469E+00 -2.06916E+01 -1.45516E+01 -1.69414E+01 -1.27801E+01  3.38774E-01 -1.51875E+01 -1.15899E+01 -6.52376E+00 -8.03733E+00
  -9.15304E+00 -1.81495E+01 -1.02819E+01 -1.71298E+01 -1.43081E+01 -1.21484E+01 -1.97064E+01  1.17478E+00 -5.70456E+00  2.43829E+00
  -6.82240E+00 -6.74462E+00 -2.31844E+00 -2.05942E+01 -1.40993E+01 -9.52812E+00 -6.53958E+00 -1.25443E+01 -1.74585E+01 -6.26965E+00
  -3.74526E+00  9.26761E-02 -5.10552E+00  6.70795E+00 -3.91658E-01 -1.48753E+00 -1.17469E+00 -7.20764E+00 -1.15844E+01 -2.71795E+00
  -1.82182E+01  1.59571E+01 -4.65336E+00  3.90795E+00 -2.59282E+00  3.87921E+00  3.16115E+00  1.13665E+01  2.53081E+01  1.69033E+01
   2.41261E+01  2.96779E+01  3.54339E+01  4.51521E+01  4.51700E+01  4.17826E+01  3.25269E+01  9.01541E+00  2.64270E+01  2.93176E+01
   3.46394E+01  3.69621E+01  4.33584E+01  4.05705E+01  4.35552E+01  3.13002E+01  2.21382E+01  1.20098E+01  1.43487E+01  3.48433E+00
  -2.74638E+00 -1.66388E+00  6.03729E+00 -5.78978E+00  3.93182E+00  6.00640E+00  2.51854E+00 -4.04566E+00  2.56561E+00 -5.57828E+00
   7.27116E-01 -3.47187E+00 -7.48572E+00  2.36770E-01 -2.61321E+00 -6.76939E+00 -1.44883E+01 -6.73736E+00 -1.06879E+01 -1.33049E+01
  -7.16546E+00 -1.06128E+01 -9.17902E+00 -1.43702E+01 -1.58093E+01 -1.19201E+01 -9.27518E+00 -1.41985E+01 -1.32791E+01 -1.12757E+01
  -7.77049E+00 -9.59371E+00 -1.03073E+01 -1.09319E+01 -1.14521E+01 -1.11091E+01 -1.03901E+01 -9.18402E+00 -1.61472E+01 -1.07349E+01
  -9.68236E+00 -1.47379E+01 -2.93619E+01 -2.53771E+01 -1.90548E+01 -1.93273E+01 -1.62203E+01 -2.48212E+01 -1.07322E+01 -1.77705E+01
  -2.09030E+01 -2.19641E+01 -8.77780E+00 -1.14308E+01 -1.45592E+01 -1.01226E+01 -8.84787E+00 -1.16181E+01 -1.13625E+01 -1.08848E+01
   7.66215E+00 -6.49854E+00  1.25552E+00 -5.48560E+00 -2.53443E+00 -2.69271E+00  1.75641E+00  6.47277E-01  2.83665E+00  3.28986E+00
   8.71527E+00  8.15886E+00  8.78685E+00  1.05426E+01  1.58572E+01  9.07350E+00  7.79082E-01  8.08362E+00  1.09551E+01 -1.69154E+00
   6.45586E-01  7.02491E+00 -5.23497E+00  7.91600E+00 -5.30141E+00  4.16245E+00 -3.03941E+00  3.47238E+00  4.12462E+00 -8.21437E+00
  -1.19010E+00  8.45701E+00  4.93459E+00  9.59619E-01  1.22160E+01  7.46209E+00  1.00070E+01  2.38684E+00  1.04591E+01  7.07729E+00
   3.18833E+00  1.04678E+01 -2.57744E+00  1.29790E+01  4.96313E+00  7.98310E+00  4.67982E+00 -3.41357E+00 -3.60090E+00 -3.02896E+00
   9.84606E+00 -5.91446E+00  9.05900E+00  6.25086E+00 -6.06399E+00  4.47163E+00  4.97193E+00 -1.21743E+00 -3.71541E+00  9.43571E-01
  -9.24123E+00  3.70476E+00 -9.71814E+00 -3.33221E+00 -7.65257E+00  8.78335E+00  7.41603E+00  1.46150E+01  1.11634E+00  4.83442E+00
   1.15802E+01 -1.28948E-01  1.22127E+00  8.04574E-01 -1.90558E-01 -1.00990E+00  1.27961E+01  7.97506E+00  1.63676E+01 -8.23575E-02
  -2.55452E+00  1.61842E+01 -4.20120E+00 -4.05979E+00 -4.10678E+00 -1.69361E+00  6.44527E-01  6.50785E+00  4.72097E+00  5.54301E+00
  -5.65461E+00 -2.11036E+00 -1.98261E+00 -3.67770E+00 -9.59845E-01 -2.06948E-01 -1.39612E-01 -2.51825E+00  2.49796E-01 -2.74762E+00
   1.22702E+00  3.22054E-01 -3.16210E+00  4.50735E+00 -4.71189E+00 -1.73985E+00 -2.46816E+00  8.90564E+00  3.89563E+00 -5.72641E+00
  -8.28610E+00 -7.02827E+00  1.24728E+01 -2.39994E+00  5.36871E+00  3.17864E+00  1.34509E+00 -2.26667E+00  6.86492E+00 -2.37501E+00
   3.63790E+00  3.88411E+00  3.71136E+00 -4.91283E+00 -3.92775E+00  4.07184E+00  4.02875E+00  5.88465E+00  1.04734E+01 -1.69772E+00
  -3.67786E+00  5.35017E+00 -2.04030E+00  1.63582E+00 -9.70688E-01 -7.26795E+00 -4.81223E+00 -5.65020E+00  9.61899E+00  6.43695E+00
   5.81290E-01  4.22341E+00  1.65799E+00 -1.04022E+00  4.92295E+00  1.82800E+00  8.58578E+00 -6.83344E+00 -4.39927E+00 -1.53813E+00
   2.69942E+00  4.61165E+00  2.05492E+00 -3.97866E+00  2.66141E-01 -1.03393E+01 -5.52190E-01 -2.49065E+00  1.07992E+00 -4.96254E+00
  -3.62521E+00 -3.10142E-01 -5.02656E+00  4.34664E+00  4.00242E+00  3.77165E+00 -1.77448E+00  7.17799E+00
 NY points of the fit to the data follow
  -1.61396E+01 -1.54792E+01 -1.41262E+01 -1.34638E+01 -1.18141E+01 -1.16585E+01 -9.99387E+00 -1.03588E+01 -8.56223E+00 -9.03329E+00
  -7.06698E+00 -7.48172E+00 -5.68762E+00 -6.19093E+00 -5.06050E+00 -5.70561E+00 -5.23422E+00 -6.06483E+00 -6.26563E+00 -7.26177E+00
  -7.78571E+00 -8.68710E+00 -9.02939E+00 -9.64319E+00 -9.60295E+00 -1.02209E+01 -1.02764E+01 -1.11818E+01 -1.14647E+01 -1.25589E+01
  -1.21376E+01 -1.25023E+01 -1.09737E+01 -1.14209E+01 -9.27497E+00 -1.02544E+01 -8.15979E+00 -9.73976E+00 -8.13877E+00 -9.95885E+00
  -8.88672E+00 -1.04403E+01 -9.54356E+00 -1.05003E+01 -9.46935E+00 -9.95330E+00 -9.03376E+00 -9.55631E+00 -9.19264E+00 -9.88771E+00
  -1.00473E+01 -1.06581E+01 -1.08935E+01 -1.13964E+01 -1.17000E+01 -1.21941E+01 -1.26137E+01 -1.30774E+01 -1.34928E+01 -1.37234E+01
  -1.39468E+01 -1.40492E+01 -1.41663E+01 -1.42336E+01 -1.43149E+01 -1.44292E+01 -1.44711E+01 -1.45310E+01 -1.45443E+01 -1.45315E+01
  -1.43134E+01 -1.41763E+01 -1.37796E+01 -1.35691E+01 -1.30484E+01 -1.28308E+01 -1.22867E+01 -1.21428E+01 -1.17077E+01 -1.16588E+01
  -1.14398E+01 -1.14555E+01 -1.13324E+01 -1.13157E+01 -1.11228E+01 -1.09543E+01 -1.03571E+01 -8.67486E+00 -7.51242E+00 -4.68904E+00
  -3.23035E+00  2.92801E-01  1.89552E+00  5.56477E+00  7.16263E+00  1.03223E+01  1.16855E+01  1.33421E+01  1.43445E+01  1.50531E+01
   1.59714E+01  1.67305E+01  1.76597E+01  1.82946E+01  1.89391E+01  1.84367E+01  1.84197E+01  1.58090E+01  1.47663E+01  1.02907E+01
   8.82122E+00  4.71654E+00  3.48351E+00  1.30690E+00  7.02804E-01  1.01441E+00  9.52796E-01  3.08738E+00  3.01142E+00  5.44944E+00
   4.77076E+00  6.49823E+00  5.48668E+00  7.66895E+00  6.70800E+00  9.06004E+00  8.00268E+00  1.03834E+01  8.96969E+00  1.05884E+01
   8.51009E+00  8.53728E+00  5.83826E+00  4.21285E+00  1.31802E+00 -1.28181E+00 -3.76686E+00 -6.17920E+00 -7.91057E+00 -9.49523E+00
  -1.05377E+01 -1.13698E+01 -1.20545E+01 -1.27599E+01 -1.33072E+01 -1.40386E+01 -1.42730E+01 -1.43776E+01 -1.44310E+01 -1.45295E+01
  -1.45643E+01 -1.46822E+01 -1.47437E+01 -1.48828E+01 -1.49867E+01 -1.51066E+01 -1.52577E+01 -1.53690E+01 -1.56091E+01 -1.57708E+01
  -1.61018E+01 -1.62774E+01 -1.66239E+01 -1.67599E+01 -1.71223E+01 -1.72252E+01 -1.76083E+01 -1.76740E+01 -1.80400E+01 -1.80782E+01
  -1.83762E+01 -1.84647E+01 -1.86062E+01 -1.87577E+01 -1.86781E+01 -1.88276E+01 -1.84790E+01 -1.86157E+01 -1.80848E+01 -1.82304E+01
  -1.76892E+01 -1.78551E+01 -1.74217E+01 -1.75305E+01 -1.72087E+01 -1.70064E+01 -1.67618E+01 -1.60837E+01 -1.57967E+01 -1.45277E+01
  -1.42472E+01 -1.26581E+01 -1.26519E+01 -1.14007E+01 -1.22667E+01 -1.12894E+01 -1.31432E+01 -1.21617E+01 -1.45388E+01 -1.29963E+01
  -1.49889E+01 -1.28370E+01 -1.39796E+01 -1.14438E+01 -1.17753E+01 -1.00508E+01 -1.04958E+01 -1.04003E+01 -1.13262E+01 -1.24902E+01
  -1.37745E+01 -1.49312E+01 -1.55962E+01 -1.57390E+01 -1.49319E+01 -1.41566E+01 -1.19773E+01 -1.12367E+01 -8.91820E+00 -9.44547E+00
  -8.24588E+00 -9.71212E+00 -9.64922E+00 -1.08158E+01 -1.10830E+01 -1.05596E+01 -1.06557E+01 -8.65750E+00 -8.61887E+00 -6.12640E+00
  -6.61572E+00 -4.30800E+00 -5.67934E+00 -4.13836E+00 -6.17140E+00 -4.97428E+00 -6.75593E+00 -5.38646E+00 -6.57734E+00 -4.56980E+00
  -4.98422E+00 -2.86722E+00 -2.89897E+00 -6.97871E-01  1.36804E+00  3.41877E+00  7.46657E+00  9.08196E+00  1.48876E+01  1.58662E+01
   2.27400E+01  2.30957E+01  3.01845E+01  2.96102E+01  3.55304E+01  3.37492E+01  3.84280E+01  3.58532E+01  4.01398E+01  3.69142E+01
   4.06155E+01  3.65848E+01  3.86003E+01  3.35565E+01  3.31288E+01  2.75346E+01  2.48166E+01  1.93908E+01  1.53745E+01  1.08376E+01
   7.03747E+00  3.77648E+00  1.02915E+00 -9.91251E-01 -2.65091E+00 -3.86830E+00 -5.07056E+00 -5.99072E+00 -7.17539E+00 -7.64144E+00
  -7.89319E+00 -8.16722E+00 -8.38200E+00 -8.62701E+00 -8.78860E+00 -9.01608E+00 -9.11984E+00 -9.28058E+00 -9.33266E+00 -9.45478E+00
  -9.49148E+00 -9.59749E+00 -9.63554E+00 -9.70858E+00 -9.72715E+00 -9.76866E+00 -9.77199E+00 -9.78996E+00 -9.78419E+00 -9.78453E+00
  -9.77609E+00 -9.76516E+00 -9.74737E+00 -9.71770E+00 -9.68660E+00 -9.63683E+00 -9.58870E+00 -9.51977E+00 -9.46052E+00 -9.37543E+00
  -9.30502E+00 -9.20660E+00 -9.11965E+00 -9.00437E+00 -8.89911E+00 -8.76288E+00 -8.63554E+00 -8.47406E+00 -8.32106E+00 -8.13190E+00
  -7.94707E+00 -7.72307E+00 -7.49877E+00 -7.23001E+00 -6.95458E+00 -6.62616E+00 -6.27931E+00 -5.86225E+00 -5.39907E+00 -4.81451E+00
  -4.06464E+00 -3.00803E+00 -2.26474E+00 -1.08373E+00 -5.57417E-01  4.94019E-01  6.10966E-01  1.22379E+00  8.16926E-01  1.35993E+00
   6.10391E-01  1.15734E+00  4.32208E-01  1.45531E+00  9.59620E-01  2.68737E+00  2.23312E+00  4.26830E+00  3.54403E+00  5.02106E+00
   3.83960E+00  4.55781E+00  3.23401E+00  3.84142E+00  2.89744E+00  3.99999E+00  3.71398E+00  5.39469E+00  5.51745E+00  7.13093E+00
   7.15460E+00  7.98847E+00  7.55708E+00  7.29722E+00  6.52338E+00  5.71791E+00  4.97717E+00  4.34729E+00  3.59116E+00  3.02042E+00
   2.37334E+00  1.76951E+00  1.17624E+00  4.60324E-01 -7.73102E-02 -4.72019E-01 -8.07915E-01 -1.05639E+00 -1.26706E+00 -1.40023E+00
  -1.50089E+00 -1.52692E+00 -1.52216E+00 -1.44388E+00 -1.33580E+00 -1.15532E+00 -9.46651E-01 -6.67878E-01 -3.64403E-01  4.26715E-03
   3.90866E-01  8.33867E-01  1.28369E+00  1.77649E+00  2.26024E+00  2.76894E+00  3.24862E+00  3.73195E+00  4.16420E+00  4.57814E+00
   4.91988E+00  5.22400E+00  5.43919E+00  5.60350E+00  5.66961E+00  5.68007E+00  5.59215E+00  5.45305E+00  5.22435E+00  4.95713E+00
   4.61609E+00  4.25472E+00  3.83916E+00  3.42357E+00  2.97381E+00  2.54315E+00  2.09581E+00  1.68305E+00  1.26671E+00  8.95560E-01
   5.28901E-01  2.13153E-01 -9.46541E-02 -3.50002E-01 -5.97552E-01 -7.94063E-01 -9.85251E-01 -1.12856E+00 -1.27025E+00 -1.36797E+00
  -1.46809E+00 -1.52820E+00 -1.59453E+00 -1.62439E+00 -1.66383E+00 -1.66982E+00 -1.68814E+00 -1.67544E+00 -1.67727E+00 -1.64999E+00
  -1.63897E+00 -1.60030E+00 -1.57923E+00 -1.53163E+00 -1.50265E+00 -1.44799E+00 -1.41275E+00 -1.35249E+00 -1.31228E+00 -1.24754E+00
  -1.20334E+00 -1.13501E+00 -1.08762E+00 -1.01639E+00 -9.66396E-01 -8.92785E-01 -8.40643E-01 -7.65055E-01 -7.11125E-01 -6.33879E-01
  -5.78444E-01 -4.99796E-01 -4.43088E-01 -3.63248E-01 -3.05448E-01 -2.24579E-01 -1.65831E-01 -8.40657E-02 -2.44939E-02  5.80559E-02
   1.18353E-01  2.01606E-01  2.62549E-01  3.46434E-01  4.07960E-01  4.92424E-01  5.54495E-01  6.39505E-01  7.02088E-01  7.87615E-01
   8.50685E-01  9.36717E-01  1.00027E+00  1.08680E+00  1.15084E+00  1.23788E+00  1.30242E+00  1.39001E+00  1.45510E+00  1.54327E+00
   1.60895E+00  1.69779E+00  1.76417E+00  1.85378E+00  1.92100E+00  2.01156E+00  2.07983E+00  2.17165E+00
 NY background values follow
    -2.334E+01   -2.326E+01   -2.319E+01   -2.311E+01   -2.303E+01   -2.296E+01   -2.288E+01   -2.281E+01   -2.273E+01   -2.265E+01
    -2.258E+01   -2.250E+01   -2.243E+01   -2.235E+01   -2.227E+01   -2.220E+01   -2.212E+01   -2.205E+01   -2.197E+01   -2.190E+01
    -2.182E+01   -2.175E+01   -2.167E+01   -2.160E+01   -2.153E+01   -2.145E+01   -2.138E+01   -2.130E+01   -2.123E+01   -2.116E+01
    -2.108E+01   -2.101E+01   -2.094E+01   -2.087E+01   -2.079E+01   -2.072E+01   -2.065E+01   -2.058E+01   -2.051E+01   -2.044E+01
    -2.037E+01   -2.030E+01   -2.023E+01   -2.016E+01   -2.009E+01   -2.002E+01   -1.995E+01   -1.988E+01   -1.981E+01   -1.975E+01
    -1.968E+01   -1.961E+01   -1.955E+01   -1.948E+01   -1.942E+01   -1.935E+01   -1.928E+01   -1.922E+01   -1.916E+01   -1.909E+01
    -1.903E+01   -1.896E+01   -1.890E+01   -1.884E+01   -1.878E+01   -1.871E+01   -1.865E+01   -1.859E+01   -1.853E+01   -1.847E+01
    -1.841E+01   -1.835E+01   -1.829E+01   -1.823E+01   -1.817E+01   -1.812E+01   -1.806E+01   -1.800E+01   -1.794E+01   -1.789E+01
    -1.783E+01   -1.777E+01   -1.772E+01   -1.766E+01   -1.761E+01   -1.755E+01   -1.750E+01   -1.744E+01   -1.739E+01   -1.733E+01
    -1.728E+01   -1.723E+01   -1.718E+01   -1.712E+01   -1.707E+01   -1.702E+01   -1.697E+01   -1.692E+01   -1.687E+01   -1.682E+01
    -1.677E+01   -1.672E+01   -1.667E+01   -1.662E+01   -1.658E+01   -1.653E+01   -1.648E+01   -1.644E+01   -1.639E+01   -1.634E+01
    -1.630E+01   -1.625E+01   -1.621E+01   -1.616E+01   -1.612E+01   -1.608E+01   -1.603E+01   -1.599E+01   -1.595E+01   -1.591E+01
    -1.586E+01   -1.582E+01   -1.578E+01   -1.574E+01   -1.570E+01   -1.566E+01   -1.562E+01   -1.558E+01   -1.555E+01   -1.551E+01
    -1.547E+01   -1.543E+01   -1.540E+01   -1.536E+01   -1.533E+01   -1.529E+01   -1.526E+01   -1.522E+01   -1.519E+01   -1.515E+01
    -1.512E+01   -1.509E+01   -1.506E+01   -1.502E+01   -1.499E+01   -1.496E+01   -1.493E+01   -1.490E+01   -1.487E+01   -1.484E+01
    -1.481E+01   -1.478E+01   -1.476E+01   -1.473E+01   -1.470E+01   -1.467E+01   -1.465E+01   -1.462E+01   -1.459E+01   -1.457E+01
    -1.454E+01   -1.452E+01   -1.449E+01   -1.447E+01   -1.444E+01   -1.442E+01   -1.439E+01   -1.437E+01   -1.435E+01   -1.433E+01
    -1.430E+01   -1.428E+01   -1.426E+01   -1.424E+01   -1.422E+01   -1.419E+01   -1.417E+01   -1.415E+01   -1.413E+01   -1.411E+01
    -1.409E+01   -1.407E+01   -1.405E+01   -1.403E+01   -1.402E+01   -1.400E+01   -1.398E+01   -1.396E+01   -1.394E+01   -1.392E+01
    -1.391E+01   -1.389E+01   -1.387E+01   -1.386E+01   -1.384E+01   -1.382E+01   -1.381E+01   -1.379E+01   -1.377E+01   -1.376E+01
    -1.374E+01   -1.373E+01   -1.371E+01   -1.370E+01   -1.369E+01   -1.367E+01   -1.366E+01   -1.364E+01   -1.363E+01   -1.362E+01
    -1.360E+01   -1.359E+01   -1.358E+01   -1.357E+01   -1.356E+01   -1.354E+01   -1.353E+01   -1.352E+01   -1.351E+01   -1.350E+01
    -1.349E+01   -1.348E+01   -1.347E+01   -1.346E+01   -1.345E+01   -1.344E+01   -1.343E+01   -1.342E+01   -1.341E+01   -1.341E+01
    -1.340E+01   -1.339E+01   -1.338E+01   -1.338E+01   -1.337E+01   -1.336E+01   -1.335E+01   -1.335E+01   -1.334E+01   -1.333E+01
    -1.333E+01   -1.332E+01   -1.331E+01   -1.331E+01   -1.330E+01   -1.329E+01   -1.329E+01   -1.328E+01   -1.328E+01   -1.327E+01
    -1.326E+01   -1.326E+01   -1.325E+01   -1.324E+01   -1.324E+01   -1.323E+01   -1.322E+01   -1.322E+01   -1.321E+01   -1.320E+01
    -1.319E+01   -1.319E+01   -1.318E+01   -1.317E+01   -1.316E+01   -1.316E+01   -1.315E+01   -1.314E+01   -1.313E+01   -1.312E+01
    -1.311E+01   -1.310E+01   -1.309E+01   -1.308E+01   -1.307E+01   -1.306E+01   -1.305E+01   -1.304E+01   -1.302E+01   -1.301E+01
    -1.300E+01   -1.299E+01   -1.297E+01   -1.296E+01   -1.294E+01   -1.293E+01   -1.291E+01   -1.290E+01   -1.288E+01   -1.286E+01
    -1.284E+01   -1.282E+01   -1.280E+01   -1.278E+01   -1.276E+01   -1.274E+01   -1.272E+01   -1.270E+01   -1.267E+01   -1.265E+01
    -1.262E+01   -1.260E+01   -1.257E+01   -1.254E+01   -1.252E+01   -1.249E+01   -1.246E+01   -1.242E+01   -1.239E+01   -1.236E+01
    -1.233E+01   -1.229E+01   -1.225E+01   -1.222E+01   -1.218E+01   -1.214E+01   -1.210E+01   -1.206E+01   -1.202E+01   -1.197E+01
    -1.193E+01   -1.188E+01   -1.184E+01   -1.179E+01   -1.174E+01   -1.169E+01   -1.164E+01   -1.159E+01   -1.154E+01   -1.149E+01
    -1.143E+01   -1.138E+01   -1.132E+01   -1.127E+01   -1.121E+01   -1.115E+01   -1.109E+01   -1.103E+01   -1.097E+01   -1.091E+01
    -1.085E+01   -1.079E+01   -1.072E+01   -1.066E+01   -1.059E+01   -1.053E+01   -1.046E+01   -1.039E+01   -1.033E+01   -1.026E+01
    -1.019E+01   -1.012E+01   -1.005E+01   -9.981E+00   -9.910E+00   -9.839E+00   -9.767E+00   -9.694E+00   -9.621E+00   -9.548E+00
    -9.474E+00   -9.400E+00   -9.326E+00   -9.251E+00   -9.175E+00   -9.100E+00   -9.023E+00   -8.947E+00   -8.870E+00   -8.793E+00
    -8.715E+00   -8.637E+00   -8.559E+00   -8.480E+00   -8.401E+00   -8.322E+00   -8.242E+00   -8.162E+00   -8.082E+00   -8.001E+00
    -7.921E+00   -7.839E+00   -7.758E+00   -7.676E+00   -7.594E+00   -7.512E+00   -7.430E+00   -7.347E+00   -7.264E+00   -7.181E+00
    -7.097E+00   -7.013E+00   -6.929E+00   -6.845E+00   -6.761E+00   -6.676E+00   -6.592E+00   -6.507E+00   -6.421E+00   -6.336E+00
    -6.251E+00   -6.165E+00   -6.079E+00   -5.993E+00   -5.907E+00   -5.821E+00   -5.734E+00   -5.648E+00   -5.561E+00   -5.474E+00
    -5.388E+00   -5.301E+00   -5.214E+00   -5.126E+00   -5.039E+00   -4.952E+00   -4.865E+00   -4.777E+00   -4.690E+00   -4.602E+00
    -4.515E+00   -4.427E+00   -4.339E+00   -4.252E+00   -4.164E+00   -4.077E+00   -3.989E+00   -3.901E+00   -3.814E+00   -3.726E+00
    -3.639E+00   -3.551E+00   -3.464E+00   -3.377E+00   -3.289E+00   -3.202E+00   -3.115E+00   -3.028E+00   -2.941E+00   -2.855E+00
    -2.768E+00   -2.681E+00   -2.595E+00   -2.509E+00   -2.422E+00   -2.336E+00   -2.251E+00   -2.165E+00   -2.079E+00   -1.994E+00
    -1.909E+00   -1.824E+00   -1.739E+00   -1.655E+00   -1.571E+00   -1.486E+00   -1.402E+00   -1.319E+00   -1.235E+00   -1.152E+00
    -1.069E+00   -9.855E-01   -9.026E-01   -8.199E-01   -7.373E-01   -6.548E-01   -5.725E-01   -4.903E-01   -4.083E-01   -3.263E-01
    -2.445E-01   -1.628E-01   -8.121E-02    2.872E-04    8.169E-02    1.630E-01    2.442E-01    3.254E-01    4.065E-01    4.875E-01
     5.685E-01    6.494E-01    7.302E-01    8.110E-01    8.918E-01    9.725E-01    1.053E+00    1.134E+00    1.215E+00    1.295E+00
     1.376E+00    1.456E+00    1.537E+00    1.618E+00    1.698E+00    1.779E+00    1.860E+00    1.941E+00
 Cr       Conc. = 1.76E+03
