 LCModel (Version 6.3-1L) Copyright: S.W. Provencher.          Ref.: Magn. Reson. Med. 30:672-679 (1993).                
 Slice#3 Row#9 Col#2  PD_24_press_2_raw_act
 36 lines in following concentration table = NCONC+1
    Conc.  %SD /Cr+PCr  Metabolite                                         
  592.080  90%   0.000 Ala                                                 
    0.000 999%   0.000 Asp                                                 
    0.000 999%   0.000 Cr                                                  
    0.000 999%   0.000 PCr                                                 
   56.930 180%   0.000 GABA                                                
  151.728  68%   0.000 Glc                                                 
 2.18E+03  53%   0.000 Gln                                                 
 2.91E+03  41%   0.000 Glu                                                 
   87.466  63%   0.000 GPC                                                 
    0.000 999%   0.000 PCh                                                 
  904.005  28%   0.000 GSH                                                 
 5.40E+03  11%   0.000 Ins                                                 
 1.28E+03  45%   0.000 Lac                                                 
 1.60E+03  20%   0.000 NAA                                                 
  931.962  35%   0.000 NAAG                                                
   77.572  41%   0.000 Scyllo                                              
  265.563  63%   0.000 Tau                                                 
    0.000 999%   0.000 -CrCH2                                              
   87.466  63%   0.000 GPC+PCh                                             
 2.53E+03   7%   0.000 NAA+NAAG                                            
    0.000 999%   0.000 Cr+PCr                                              
 5.09E+03  36%   0.000 Glu+Gln                                             
  660.949  71%   0.000 Lip13a                                              
    0.000 999%   0.000 Lip13b                                              
   38.547 508%   0.000 Lip09                                               
    2.008 999%   0.000 MM09                                                
  390.654  60%   0.000 Lip20                                               
    2.054 999%   0.000 MM20                                                
    0.519 999%   0.000 MM12                                                
    5.548 571%   0.000 MM14                                                
    0.000 999%   0.000 MM17                                                
  660.949  71%   0.000 Lip13a+Lip13b                                       
  667.015  70%   0.000 MM14+Lip13a+Lip13b+MM12                             
   40.555 478%   0.000 MM09+Lip09                                          
  392.708  61%   0.000 MM20+Lip20                                          
   6 lines in following misc. output table
  FWHM = 0.183 ppm    S/N =   3                                            
  Data shift = 0.313 ppm                                                   
  Ph: -48 deg      12.4 deg/ppm                                            
  alphaB,S = 1.6E+00,   8.5E+01                                            
    9 spline knots.   Ns = 9(2)                                            
  (14) 9 infls.   (11) 1 extrs.                                            
  498 points on ppm-axis = NY
      4.000000     3.992357     3.984714     3.977070     3.969427     3.961784     3.954141     3.946497     3.938854     3.931211
      3.923568     3.915925     3.908281     3.900638     3.892995     3.885352     3.877708     3.870065     3.862422     3.854779
      3.847136     3.839492     3.831849     3.824206     3.816563     3.808919     3.801276     3.793633     3.785990     3.778347
      3.770703     3.763060     3.755417     3.747774     3.740130     3.732487     3.724844     3.717201     3.709558     3.701914
      3.694271     3.686628     3.678985     3.671341     3.663698     3.656055     3.648412     3.640769     3.633125     3.625482
      3.617839     3.610196     3.602552     3.594909     3.587266     3.579623     3.571980     3.564336     3.556693     3.549050
      3.541407     3.533763     3.526120     3.518477     3.510834     3.503191     3.495547     3.487904     3.480261     3.472618
      3.464974     3.457331     3.449688     3.442045     3.434402     3.426758     3.419115     3.411472     3.403829     3.396185
      3.388542     3.380899     3.373256     3.365613     3.357969     3.350326     3.342683     3.335040     3.327396     3.319753
      3.312110     3.304467     3.296824     3.289180     3.281537     3.273894     3.266251     3.258607     3.250964     3.243321
      3.235678     3.228034     3.220391     3.212748     3.205105     3.197462     3.189818     3.182175     3.174532     3.166889
      3.159245     3.151602     3.143959     3.136316     3.128673     3.121029     3.113386     3.105743     3.098100     3.090456
      3.082813     3.075170     3.067527     3.059884     3.052240     3.044597     3.036954     3.029311     3.021667     3.014024
      3.006381     2.998738     2.991095     2.983451     2.975808     2.968165     2.960522     2.952878     2.945235     2.937592
      2.929949     2.922306     2.914662     2.907019     2.899376     2.891733     2.884089     2.876446     2.868803     2.861160
      2.853517     2.845873     2.838230     2.830587     2.822944     2.815300     2.807657     2.800014     2.792371     2.784728
      2.777084     2.769441     2.761798     2.754155     2.746511     2.738868     2.731225     2.723582     2.715939     2.708295
      2.700652     2.693009     2.685366     2.677722     2.670079     2.662436     2.654793     2.647150     2.639506     2.631863
      2.624220     2.616577     2.608933     2.601290     2.593647     2.586004     2.578361     2.570717     2.563074     2.555431
      2.547788     2.540144     2.532501     2.524858     2.517215     2.509572     2.501928     2.494285     2.486642     2.478999
      2.471355     2.463712     2.456069     2.448426     2.440783     2.433139     2.425496     2.417853     2.410210     2.402566
      2.394923     2.387280     2.379637     2.371994     2.364350     2.356707     2.349064     2.341421     2.333777     2.326134
      2.318491     2.310848     2.303205     2.295561     2.287918     2.280275     2.272632     2.264988     2.257345     2.249702
      2.242059     2.234416     2.226772     2.219129     2.211486     2.203843     2.196199     2.188556     2.180913     2.173270
      2.165627     2.157983     2.150340     2.142697     2.135054     2.127410     2.119767     2.112124     2.104481     2.096838
      2.089194     2.081551     2.073908     2.066265     2.058621     2.050978     2.043335     2.035692     2.028049     2.020405
      2.012762     2.005119     1.997476     1.989833     1.982190     1.974546     1.966903     1.959260     1.951617     1.943974
      1.936331     1.928688     1.921045     1.913402     1.905759     1.898115     1.890472     1.882829     1.875186     1.867543
      1.859900     1.852257     1.844614     1.836971     1.829327     1.821684     1.814041     1.806398     1.798755     1.791112
      1.783469     1.775826     1.768183     1.760540     1.752896     1.745253     1.737610     1.729967     1.722324     1.714681
      1.707038     1.699395     1.691752     1.684108     1.676465     1.668822     1.661179     1.653536     1.645893     1.638250
      1.630607     1.622964     1.615321     1.607677     1.600034     1.592391     1.584748     1.577105     1.569462     1.561819
      1.554176     1.546533     1.538890     1.531246     1.523603     1.515960     1.508317     1.500674     1.493031     1.485388
      1.477745     1.470102     1.462458     1.454815     1.447172     1.439529     1.431886     1.424243     1.416600     1.408957
      1.401314     1.393671     1.386027     1.378384     1.370741     1.363098     1.355455     1.347812     1.340169     1.332526
      1.324883     1.317240     1.309596     1.301953     1.294310     1.286667     1.279024     1.271381     1.263738     1.256095
      1.248452     1.240808     1.233165     1.225522     1.217879     1.210236     1.202593     1.194950     1.187307     1.179664
      1.172021     1.164377     1.156734     1.149091     1.141448     1.133805     1.126162     1.118519     1.110876     1.103233
      1.095590     1.087946     1.080303     1.072660     1.065017     1.057374     1.049731     1.042088     1.034445     1.026802
      1.019158     1.011515     1.003872     0.996229     0.988586     0.980943     0.973300     0.965657     0.958014     0.950371
      0.942727     0.935084     0.927441     0.919798     0.912155     0.904512     0.896869     0.889226     0.881583     0.873940
      0.866296     0.858653     0.851010     0.843367     0.835724     0.828081     0.820438     0.812795     0.805152     0.797508
      0.789865     0.782222     0.774579     0.766936     0.759293     0.751650     0.744007     0.736364     0.728721     0.721077
      0.713434     0.705791     0.698148     0.690505     0.682862     0.675219     0.667576     0.659933     0.652290     0.644646
      0.637003     0.629360     0.621717     0.614074     0.606431     0.598788     0.591145     0.583502     0.575858     0.568215
      0.560572     0.552929     0.545286     0.537643     0.530000     0.522357     0.514714     0.507071     0.499427     0.491784
      0.484141     0.476498     0.468855     0.461212     0.453569     0.445925     0.438282     0.430639     0.422996     0.415353
      0.407710     0.400067     0.392424     0.384780     0.377137     0.369494     0.361851     0.354208     0.346565     0.338922
      0.331278     0.323635     0.315992     0.308349     0.300706     0.293063     0.285420     0.277777     0.270133     0.262490
      0.254847     0.247204     0.239561     0.231918     0.224275     0.216631     0.208988     0.201345
 NY phased data points follow
  -4.24157E+02 -4.11766E+02 -4.14431E+02 -4.08040E+02 -4.10817E+02 -3.96571E+02 -4.01186E+02 -3.98456E+02 -3.93755E+02 -3.86018E+02
  -3.91874E+02 -3.80483E+02 -3.83573E+02 -3.78631E+02 -3.79396E+02 -3.74366E+02 -3.73478E+02 -3.66952E+02 -3.66173E+02 -3.60294E+02
  -3.58436E+02 -3.54754E+02 -3.56379E+02 -3.48182E+02 -3.48441E+02 -3.42999E+02 -3.43256E+02 -3.35812E+02 -3.39094E+02 -3.35503E+02
  -3.32521E+02 -3.26622E+02 -3.22548E+02 -3.20369E+02 -3.19725E+02 -3.13386E+02 -3.17015E+02 -3.10385E+02 -3.08752E+02 -3.11542E+02
  -3.08384E+02 -3.01261E+02 -3.03489E+02 -2.99667E+02 -2.94519E+02 -2.89459E+02 -2.95545E+02 -2.89368E+02 -2.86863E+02 -2.85336E+02
  -2.81159E+02 -2.83964E+02 -2.78279E+02 -2.72282E+02 -2.74030E+02 -2.74065E+02 -2.75932E+02 -2.68785E+02 -2.70785E+02 -2.65574E+02
  -2.67035E+02 -2.64435E+02 -2.59180E+02 -2.54749E+02 -2.54732E+02 -2.46789E+02 -2.50713E+02 -2.50059E+02 -2.54837E+02 -2.50850E+02
  -2.51961E+02 -2.45542E+02 -2.50908E+02 -2.44584E+02 -2.43440E+02 -2.41816E+02 -2.44623E+02 -2.38589E+02 -2.41844E+02 -2.37210E+02
  -2.36580E+02 -2.34796E+02 -2.31416E+02 -2.33123E+02 -2.36432E+02 -2.32279E+02 -2.27774E+02 -2.14852E+02 -2.13760E+02 -2.19157E+02
  -2.16421E+02 -2.18757E+02 -2.19661E+02 -2.25708E+02 -2.24134E+02 -2.17863E+02 -2.20161E+02 -2.16517E+02 -2.18335E+02 -2.12544E+02
  -2.15925E+02 -2.13464E+02 -2.10989E+02 -2.10966E+02 -2.07985E+02 -2.05336E+02 -2.04232E+02 -1.97377E+02 -1.99907E+02 -2.04784E+02
  -1.98979E+02 -1.98102E+02 -1.93856E+02 -1.98101E+02 -1.96600E+02 -1.91505E+02 -1.89855E+02 -1.84944E+02 -1.87851E+02 -1.86474E+02
  -1.85688E+02 -1.82345E+02 -1.84128E+02 -1.77135E+02 -1.88883E+02 -1.84528E+02 -1.78365E+02 -1.75745E+02 -1.80868E+02 -1.78964E+02
  -1.77592E+02 -1.73613E+02 -1.72813E+02 -1.72584E+02 -1.72166E+02 -1.65514E+02 -1.66417E+02 -1.64356E+02 -1.62756E+02 -1.60223E+02
  -1.62862E+02 -1.56623E+02 -1.54180E+02 -1.56813E+02 -1.56078E+02 -1.55709E+02 -1.53927E+02 -1.50231E+02 -1.49470E+02 -1.50041E+02
  -1.48554E+02 -1.47499E+02 -1.47402E+02 -1.46401E+02 -1.47501E+02 -1.41340E+02 -1.43405E+02 -1.40204E+02 -1.42389E+02 -1.46778E+02
  -1.42356E+02 -1.37196E+02 -1.36322E+02 -1.37442E+02 -1.35509E+02 -1.34843E+02 -1.35572E+02 -1.34548E+02 -1.36410E+02 -1.39718E+02
  -1.33820E+02 -1.29273E+02 -1.34971E+02 -1.29787E+02 -1.35266E+02 -1.27524E+02 -1.31779E+02 -1.30425E+02 -1.31408E+02 -1.30914E+02
  -1.34658E+02 -1.30997E+02 -1.33330E+02 -1.36514E+02 -1.37585E+02 -1.30020E+02 -1.31199E+02 -1.29114E+02 -1.29417E+02 -1.32969E+02
  -1.32944E+02 -1.32502E+02 -1.26187E+02 -1.25927E+02 -1.30858E+02 -1.24595E+02 -1.21427E+02 -1.21108E+02 -1.20015E+02 -1.20976E+02
  -1.15921E+02 -1.20423E+02 -1.20151E+02 -1.14315E+02 -1.14913E+02 -1.13506E+02 -1.11733E+02 -1.07726E+02 -1.14799E+02 -1.09654E+02
  -1.09876E+02 -1.09097E+02 -1.09539E+02 -1.04194E+02 -1.11036E+02 -1.13220E+02 -1.13455E+02 -1.11407E+02 -1.08196E+02 -1.00821E+02
  -9.60788E+01 -9.96179E+01 -1.05413E+02 -1.06573E+02 -1.17290E+02 -1.19251E+02 -1.19327E+02 -1.12078E+02 -1.08203E+02 -1.04340E+02
  -1.05473E+02 -1.04070E+02 -9.79312E+01 -9.64793E+01 -9.85110E+01 -9.88711E+01 -9.26636E+01 -9.28243E+01 -9.34133E+01 -9.32834E+01
  -9.18479E+01 -8.51577E+01 -8.67918E+01 -8.75879E+01 -8.49262E+01 -8.58833E+01 -8.79966E+01 -8.31809E+01 -8.24860E+01 -8.13361E+01
  -8.38755E+01 -8.12184E+01 -7.80741E+01 -8.36108E+01 -8.19861E+01 -7.33172E+01 -7.38192E+01 -7.00077E+01 -6.87574E+01 -7.09838E+01
  -7.01271E+01 -7.18090E+01 -6.44318E+01 -6.96853E+01 -7.09393E+01 -6.85852E+01 -6.83299E+01 -6.91724E+01 -6.93214E+01 -7.28636E+01
  -7.24611E+01 -7.46009E+01 -7.95538E+01 -7.83633E+01 -7.85444E+01 -8.23121E+01 -8.34469E+01 -8.87158E+01 -8.99387E+01 -9.03134E+01
  -9.10339E+01 -8.83826E+01 -8.56205E+01 -8.58387E+01 -8.10300E+01 -8.13751E+01 -8.34170E+01 -8.18778E+01 -7.94118E+01 -7.60438E+01
  -7.52992E+01 -7.64013E+01 -7.68489E+01 -7.19647E+01 -6.93174E+01 -6.78485E+01 -6.44741E+01 -6.15170E+01 -7.14384E+01 -6.86195E+01
  -6.68597E+01 -6.03234E+01 -5.97620E+01 -5.97505E+01 -4.97930E+01 -5.31783E+01 -5.44175E+01 -5.09931E+01 -4.78655E+01 -4.70497E+01
  -4.86484E+01 -4.98576E+01 -4.57989E+01 -4.06565E+01 -4.98470E+01 -4.40306E+01 -4.10957E+01 -4.22814E+01 -4.19875E+01 -4.35384E+01
  -4.60114E+01 -3.86758E+01 -3.92835E+01 -3.28903E+01 -3.80545E+01 -3.87197E+01 -3.40629E+01 -3.49278E+01 -3.12215E+01 -3.32222E+01
  -3.25529E+01 -3.08321E+01 -2.62876E+01 -2.70954E+01 -2.94246E+01 -2.96119E+01 -2.38518E+01 -2.63731E+01 -2.47026E+01 -2.32527E+01
  -2.48734E+01 -2.59127E+01 -2.31738E+01 -2.39445E+01 -2.56984E+01 -2.14497E+01 -2.27699E+01 -2.00734E+01 -1.83766E+01 -1.76273E+01
  -2.02292E+01 -1.95100E+01 -2.56191E+01 -1.40883E+01 -1.93529E+01 -1.86639E+01 -1.82555E+01 -1.75125E+01 -1.51017E+01 -1.57870E+01
  -1.08458E+01 -1.63603E+01 -1.65644E+01 -1.48454E+01 -1.75618E+01 -1.42228E+01 -1.18606E+01 -1.06997E+01 -1.27057E+01 -9.38875E+00
  -1.35284E+01 -5.19559E+00 -8.83872E+00 -6.40653E+00 -7.63669E+00 -6.04044E+00 -6.48617E+00 -2.73802E+00 -1.30414E+00 -5.12155E-01
  -8.29386E-01 -3.23155E+00 -4.72242E+00 -3.97509E+00 -4.70824E+00 -2.99080E+00  1.32791E+00 -2.38910E+00 -1.99586E+00  2.78499E-01
   2.00800E+00  4.39186E+00  2.13751E+00  2.34202E+00 -1.93497E-02 -1.40362E+00  3.32159E+00  2.43972E+00  7.32558E+00  8.68809E+00
   2.04762E+00  9.26788E+00  2.31846E+00  7.29133E+00  6.36868E+00  7.97593E+00  5.74140E+00  7.45453E+00  9.99919E+00  6.82193E+00
   6.02306E+00  6.61253E+00  4.61856E+00  6.71408E+00  7.62314E+00  1.05255E+01  1.09389E+01  1.07666E+01  1.10073E+01  1.40265E+01
   1.42401E+01  1.19399E+01  1.66561E+01  1.52981E+01  1.43532E+01  1.51980E+01  1.20790E+01  1.29315E+01  1.30940E+01  1.03179E+01
   1.61967E+01  1.62308E+01  1.88613E+01  1.97796E+01  2.01327E+01  1.77166E+01  1.82291E+01  2.02751E+01  2.08781E+01  1.46377E+01
   2.12623E+01  1.88614E+01  2.05126E+01  2.20511E+01  2.24204E+01  1.94781E+01  2.35640E+01  2.17228E+01  1.99010E+01  2.22087E+01
   2.00230E+01  2.03357E+01  2.58214E+01  1.86514E+01  2.42025E+01  1.99916E+01  1.78210E+01  1.91285E+01  2.02544E+01  1.64393E+01
   2.04567E+01  2.24675E+01  2.27999E+01  2.02806E+01  2.39626E+01  1.87307E+01  1.77961E+01  1.75476E+01  2.21571E+01  1.80737E+01
   1.80549E+01  1.76894E+01  2.01426E+01  1.92401E+01  1.54990E+01  2.35539E+01  2.20877E+01  2.13138E+01  1.97948E+01  1.85980E+01
   2.03426E+01  2.23139E+01  2.13204E+01  1.76649E+01  1.93334E+01  2.06500E+01  2.30932E+01  2.76207E+01  2.11111E+01  2.22556E+01
   3.17450E+01  2.84703E+01  2.79003E+01  2.50349E+01  2.61062E+01  2.25356E+01  2.72712E+01  3.01015E+01
 NY points of the fit to the data follow
  -4.12531E+02 -4.09395E+02 -4.07213E+02 -4.04112E+02 -4.01643E+02 -3.98344E+02 -3.95866E+02 -3.92834E+02 -3.90568E+02 -3.88447E+02
  -3.87082E+02 -3.85473E+02 -3.83511E+02 -3.80810E+02 -3.79116E+02 -3.75640E+02 -3.73311E+02 -3.70117E+02 -3.68273E+02 -3.65003E+02
  -3.63330E+02 -3.59735E+02 -3.57593E+02 -3.53761E+02 -3.51319E+02 -3.47266E+02 -3.45067E+02 -3.41198E+02 -3.39795E+02 -3.36099E+02
  -3.33714E+02 -3.28666E+02 -3.25653E+02 -3.20746E+02 -3.18308E+02 -3.13888E+02 -3.12686E+02 -3.08997E+02 -3.08823E+02 -3.05448E+02
  -3.05323E+02 -3.01802E+02 -3.00836E+02 -2.97124E+02 -2.95527E+02 -2.91951E+02 -2.91008E+02 -2.88083E+02 -2.87707E+02 -2.84973E+02
  -2.84495E+02 -2.81508E+02 -2.79711E+02 -2.76710E+02 -2.75216E+02 -2.72770E+02 -2.71919E+02 -2.70013E+02 -2.69668E+02 -2.67852E+02
  -2.66635E+02 -2.63574E+02 -2.61432E+02 -2.58002E+02 -2.56729E+02 -2.54330E+02 -2.55004E+02 -2.53894E+02 -2.55188E+02 -2.54166E+02
  -2.53783E+02 -2.50975E+02 -2.49869E+02 -2.46854E+02 -2.45640E+02 -2.42237E+02 -2.41418E+02 -2.38248E+02 -2.38177E+02 -2.35839E+02
  -2.36195E+02 -2.34912E+02 -2.34691E+02 -2.33051E+02 -2.31907E+02 -2.29454E+02 -2.28342E+02 -2.25948E+02 -2.25289E+02 -2.23656E+02
  -2.23538E+02 -2.22644E+02 -2.22720E+02 -2.21905E+02 -2.21411E+02 -2.19641E+02 -2.18647E+02 -2.16220E+02 -2.15016E+02 -2.12666E+02
  -2.11686E+02 -2.10013E+02 -2.09415E+02 -2.07910E+02 -2.07289E+02 -2.05231E+02 -2.04310E+02 -2.01523E+02 -2.00126E+02 -1.97471E+02
  -1.96498E+02 -1.94526E+02 -1.93904E+02 -1.92316E+02 -1.91620E+02 -1.89979E+02 -1.89022E+02 -1.87232E+02 -1.86482E+02 -1.84636E+02
  -1.83971E+02 -1.82485E+02 -1.81647E+02 -1.80333E+02 -1.78705E+02 -1.77303E+02 -1.75678E+02 -1.74591E+02 -1.73085E+02 -1.72125E+02
  -1.70731E+02 -1.69823E+02 -1.68392E+02 -1.67396E+02 -1.65768E+02 -1.64839E+02 -1.63261E+02 -1.62600E+02 -1.61288E+02 -1.60776E+02
  -1.59572E+02 -1.58991E+02 -1.57655E+02 -1.57069E+02 -1.55471E+02 -1.54928E+02 -1.53277E+02 -1.52836E+02 -1.51511E+02 -1.51324E+02
  -1.50385E+02 -1.50248E+02 -1.49421E+02 -1.49008E+02 -1.47959E+02 -1.47197E+02 -1.45957E+02 -1.45465E+02 -1.44688E+02 -1.44295E+02
  -1.43880E+02 -1.43417E+02 -1.43093E+02 -1.42559E+02 -1.42059E+02 -1.41431E+02 -1.40856E+02 -1.40253E+02 -1.39775E+02 -1.39191E+02
  -1.38594E+02 -1.37859E+02 -1.37089E+02 -1.36247E+02 -1.35464E+02 -1.34875E+02 -1.34398E+02 -1.33971E+02 -1.33635E+02 -1.33152E+02
  -1.32761E+02 -1.31976E+02 -1.31292E+02 -1.30273E+02 -1.29244E+02 -1.28208E+02 -1.27221E+02 -1.26323E+02 -1.25805E+02 -1.25364E+02
  -1.25190E+02 -1.24826E+02 -1.24855E+02 -1.23539E+02 -1.23114E+02 -1.21512E+02 -1.21013E+02 -1.19509E+02 -1.19130E+02 -1.18063E+02
  -1.18419E+02 -1.17422E+02 -1.18141E+02 -1.16819E+02 -1.17499E+02 -1.15802E+02 -1.15784E+02 -1.13981E+02 -1.14209E+02 -1.13215E+02
  -1.14446E+02 -1.13671E+02 -1.15311E+02 -1.13814E+02 -1.14748E+02 -1.12336E+02 -1.11762E+02 -1.09359E+02 -1.08585E+02 -1.06949E+02
  -1.07144E+02 -1.06646E+02 -1.08202E+02 -1.08102E+02 -1.09830E+02 -1.09043E+02 -1.08854E+02 -1.06685E+02 -1.04751E+02 -1.02590E+02
  -1.00697E+02 -1.00206E+02 -1.00232E+02 -1.00188E+02 -1.00939E+02 -1.00709E+02 -1.00459E+02 -9.79063E+01 -9.53713E+01 -9.29809E+01
  -9.01975E+01 -8.80566E+01 -8.42785E+01 -8.39448E+01 -8.27715E+01 -8.39438E+01 -8.30601E+01 -8.37643E+01 -8.22340E+01 -8.25275E+01
  -8.03702E+01 -8.04045E+01 -7.75875E+01 -7.81247E+01 -7.58946E+01 -7.60064E+01 -7.39757E+01 -7.42268E+01 -7.24783E+01 -7.26329E+01
  -6.94529E+01 -7.00744E+01 -6.64905E+01 -6.77483E+01 -6.62981E+01 -6.84058E+01 -6.89956E+01 -7.06532E+01 -7.18965E+01 -7.31440E+01
  -7.43520E+01 -7.60462E+01 -7.67963E+01 -7.87263E+01 -7.91626E+01 -8.08372E+01 -8.22099E+01 -8.21331E+01 -8.44516E+01 -8.44142E+01
  -8.66061E+01 -8.49573E+01 -8.34876E+01 -8.17000E+01 -8.04699E+01 -7.88929E+01 -7.76250E+01 -7.62680E+01 -7.50661E+01 -7.38228E+01
  -7.27359E+01 -7.16389E+01 -7.06250E+01 -6.95935E+01 -6.85942E+01 -6.75241E+01 -6.64364E+01 -6.53544E+01 -6.43065E+01 -6.32511E+01
  -6.22298E+01 -6.11980E+01 -6.01962E+01 -5.91825E+01 -5.81300E+01 -5.70793E+01 -5.59878E+01 -5.48917E+01 -5.37280E+01 -5.26689E+01
  -5.20090E+01 -5.10864E+01 -5.05597E+01 -4.95981E+01 -4.89640E+01 -4.79132E+01 -4.70707E+01 -4.55029E+01 -4.45372E+01 -4.30075E+01
  -4.23131E+01 -4.09864E+01 -4.04513E+01 -3.91833E+01 -3.85968E+01 -3.71998E+01 -3.63002E+01 -3.45466E+01 -3.35882E+01 -3.23036E+01
  -3.28761E+01 -3.18059E+01 -3.29848E+01 -3.17912E+01 -3.26084E+01 -3.07557E+01 -3.02351E+01 -2.73014E+01 -2.67732E+01 -2.40221E+01
  -2.45380E+01 -2.24295E+01 -2.37587E+01 -2.19515E+01 -2.31272E+01 -2.10346E+01 -2.09785E+01 -1.85366E+01 -1.82282E+01 -1.60846E+01
  -1.74547E+01 -1.59537E+01 -1.83647E+01 -1.71157E+01 -1.89121E+01 -1.72925E+01 -1.78517E+01 -1.51499E+01 -1.54155E+01 -1.29226E+01
  -1.40310E+01 -1.22761E+01 -1.42502E+01 -1.27425E+01 -1.44514E+01 -1.26528E+01 -1.29480E+01 -1.06571E+01 -9.43325E+00 -7.82229E+00
  -7.71877E+00 -6.77806E+00 -7.45349E+00 -7.16972E+00 -8.04327E+00 -7.99323E+00 -7.53855E+00 -7.00180E+00 -6.43954E+00 -5.86799E+00
  -5.29377E+00 -4.72012E+00 -4.14896E+00 -3.58159E+00 -3.01893E+00 -2.46158E+00 -1.90989E+00 -1.36415E+00 -8.24655E-01 -2.91742E-01
   2.34290E-01  7.53241E-01  1.26496E+00  1.76926E+00  2.26591E+00  2.75464E+00  3.23522E+00  3.70750E+00  4.17138E+00  4.62676E+00
   5.07349E+00  5.51150E+00  5.94079E+00  6.36149E+00  6.77377E+00  7.17781E+00  7.57381E+00  7.96202E+00  8.34278E+00  8.71650E+00
   9.08355E+00  9.44425E+00  9.79889E+00  1.01478E+01  1.04912E+01  1.08295E+01  1.11629E+01  1.14914E+01  1.18152E+01  1.21344E+01
   1.24490E+01  1.27592E+01  1.30649E+01  1.33659E+01  1.36623E+01  1.39539E+01  1.42408E+01  1.45230E+01  1.48003E+01  1.50726E+01
   1.53400E+01  1.56024E+01  1.58598E+01  1.61123E+01  1.63598E+01  1.66022E+01  1.68397E+01  1.70723E+01  1.73000E+01  1.75229E+01
   1.77409E+01  1.79541E+01  1.81626E+01  1.83663E+01  1.85655E+01  1.87600E+01  1.89500E+01  1.91354E+01  1.93163E+01  1.94929E+01
   1.96650E+01  1.98328E+01  1.99963E+01  2.01555E+01  2.03106E+01  2.04615E+01  2.06082E+01  2.07509E+01  2.08895E+01  2.10241E+01
   2.11548E+01  2.12816E+01  2.14044E+01  2.15235E+01  2.16387E+01  2.17502E+01  2.18580E+01  2.19621E+01  2.20626E+01  2.21595E+01
   2.22528E+01  2.23427E+01  2.24291E+01  2.25121E+01  2.25916E+01  2.26679E+01  2.27409E+01  2.28108E+01  2.28774E+01  2.29410E+01
   2.30015E+01  2.30590E+01  2.31137E+01  2.31656E+01  2.32147E+01  2.32612E+01  2.33051E+01  2.33466E+01  2.33860E+01  2.34232E+01
   2.34585E+01  2.34921E+01  2.35243E+01  2.35555E+01  2.35859E+01  2.36162E+01  2.36470E+01  2.36790E+01
 NY background values follow
    -4.294E+02   -4.264E+02   -4.234E+02   -4.204E+02   -4.175E+02   -4.146E+02   -4.117E+02   -4.088E+02   -4.059E+02   -4.031E+02
    -4.003E+02   -3.975E+02   -3.947E+02   -3.919E+02   -3.891E+02   -3.864E+02   -3.837E+02   -3.810E+02   -3.783E+02   -3.756E+02
    -3.730E+02   -3.704E+02   -3.678E+02   -3.652E+02   -3.626E+02   -3.600E+02   -3.575E+02   -3.550E+02   -3.525E+02   -3.500E+02
    -3.475E+02   -3.450E+02   -3.426E+02   -3.402E+02   -3.378E+02   -3.354E+02   -3.330E+02   -3.306E+02   -3.283E+02   -3.260E+02
    -3.237E+02   -3.214E+02   -3.191E+02   -3.168E+02   -3.146E+02   -3.123E+02   -3.101E+02   -3.079E+02   -3.057E+02   -3.036E+02
    -3.014E+02   -2.993E+02   -2.971E+02   -2.950E+02   -2.929E+02   -2.908E+02   -2.888E+02   -2.867E+02   -2.847E+02   -2.826E+02
    -2.806E+02   -2.786E+02   -2.766E+02   -2.746E+02   -2.727E+02   -2.707E+02   -2.688E+02   -2.669E+02   -2.650E+02   -2.631E+02
    -2.612E+02   -2.593E+02   -2.575E+02   -2.556E+02   -2.538E+02   -2.520E+02   -2.501E+02   -2.484E+02   -2.466E+02   -2.448E+02
    -2.430E+02   -2.413E+02   -2.395E+02   -2.378E+02   -2.361E+02   -2.344E+02   -2.327E+02   -2.310E+02   -2.293E+02   -2.277E+02
    -2.260E+02   -2.244E+02   -2.228E+02   -2.211E+02   -2.195E+02   -2.180E+02   -2.164E+02   -2.148E+02   -2.133E+02   -2.117E+02
    -2.102E+02   -2.087E+02   -2.072E+02   -2.057E+02   -2.042E+02   -2.027E+02   -2.012E+02   -1.998E+02   -1.984E+02   -1.969E+02
    -1.955E+02   -1.941E+02   -1.928E+02   -1.914E+02   -1.900E+02   -1.887E+02   -1.874E+02   -1.860E+02   -1.847E+02   -1.834E+02
    -1.822E+02   -1.809E+02   -1.796E+02   -1.784E+02   -1.772E+02   -1.760E+02   -1.748E+02   -1.736E+02   -1.724E+02   -1.712E+02
    -1.701E+02   -1.689E+02   -1.678E+02   -1.667E+02   -1.656E+02   -1.645E+02   -1.635E+02   -1.624E+02   -1.614E+02   -1.603E+02
    -1.593E+02   -1.583E+02   -1.573E+02   -1.564E+02   -1.554E+02   -1.545E+02   -1.535E+02   -1.526E+02   -1.517E+02   -1.508E+02
    -1.499E+02   -1.491E+02   -1.482E+02   -1.474E+02   -1.466E+02   -1.458E+02   -1.450E+02   -1.442E+02   -1.434E+02   -1.427E+02
    -1.419E+02   -1.412E+02   -1.405E+02   -1.398E+02   -1.391E+02   -1.384E+02   -1.378E+02   -1.371E+02   -1.365E+02   -1.359E+02
    -1.353E+02   -1.347E+02   -1.341E+02   -1.336E+02   -1.330E+02   -1.325E+02   -1.319E+02   -1.314E+02   -1.309E+02   -1.304E+02
    -1.299E+02   -1.294E+02   -1.289E+02   -1.284E+02   -1.280E+02   -1.275E+02   -1.271E+02   -1.266E+02   -1.262E+02   -1.258E+02
    -1.253E+02   -1.249E+02   -1.245E+02   -1.241E+02   -1.237E+02   -1.233E+02   -1.229E+02   -1.225E+02   -1.221E+02   -1.217E+02
    -1.214E+02   -1.210E+02   -1.206E+02   -1.202E+02   -1.198E+02   -1.195E+02   -1.191E+02   -1.187E+02   -1.183E+02   -1.180E+02
    -1.176E+02   -1.172E+02   -1.168E+02   -1.164E+02   -1.161E+02   -1.157E+02   -1.153E+02   -1.149E+02   -1.145E+02   -1.141E+02
    -1.137E+02   -1.133E+02   -1.129E+02   -1.125E+02   -1.121E+02   -1.116E+02   -1.112E+02   -1.108E+02   -1.103E+02   -1.099E+02
    -1.094E+02   -1.090E+02   -1.085E+02   -1.081E+02   -1.076E+02   -1.071E+02   -1.066E+02   -1.061E+02   -1.056E+02   -1.051E+02
    -1.046E+02   -1.040E+02   -1.035E+02   -1.029E+02   -1.024E+02   -1.018E+02   -1.012E+02   -1.006E+02   -1.000E+02   -9.940E+01
    -9.878E+01   -9.815E+01   -9.750E+01   -9.685E+01   -9.619E+01   -9.552E+01   -9.483E+01   -9.414E+01   -9.345E+01   -9.274E+01
    -9.202E+01   -9.130E+01   -9.057E+01   -8.983E+01   -8.908E+01   -8.833E+01   -8.757E+01   -8.680E+01   -8.603E+01   -8.525E+01
    -8.446E+01   -8.367E+01   -8.287E+01   -8.207E+01   -8.126E+01   -8.045E+01   -7.963E+01   -7.881E+01   -7.799E+01   -7.716E+01
    -7.632E+01   -7.548E+01   -7.464E+01   -7.380E+01   -7.295E+01   -7.210E+01   -7.124E+01   -7.039E+01   -6.953E+01   -6.867E+01
    -6.781E+01   -6.694E+01   -6.608E+01   -6.521E+01   -6.434E+01   -6.347E+01   -6.260E+01   -6.173E+01   -6.086E+01   -5.999E+01
    -5.911E+01   -5.824E+01   -5.737E+01   -5.650E+01   -5.563E+01   -5.476E+01   -5.389E+01   -5.302E+01   -5.216E+01   -5.129E+01
    -5.043E+01   -4.957E+01   -4.871E+01   -4.785E+01   -4.699E+01   -4.614E+01   -4.529E+01   -4.444E+01   -4.360E+01   -4.276E+01
    -4.192E+01   -4.108E+01   -4.025E+01   -3.942E+01   -3.860E+01   -3.778E+01   -3.696E+01   -3.615E+01   -3.534E+01   -3.454E+01
    -3.374E+01   -3.295E+01   -3.216E+01   -3.137E+01   -3.059E+01   -2.982E+01   -2.905E+01   -2.829E+01   -2.753E+01   -2.677E+01
    -2.602E+01   -2.528E+01   -2.454E+01   -2.381E+01   -2.308E+01   -2.236E+01   -2.164E+01   -2.093E+01   -2.022E+01   -1.952E+01
    -1.882E+01   -1.813E+01   -1.744E+01   -1.676E+01   -1.609E+01   -1.542E+01   -1.475E+01   -1.409E+01   -1.344E+01   -1.279E+01
    -1.215E+01   -1.151E+01   -1.088E+01   -1.026E+01   -9.635E+00   -9.020E+00   -8.411E+00   -7.807E+00   -7.209E+00   -6.617E+00
    -6.030E+00   -5.450E+00   -4.874E+00   -4.305E+00   -3.741E+00   -3.182E+00   -2.630E+00   -2.083E+00   -1.542E+00   -1.007E+00
    -4.772E-01    4.655E-02    5.646E-01    1.077E+00    1.583E+00    2.084E+00    2.579E+00    3.068E+00    3.551E+00    4.029E+00
     4.500E+00    4.966E+00    5.426E+00    5.880E+00    6.328E+00    6.771E+00    7.208E+00    7.638E+00    8.063E+00    8.482E+00
     8.896E+00    9.303E+00    9.704E+00    1.010E+01    1.049E+01    1.087E+01    1.125E+01    1.162E+01    1.199E+01    1.235E+01
     1.271E+01    1.306E+01    1.340E+01    1.374E+01    1.407E+01    1.439E+01    1.471E+01    1.503E+01    1.534E+01    1.564E+01
     1.594E+01    1.623E+01    1.651E+01    1.679E+01    1.707E+01    1.734E+01    1.761E+01    1.787E+01    1.812E+01    1.837E+01
     1.861E+01    1.885E+01    1.909E+01    1.932E+01    1.954E+01    1.976E+01    1.998E+01    2.019E+01    2.039E+01    2.059E+01
     2.079E+01    2.098E+01    2.117E+01    2.135E+01    2.153E+01    2.170E+01    2.187E+01    2.204E+01    2.220E+01    2.235E+01
     2.251E+01    2.265E+01    2.280E+01    2.294E+01    2.307E+01    2.320E+01    2.333E+01    2.345E+01    2.357E+01    2.369E+01
     2.380E+01    2.391E+01    2.401E+01    2.411E+01    2.420E+01    2.430E+01    2.438E+01    2.447E+01    2.455E+01    2.462E+01
     2.470E+01    2.477E+01    2.483E+01    2.489E+01    2.495E+01    2.501E+01    2.506E+01    2.510E+01    2.515E+01    2.519E+01
     2.523E+01    2.526E+01    2.529E+01    2.531E+01    2.534E+01    2.536E+01    2.537E+01    2.538E+01    2.539E+01    2.540E+01
     2.540E+01    2.540E+01    2.540E+01    2.539E+01    2.538E+01    2.536E+01    2.534E+01    2.532E+01
 Ala      Conc. = 5.92E+02
