 LCModel (Version 6.3-1L) Copyright: S.W. Provencher.          Ref.: Magn. Reson. Med. 30:672-679 (1993).                
 Slice#2 Row#11 Col#9  PD_24_press_2_raw_act
 36 lines in following concentration table = NCONC+1
    Conc.  %SD /Cr+PCr  Metabolite                                         
   20.671 181%   1.375 Ala                                                 
    6.842 136%   0.455 Asp                                                 
   15.032 118%   1.000 Cr                                                  
    0.000 999%   0.000 PCr                                                 
    4.147 134%   0.276 GABA                                                
    4.372 128%   0.291 Glc                                                 
   90.171  83%   5.999 Gln                                                 
    0.000 999%   0.000 Glu                                                 
    0.000 999%   0.000 GPC                                                 
   19.529  36%   1.299 PCh                                                 
   35.275  73%   2.347 GSH                                                 
  132.331  64%   8.803 Ins                                                 
   54.526  77%   3.627 Lac                                                 
   72.185  30%   4.802 NAA                                                 
    0.000 999%   0.000 NAAG                                                
    1.875  98%   0.125 Scyllo                                              
    7.213 128%   0.480 Tau                                                 
    8.448 113%   0.562 -CrCH2                                              
   19.529  36%   1.299 GPC+PCh                                             
   72.185  30%   4.802 NAA+NAAG                                            
   15.032 118%   1.000 Cr+PCr                                              
   90.171  83%   5.999 Glu+Gln                                             
  538.803  39%  35.844 Lip13a                                              
  111.328  74%   7.406 Lip13b                                              
  179.487  40%  11.940 Lip09                                               
  234.403  32%  15.594 MM09                                                
  121.615  41%   8.090 Lip20                                               
  641.070  18%  42.647 MM20                                                
   79.665  77%   5.300 MM12                                                
    0.000 999%   0.000 MM14                                                
    0.000 999%   0.000 MM17                                                
  650.131  24%  43.250 Lip13a+Lip13b                                       
  729.796  19%  48.550 MM14+Lip13a+Lip13b+MM12                             
  413.890  18%  27.534 MM09+Lip09                                          
  762.685  16%  50.738 MM20+Lip20                                          
   6 lines in following misc. output table
  FWHM = 0.046 ppm    S/N =   2                                            
  Data shift = 0.031 ppm                                                   
  Ph: -83 deg      -0.4 deg/ppm                                            
  alphaB,S = 4.0E-01,   7.1E+01                                            
   14 spline knots.   Ns = 5(1)                                            
   2 inflections.     1 extrema                                            
  498 points on ppm-axis = NY
      4.000000     3.992357     3.984714     3.977070     3.969427     3.961784     3.954141     3.946497     3.938854     3.931211
      3.923568     3.915925     3.908281     3.900638     3.892995     3.885352     3.877708     3.870065     3.862422     3.854779
      3.847136     3.839492     3.831849     3.824206     3.816563     3.808919     3.801276     3.793633     3.785990     3.778347
      3.770703     3.763060     3.755417     3.747774     3.740130     3.732487     3.724844     3.717201     3.709558     3.701914
      3.694271     3.686628     3.678985     3.671341     3.663698     3.656055     3.648412     3.640769     3.633125     3.625482
      3.617839     3.610196     3.602552     3.594909     3.587266     3.579623     3.571980     3.564336     3.556693     3.549050
      3.541407     3.533763     3.526120     3.518477     3.510834     3.503191     3.495547     3.487904     3.480261     3.472618
      3.464974     3.457331     3.449688     3.442045     3.434402     3.426758     3.419115     3.411472     3.403829     3.396185
      3.388542     3.380899     3.373256     3.365613     3.357969     3.350326     3.342683     3.335040     3.327396     3.319753
      3.312110     3.304467     3.296824     3.289180     3.281537     3.273894     3.266251     3.258607     3.250964     3.243321
      3.235678     3.228034     3.220391     3.212748     3.205105     3.197462     3.189818     3.182175     3.174532     3.166889
      3.159245     3.151602     3.143959     3.136316     3.128673     3.121029     3.113386     3.105743     3.098100     3.090456
      3.082813     3.075170     3.067527     3.059884     3.052240     3.044597     3.036954     3.029311     3.021667     3.014024
      3.006381     2.998738     2.991095     2.983451     2.975808     2.968165     2.960522     2.952878     2.945235     2.937592
      2.929949     2.922306     2.914662     2.907019     2.899376     2.891733     2.884089     2.876446     2.868803     2.861160
      2.853517     2.845873     2.838230     2.830587     2.822944     2.815300     2.807657     2.800014     2.792371     2.784728
      2.777084     2.769441     2.761798     2.754155     2.746511     2.738868     2.731225     2.723582     2.715939     2.708295
      2.700652     2.693009     2.685366     2.677722     2.670079     2.662436     2.654793     2.647150     2.639506     2.631863
      2.624220     2.616577     2.608933     2.601290     2.593647     2.586004     2.578361     2.570717     2.563074     2.555431
      2.547788     2.540144     2.532501     2.524858     2.517215     2.509572     2.501928     2.494285     2.486642     2.478999
      2.471355     2.463712     2.456069     2.448426     2.440783     2.433139     2.425496     2.417853     2.410210     2.402566
      2.394923     2.387280     2.379637     2.371994     2.364350     2.356707     2.349064     2.341421     2.333777     2.326134
      2.318491     2.310848     2.303205     2.295561     2.287918     2.280275     2.272632     2.264988     2.257345     2.249702
      2.242059     2.234416     2.226772     2.219129     2.211486     2.203843     2.196199     2.188556     2.180913     2.173270
      2.165627     2.157983     2.150340     2.142697     2.135054     2.127410     2.119767     2.112124     2.104481     2.096838
      2.089194     2.081551     2.073908     2.066265     2.058621     2.050978     2.043335     2.035692     2.028049     2.020405
      2.012762     2.005119     1.997476     1.989833     1.982190     1.974546     1.966903     1.959260     1.951617     1.943974
      1.936331     1.928688     1.921045     1.913402     1.905759     1.898115     1.890472     1.882829     1.875186     1.867543
      1.859900     1.852257     1.844614     1.836971     1.829327     1.821684     1.814041     1.806398     1.798755     1.791112
      1.783469     1.775826     1.768183     1.760540     1.752896     1.745253     1.737610     1.729967     1.722324     1.714681
      1.707038     1.699395     1.691752     1.684108     1.676465     1.668822     1.661179     1.653536     1.645893     1.638250
      1.630607     1.622964     1.615321     1.607677     1.600034     1.592391     1.584748     1.577105     1.569462     1.561819
      1.554176     1.546533     1.538890     1.531246     1.523603     1.515960     1.508317     1.500674     1.493031     1.485388
      1.477745     1.470102     1.462458     1.454815     1.447172     1.439529     1.431886     1.424243     1.416600     1.408957
      1.401314     1.393671     1.386027     1.378384     1.370741     1.363098     1.355455     1.347812     1.340169     1.332526
      1.324883     1.317240     1.309596     1.301953     1.294310     1.286667     1.279024     1.271381     1.263738     1.256095
      1.248452     1.240808     1.233165     1.225522     1.217879     1.210236     1.202593     1.194950     1.187307     1.179664
      1.172021     1.164377     1.156734     1.149091     1.141448     1.133805     1.126162     1.118519     1.110876     1.103233
      1.095590     1.087946     1.080303     1.072660     1.065017     1.057374     1.049731     1.042088     1.034445     1.026802
      1.019158     1.011515     1.003872     0.996229     0.988586     0.980943     0.973300     0.965657     0.958014     0.950371
      0.942727     0.935084     0.927441     0.919798     0.912155     0.904512     0.896869     0.889226     0.881583     0.873940
      0.866296     0.858653     0.851010     0.843367     0.835724     0.828081     0.820438     0.812795     0.805152     0.797508
      0.789865     0.782222     0.774579     0.766936     0.759293     0.751650     0.744007     0.736364     0.728721     0.721077
      0.713434     0.705791     0.698148     0.690505     0.682862     0.675219     0.667576     0.659933     0.652290     0.644646
      0.637003     0.629360     0.621717     0.614074     0.606431     0.598788     0.591145     0.583502     0.575858     0.568215
      0.560572     0.552929     0.545286     0.537643     0.530000     0.522357     0.514714     0.507071     0.499427     0.491784
      0.484141     0.476498     0.468855     0.461212     0.453569     0.445925     0.438282     0.430639     0.422996     0.415353
      0.407710     0.400067     0.392424     0.384780     0.377137     0.369494     0.361851     0.354208     0.346565     0.338922
      0.331278     0.323635     0.315992     0.308349     0.300706     0.293063     0.285420     0.277777     0.270133     0.262490
      0.254847     0.247204     0.239561     0.231918     0.224275     0.216631     0.208988     0.201345
 NY phased data points follow
  -2.08156E+01 -1.75840E+01 -1.94910E+01 -1.70729E+01 -1.80298E+01 -1.52451E+01 -2.23724E+01 -1.88048E+01 -1.75322E+01 -1.63815E+01
  -1.92860E+01 -1.49952E+01 -1.80255E+01 -1.56443E+01 -1.47863E+01 -1.73090E+01 -1.40181E+01 -1.63787E+01 -1.79228E+01 -1.45139E+01
  -1.66139E+01 -1.61115E+01 -1.55134E+01 -1.34807E+01 -1.47152E+01 -1.36764E+01 -1.55004E+01 -1.45768E+01 -1.72541E+01 -1.62391E+01
  -1.56506E+01 -1.27184E+01 -1.27548E+01 -1.16704E+01 -1.36208E+01 -1.29034E+01 -1.44672E+01 -1.60759E+01 -1.42840E+01 -9.80984E+00
  -1.21107E+01 -1.15055E+01 -1.17152E+01 -1.26239E+01 -1.34875E+01 -1.18684E+01 -1.18218E+01 -1.15220E+01 -1.40594E+01 -1.20440E+01
  -1.18450E+01 -1.02761E+01 -1.10367E+01 -1.02266E+01 -9.84010E+00 -1.18474E+01 -9.57162E+00 -9.44915E+00 -1.14800E+01 -1.01229E+01
  -1.38605E+01 -8.68058E+00 -1.20248E+01 -9.38988E+00 -1.27462E+01 -9.14021E+00 -8.90271E+00 -1.08315E+01 -8.86800E+00 -1.16406E+01
  -1.17934E+01 -1.07254E+01 -1.01006E+01 -1.05526E+01 -1.23752E+01 -1.03851E+01 -1.13738E+01 -9.79627E+00 -1.12669E+01 -8.36828E+00
  -1.04241E+01 -1.09810E+01 -9.96273E+00 -9.24482E+00 -1.17121E+01 -8.38741E+00 -9.59308E+00 -9.93790E+00 -1.08320E+01 -7.02229E+00
  -9.00463E+00 -1.08242E+01 -9.40995E+00 -9.56782E+00 -9.13469E+00 -9.46382E+00 -9.66312E+00 -7.13743E+00 -7.87924E+00 -1.05835E+01
  -1.20826E+01 -1.00586E+01 -7.52425E+00 -7.03180E+00 -7.65847E+00 -6.13866E+00 -7.39045E+00 -6.24556E+00 -7.20289E+00 -7.14759E+00
  -1.23047E+01 -1.09455E+01 -1.07861E+01 -9.81661E+00 -9.71658E+00 -9.48029E+00 -9.43480E+00 -8.34861E+00 -6.06828E+00 -6.98961E+00
  -8.93190E+00 -8.21744E+00 -7.95960E+00 -9.52202E+00 -8.23857E+00 -1.04361E+01 -7.34840E+00 -6.13096E+00 -5.91910E+00 -6.18568E+00
  -4.82498E+00 -5.93412E+00 -6.95193E+00 -5.40054E+00 -7.85565E+00 -8.31404E+00 -5.51793E+00 -8.01393E+00 -7.74209E+00 -7.49976E+00
  -6.46908E+00 -5.70294E+00 -8.70177E+00 -7.09475E+00 -5.77958E+00 -7.54444E+00 -6.14497E+00 -6.05015E+00 -5.95063E+00 -8.69701E+00
  -6.92780E+00 -5.68112E+00 -5.65388E+00 -7.54221E+00 -5.89646E+00 -7.25679E+00 -6.54580E+00 -6.82025E+00 -6.30438E+00 -6.96124E+00
  -3.89424E+00 -5.13495E+00 -7.08621E+00 -6.20060E+00 -6.98991E+00 -6.89174E+00 -7.65026E+00 -6.47956E+00 -7.06051E+00 -5.52017E+00
  -6.94401E+00 -6.26578E+00 -5.37930E+00 -6.81057E+00 -8.05665E+00 -7.73725E+00 -7.10364E+00 -5.86185E+00 -5.62040E+00 -5.09369E+00
  -5.63081E+00 -6.05254E+00 -6.97238E+00 -7.26500E+00 -6.08656E+00 -5.93155E+00 -7.53265E+00 -6.68039E+00 -7.21905E+00 -4.80642E+00
  -6.14867E+00 -7.45767E+00 -7.21019E+00 -4.36895E+00 -5.17975E+00 -3.96960E+00 -5.39862E+00 -2.87766E+00 -6.51273E+00 -6.36633E+00
  -8.09085E+00 -6.91069E+00 -5.52691E+00 -6.24437E+00 -2.25976E+00 -5.74015E+00 -4.24625E+00 -5.90738E+00 -3.76635E+00 -4.52548E+00
  -6.51126E+00 -3.13152E+00 -5.25107E+00 -3.72553E+00 -6.71219E+00 -3.73477E+00 -3.72532E+00 -5.20515E+00 -1.41909E+00 -4.31063E+00
  -6.84321E+00 -3.03741E-01 -4.97172E+00 -4.17596E+00 -4.91340E+00 -3.74102E+00 -2.83570E+00 -5.41101E+00 -2.90484E+00 -3.70846E+00
  -2.73931E+00 -1.51713E+00 -3.13346E+00 -2.41190E+00 -5.19792E+00 -4.93916E+00 -3.92121E+00 -4.96703E+00 -1.68992E+00 -2.44276E+00
  -1.77094E+00 -1.92398E+00 -3.39681E+00 -6.14565E+00 -4.33196E+00 -5.67876E+00 -4.11124E+00 -2.90249E+00 -3.35652E+00 -3.03290E+00
  -3.99057E+00 -2.47018E+00 -1.74890E+00 -3.09663E+00 -1.63222E+00 -1.76099E+00 -3.54047E+00 -5.87240E+00 -1.35868E+00 -1.18561E+00
   2.69487E-01  7.24139E-01 -1.33250E+00 -1.33346E+00 -3.75222E+00 -2.72752E+00 -6.50773E+00 -1.34917E+00 -4.14833E+00 -6.04768E+00
  -5.57634E+00 -1.74669E+00 -3.65656E+00 -3.57033E+00 -1.82905E+00 -3.19317E+00 -7.03193E+00 -4.69786E+00 -4.44570E+00 -5.12045E+00
  -5.06604E+00 -4.07103E+00 -5.31219E+00 -8.41721E+00 -6.69713E+00 -7.76962E+00 -7.95790E+00 -6.28951E+00 -7.41943E+00 -5.23514E+00
  -5.74816E+00 -5.27394E+00 -4.76835E+00 -6.70050E+00 -4.45460E+00 -6.26326E+00 -5.53252E+00 -6.46015E+00 -7.22089E+00 -6.35630E+00
  -7.09775E+00 -5.55828E+00 -6.94306E+00 -6.30666E+00 -8.12301E+00 -6.38156E+00 -7.67013E+00 -7.54574E+00 -8.80998E+00 -6.71287E+00
  -6.04121E+00 -7.41238E+00 -7.72154E+00 -6.59243E+00 -3.43378E+00 -6.89228E+00 -7.33124E+00 -5.70719E+00 -7.86001E+00 -7.27943E+00
  -8.36524E+00 -7.83628E+00 -7.31753E+00 -7.12227E+00 -5.56527E+00 -6.49198E+00 -6.83596E+00 -7.94366E+00 -8.83859E+00 -5.07067E+00
  -5.55626E+00 -6.46551E+00 -7.31073E+00 -6.44695E+00 -7.53474E+00 -5.98574E+00 -6.04928E+00 -4.12838E+00 -3.59826E+00 -4.15375E+00
  -6.19354E+00 -2.99372E+00 -4.83241E+00 -4.58438E+00 -2.47833E+00 -3.38998E+00 -5.02767E+00 -2.55711E+00 -3.75128E+00 -4.01480E+00
  -4.84696E+00 -3.63377E+00 -1.60598E+00 -2.94995E+00 -2.87894E+00 -1.59682E+00 -1.39538E+00 -1.59531E+00 -2.74465E+00 -7.56867E-01
   1.54426E+00 -4.29453E-01 -1.80020E+00 -3.22335E+00 -2.17258E+00 -2.16940E+00 -1.85179E+00 -1.83184E+00 -3.35001E+00 -2.97213E+00
  -4.64346E+00 -3.16882E+00 -2.75679E+00 -3.89702E+00 -4.18599E+00 -4.54587E+00 -3.75167E+00 -1.62158E+00 -3.66377E+00 -1.59117E+00
  -2.82864E+00 -4.02199E+00 -1.88065E+00 -2.72334E+00 -4.28808E+00 -1.04314E+00 -1.63497E+00 -3.91252E+00 -1.84005E+00 -2.26067E+00
  -2.63911E+00 -2.09812E+00 -1.76791E+00 -5.65428E-01 -3.11688E+00 -9.17654E-01 -1.03739E+00 -2.54612E+00 -3.12735E+00 -2.65519E+00
  -4.95113E+00 -3.51653E+00 -2.22389E+00 -1.78124E+00 -2.17857E+00 -1.05760E+00 -7.32389E-01 -1.08387E+00 -4.21683E+00 -4.26922E+00
  -1.39152E+00 -1.50782E+00 -2.44680E+00 -2.77074E+00 -1.18375E+00 -1.87782E+00 -2.46668E-01 -3.52086E+00 -3.41857E+00 -3.46889E+00
  -2.66815E+00 -4.91428E-01  3.90214E-01 -3.74319E+00 -8.83081E-01 -4.43446E-01 -6.16249E-01 -1.65380E+00 -1.80602E+00 -7.16014E-01
  -1.81920E+00 -3.19559E+00 -3.06313E+00 -2.56497E+00 -2.05446E+00 -8.23147E-01 -2.05944E+00  5.82796E-01 -2.10494E+00 -2.54285E+00
  -7.37544E-01  1.95285E-01 -8.51452E-01 -1.07598E+00 -1.82115E+00 -3.02586E+00 -2.01854E+00 -4.54007E-01 -3.54474E+00 -1.69998E+00
  -1.80754E+00 -1.56367E+00 -3.48661E+00 -3.27496E+00 -9.21929E-01 -2.00175E-01 -4.04617E+00 -4.53461E+00 -4.28049E+00 -2.24481E+00
  -2.17828E+00 -1.86125E+00 -1.28876E+00 -1.89094E+00 -3.97066E+00 -2.17223E+00 -4.14341E+00 -7.00276E-02 -1.93943E+00 -3.54156E+00
  -2.76944E+00 -2.89097E+00 -2.67175E+00 -2.61422E+00 -1.66157E+00 -2.21766E+00 -4.37266E+00 -2.75315E+00 -3.79428E+00 -9.02274E-01
  -3.23830E+00 -4.90310E+00 -3.57290E+00 -2.51238E+00 -5.06762E+00 -1.15989E+00 -1.58683E+00 -2.35549E-02 -1.95001E+00 -1.34263E+00
  -8.71151E-01 -1.03784E+00 -1.58850E+00 -2.71031E-01 -2.51734E+00 -3.71665E+00 -3.11672E+00 -1.81498E+00
 NY points of the fit to the data follow
  -1.71033E+01 -1.70934E+01 -1.70557E+01 -1.69879E+01 -1.69145E+01 -1.68525E+01 -1.67907E+01 -1.67104E+01 -1.66016E+01 -1.64615E+01
  -1.62970E+01 -1.61233E+01 -1.59592E+01 -1.58231E+01 -1.57276E+01 -1.56775E+01 -1.56602E+01 -1.56380E+01 -1.55758E+01 -1.54700E+01
  -1.53437E+01 -1.52150E+01 -1.51016E+01 -1.50163E+01 -1.49630E+01 -1.49180E+01 -1.48270E+01 -1.46482E+01 -1.43666E+01 -1.40051E+01
  -1.36197E+01 -1.32864E+01 -1.30775E+01 -1.30361E+01 -1.31482E+01 -1.33540E+01 -1.35714E+01 -1.37098E+01 -1.37308E+01 -1.36804E+01
  -1.36027E+01 -1.35189E+01 -1.34162E+01 -1.32608E+01 -1.30289E+01 -1.27245E+01 -1.23947E+01 -1.21112E+01 -1.19296E+01 -1.18797E+01
  -1.19626E+01 -1.21428E+01 -1.23592E+01 -1.25357E+01 -1.25948E+01 -1.25122E+01 -1.23393E+01 -1.21330E+01 -1.19246E+01 -1.17318E+01
  -1.15729E+01 -1.14656E+01 -1.14157E+01 -1.14139E+01 -1.14412E+01 -1.14709E+01 -1.14685E+01 -1.14097E+01 -1.12986E+01 -1.11528E+01
  -1.09997E+01 -1.08589E+01 -1.07421E+01 -1.06536E+01 -1.05898E+01 -1.05460E+01 -1.05170E+01 -1.04965E+01 -1.04752E+01 -1.04403E+01
  -1.03934E+01 -1.03371E+01 -1.02749E+01 -1.02172E+01 -1.01781E+01 -1.01657E+01 -1.01780E+01 -1.02040E+01 -1.02253E+01 -1.02216E+01
  -1.01786E+01 -1.00895E+01 -9.95721E+00 -9.80009E+00 -9.65270E+00 -9.54022E+00 -9.46725E+00 -9.41942E+00 -9.35229E+00 -9.18181E+00
  -8.87430E+00 -8.44278E+00 -7.94726E+00 -7.48005E+00 -7.14207E+00 -7.01075E+00 -7.10785E+00 -7.40046E+00 -7.80567E+00 -8.20183E+00
  -8.45095E+00 -8.49833E+00 -8.46233E+00 -8.40607E+00 -8.34326E+00 -8.27817E+00 -8.21414E+00 -8.15225E+00 -8.09241E+00 -8.03337E+00
  -7.97252E+00 -7.90444E+00 -7.81374E+00 -7.68408E+00 -7.51553E+00 -7.32047E+00 -7.12239E+00 -6.95003E+00 -6.82573E+00 -6.75685E+00
  -6.74066E+00 -6.76879E+00 -6.82555E+00 -6.88966E+00 -6.93955E+00 -6.97944E+00 -7.02902E+00 -7.07567E+00 -7.09785E+00 -7.07899E+00
  -7.01166E+00 -6.90375E+00 -6.78595E+00 -6.69181E+00 -6.63471E+00 -6.61446E+00 -6.62082E+00 -6.63587E+00 -6.64853E+00 -6.65109E+00
  -6.64550E+00 -6.63729E+00 -6.62731E+00 -6.61485E+00 -6.59956E+00 -6.58162E+00 -6.56278E+00 -6.54566E+00 -6.53264E+00 -6.52295E+00
  -6.51242E+00 -6.49795E+00 -6.47803E+00 -6.45206E+00 -6.42105E+00 -6.38944E+00 -6.36285E+00 -6.34643E+00 -6.34200E+00 -6.34321E+00
  -6.34318E+00 -6.33983E+00 -6.33424E+00 -6.33043E+00 -6.32818E+00 -6.32375E+00 -6.31597E+00 -6.30467E+00 -6.28985E+00 -6.27168E+00
  -6.25080E+00 -6.23114E+00 -6.21850E+00 -6.21487E+00 -6.21241E+00 -6.19913E+00 -6.16867E+00 -6.11740E+00 -6.04582E+00 -5.95818E+00
  -5.86472E+00 -5.78514E+00 -5.74162E+00 -5.75396E+00 -5.82281E+00 -5.92453E+00 -6.02365E+00 -6.08108E+00 -6.06479E+00 -5.96395E+00
  -5.79088E+00 -5.57871E+00 -5.36681E+00 -5.20037E+00 -5.12098E+00 -5.16426E+00 -5.32046E+00 -5.53721E+00 -5.75659E+00 -5.92515E+00
  -6.00519E+00 -5.97859E+00 -5.84813E+00 -5.64579E+00 -5.41703E+00 -5.20760E+00 -5.05796E+00 -4.98151E+00 -4.93655E+00 -4.89136E+00
  -4.84844E+00 -4.80655E+00 -4.76291E+00 -4.71893E+00 -4.67627E+00 -4.63678E+00 -4.60264E+00 -4.57856E+00 -4.56680E+00 -4.56350E+00
  -4.56412E+00 -4.57002E+00 -4.57496E+00 -4.56221E+00 -4.51360E+00 -4.41715E+00 -4.26685E+00 -4.07406E+00 -3.87286E+00 -3.70078E+00
  -3.58361E+00 -3.53487E+00 -3.56078E+00 -3.64335E+00 -3.72535E+00 -3.75780E+00 -3.72369E+00 -3.62378E+00 -3.46858E+00 -3.29389E+00
  -3.13988E+00 -3.02178E+00 -2.95029E+00 -2.92334E+00 -2.92535E+00 -2.88721E+00 -2.72087E+00 -2.40083E+00 -1.95473E+00 -1.47339E+00
  -1.08143E+00 -8.93993E-01 -9.82586E-01 -1.35570E+00 -1.95627E+00 -2.66710E+00 -3.32508E+00 -3.76105E+00 -3.98515E+00 -4.14250E+00
  -4.27802E+00 -4.40063E+00 -4.51305E+00 -4.61699E+00 -4.71385E+00 -4.80491E+00 -4.89180E+00 -4.97585E+00 -5.05733E+00 -5.13625E+00
  -5.21235E+00 -5.28495E+00 -5.35319E+00 -5.41610E+00 -5.47328E+00 -5.52511E+00 -5.57213E+00 -5.61482E+00 -5.65392E+00 -5.69020E+00
  -5.72419E+00 -5.75620E+00 -5.78620E+00 -5.81409E+00 -5.83994E+00 -5.86384E+00 -5.88572E+00 -5.90559E+00 -5.92365E+00 -5.94002E+00
  -5.95478E+00 -5.96812E+00 -5.98011E+00 -5.99079E+00 -6.00022E+00 -6.00839E+00 -6.01533E+00 -6.02102E+00 -6.02549E+00 -6.02872E+00
  -6.03071E+00 -6.03140E+00 -6.03072E+00 -6.02856E+00 -6.02480E+00 -6.01929E+00 -6.01179E+00 -6.00197E+00 -5.98935E+00 -5.97315E+00
  -5.95192E+00 -5.92226E+00 -5.87710E+00 -5.81719E+00 -5.75422E+00 -5.70286E+00 -5.67796E+00 -5.68967E+00 -5.74011E+00 -5.82286E+00
  -5.91661E+00 -5.98673E+00 -6.00104E+00 -5.93660E+00 -5.79230E+00 -5.60192E+00 -5.40092E+00 -5.20617E+00 -5.03112E+00 -4.88357E+00
  -4.76097E+00 -4.64223E+00 -4.47728E+00 -4.24098E+00 -3.96741E+00 -3.69855E+00 -3.47628E+00 -3.33175E+00 -3.27676E+00 -3.29912E+00
  -3.34130E+00 -3.32141E+00 -3.16851E+00 -2.83930E+00 -2.34781E+00 -1.80141E+00 -1.32365E+00 -9.73545E-01 -7.88268E-01 -7.83388E-01
  -9.44263E-01 -1.21443E+00 -1.49728E+00 -1.74940E+00 -1.98008E+00 -2.19144E+00 -2.38274E+00 -2.55392E+00 -2.70611E+00 -2.84116E+00
  -2.96118E+00 -3.06805E+00 -3.16327E+00 -3.24780E+00 -3.32217E+00 -3.38653E+00 -3.44082E+00 -3.48486E+00 -3.51839E+00 -3.54115E+00
  -3.55288E+00 -3.55335E+00 -3.54237E+00 -3.51982E+00 -3.48562E+00 -3.43977E+00 -3.38235E+00 -3.31357E+00 -3.23377E+00 -3.14351E+00
  -3.04349E+00 -2.93466E+00 -2.81821E+00 -2.69555E+00 -2.56833E+00 -2.43844E+00 -2.30789E+00 -2.17887E+00 -2.05359E+00 -1.93427E+00
  -1.82306E+00 -1.72193E+00 -1.63263E+00 -1.55660E+00 -1.49493E+00 -1.44834E+00 -1.41711E+00 -1.40117E+00 -1.40001E+00 -1.41280E+00
  -1.43840E+00 -1.47545E+00 -1.52239E+00 -1.57757E+00 -1.63928E+00 -1.70585E+00 -1.77566E+00 -1.84721E+00 -1.91915E+00 -1.99027E+00
  -2.05956E+00 -2.12618E+00 -2.18946E+00 -2.24891E+00 -2.30417E+00 -2.35503E+00 -2.40139E+00 -2.44324E+00 -2.48065E+00 -2.51377E+00
  -2.54277E+00 -2.56786E+00 -2.58927E+00 -2.60725E+00 -2.62205E+00 -2.63390E+00 -2.64306E+00 -2.64973E+00 -2.65415E+00 -2.65651E+00
  -2.65701E+00 -2.65580E+00 -2.65306E+00 -2.64893E+00 -2.64353E+00 -2.63701E+00 -2.62945E+00 -2.62096E+00 -2.61163E+00 -2.60155E+00
  -2.59079E+00 -2.57942E+00 -2.56749E+00 -2.55507E+00 -2.54219E+00 -2.52889E+00 -2.51522E+00 -2.50120E+00 -2.48687E+00 -2.47224E+00
  -2.45734E+00 -2.44219E+00 -2.42682E+00 -2.41123E+00 -2.39544E+00 -2.37947E+00 -2.36333E+00 -2.34703E+00 -2.33058E+00 -2.31399E+00
  -2.29727E+00 -2.28042E+00 -2.26345E+00 -2.24637E+00 -2.22918E+00 -2.21189E+00 -2.19449E+00 -2.17700E+00 -2.15941E+00 -2.14173E+00
  -2.12396E+00 -2.10610E+00 -2.08815E+00 -2.07012E+00 -2.05201E+00 -2.03381E+00 -2.01552E+00 -1.99715E+00 -1.97869E+00 -1.96016E+00
  -1.94153E+00 -1.92283E+00 -1.90403E+00 -1.88515E+00 -1.86618E+00 -1.84713E+00 -1.82799E+00 -1.80876E+00
 NY background values follow
    -1.742E+01   -1.732E+01   -1.723E+01   -1.714E+01   -1.704E+01   -1.695E+01   -1.686E+01   -1.676E+01   -1.667E+01   -1.658E+01
    -1.648E+01   -1.639E+01   -1.630E+01   -1.620E+01   -1.611E+01   -1.602E+01   -1.592E+01   -1.583E+01   -1.574E+01   -1.565E+01
    -1.555E+01   -1.546E+01   -1.537E+01   -1.528E+01   -1.519E+01   -1.510E+01   -1.500E+01   -1.491E+01   -1.482E+01   -1.473E+01
    -1.464E+01   -1.455E+01   -1.446E+01   -1.437E+01   -1.428E+01   -1.420E+01   -1.411E+01   -1.402E+01   -1.393E+01   -1.385E+01
    -1.376E+01   -1.367E+01   -1.359E+01   -1.350E+01   -1.342E+01   -1.333E+01   -1.325E+01   -1.316E+01   -1.308E+01   -1.300E+01
    -1.292E+01   -1.283E+01   -1.275E+01   -1.267E+01   -1.259E+01   -1.251E+01   -1.243E+01   -1.236E+01   -1.228E+01   -1.220E+01
    -1.212E+01   -1.205E+01   -1.197E+01   -1.189E+01   -1.182E+01   -1.174E+01   -1.167E+01   -1.160E+01   -1.152E+01   -1.145E+01
    -1.138E+01   -1.131E+01   -1.123E+01   -1.116E+01   -1.109E+01   -1.102E+01   -1.095E+01   -1.088E+01   -1.082E+01   -1.075E+01
    -1.068E+01   -1.061E+01   -1.055E+01   -1.048E+01   -1.042E+01   -1.035E+01   -1.029E+01   -1.022E+01   -1.016E+01   -1.010E+01
    -1.003E+01   -9.973E+00   -9.911E+00   -9.850E+00   -9.790E+00   -9.730E+00   -9.671E+00   -9.612E+00   -9.553E+00   -9.495E+00
    -9.438E+00   -9.381E+00   -9.324E+00   -9.268E+00   -9.212E+00   -9.157E+00   -9.103E+00   -9.048E+00   -8.995E+00   -8.941E+00
    -8.888E+00   -8.836E+00   -8.784E+00   -8.732E+00   -8.681E+00   -8.630E+00   -8.580E+00   -8.530E+00   -8.481E+00   -8.432E+00
    -8.383E+00   -8.335E+00   -8.287E+00   -8.240E+00   -8.193E+00   -8.147E+00   -8.101E+00   -8.055E+00   -8.010E+00   -7.965E+00
    -7.920E+00   -7.876E+00   -7.832E+00   -7.789E+00   -7.746E+00   -7.703E+00   -7.661E+00   -7.619E+00   -7.577E+00   -7.536E+00
    -7.495E+00   -7.455E+00   -7.415E+00   -7.375E+00   -7.336E+00   -7.297E+00   -7.259E+00   -7.221E+00   -7.183E+00   -7.146E+00
    -7.109E+00   -7.073E+00   -7.037E+00   -7.001E+00   -6.966E+00   -6.931E+00   -6.897E+00   -6.863E+00   -6.829E+00   -6.796E+00
    -6.764E+00   -6.731E+00   -6.700E+00   -6.668E+00   -6.637E+00   -6.607E+00   -6.577E+00   -6.547E+00   -6.518E+00   -6.490E+00
    -6.461E+00   -6.434E+00   -6.406E+00   -6.379E+00   -6.353E+00   -6.327E+00   -6.302E+00   -6.277E+00   -6.252E+00   -6.228E+00
    -6.205E+00   -6.182E+00   -6.159E+00   -6.137E+00   -6.116E+00   -6.094E+00   -6.074E+00   -6.054E+00   -6.034E+00   -6.015E+00
    -5.996E+00   -5.978E+00   -5.961E+00   -5.943E+00   -5.927E+00   -5.911E+00   -5.895E+00   -5.880E+00   -5.865E+00   -5.851E+00
    -5.838E+00   -5.825E+00   -5.812E+00   -5.800E+00   -5.788E+00   -5.777E+00   -5.767E+00   -5.757E+00   -5.747E+00   -5.738E+00
    -5.730E+00   -5.722E+00   -5.714E+00   -5.707E+00   -5.701E+00   -5.695E+00   -5.690E+00   -5.685E+00   -5.681E+00   -5.677E+00
    -5.674E+00   -5.671E+00   -5.669E+00   -5.668E+00   -5.666E+00   -5.666E+00   -5.666E+00   -5.667E+00   -5.668E+00   -5.669E+00
    -5.671E+00   -5.674E+00   -5.677E+00   -5.680E+00   -5.684E+00   -5.689E+00   -5.694E+00   -5.699E+00   -5.704E+00   -5.710E+00
    -5.717E+00   -5.723E+00   -5.730E+00   -5.738E+00   -5.745E+00   -5.753E+00   -5.761E+00   -5.770E+00   -5.778E+00   -5.787E+00
    -5.796E+00   -5.806E+00   -5.815E+00   -5.825E+00   -5.835E+00   -5.845E+00   -5.855E+00   -5.865E+00   -5.876E+00   -5.886E+00
    -5.897E+00   -5.908E+00   -5.918E+00   -5.929E+00   -5.940E+00   -5.951E+00   -5.961E+00   -5.972E+00   -5.983E+00   -5.994E+00
    -6.004E+00   -6.015E+00   -6.025E+00   -6.036E+00   -6.046E+00   -6.056E+00   -6.066E+00   -6.076E+00   -6.086E+00   -6.096E+00
    -6.105E+00   -6.115E+00   -6.124E+00   -6.133E+00   -6.141E+00   -6.150E+00   -6.158E+00   -6.166E+00   -6.174E+00   -6.181E+00
    -6.188E+00   -6.195E+00   -6.202E+00   -6.208E+00   -6.214E+00   -6.220E+00   -6.225E+00   -6.230E+00   -6.234E+00   -6.238E+00
    -6.242E+00   -6.246E+00   -6.249E+00   -6.251E+00   -6.253E+00   -6.255E+00   -6.256E+00   -6.257E+00   -6.257E+00   -6.257E+00
    -6.257E+00   -6.256E+00   -6.254E+00   -6.252E+00   -6.249E+00   -6.246E+00   -6.242E+00   -6.237E+00   -6.232E+00   -6.227E+00
    -6.221E+00   -6.214E+00   -6.207E+00   -6.199E+00   -6.191E+00   -6.182E+00   -6.173E+00   -6.163E+00   -6.153E+00   -6.142E+00
    -6.131E+00   -6.119E+00   -6.107E+00   -6.094E+00   -6.081E+00   -6.068E+00   -6.054E+00   -6.039E+00   -6.024E+00   -6.009E+00
    -5.993E+00   -5.977E+00   -5.961E+00   -5.944E+00   -5.926E+00   -5.908E+00   -5.890E+00   -5.872E+00   -5.853E+00   -5.834E+00
    -5.814E+00   -5.794E+00   -5.774E+00   -5.753E+00   -5.732E+00   -5.711E+00   -5.690E+00   -5.668E+00   -5.646E+00   -5.623E+00
    -5.600E+00   -5.577E+00   -5.554E+00   -5.530E+00   -5.507E+00   -5.482E+00   -5.458E+00   -5.434E+00   -5.409E+00   -5.384E+00
    -5.358E+00   -5.333E+00   -5.307E+00   -5.281E+00   -5.255E+00   -5.229E+00   -5.202E+00   -5.176E+00   -5.149E+00   -5.122E+00
    -5.095E+00   -5.068E+00   -5.040E+00   -5.013E+00   -4.985E+00   -4.957E+00   -4.929E+00   -4.901E+00   -4.873E+00   -4.845E+00
    -4.816E+00   -4.788E+00   -4.760E+00   -4.731E+00   -4.702E+00   -4.674E+00   -4.645E+00   -4.616E+00   -4.587E+00   -4.559E+00
    -4.530E+00   -4.501E+00   -4.472E+00   -4.443E+00   -4.414E+00   -4.385E+00   -4.356E+00   -4.328E+00   -4.299E+00   -4.270E+00
    -4.241E+00   -4.212E+00   -4.184E+00   -4.155E+00   -4.127E+00   -4.098E+00   -4.069E+00   -4.041E+00   -4.013E+00   -3.984E+00
    -3.956E+00   -3.928E+00   -3.900E+00   -3.872E+00   -3.844E+00   -3.816E+00   -3.788E+00   -3.760E+00   -3.732E+00   -3.705E+00
    -3.677E+00   -3.650E+00   -3.623E+00   -3.595E+00   -3.568E+00   -3.541E+00   -3.514E+00   -3.488E+00   -3.461E+00   -3.434E+00
    -3.408E+00   -3.382E+00   -3.355E+00   -3.329E+00   -3.303E+00   -3.278E+00   -3.252E+00   -3.226E+00   -3.201E+00   -3.176E+00
    -3.151E+00   -3.126E+00   -3.101E+00   -3.076E+00   -3.052E+00   -3.027E+00   -3.003E+00   -2.979E+00   -2.955E+00   -2.931E+00
    -2.908E+00   -2.884E+00   -2.861E+00   -2.838E+00   -2.814E+00   -2.791E+00   -2.768E+00   -2.745E+00   -2.722E+00   -2.700E+00
    -2.677E+00   -2.654E+00   -2.632E+00   -2.609E+00   -2.587E+00   -2.565E+00   -2.542E+00   -2.520E+00   -2.498E+00   -2.476E+00
    -2.454E+00   -2.431E+00   -2.409E+00   -2.387E+00   -2.365E+00   -2.343E+00   -2.321E+00   -2.299E+00   -2.277E+00   -2.255E+00
    -2.233E+00   -2.211E+00   -2.189E+00   -2.167E+00   -2.145E+00   -2.123E+00   -2.100E+00   -2.078E+00
 Ala      Conc. = 2.07E+01
