 LCModel (Version 6.3-1L) Copyright: S.W. Provencher.          Ref.: Magn. Reson. Med. 30:672-679 (1993).                
 Slice#2 Row#2 Col#10  PD_24_press_2_raw_act
 36 lines in following concentration table = NCONC+1
    Conc.  %SD /Cr+PCr  Metabolite                                         
    0.000 999%   0.000 Ala                                                 
 7.70E-02 999%   0.000 Asp                                                 
    0.000 999%   0.000 Cr                                                  
    0.000 999%   0.000 PCr                                                 
 2.61E-03 999%   0.000 GABA                                                
    0.000 999%   0.000 Glc                                                 
   39.942 769%   0.000 Gln                                                 
    0.000 999%   0.000 Glu                                                 
    0.000 999%   0.000 GPC                                                 
    0.000 999%   0.000 PCh                                                 
   15.967 634%   0.000 GSH                                                 
   35.709 839%   0.000 Ins                                                 
    0.000 999%   0.000 Lac                                                 
    0.000 999%   0.000 NAA                                                 
    0.000 999%   0.000 NAAG                                                
 3.00E-02 999%   0.000 Scyllo                                              
    0.000 999%   0.000 Tau                                                 
    0.139 999%   0.000 -CrCH2                                              
    0.000 999%   0.000 GPC+PCh                                             
    0.000 999%   0.000 NAA+NAAG                                            
    0.000 999%   0.000 Cr+PCr                                              
   39.942 769%   0.000 Glu+Gln                                             
  538.595 139%   0.000 Lip13a                                              
  365.453  75%   0.000 Lip13b                                              
  217.479  85%   0.000 Lip09                                               
  926.069  25%   0.000 MM09                                                
   92.656 124%   0.000 Lip20                                               
  774.935  43%   0.000 MM20                                                
  306.547  42%   0.000 MM12                                                
 1.86E+03  20%   0.000 MM14                                                
    0.000 999%   0.000 MM17                                                
  904.048  62%   0.000 Lip13a+Lip13b                                       
 3.07E+03  14%   0.000 MM14+Lip13a+Lip13b+MM12                             
 1.14E+03  17%   0.000 MM09+Lip09                                          
  867.590  36%   0.000 MM20+Lip20                                          
   6 lines in following misc. output table
  FWHM = 0.054 ppm    S/N =   1                                            
  Data shift = 0.076 ppm                                                   
  Ph: -71 deg      -3.8 deg/ppm                                            
  alphaB,S = 8.5E+01,   2.6E+01                                            
   14 spline knots.   Ns = 5(1)                                            
   2 inflections.     1 extrema                                            
  498 points on ppm-axis = NY
      4.000000     3.992357     3.984714     3.977070     3.969427     3.961784     3.954141     3.946497     3.938854     3.931211
      3.923568     3.915925     3.908281     3.900638     3.892995     3.885352     3.877708     3.870065     3.862422     3.854779
      3.847136     3.839492     3.831849     3.824206     3.816563     3.808919     3.801276     3.793633     3.785990     3.778347
      3.770703     3.763060     3.755417     3.747774     3.740130     3.732487     3.724844     3.717201     3.709558     3.701914
      3.694271     3.686628     3.678985     3.671341     3.663698     3.656055     3.648412     3.640769     3.633125     3.625482
      3.617839     3.610196     3.602552     3.594909     3.587266     3.579623     3.571980     3.564336     3.556693     3.549050
      3.541407     3.533763     3.526120     3.518477     3.510834     3.503191     3.495547     3.487904     3.480261     3.472618
      3.464974     3.457331     3.449688     3.442045     3.434402     3.426758     3.419115     3.411472     3.403829     3.396185
      3.388542     3.380899     3.373256     3.365613     3.357969     3.350326     3.342683     3.335040     3.327396     3.319753
      3.312110     3.304467     3.296824     3.289180     3.281537     3.273894     3.266251     3.258607     3.250964     3.243321
      3.235678     3.228034     3.220391     3.212748     3.205105     3.197462     3.189818     3.182175     3.174532     3.166889
      3.159245     3.151602     3.143959     3.136316     3.128673     3.121029     3.113386     3.105743     3.098100     3.090456
      3.082813     3.075170     3.067527     3.059884     3.052240     3.044597     3.036954     3.029311     3.021667     3.014024
      3.006381     2.998738     2.991095     2.983451     2.975808     2.968165     2.960522     2.952878     2.945235     2.937592
      2.929949     2.922306     2.914662     2.907019     2.899376     2.891733     2.884089     2.876446     2.868803     2.861160
      2.853517     2.845873     2.838230     2.830587     2.822944     2.815300     2.807657     2.800014     2.792371     2.784728
      2.777084     2.769441     2.761798     2.754155     2.746511     2.738868     2.731225     2.723582     2.715939     2.708295
      2.700652     2.693009     2.685366     2.677722     2.670079     2.662436     2.654793     2.647150     2.639506     2.631863
      2.624220     2.616577     2.608933     2.601290     2.593647     2.586004     2.578361     2.570717     2.563074     2.555431
      2.547788     2.540144     2.532501     2.524858     2.517215     2.509572     2.501928     2.494285     2.486642     2.478999
      2.471355     2.463712     2.456069     2.448426     2.440783     2.433139     2.425496     2.417853     2.410210     2.402566
      2.394923     2.387280     2.379637     2.371994     2.364350     2.356707     2.349064     2.341421     2.333777     2.326134
      2.318491     2.310848     2.303205     2.295561     2.287918     2.280275     2.272632     2.264988     2.257345     2.249702
      2.242059     2.234416     2.226772     2.219129     2.211486     2.203843     2.196199     2.188556     2.180913     2.173270
      2.165627     2.157983     2.150340     2.142697     2.135054     2.127410     2.119767     2.112124     2.104481     2.096838
      2.089194     2.081551     2.073908     2.066265     2.058621     2.050978     2.043335     2.035692     2.028049     2.020405
      2.012762     2.005119     1.997476     1.989833     1.982190     1.974546     1.966903     1.959260     1.951617     1.943974
      1.936331     1.928688     1.921045     1.913402     1.905759     1.898115     1.890472     1.882829     1.875186     1.867543
      1.859900     1.852257     1.844614     1.836971     1.829327     1.821684     1.814041     1.806398     1.798755     1.791112
      1.783469     1.775826     1.768183     1.760540     1.752896     1.745253     1.737610     1.729967     1.722324     1.714681
      1.707038     1.699395     1.691752     1.684108     1.676465     1.668822     1.661179     1.653536     1.645893     1.638250
      1.630607     1.622964     1.615321     1.607677     1.600034     1.592391     1.584748     1.577105     1.569462     1.561819
      1.554176     1.546533     1.538890     1.531246     1.523603     1.515960     1.508317     1.500674     1.493031     1.485388
      1.477745     1.470102     1.462458     1.454815     1.447172     1.439529     1.431886     1.424243     1.416600     1.408957
      1.401314     1.393671     1.386027     1.378384     1.370741     1.363098     1.355455     1.347812     1.340169     1.332526
      1.324883     1.317240     1.309596     1.301953     1.294310     1.286667     1.279024     1.271381     1.263738     1.256095
      1.248452     1.240808     1.233165     1.225522     1.217879     1.210236     1.202593     1.194950     1.187307     1.179664
      1.172021     1.164377     1.156734     1.149091     1.141448     1.133805     1.126162     1.118519     1.110876     1.103233
      1.095590     1.087946     1.080303     1.072660     1.065017     1.057374     1.049731     1.042088     1.034445     1.026802
      1.019158     1.011515     1.003872     0.996229     0.988586     0.980943     0.973300     0.965657     0.958014     0.950371
      0.942727     0.935084     0.927441     0.919798     0.912155     0.904512     0.896869     0.889226     0.881583     0.873940
      0.866296     0.858653     0.851010     0.843367     0.835724     0.828081     0.820438     0.812795     0.805152     0.797508
      0.789865     0.782222     0.774579     0.766936     0.759293     0.751650     0.744007     0.736364     0.728721     0.721077
      0.713434     0.705791     0.698148     0.690505     0.682862     0.675219     0.667576     0.659933     0.652290     0.644646
      0.637003     0.629360     0.621717     0.614074     0.606431     0.598788     0.591145     0.583502     0.575858     0.568215
      0.560572     0.552929     0.545286     0.537643     0.530000     0.522357     0.514714     0.507071     0.499427     0.491784
      0.484141     0.476498     0.468855     0.461212     0.453569     0.445925     0.438282     0.430639     0.422996     0.415353
      0.407710     0.400067     0.392424     0.384780     0.377137     0.369494     0.361851     0.354208     0.346565     0.338922
      0.331278     0.323635     0.315992     0.308349     0.300706     0.293063     0.285420     0.277777     0.270133     0.262490
      0.254847     0.247204     0.239561     0.231918     0.224275     0.216631     0.208988     0.201345
 NY phased data points follow
  -1.14041E+01 -1.09001E+01 -9.89913E+00  2.28535E+00 -5.76448E+00  4.37270E+00 -6.92443E+00 -1.55328E+01 -1.11835E+01 -1.44448E+01
  -7.32373E+00 -9.12253E+00  3.14785E+00  4.38554E+00 -8.90740E+00 -8.54539E-02  4.81859E+00 -1.48926E+01 -4.15845E+00 -8.55508E+00
  -7.38506E+00  5.80844E-02 -8.93146E+00 -9.10845E+00 -4.11264E+00 -2.74180E+00 -1.52618E+00 -8.13161E+00 -1.29300E+01 -4.61067E+00
   5.25211E+00 -7.10880E+00 -1.10445E+00 -7.12239E-02 -8.37122E+00 -2.38521E+00  3.90994E-03 -3.39544E+00 -1.18045E+01 -3.31707E+00
  -5.85513E+00 -2.84946E+00 -2.04678E+00 -2.13244E+00 -8.06387E+00 -6.13755E+00  5.15340E-02 -1.00639E+01 -2.55487E+00 -1.36431E+01
  -6.71530E+00 -1.15935E-01 -2.05105E+00  1.34576E+00 -1.51012E+01 -1.22643E-01 -5.23157E+00  9.02516E-01 -4.08715E+00  2.30179E-01
  -4.73095E+00 -1.29243E+01 -8.37490E+00 -1.01875E+01 -1.09561E+01 -5.65553E+00 -1.02689E+01 -9.25952E+00 -2.31942E+00 -8.41952E+00
  -1.35869E+01 -9.76453E+00  3.31567E-01 -3.14194E+00 -6.33482E+00 -3.58738E+00 -9.43666E+00 -8.94260E+00 -7.37888E+00 -6.04397E+00
  -1.03711E+01 -2.84354E+00 -8.72064E+00 -7.20327E+00  3.00894E+00 -4.30839E+00 -4.79448E+00  5.10961E+00 -2.06911E+00 -3.12983E+00
  -2.74834E+00 -1.38946E+01 -5.80895E+00 -6.06201E+00 -4.33645E+00 -8.65735E+00  1.18525E+00 -1.50438E+00 -5.09470E+00 -8.21377E+00
  -1.01174E+01 -1.57612E+01 -1.39558E+01 -9.58207E+00 -4.08319E+00  1.43140E+00 -5.10581E+00 -8.62196E+00  2.87446E+00 -1.11853E+01
  -6.84294E+00 -9.86832E+00 -3.12519E+00 -1.39385E+01 -5.26444E+00  2.89222E-01 -1.01556E+01 -5.80773E+00 -5.98939E-01  4.73146E+00
   1.80803E+00 -7.96822E+00  2.05805E+00 -2.23997E+00 -9.26921E+00  9.63312E-01 -7.69922E+00 -8.59327E+00 -4.15601E-01 -5.50483E+00
  -1.29597E+01 -2.63792E+00 -7.76723E+00 -3.01352E+00 -1.10089E+01 -2.41166E+00 -5.55620E+00 -6.78189E-01 -1.08463E+01  4.15951E+00
  -1.54577E+01 -1.43802E+01 -2.53612E+00 -5.07078E+00 -1.01596E+01 -1.30799E+01 -1.00126E+01 -7.24131E+00 -6.98490E+00 -3.96957E+00
  -6.86797E+00 -5.31346E-01 -1.10073E+01 -8.31764E+00 -1.07656E-03 -1.35145E+01 -1.08620E+01 -7.99149E+00 -2.62829E+00  2.53133E+00
  -1.51767E+00 -9.03266E+00 -1.34705E+01 -1.37491E+01 -1.21821E+01  6.59530E-01 -2.93994E-01 -1.74102E+01 -5.12303E+00 -1.31030E+01
   2.65982E-02 -9.36059E-01 -1.71394E+00  1.23617E+00 -3.24476E+00 -1.03034E+01 -6.64063E+00 -6.48116E+00 -1.09539E+01 -1.07450E+01
  -5.54125E-01 -8.55355E+00 -4.82193E+00  6.80005E-01 -8.02977E+00 -4.80667E+00 -1.22147E+01 -7.07825E+00 -1.55847E+00  7.88125E+00
  -1.06028E+01 -1.05612E+01 -1.10162E+00 -3.31599E+00 -9.39521E+00  5.38995E+00 -1.39717E+00 -8.41067E+00  7.54191E-01 -4.20087E+00
  -1.14933E+00 -8.75813E+00 -7.92321E+00 -1.02717E+01 -1.28869E+01 -1.71516E+01 -6.79149E+00 -7.14564E+00 -1.08411E+01  4.48569E-01
  -4.59869E+00 -5.70703E+00  7.46386E+00 -1.16457E+01 -1.43048E+01 -7.85492E+00  8.59241E-01 -8.29759E+00  2.57621E+00  1.22655E+00
   2.19133E-01 -3.81912E+00  6.37648E+00 -1.19751E+01  4.26884E+00 -6.27966E-01  6.29121E+00 -7.68135E+00  3.51028E+00 -5.79907E+00
   3.86633E+00  1.25345E+00 -5.03290E+00 -5.83152E+00  3.17573E+00 -6.49418E+00  1.96705E+00 -3.20249E+00 -3.64217E+00 -3.39029E+00
  -2.63381E+00  8.16353E+00  5.72541E-01 -1.24313E+00  7.91117E+00  9.18757E-01  4.67476E+00 -5.63863E+00  6.71468E+00  4.57707E+00
  -2.21012E+00 -3.19053E+00 -8.30697E-01  5.95539E+00  1.03492E+01 -8.99533E-01 -5.89662E+00  1.51190E+00 -3.46819E+00 -7.50411E+00
  -4.37661E+00 -8.48000E-01 -1.08552E+01  1.37118E+00 -4.57468E+00  3.93403E-01 -4.02719E-01 -1.62060E+01 -6.46576E+00  3.51488E+00
  -1.02321E+01 -6.25776E+00 -5.62274E-01 -3.68434E+00 -5.62001E+00 -7.19667E+00 -3.27910E+00 -2.01461E+00 -3.86016E+00 -9.00721E+00
  -4.66746E+00 -7.43657E+00 -7.99595E+00 -3.43400E+00 -7.02030E+00 -2.38810E+01 -6.78344E+00 -5.26402E+00 -3.49890E+00 -4.15633E+00
  -1.43900E+01 -6.71592E+00 -8.28062E+00  9.50004E-01 -2.49331E+00 -3.51233E+00 -6.42219E+00 -7.91945E+00 -2.15666E-01 -1.26745E+01
  -8.09763E+00 -3.28962E+00 -3.37252E+00  3.68738E+00 -5.01178E+00 -1.00562E+01 -9.84550E+00 -9.83431E+00  7.62008E-01 -1.73173E+00
   2.07608E+00  8.41993E-01 -1.45376E+00  1.27475E+01  3.90681E+00 -2.55411E-01  5.64331E+00  9.27284E+00  8.41667E+00  5.97519E+00
   2.84855E+00  7.74521E+00 -3.81660E-01  1.35346E+01  5.19093E+00  1.55567E+01  5.11389E+00  1.26922E+01  1.58669E+01  3.08036E+00
   1.66777E+01  1.44324E+01  1.74714E+01  9.59904E+00  1.05226E+01 -1.36463E-01  1.24331E+01  1.27566E+01  7.23384E+00  9.56172E+00
   4.69448E+00  9.22666E+00  8.97952E+00  1.02503E+01  4.71572E-02  8.23201E+00 -5.65055E-01  8.60189E+00  1.42314E+00  9.92657E+00
  -1.79615E-01  9.52835E+00  2.75776E+00  1.12631E+01  1.10324E+01  1.35401E+01  8.79487E+00  1.16175E+01  4.71257E+00  8.25306E+00
   1.54943E+00  5.53416E+00  3.24973E+00  2.70673E+00  3.73109E+00 -7.09055E+00  1.25761E+01  1.78242E+00  1.26409E+01  1.40300E+00
   8.64972E+00  1.49669E+01 -1.37493E+00 -1.92656E-01  4.45541E-01 -2.02155E+00 -1.60057E+00 -5.57840E+00 -3.34302E+00 -1.13228E+00
   6.68843E+00  1.51430E+00  5.74359E+00  2.31289E+01 -1.08909E+01  9.59641E+00  1.81470E+01  5.32540E+00  1.16605E+01  7.64105E+00
   1.20744E+01  7.67953E+00  1.24635E+01  4.53981E+00  8.75420E+00  1.59289E+01  3.14317E+00  9.98886E+00 -2.17185E+00  1.22400E+01
  -1.34224E+00  1.00576E+01  2.64978E+00 -1.01409E-01  5.62212E+00  7.03405E+00  8.03264E+00  1.06582E+01  2.96255E+00  3.47766E+00
   5.49145E+00  3.40198E+00 -1.48376E+00 -5.55251E+00 -1.49449E+00  1.00993E+00 -2.86512E+00 -6.99341E-01  6.22536E+00 -5.42061E+00
   8.34528E+00 -6.14902E+00  1.65191E+00 -2.19028E+00 -5.55798E+00  3.81466E+00  3.46210E+00 -2.74376E+00 -3.14106E+00 -1.47839E+00
   9.86069E+00  2.18676E-01  7.05849E+00 -3.44484E+00 -1.11130E+00  6.13502E+00 -3.91604E+00  3.96973E+00 -4.30211E-01  7.82916E+00
   3.49360E-01  6.07200E+00 -4.39161E+00 -3.13490E+00  3.37975E+00  3.26563E-01  1.39244E+00  4.97406E+00 -3.50757E+00  6.24837E+00
   1.39525E+00 -5.81987E+00  6.78595E+00  1.51626E+00  3.50255E+00 -8.49878E-01  2.85719E+00  1.74191E+00 -3.02673E+00 -2.09331E-01
  -6.57922E+00  7.33880E+00  3.38654E+00  3.30604E+00  3.05471E-01  4.72173E+00 -3.29498E+00  1.43661E+00 -3.99717E+00 -9.26125E-01
   6.11624E+00 -2.20563E+00 -5.52338E+00 -1.17601E+00 -3.22806E+00 -2.76908E+00  2.13857E-01  1.92927E+00  3.20820E+00  5.18726E+00
  -1.12159E+01  3.84145E+00 -6.62857E+00 -6.08164E+00 -2.88100E+00 -8.49565E+00  1.69959E+00  8.69569E+00 -4.61646E+00 -8.77439E+00
   3.96118E+00 -8.22948E-01  2.98429E+00  4.86115E+00 -4.41963E+00 -6.03506E+00 -2.87754E+00  4.61511E+00
 NY points of the fit to the data follow
  -6.59325E+00 -6.60155E+00 -6.60494E+00 -6.60099E+00 -6.59266E+00 -6.58241E+00 -6.57092E+00 -6.55848E+00 -6.54526E+00 -6.53136E+00
  -6.51692E+00 -6.50202E+00 -6.48663E+00 -6.47076E+00 -6.45439E+00 -6.43741E+00 -6.41951E+00 -6.39990E+00 -6.37824E+00 -6.35659E+00
  -6.33591E+00 -6.32087E+00 -6.31668E+00 -6.32110E+00 -6.32235E+00 -6.29089E+00 -6.21748E+00 -6.11049E+00 -5.98640E+00 -5.86932E+00
  -5.78037E+00 -5.73575E+00 -5.74147E+00 -5.79792E+00 -5.89285E+00 -6.00222E+00 -6.09566E+00 -6.14574E+00 -6.15815E+00 -6.14513E+00
  -6.11861E+00 -6.08852E+00 -6.04926E+00 -5.99244E+00 -5.92137E+00 -5.84999E+00 -5.79137E+00 -5.75552E+00 -5.74661E+00 -5.76393E+00
  -5.80302E+00 -5.85568E+00 -5.91052E+00 -5.95287E+00 -5.96496E+00 -5.94162E+00 -5.89692E+00 -5.84627E+00 -5.79937E+00 -5.76189E+00
  -5.73740E+00 -5.72689E+00 -5.72770E+00 -5.73526E+00 -5.74496E+00 -5.75203E+00 -5.74987E+00 -5.73338E+00 -5.70504E+00 -5.67078E+00
  -5.63807E+00 -5.61137E+00 -5.59232E+00 -5.58050E+00 -5.57348E+00 -5.56916E+00 -5.56591E+00 -5.56244E+00 -5.55695E+00 -5.54747E+00
  -5.53578E+00 -5.52449E+00 -5.51761E+00 -5.51753E+00 -5.52417E+00 -5.53438E+00 -5.54377E+00 -5.54828E+00 -5.54454E+00 -5.52995E+00
  -5.50408E+00 -5.46769E+00 -5.42429E+00 -5.38162E+00 -5.34757E+00 -5.32500E+00 -5.31273E+00 -5.30715E+00 -5.30490E+00 -5.30272E+00
  -5.29702E+00 -5.28441E+00 -5.26393E+00 -5.23562E+00 -5.20185E+00 -5.16594E+00 -5.12916E+00 -5.09166E+00 -5.05358E+00 -5.01530E+00
  -4.97712E+00 -4.93882E+00 -4.89971E+00 -4.85936E+00 -4.81839E+00 -4.77763E+00 -4.73751E+00 -4.69790E+00 -4.65846E+00 -4.61866E+00
  -4.57766E+00 -4.53556E+00 -4.49304E+00 -4.45080E+00 -4.40941E+00 -4.36947E+00 -4.33151E+00 -4.29530E+00 -4.25784E+00 -4.21686E+00
  -4.17839E+00 -4.15043E+00 -4.13720E+00 -4.14064E+00 -4.15780E+00 -4.18120E+00 -4.20365E+00 -4.21745E+00 -4.21969E+00 -4.20952E+00
  -4.18787E+00 -4.16130E+00 -4.14190E+00 -4.13615E+00 -4.14384E+00 -4.16251E+00 -4.18657E+00 -4.20995E+00 -4.22948E+00 -4.24349E+00
  -4.25498E+00 -4.26499E+00 -4.27320E+00 -4.27939E+00 -4.28338E+00 -4.28500E+00 -4.28430E+00 -4.28213E+00 -4.27928E+00 -4.27626E+00
  -4.27355E+00 -4.27156E+00 -4.27019E+00 -4.26853E+00 -4.26601E+00 -4.26271E+00 -4.25872E+00 -4.25397E+00 -4.24827E+00 -4.24163E+00
  -4.23455E+00 -4.22765E+00 -4.22130E+00 -4.21562E+00 -4.21044E+00 -4.20544E+00 -4.20039E+00 -4.19498E+00 -4.18890E+00 -4.18148E+00
  -4.17362E+00 -4.16637E+00 -4.15953E+00 -4.15226E+00 -4.14294E+00 -4.12845E+00 -4.10571E+00 -4.07395E+00 -4.03643E+00 -4.00051E+00
  -3.97198E+00 -3.95684E+00 -3.96129E+00 -3.98513E+00 -4.01769E+00 -4.04540E+00 -4.05380E+00 -4.02989E+00 -3.97051E+00 -3.88416E+00
  -3.78198E+00 -3.67861E+00 -3.58911E+00 -3.52851E+00 -3.50901E+00 -3.53843E+00 -3.59886E+00 -3.65821E+00 -3.69305E+00 -3.69184E+00
  -3.65318E+00 -3.58028E+00 -3.47711E+00 -3.35498E+00 -3.22872E+00 -3.11300E+00 -3.02176E+00 -2.96017E+00 -2.91113E+00 -2.85926E+00
  -2.80466E+00 -2.74890E+00 -2.69161E+00 -2.63245E+00 -2.57141E+00 -2.50888E+00 -2.44730E+00 -2.38977E+00 -2.33426E+00 -2.27592E+00
  -2.21336E+00 -2.15098E+00 -2.08284E+00 -1.99673E+00 -1.88981E+00 -1.76340E+00 -1.61764E+00 -1.46000E+00 -1.30914E+00 -1.17491E+00
  -1.05645E+00 -9.51731E-01 -8.61360E-01 -7.81861E-01 -6.98800E-01 -6.02512E-01 -4.92835E-01 -3.70610E-01 -2.41113E-01 -1.19584E-01
  -2.23149E-02  4.63642E-02  8.47172E-02  9.34800E-02  7.29257E-02  2.60607E-02 -4.20048E-02 -1.23771E-01 -2.12202E-01 -3.04641E-01
  -3.99858E-01 -4.96600E-01 -5.94208E-01 -6.92977E-01 -7.93080E-01 -8.93715E-01 -9.94968E-01 -1.09504E+00 -1.19252E+00 -1.28685E+00
  -1.37773E+00 -1.46484E+00 -1.54787E+00 -1.62667E+00 -1.70112E+00 -1.77106E+00 -1.83638E+00 -1.89697E+00 -1.95275E+00 -2.00361E+00
  -2.04953E+00 -2.09048E+00 -2.12647E+00 -2.15748E+00 -2.18354E+00 -2.20475E+00 -2.22122E+00 -2.23308E+00 -2.24049E+00 -2.24361E+00
  -2.24254E+00 -2.23737E+00 -2.22812E+00 -2.21475E+00 -2.19713E+00 -2.17502E+00 -2.14807E+00 -2.11575E+00 -2.07743E+00 -2.03226E+00
  -1.97913E+00 -1.91674E+00 -1.84349E+00 -1.75751E+00 -1.65659E+00 -1.53823E+00 -1.39965E+00 -1.23776E+00 -1.04931E+00 -8.30877E-01
  -5.79055E-01 -2.90553E-01  3.76172E-02  4.07940E-01  8.22157E-01  1.28105E+00  1.78419E+00  2.32975E+00  2.91429E+00  3.53267E+00
   4.17796E+00  4.84152E+00  5.51307E+00  6.18096E+00  6.83250E+00  7.45437E+00  8.03312E+00  8.55571E+00  9.01012E+00  9.38582E+00
   9.67435E+00  9.86969E+00  9.96861E+00  9.97081E+00  9.87899E+00  9.69878E+00  9.43850E+00  9.10896E+00  8.72311E+00  8.29587E+00
   7.84398E+00  7.38594E+00  6.94211E+00  6.53463E+00  6.18710E+00  5.92355E+00  5.76659E+00  5.73436E+00  5.83669E+00  6.07093E+00
   6.41860E+00  6.84402E+00  7.29607E+00  7.71352E+00  8.03348E+00  8.20139E+00  8.18043E+00  7.95790E+00  7.54703E+00  6.98368E+00
   6.31897E+00  5.60970E+00  4.90897E+00  4.25903E+00  3.68750E+00  3.20708E+00  2.81793E+00  2.51162E+00  2.27523E+00  2.09499E+00
   1.95861E+00  1.85663E+00  1.78272E+00  1.73343E+00  1.70758E+00  1.70565E+00  1.72916E+00  1.78019E+00  1.86105E+00  1.97395E+00
   2.12081E+00  2.30305E+00  2.52143E+00  2.77582E+00  3.06511E+00  3.38703E+00  3.73803E+00  4.11324E+00  4.50644E+00  4.91017E+00
   5.31586E+00  5.71407E+00  6.09480E+00  6.44790E+00  6.76349E+00  7.03238E+00  7.24655E+00  7.39951E+00  7.48663E+00  7.50536E+00
   7.45533E+00  7.33834E+00  7.15819E+00  6.92051E+00  6.63233E+00  6.30178E+00  5.93763E+00  5.54888E+00  5.14435E+00  4.73242E+00
   4.32066E+00  3.91572E+00  3.52317E+00  3.14747E+00  2.79197E+00  2.45898E+00  2.14991E+00  1.86535E+00  1.60521E+00  1.36889E+00
   1.15540E+00  9.63438E-01  7.91556E-01  6.38189E-01  5.01753E-01  3.80682E-01  2.73468E-01  1.78690E-01  9.50263E-02  2.12621E-02
  -4.37067E-02 -1.00875E-01 -1.51135E-01 -1.95280E-01 -2.34012E-01 -2.67953E-01 -2.97649E-01 -3.23580E-01 -3.46166E-01 -3.65776E-01
  -3.82734E-01 -3.97320E-01 -4.09785E-01 -4.20343E-01 -4.29187E-01 -4.36484E-01 -4.42382E-01 -4.47011E-01 -4.50488E-01 -4.52914E-01
  -4.54382E-01 -4.54972E-01 -4.54757E-01 -4.53802E-01 -4.52166E-01 -4.49902E-01 -4.47056E-01 -4.43672E-01 -4.39790E-01 -4.35444E-01
  -4.30666E-01 -4.25487E-01 -4.19933E-01 -4.14028E-01 -4.07794E-01 -4.01254E-01 -3.94425E-01 -3.87325E-01 -3.79971E-01 -3.72377E-01
  -3.64558E-01 -3.56526E-01 -3.48294E-01 -3.39871E-01 -3.31269E-01 -3.22496E-01 -3.13563E-01 -3.04477E-01 -2.95245E-01 -2.85877E-01
  -2.76376E-01 -2.66752E-01 -2.57009E-01 -2.47154E-01 -2.37190E-01 -2.27124E-01 -2.16960E-01 -2.06702E-01 -1.96355E-01 -1.85922E-01
  -1.75407E-01 -1.64814E-01 -1.54145E-01 -1.43404E-01 -1.32595E-01 -1.21719E-01 -1.10779E-01 -9.97772E-02
 NY background values follow
    -6.696E+00   -6.683E+00   -6.670E+00   -6.657E+00   -6.644E+00   -6.631E+00   -6.618E+00   -6.605E+00   -6.592E+00   -6.579E+00
    -6.565E+00   -6.552E+00   -6.539E+00   -6.526E+00   -6.513E+00   -6.500E+00   -6.487E+00   -6.474E+00   -6.461E+00   -6.448E+00
    -6.435E+00   -6.422E+00   -6.409E+00   -6.396E+00   -6.383E+00   -6.370E+00   -6.357E+00   -6.344E+00   -6.331E+00   -6.318E+00
    -6.305E+00   -6.292E+00   -6.279E+00   -6.265E+00   -6.252E+00   -6.239E+00   -6.226E+00   -6.213E+00   -6.200E+00   -6.187E+00
    -6.174E+00   -6.161E+00   -6.148E+00   -6.135E+00   -6.122E+00   -6.109E+00   -6.096E+00   -6.083E+00   -6.070E+00   -6.057E+00
    -6.044E+00   -6.031E+00   -6.018E+00   -6.005E+00   -5.992E+00   -5.979E+00   -5.965E+00   -5.952E+00   -5.939E+00   -5.926E+00
    -5.913E+00   -5.900E+00   -5.887E+00   -5.874E+00   -5.861E+00   -5.848E+00   -5.835E+00   -5.822E+00   -5.809E+00   -5.796E+00
    -5.783E+00   -5.770E+00   -5.757E+00   -5.744E+00   -5.731E+00   -5.718E+00   -5.705E+00   -5.692E+00   -5.679E+00   -5.666E+00
    -5.652E+00   -5.639E+00   -5.626E+00   -5.613E+00   -5.600E+00   -5.587E+00   -5.574E+00   -5.561E+00   -5.548E+00   -5.535E+00
    -5.522E+00   -5.509E+00   -5.496E+00   -5.483E+00   -5.470E+00   -5.457E+00   -5.444E+00   -5.431E+00   -5.418E+00   -5.405E+00
    -5.392E+00   -5.379E+00   -5.366E+00   -5.352E+00   -5.339E+00   -5.326E+00   -5.313E+00   -5.300E+00   -5.287E+00   -5.274E+00
    -5.261E+00   -5.248E+00   -5.235E+00   -5.222E+00   -5.209E+00   -5.196E+00   -5.183E+00   -5.170E+00   -5.157E+00   -5.144E+00
    -5.131E+00   -5.118E+00   -5.105E+00   -5.092E+00   -5.079E+00   -5.066E+00   -5.052E+00   -5.039E+00   -5.026E+00   -5.013E+00
    -5.000E+00   -4.987E+00   -4.974E+00   -4.961E+00   -4.948E+00   -4.935E+00   -4.922E+00   -4.909E+00   -4.896E+00   -4.883E+00
    -4.870E+00   -4.857E+00   -4.844E+00   -4.831E+00   -4.818E+00   -4.805E+00   -4.792E+00   -4.779E+00   -4.765E+00   -4.752E+00
    -4.739E+00   -4.726E+00   -4.713E+00   -4.700E+00   -4.687E+00   -4.674E+00   -4.661E+00   -4.648E+00   -4.635E+00   -4.622E+00
    -4.609E+00   -4.596E+00   -4.583E+00   -4.570E+00   -4.557E+00   -4.544E+00   -4.531E+00   -4.518E+00   -4.505E+00   -4.492E+00
    -4.479E+00   -4.465E+00   -4.452E+00   -4.439E+00   -4.426E+00   -4.413E+00   -4.400E+00   -4.387E+00   -4.374E+00   -4.361E+00
    -4.348E+00   -4.335E+00   -4.322E+00   -4.309E+00   -4.296E+00   -4.283E+00   -4.270E+00   -4.257E+00   -4.244E+00   -4.231E+00
    -4.218E+00   -4.205E+00   -4.192E+00   -4.178E+00   -4.165E+00   -4.152E+00   -4.139E+00   -4.126E+00   -4.113E+00   -4.100E+00
    -4.087E+00   -4.074E+00   -4.061E+00   -4.048E+00   -4.035E+00   -4.022E+00   -4.009E+00   -3.996E+00   -3.983E+00   -3.970E+00
    -3.957E+00   -3.944E+00   -3.931E+00   -3.918E+00   -3.905E+00   -3.891E+00   -3.878E+00   -3.865E+00   -3.852E+00   -3.839E+00
    -3.826E+00   -3.813E+00   -3.800E+00   -3.787E+00   -3.774E+00   -3.761E+00   -3.748E+00   -3.735E+00   -3.722E+00   -3.709E+00
    -3.696E+00   -3.683E+00   -3.670E+00   -3.657E+00   -3.644E+00   -3.631E+00   -3.618E+00   -3.604E+00   -3.591E+00   -3.578E+00
    -3.565E+00   -3.552E+00   -3.539E+00   -3.526E+00   -3.513E+00   -3.500E+00   -3.487E+00   -3.474E+00   -3.461E+00   -3.448E+00
    -3.435E+00   -3.422E+00   -3.409E+00   -3.396E+00   -3.383E+00   -3.370E+00   -3.357E+00   -3.344E+00   -3.331E+00   -3.317E+00
    -3.304E+00   -3.291E+00   -3.278E+00   -3.265E+00   -3.252E+00   -3.239E+00   -3.226E+00   -3.213E+00   -3.200E+00   -3.187E+00
    -3.174E+00   -3.161E+00   -3.148E+00   -3.135E+00   -3.122E+00   -3.109E+00   -3.096E+00   -3.083E+00   -3.070E+00   -3.057E+00
    -3.044E+00   -3.030E+00   -3.017E+00   -3.004E+00   -2.991E+00   -2.978E+00   -2.965E+00   -2.952E+00   -2.939E+00   -2.926E+00
    -2.913E+00   -2.900E+00   -2.887E+00   -2.874E+00   -2.861E+00   -2.848E+00   -2.835E+00   -2.822E+00   -2.809E+00   -2.796E+00
    -2.783E+00   -2.770E+00   -2.756E+00   -2.743E+00   -2.730E+00   -2.717E+00   -2.704E+00   -2.691E+00   -2.678E+00   -2.665E+00
    -2.652E+00   -2.639E+00   -2.626E+00   -2.613E+00   -2.600E+00   -2.587E+00   -2.574E+00   -2.561E+00   -2.548E+00   -2.535E+00
    -2.522E+00   -2.509E+00   -2.496E+00   -2.483E+00   -2.469E+00   -2.456E+00   -2.443E+00   -2.430E+00   -2.417E+00   -2.404E+00
    -2.391E+00   -2.378E+00   -2.365E+00   -2.352E+00   -2.339E+00   -2.326E+00   -2.313E+00   -2.300E+00   -2.287E+00   -2.274E+00
    -2.261E+00   -2.248E+00   -2.235E+00   -2.222E+00   -2.209E+00   -2.195E+00   -2.182E+00   -2.169E+00   -2.156E+00   -2.143E+00
    -2.130E+00   -2.117E+00   -2.104E+00   -2.091E+00   -2.078E+00   -2.065E+00   -2.052E+00   -2.039E+00   -2.026E+00   -2.013E+00
    -2.000E+00   -1.987E+00   -1.974E+00   -1.961E+00   -1.948E+00   -1.935E+00   -1.921E+00   -1.908E+00   -1.895E+00   -1.882E+00
    -1.869E+00   -1.856E+00   -1.843E+00   -1.830E+00   -1.817E+00   -1.804E+00   -1.791E+00   -1.778E+00   -1.765E+00   -1.752E+00
    -1.739E+00   -1.726E+00   -1.713E+00   -1.700E+00   -1.687E+00   -1.674E+00   -1.661E+00   -1.647E+00   -1.634E+00   -1.621E+00
    -1.608E+00   -1.595E+00   -1.582E+00   -1.569E+00   -1.556E+00   -1.543E+00   -1.530E+00   -1.517E+00   -1.504E+00   -1.491E+00
    -1.478E+00   -1.465E+00   -1.452E+00   -1.439E+00   -1.426E+00   -1.413E+00   -1.400E+00   -1.387E+00   -1.374E+00   -1.360E+00
    -1.347E+00   -1.334E+00   -1.321E+00   -1.308E+00   -1.295E+00   -1.282E+00   -1.269E+00   -1.256E+00   -1.243E+00   -1.230E+00
    -1.217E+00   -1.204E+00   -1.191E+00   -1.178E+00   -1.165E+00   -1.152E+00   -1.139E+00   -1.126E+00   -1.113E+00   -1.100E+00
    -1.086E+00   -1.073E+00   -1.060E+00   -1.047E+00   -1.034E+00   -1.021E+00   -1.008E+00   -9.951E-01   -9.821E-01   -9.690E-01
    -9.560E-01   -9.429E-01   -9.299E-01   -9.168E-01   -9.038E-01   -8.908E-01   -8.777E-01   -8.647E-01   -8.516E-01   -8.386E-01
    -8.255E-01   -8.125E-01   -7.994E-01   -7.864E-01   -7.733E-01   -7.603E-01   -7.472E-01   -7.342E-01   -7.211E-01   -7.081E-01
    -6.950E-01   -6.820E-01   -6.690E-01   -6.559E-01   -6.429E-01   -6.298E-01   -6.168E-01   -6.037E-01   -5.907E-01   -5.776E-01
    -5.646E-01   -5.515E-01   -5.385E-01   -5.254E-01   -5.124E-01   -4.993E-01   -4.863E-01   -4.732E-01   -4.602E-01   -4.471E-01
    -4.341E-01   -4.211E-01   -4.080E-01   -3.950E-01   -3.819E-01   -3.689E-01   -3.558E-01   -3.428E-01   -3.297E-01   -3.167E-01
    -3.036E-01   -2.906E-01   -2.775E-01   -2.645E-01   -2.514E-01   -2.384E-01   -2.253E-01   -2.123E-01
 Asp      Conc. = 7.70E-02
