 LCModel (Version 6.3-1L) Copyright: S.W. Provencher.          Ref.: Magn. Reson. Med. 30:672-679 (1993).                
 Slice#2 Row#4 Col#9  PD_24_press_2_raw_act
 36 lines in following concentration table = NCONC+1
    Conc.  %SD /Cr+PCr  Metabolite                                         
  158.739 290% 5.5E-02 Ala                                                 
    0.000 999%   0.000 Asp                                                 
  417.778 149%   0.144 Cr                                                  
 2.48E+03  25%   0.856 PCr                                                 
  227.567 184% 7.8E-02 GABA                                                
   58.988 681% 2.0E-02 Glc                                                 
 4.45E+03  25%   1.536 Gln                                                 
 6.37E+03  20%   2.197 Glu                                                 
 1.47E+03   4%   0.508 GPC                                                 
    0.000 999%   0.000 PCh                                                 
  605.721  42%   0.209 GSH                                                 
 2.21E+03  35%   0.764 Ins                                                 
  691.965  80%   0.239 Lac                                                 
 5.02E+03   5%   1.732 NAA                                                 
    0.000 999%   0.000 NAAG                                                
  661.461  12%   0.228+Scyllo                                              
 1.26E+03  42%   0.434 Tau                                                 
  728.967  44%   0.251 -CrCH2                                              
 1.47E+03   4%   0.508 GPC+PCh                                             
 5.02E+03   5%   1.732 NAA+NAAG                                            
 2.90E+03   6%   1.000 Cr+PCr                                              
 1.08E+04  20%   3.733 Glu+Gln                                             
 2.32E+03  43%   0.800 Lip13a                                              
    0.000 999%   0.000 Lip13b                                              
    0.000 999%   0.000 Lip09                                               
 2.68E+03  15%   0.923 MM09                                                
  525.205  76%   0.181 Lip20                                               
 7.91E+03  13%   2.727 MM20                                                
 1.38E+03  32%   0.476 MM12                                                
 2.79E+03  26%   0.962 MM14                                                
 2.06E+03  27%   0.709 MM17                                                
 2.32E+03  43%   0.800 Lip13a+Lip13b                                       
 6.49E+03  13%   2.238 MM14+Lip13a+Lip13b+MM12                             
 2.68E+03  15%   0.923 MM09+Lip09                                          
 8.43E+03  12%   2.908 MM20+Lip20                                          
   6 lines in following misc. output table
  FWHM = 0.084 ppm    S/N =   9                                            
  Data shift = 0.015 ppm                                                   
  Ph: -86 deg     -26.2 deg/ppm                                            
  alphaB,S = 2.2E+00,   2.2E+01                                            
   14 spline knots.   Ns =10(1)                                            
  (16)11 infls.   (17) 3 extrs.                                            
  498 points on ppm-axis = NY
      4.000000     3.992357     3.984714     3.977070     3.969427     3.961784     3.954141     3.946497     3.938854     3.931211
      3.923568     3.915925     3.908281     3.900638     3.892995     3.885352     3.877708     3.870065     3.862422     3.854779
      3.847136     3.839492     3.831849     3.824206     3.816563     3.808919     3.801276     3.793633     3.785990     3.778347
      3.770703     3.763060     3.755417     3.747774     3.740130     3.732487     3.724844     3.717201     3.709558     3.701914
      3.694271     3.686628     3.678985     3.671341     3.663698     3.656055     3.648412     3.640769     3.633125     3.625482
      3.617839     3.610196     3.602552     3.594909     3.587266     3.579623     3.571980     3.564336     3.556693     3.549050
      3.541407     3.533763     3.526120     3.518477     3.510834     3.503191     3.495547     3.487904     3.480261     3.472618
      3.464974     3.457331     3.449688     3.442045     3.434402     3.426758     3.419115     3.411472     3.403829     3.396185
      3.388542     3.380899     3.373256     3.365613     3.357969     3.350326     3.342683     3.335040     3.327396     3.319753
      3.312110     3.304467     3.296824     3.289180     3.281537     3.273894     3.266251     3.258607     3.250964     3.243321
      3.235678     3.228034     3.220391     3.212748     3.205105     3.197462     3.189818     3.182175     3.174532     3.166889
      3.159245     3.151602     3.143959     3.136316     3.128673     3.121029     3.113386     3.105743     3.098100     3.090456
      3.082813     3.075170     3.067527     3.059884     3.052240     3.044597     3.036954     3.029311     3.021667     3.014024
      3.006381     2.998738     2.991095     2.983451     2.975808     2.968165     2.960522     2.952878     2.945235     2.937592
      2.929949     2.922306     2.914662     2.907019     2.899376     2.891733     2.884089     2.876446     2.868803     2.861160
      2.853517     2.845873     2.838230     2.830587     2.822944     2.815300     2.807657     2.800014     2.792371     2.784728
      2.777084     2.769441     2.761798     2.754155     2.746511     2.738868     2.731225     2.723582     2.715939     2.708295
      2.700652     2.693009     2.685366     2.677722     2.670079     2.662436     2.654793     2.647150     2.639506     2.631863
      2.624220     2.616577     2.608933     2.601290     2.593647     2.586004     2.578361     2.570717     2.563074     2.555431
      2.547788     2.540144     2.532501     2.524858     2.517215     2.509572     2.501928     2.494285     2.486642     2.478999
      2.471355     2.463712     2.456069     2.448426     2.440783     2.433139     2.425496     2.417853     2.410210     2.402566
      2.394923     2.387280     2.379637     2.371994     2.364350     2.356707     2.349064     2.341421     2.333777     2.326134
      2.318491     2.310848     2.303205     2.295561     2.287918     2.280275     2.272632     2.264988     2.257345     2.249702
      2.242059     2.234416     2.226772     2.219129     2.211486     2.203843     2.196199     2.188556     2.180913     2.173270
      2.165627     2.157983     2.150340     2.142697     2.135054     2.127410     2.119767     2.112124     2.104481     2.096838
      2.089194     2.081551     2.073908     2.066265     2.058621     2.050978     2.043335     2.035692     2.028049     2.020405
      2.012762     2.005119     1.997476     1.989833     1.982190     1.974546     1.966903     1.959260     1.951617     1.943974
      1.936331     1.928688     1.921045     1.913402     1.905759     1.898115     1.890472     1.882829     1.875186     1.867543
      1.859900     1.852257     1.844614     1.836971     1.829327     1.821684     1.814041     1.806398     1.798755     1.791112
      1.783469     1.775826     1.768183     1.760540     1.752896     1.745253     1.737610     1.729967     1.722324     1.714681
      1.707038     1.699395     1.691752     1.684108     1.676465     1.668822     1.661179     1.653536     1.645893     1.638250
      1.630607     1.622964     1.615321     1.607677     1.600034     1.592391     1.584748     1.577105     1.569462     1.561819
      1.554176     1.546533     1.538890     1.531246     1.523603     1.515960     1.508317     1.500674     1.493031     1.485388
      1.477745     1.470102     1.462458     1.454815     1.447172     1.439529     1.431886     1.424243     1.416600     1.408957
      1.401314     1.393671     1.386027     1.378384     1.370741     1.363098     1.355455     1.347812     1.340169     1.332526
      1.324883     1.317240     1.309596     1.301953     1.294310     1.286667     1.279024     1.271381     1.263738     1.256095
      1.248452     1.240808     1.233165     1.225522     1.217879     1.210236     1.202593     1.194950     1.187307     1.179664
      1.172021     1.164377     1.156734     1.149091     1.141448     1.133805     1.126162     1.118519     1.110876     1.103233
      1.095590     1.087946     1.080303     1.072660     1.065017     1.057374     1.049731     1.042088     1.034445     1.026802
      1.019158     1.011515     1.003872     0.996229     0.988586     0.980943     0.973300     0.965657     0.958014     0.950371
      0.942727     0.935084     0.927441     0.919798     0.912155     0.904512     0.896869     0.889226     0.881583     0.873940
      0.866296     0.858653     0.851010     0.843367     0.835724     0.828081     0.820438     0.812795     0.805152     0.797508
      0.789865     0.782222     0.774579     0.766936     0.759293     0.751650     0.744007     0.736364     0.728721     0.721077
      0.713434     0.705791     0.698148     0.690505     0.682862     0.675219     0.667576     0.659933     0.652290     0.644646
      0.637003     0.629360     0.621717     0.614074     0.606431     0.598788     0.591145     0.583502     0.575858     0.568215
      0.560572     0.552929     0.545286     0.537643     0.530000     0.522357     0.514714     0.507071     0.499427     0.491784
      0.484141     0.476498     0.468855     0.461212     0.453569     0.445925     0.438282     0.430639     0.422996     0.415353
      0.407710     0.400067     0.392424     0.384780     0.377137     0.369494     0.361851     0.354208     0.346565     0.338922
      0.331278     0.323635     0.315992     0.308349     0.300706     0.293063     0.285420     0.277777     0.270133     0.262490
      0.254847     0.247204     0.239561     0.231918     0.224275     0.216631     0.208988     0.201345
 NY phased data points follow
  -3.55737E+01 -5.35385E+01 -3.98531E+01 -2.15084E+01 -1.60706E+01 -2.43791E+01  1.19985E-01 -1.67117E+01 -3.93787E+00  6.58316E-02
  -5.57339E+00 -6.45989E+00  1.31937E+00 -6.65373E+00 -6.74299E+00 -2.25403E+01 -9.48586E+00 -3.72717E+01 -3.35085E+01 -4.06677E+01
  -3.36746E+01 -3.91169E+01 -3.34345E+01 -3.19555E+01 -3.21523E+01 -2.98448E+01 -1.45836E+01 -1.79629E+01 -1.81636E+01 -2.79577E+01
  -1.84747E+01 -1.71851E+01 -2.71897E+01 -3.49409E+01 -9.93786E+00 -2.45940E+01 -1.06763E+01 -2.14558E+01 -1.51405E+01 -1.69415E+01
  -2.06012E+01 -2.00894E+01 -1.50265E+01 -8.42525E+00 -6.99574E+00 -1.67816E+01 -2.57419E+00 -1.41111E+01 -1.10518E+01 -2.02209E+01
  -1.74256E+01 -1.73716E+01 -1.94258E+01 -2.32246E+01 -2.48451E+01 -3.04794E+01 -2.36474E+01 -2.62425E+01 -2.47038E+01 -3.50960E+01
  -2.53948E+01 -3.08845E+01 -2.84034E+01 -2.94355E+01 -3.22526E+01 -3.98494E+01 -2.45530E+01 -3.22102E+01 -2.79770E+01 -1.93676E+01
  -1.74397E+01 -2.90036E+01 -1.82511E+01 -2.59381E+01 -1.79407E+01 -2.81711E+01 -1.65531E+01 -2.06084E+01 -1.15143E+01 -2.32363E+01
  -6.47694E+00 -7.62611E+00 -3.97365E+00 -7.61641E+00  1.78193E+00 -4.49515E+00 -2.80407E+00 -3.20921E+00  2.55049E+00 -2.25882E+00
   1.28653E+00  2.23080E+00  1.04743E+01  2.13021E+01  2.75916E+01  2.26738E+01  2.07061E+01  3.71200E+01  4.42448E+01  5.14025E+01
   5.20359E+01  5.27142E+01  7.25879E+01  6.49708E+01  6.61599E+01  4.13078E+01  5.22437E+01  3.50356E+01  2.79048E+01  4.04956E+00
   4.45617E+00 -4.44074E+00 -5.18750E+00 -1.32444E+01 -9.03759E+00 -1.45795E+01  4.16130E+00  4.39080E+00  5.53360E+00  3.92087E+00
   2.05798E+01  1.62628E+01  2.13460E+01  1.40069E+01  3.63165E+01  4.02023E+01  5.11089E+01  5.57934E+01  5.48448E+01  4.13810E+01
   2.44156E+01  1.89467E+01  2.09368E+01 -1.76888E+00 -9.16798E-01 -1.15654E+01 -7.59500E+00 -1.35893E+01 -1.58810E+01 -1.74744E+01
  -1.16993E+01 -1.86938E+01 -6.21534E+00 -3.96163E+00 -4.43950E+00 -1.70540E+01 -1.65856E+01 -5.60099E+00 -8.63952E+00 -2.16606E+01
  -1.23691E+01 -1.83912E+01 -1.60557E+01 -1.11664E+01 -1.20386E+01 -5.11937E+00 -7.34970E+00 -1.49897E+01 -1.56617E+01 -2.16517E+01
  -1.65887E+01 -1.47482E+01 -1.03359E+01 -1.07987E+01 -2.27713E+01 -2.62190E+01 -1.92908E+01 -1.25104E+01 -3.23270E+01 -2.62343E+01
  -2.57466E+01 -2.77055E+01 -2.88521E+01 -3.99983E+01 -3.21080E+01 -3.28729E+01 -1.69491E+01 -2.79666E+01 -2.87250E+01 -3.40102E+01
  -1.76553E+01 -2.89460E+01 -2.91894E+01 -2.15085E+01 -1.97622E+01 -2.76711E+01 -2.14003E+01 -2.21851E+01 -1.51456E+01 -1.78726E+01
  -2.65645E+01 -1.44683E+01 -8.07266E+00 -5.68394E+00 -8.75274E+00 -1.83998E+00 -9.90969E+00 -2.14882E+00  1.93899E+00 -7.04438E+00
  -1.33673E+01 -6.83327E+00  1.12211E+00 -4.60356E+00 -8.69292E-01 -9.04849E-01  4.69001E+00  8.18274E+00 -1.45069E+00 -7.01665E+00
  -3.62200E+00  2.79824E+00 -3.02824E+00  4.02956E-01  1.12293E+01  1.01320E+01  1.75937E+01  3.75390E+00  4.76718E+00  1.08898E+01
   7.47091E+00 -5.05220E+00 -2.12447E+00 -2.67372E+00  4.49290E+00  1.28238E+00  3.70611E+00  5.17375E+00  1.92777E+01  1.91319E+01
   1.42807E+01  2.07077E+01  1.45148E+01  1.82327E+01  1.93013E+01  1.70582E+01  2.09459E+01  2.03564E+01  2.40231E+01  1.13730E+01
   1.64673E+01  1.16276E+01  1.22801E+01  2.81763E+01  1.49923E+01  2.31978E+01  1.32951E+01  2.90062E+01  2.87655E+01  4.93193E+01
   6.10966E+01  6.60496E+01  6.84328E+01  7.27596E+01  9.12849E+01  1.03946E+02  1.10831E+02  1.12525E+02  1.21110E+02  1.22243E+02
   1.32526E+02  1.43469E+02  1.29358E+02  1.06896E+02  9.99897E+01  7.80702E+01  6.19858E+01  4.89284E+01  3.24033E+01  1.86612E+01
   2.62764E+01  2.33650E+01  1.65976E+01  2.40669E+01  3.44055E+01  2.46820E+01  3.03875E+01  2.77612E+01  2.89950E+01  9.73913E+00
   2.68725E+01  1.94188E+01  1.86522E+01  1.22702E+01  2.47403E+01  1.64756E+01  2.37903E+01  1.76448E+01  1.20676E+01  1.11407E+01
   1.86878E+01  1.72796E+01  2.34529E+01  1.18333E+01  9.07237E+00  8.70510E+00  1.11294E+01  1.74704E+01  1.64648E+01  2.54782E+00
   6.61136E+00  1.32210E+01  1.59905E+01  6.79463E+00  1.86964E+01  3.76386E+00  1.30847E+01  1.28364E+01  2.62588E+01  2.11634E+01
   1.15301E+01  1.32103E+01  1.70213E+01  1.65125E+01  1.18383E+01  1.00765E+01  1.44759E+01  1.29147E+01  1.58924E+01  9.12064E+00
   1.76940E+01  1.05277E+01  1.72026E+01  1.07653E+01  1.28255E+01  1.38947E+01  1.49758E+01  1.92444E+01  2.10317E+01  1.76176E+01
   2.28556E+01  2.18108E+01  3.52324E+01  2.11784E+01  3.01179E+01  1.87170E+01  3.22279E+01  3.17194E+01  3.21779E+01  2.61222E+01
   3.22673E+01  2.92901E+01  3.33375E+01  2.98960E+01  4.11623E+01  2.47665E+01  3.61068E+01  2.34355E+01  3.51305E+01  2.26916E+01
   3.45655E+01  2.46249E+01  2.01544E+01  2.11376E+01  1.36355E+01  1.66747E+01  2.68277E+01  2.72728E+01  1.33942E+01  2.01572E+01
   1.99184E+01  2.60222E+01  2.77193E+01  2.98287E+01  2.93200E+01  2.55216E+01  3.21967E+01  2.74998E+01  3.77754E+01  2.46287E+01
   3.46743E+01  2.11139E+01  2.08760E+01  2.80932E+01  2.83795E+01  1.87910E+01  2.11599E+01  2.11762E+01  1.85772E+01  2.06894E+01
   2.29352E+01  2.21845E+01  3.60279E+01  2.34868E+01  2.79689E+01  2.30810E+01  1.92881E+01  2.16204E+01  2.17564E+01  2.76594E+01
   2.10749E+01  1.98299E+01  1.49255E+01  6.69247E+00  8.04347E+00  2.19381E+01  1.70589E+01  2.56999E+01  2.36202E+01  2.54745E+01
   1.82529E+01  2.65288E+01  3.10617E+01  2.53196E+01  2.29543E+01  1.68201E+01  3.35654E+01  2.43891E+01  2.61985E+01  2.93670E+01
   2.98088E+01  2.73854E+01  1.92486E+01  3.18530E+01  2.77802E+01  2.61245E+01  2.57675E+01  1.93236E+01  2.28178E+01  1.74934E+01
   8.75401E+00  1.65428E+01  1.29144E+01  1.81461E+01  1.31422E+01  2.12554E+01  2.30084E+01  2.08249E+01  2.27067E+01  1.20867E+01
   2.35102E+01  5.90026E+00  1.31164E+01  1.48792E+01  1.52613E+01  2.95617E+01  1.06331E+01  1.41284E+01  8.21637E+00  1.83727E+01
   2.21987E+01  1.20859E+01  1.54306E+01  1.14940E+01  2.78572E+01  1.75023E+01  1.47192E+01  4.61284E+00  1.16843E+01  8.90647E+00
   1.03142E+01  1.18422E+01  1.55449E+01  1.05756E+01  8.82098E+00  1.32152E+01  1.62807E+01  4.07055E+00  8.30177E+00  1.73858E+01
   1.15387E+01  1.29436E+01  2.09017E+01  1.14777E+01  2.28498E+01  1.34673E+01  4.17278E+00  7.18322E+00  1.50280E+01  6.58575E+00
   2.18687E+00  1.53420E+01  1.72523E+01  6.03065E+00  9.51183E+00  8.48811E+00  2.14951E+01  1.41889E+01  2.84041E+01  1.95311E+01
   1.23685E+01  1.39753E+01  1.27592E+01  1.51115E+01  1.26807E+01  1.06525E+01  3.81367E+00  5.87944E+00  1.46155E+01  1.45967E+01
   1.93320E+01  1.45521E+01  1.46440E+01  7.85826E+00  1.83704E+01  1.28769E+01  1.08451E+01  1.69675E+01
 NY points of the fit to the data follow
  -3.14256E+01 -3.09274E+01 -2.63770E+01 -2.17750E+01 -1.93555E+01 -1.66369E+01 -1.28330E+01 -9.85073E+00 -6.01096E+00 -2.84482E+00
  -3.69811E+00 -6.13631E+00 -7.05876E+00 -9.31176E+00 -1.38116E+01 -1.73592E+01 -2.04715E+01 -2.45764E+01 -2.79141E+01 -2.94899E+01
  -2.96251E+01 -2.82197E+01 -2.67097E+01 -2.64390E+01 -2.54898E+01 -2.45114E+01 -2.43154E+01 -2.47491E+01 -2.50894E+01 -2.38259E+01
  -2.11750E+01 -1.86878E+01 -1.66219E+01 -1.53114E+01 -1.54382E+01 -1.65845E+01 -1.79767E+01 -1.95352E+01 -2.18308E+01 -2.31420E+01
  -2.31140E+01 -2.19939E+01 -2.00848E+01 -1.83982E+01 -1.72135E+01 -1.65683E+01 -1.57368E+01 -1.53287E+01 -1.60792E+01 -1.69481E+01
  -1.79790E+01 -1.96196E+01 -2.14608E+01 -2.33115E+01 -2.49038E+01 -2.58893E+01 -2.62273E+01 -2.62120E+01 -2.63503E+01 -2.59292E+01
  -2.55547E+01 -2.54897E+01 -2.53196E+01 -2.52749E+01 -2.56266E+01 -2.55812E+01 -2.45361E+01 -2.43487E+01 -2.48316E+01 -2.47058E+01
  -2.42111E+01 -2.40021E+01 -2.36235E+01 -2.32053E+01 -2.33792E+01 -2.31579E+01 -2.01642E+01 -1.47844E+01 -1.47251E+01 -1.63740E+01
  -1.49160E+01 -1.12580E+01 -8.54381E+00 -7.47645E+00 -6.55386E+00 -5.47294E+00 -2.60397E+00  1.75617E-01 -4.53468E-01 -3.42187E+00
  -5.19383E+00 -4.07555E+00  6.80116E+00  1.82208E+01  1.55747E+01  1.34156E+01  2.34111E+01  3.70147E+01  4.33527E+01  4.77368E+01
   5.30832E+01  5.84724E+01  6.80390E+01  7.41720E+01  6.66416E+01  5.39177E+01  4.61206E+01  3.64639E+01  2.13909E+01  8.49867E+00
  -8.97638E-01 -8.76285E+00 -1.11879E+01 -1.27970E+01 -1.57521E+01 -1.50024E+01 -6.11356E+00  4.82474E+00  5.48715E+00  5.11431E+00
   1.20147E+01  2.18566E+01  2.74091E+01  3.06738E+01  3.47006E+01  3.86707E+01  4.51468E+01  4.99890E+01  4.59639E+01  3.73713E+01
   3.18413E+01  2.56804E+01  1.55424E+01  6.10339E+00 -4.69628E-01 -6.22650E+00 -8.59923E+00 -9.82708E+00 -1.21504E+01 -1.31059E+01
  -1.32596E+01 -1.31307E+01 -1.29706E+01 -1.27806E+01 -1.27316E+01 -1.29139E+01 -1.31126E+01 -1.33486E+01 -1.37129E+01 -1.39822E+01
  -1.44150E+01 -1.53126E+01 -1.57060E+01 -1.56276E+01 -1.55237E+01 -1.55311E+01 -1.61163E+01 -1.66551E+01 -1.67562E+01 -1.66447E+01
  -1.69884E+01 -1.77621E+01 -1.81643E+01 -1.81309E+01 -1.81193E+01 -1.84676E+01 -1.93969E+01 -2.00453E+01 -1.98862E+01 -2.00313E+01
  -2.11224E+01 -2.25340E+01 -2.27024E+01 -2.24119E+01 -2.24139E+01 -2.28430E+01 -2.35673E+01 -2.36826E+01 -2.24828E+01 -2.11508E+01
  -2.07100E+01 -2.03382E+01 -1.91876E+01 -1.79141E+01 -1.73141E+01 -1.66614E+01 -1.63246E+01 -1.55505E+01 -1.48824E+01 -1.38341E+01
  -1.24992E+01 -1.06924E+01 -8.83997E+00 -7.81584E+00 -6.56246E+00 -4.67947E+00 -3.44323E+00 -3.63533E+00 -3.53214E+00 -4.44826E+00
  -6.41074E+00 -4.27979E+00 -1.88231E+00 -3.33892E+00 -4.75132E+00 -3.31283E+00 -4.78308E-01 -3.17426E+00 -7.30964E+00 -9.20461E+00
  -9.43108E+00 -8.37433E+00 -8.28722E+00 -7.52814E+00 -2.86149E+00  4.11847E+00  7.16571E+00  5.79267E+00  3.97407E+00  2.46384E+00
   3.27130E-02 -3.52293E+00 -7.73809E+00 -7.98266E+00 -4.29128E+00 -6.48428E-01  2.10249E+00  6.89196E+00  1.31381E+01  1.67318E+01
   1.78711E+01  1.89603E+01  1.79693E+01  1.62519E+01  1.71460E+01  1.75958E+01  1.67585E+01  1.72636E+01  1.95139E+01  2.04507E+01
   2.05198E+01  2.11598E+01  2.11220E+01  2.05855E+01  2.11728E+01  2.22729E+01  2.27596E+01  2.44890E+01  2.77969E+01  3.55973E+01
   5.74634E+01  7.40109E+01  7.27473E+01  7.57010E+01  9.15252E+01  1.06364E+02  1.11577E+02  1.15568E+02  1.19946E+02  1.25184E+02
   1.34747E+02  1.37129E+02  1.23452E+02  1.07713E+02  9.81524E+01  8.41193E+01  6.39925E+01  4.88147E+01  3.74891E+01  2.85948E+01
   2.59144E+01  2.29152E+01  1.91544E+01  1.80345E+01  1.78598E+01  1.75769E+01  1.73547E+01  1.73329E+01  1.72160E+01  1.69653E+01
   1.66806E+01  1.63966E+01  1.61641E+01  1.61022E+01  1.61077E+01  1.61389E+01  1.62665E+01  1.64209E+01  1.65318E+01  1.66355E+01
   1.67027E+01  1.67019E+01  1.66512E+01  1.65581E+01  1.64138E+01  1.62122E+01  1.59739E+01  1.57019E+01  1.53904E+01  1.50588E+01
   1.47171E+01  1.43608E+01  1.40073E+01  1.36682E+01  1.33450E+01  1.30472E+01  1.27842E+01  1.25641E+01  1.23901E+01  1.22683E+01
   1.22063E+01  1.22074E+01  1.22763E+01  1.24194E+01  1.26410E+01  1.29552E+01  1.33970E+01  1.39884E+01  1.43992E+01  1.46853E+01
   1.52237E+01  1.59315E+01  1.65442E+01  1.70244E+01  1.75511E+01  1.83563E+01  1.93628E+01  2.01381E+01  2.06494E+01  2.11878E+01
   2.19978E+01  2.28793E+01  2.36513E+01  2.44331E+01  2.53770E+01  2.65512E+01  2.79581E+01  2.95951E+01  3.05803E+01  3.00684E+01
   2.98994E+01  3.03677E+01  3.04631E+01  2.95764E+01  2.83484E+01  2.82947E+01  2.89497E+01  2.86277E+01  2.73581E+01  2.58842E+01
   2.51416E+01  2.50267E+01  2.47161E+01  2.42710E+01  2.43716E+01  2.55754E+01  2.71313E+01  2.81992E+01  2.84373E+01  2.85582E+01
   2.87692E+01  2.83165E+01  2.75423E+01  2.67891E+01  2.58926E+01  2.52720E+01  2.47728E+01  2.40957E+01  2.34968E+01  2.29518E+01
   2.24290E+01  2.19217E+01  2.14305E+01  2.09589E+01  2.05115E+01  2.00942E+01  1.97126E+01  1.93730E+01  1.90809E+01  1.88414E+01
   1.86583E+01  1.85356E+01  1.84765E+01  1.84839E+01  1.85594E+01  1.87039E+01  1.89175E+01  1.91997E+01  1.95491E+01  1.99634E+01
   2.04386E+01  2.09695E+01  2.15493E+01  2.21704E+01  2.28231E+01  2.34963E+01  2.41772E+01  2.48519E+01  2.55053E+01  2.61224E+01
   2.66877E+01  2.71863E+01  2.76039E+01  2.79280E+01  2.81484E+01  2.82578E+01  2.82514E+01  2.81277E+01  2.78883E+01  2.75383E+01
   2.70856E+01  2.65412E+01  2.59173E+01  2.52282E+01  2.44887E+01  2.37144E+01  2.29201E+01  2.21205E+01  2.13282E+01  2.05547E+01
   1.98093E+01  1.91001E+01  1.84329E+01  1.78120E+01  1.72394E+01  1.67161E+01  1.62416E+01  1.58150E+01  1.54341E+01  1.50963E+01
   1.47983E+01  1.45370E+01  1.43092E+01  1.41118E+01  1.39417E+01  1.37960E+01  1.36718E+01  1.35668E+01  1.34787E+01  1.34058E+01
   1.33461E+01  1.32982E+01  1.32604E+01  1.32318E+01  1.32112E+01  1.31981E+01  1.31912E+01  1.31901E+01  1.31938E+01  1.32022E+01
   1.32146E+01  1.32309E+01  1.32503E+01  1.32727E+01  1.32977E+01  1.33254E+01  1.33552E+01  1.33873E+01  1.34210E+01  1.34565E+01
   1.34934E+01  1.35320E+01  1.35720E+01  1.36132E+01  1.36555E+01  1.36988E+01  1.37431E+01  1.37886E+01  1.38349E+01  1.38821E+01
   1.39299E+01  1.39785E+01  1.40278E+01  1.40780E+01  1.41288E+01  1.41802E+01  1.42321E+01  1.42847E+01  1.43379E+01  1.43919E+01
   1.44463E+01  1.45014E+01  1.45568E+01  1.46131E+01  1.46699E+01  1.47275E+01  1.47855E+01  1.48443E+01  1.49037E+01  1.49640E+01
   1.50251E+01  1.50872E+01  1.51500E+01  1.52139E+01  1.52788E+01  1.53451E+01  1.54128E+01  1.54822E+01
 NY background values follow
    -4.711E+01   -4.692E+01   -4.672E+01   -4.652E+01   -4.633E+01   -4.613E+01   -4.594E+01   -4.574E+01   -4.555E+01   -4.535E+01
    -4.516E+01   -4.496E+01   -4.477E+01   -4.457E+01   -4.438E+01   -4.418E+01   -4.398E+01   -4.379E+01   -4.359E+01   -4.340E+01
    -4.320E+01   -4.301E+01   -4.281E+01   -4.262E+01   -4.242E+01   -4.223E+01   -4.203E+01   -4.183E+01   -4.164E+01   -4.144E+01
    -4.125E+01   -4.105E+01   -4.086E+01   -4.066E+01   -4.047E+01   -4.027E+01   -4.008E+01   -3.988E+01   -3.969E+01   -3.949E+01
    -3.930E+01   -3.910E+01   -3.891E+01   -3.871E+01   -3.852E+01   -3.833E+01   -3.813E+01   -3.794E+01   -3.774E+01   -3.755E+01
    -3.736E+01   -3.716E+01   -3.697E+01   -3.678E+01   -3.658E+01   -3.639E+01   -3.620E+01   -3.600E+01   -3.581E+01   -3.562E+01
    -3.542E+01   -3.523E+01   -3.504E+01   -3.485E+01   -3.466E+01   -3.446E+01   -3.427E+01   -3.408E+01   -3.389E+01   -3.370E+01
    -3.351E+01   -3.332E+01   -3.313E+01   -3.294E+01   -3.275E+01   -3.256E+01   -3.237E+01   -3.218E+01   -3.199E+01   -3.180E+01
    -3.161E+01   -3.142E+01   -3.123E+01   -3.105E+01   -3.086E+01   -3.067E+01   -3.048E+01   -3.030E+01   -3.011E+01   -2.992E+01
    -2.974E+01   -2.955E+01   -2.937E+01   -2.918E+01   -2.899E+01   -2.881E+01   -2.862E+01   -2.844E+01   -2.826E+01   -2.807E+01
    -2.789E+01   -2.770E+01   -2.752E+01   -2.734E+01   -2.716E+01   -2.697E+01   -2.679E+01   -2.661E+01   -2.643E+01   -2.625E+01
    -2.607E+01   -2.588E+01   -2.570E+01   -2.552E+01   -2.534E+01   -2.516E+01   -2.498E+01   -2.481E+01   -2.463E+01   -2.445E+01
    -2.427E+01   -2.409E+01   -2.391E+01   -2.374E+01   -2.356E+01   -2.338E+01   -2.321E+01   -2.303E+01   -2.285E+01   -2.268E+01
    -2.250E+01   -2.233E+01   -2.215E+01   -2.198E+01   -2.180E+01   -2.163E+01   -2.146E+01   -2.128E+01   -2.111E+01   -2.094E+01
    -2.076E+01   -2.059E+01   -2.042E+01   -2.025E+01   -2.008E+01   -1.991E+01   -1.973E+01   -1.956E+01   -1.939E+01   -1.922E+01
    -1.905E+01   -1.888E+01   -1.871E+01   -1.855E+01   -1.838E+01   -1.821E+01   -1.804E+01   -1.787E+01   -1.771E+01   -1.754E+01
    -1.737E+01   -1.720E+01   -1.704E+01   -1.687E+01   -1.671E+01   -1.654E+01   -1.637E+01   -1.621E+01   -1.605E+01   -1.588E+01
    -1.572E+01   -1.555E+01   -1.539E+01   -1.523E+01   -1.506E+01   -1.490E+01   -1.474E+01   -1.457E+01   -1.441E+01   -1.425E+01
    -1.409E+01   -1.393E+01   -1.377E+01   -1.361E+01   -1.345E+01   -1.329E+01   -1.313E+01   -1.297E+01   -1.281E+01   -1.265E+01
    -1.249E+01   -1.233E+01   -1.217E+01   -1.202E+01   -1.186E+01   -1.170E+01   -1.155E+01   -1.139E+01   -1.123E+01   -1.108E+01
    -1.092E+01   -1.077E+01   -1.061E+01   -1.046E+01   -1.031E+01   -1.015E+01   -1.000E+01   -9.848E+00   -9.696E+00   -9.544E+00
    -9.393E+00   -9.243E+00   -9.092E+00   -8.943E+00   -8.793E+00   -8.644E+00   -8.496E+00   -8.348E+00   -8.200E+00   -8.053E+00
    -7.907E+00   -7.761E+00   -7.615E+00   -7.470E+00   -7.326E+00   -7.182E+00   -7.038E+00   -6.895E+00   -6.753E+00   -6.611E+00
    -6.469E+00   -6.328E+00   -6.188E+00   -6.048E+00   -5.908E+00   -5.770E+00   -5.631E+00   -5.493E+00   -5.356E+00   -5.219E+00
    -5.083E+00   -4.947E+00   -4.812E+00   -4.677E+00   -4.543E+00   -4.409E+00   -4.276E+00   -4.143E+00   -4.011E+00   -3.879E+00
    -3.748E+00   -3.618E+00   -3.487E+00   -3.358E+00   -3.229E+00   -3.100E+00   -2.972E+00   -2.844E+00   -2.717E+00   -2.591E+00
    -2.465E+00   -2.339E+00   -2.214E+00   -2.090E+00   -1.966E+00   -1.842E+00   -1.719E+00   -1.597E+00   -1.475E+00   -1.353E+00
    -1.232E+00   -1.112E+00   -9.918E-01   -8.724E-01   -7.534E-01   -6.350E-01   -5.170E-01   -3.995E-01   -2.826E-01   -1.661E-01
    -5.011E-02    6.538E-02    1.804E-01    2.949E-01    4.089E-01    5.225E-01    6.356E-01    7.482E-01    8.603E-01    9.719E-01
     1.083E+00    1.194E+00    1.304E+00    1.414E+00    1.523E+00    1.632E+00    1.740E+00    1.848E+00    1.956E+00    2.063E+00
     2.169E+00    2.275E+00    2.381E+00    2.486E+00    2.591E+00    2.695E+00    2.799E+00    2.902E+00    3.005E+00    3.108E+00
     3.210E+00    3.312E+00    3.413E+00    3.514E+00    3.614E+00    3.714E+00    3.813E+00    3.913E+00    4.011E+00    4.109E+00
     4.207E+00    4.305E+00    4.402E+00    4.498E+00    4.594E+00    4.690E+00    4.785E+00    4.880E+00    4.975E+00    5.069E+00
     5.163E+00    5.256E+00    5.349E+00    5.441E+00    5.533E+00    5.625E+00    5.716E+00    5.807E+00    5.897E+00    5.987E+00
     6.077E+00    6.166E+00    6.255E+00    6.343E+00    6.431E+00    6.519E+00    6.606E+00    6.693E+00    6.780E+00    6.866E+00
     6.951E+00    7.036E+00    7.121E+00    7.206E+00    7.290E+00    7.374E+00    7.457E+00    7.540E+00    7.622E+00    7.705E+00
     7.786E+00    7.868E+00    7.949E+00    8.029E+00    8.110E+00    8.190E+00    8.269E+00    8.348E+00    8.427E+00    8.505E+00
     8.584E+00    8.661E+00    8.739E+00    8.816E+00    8.892E+00    8.969E+00    9.045E+00    9.120E+00    9.196E+00    9.271E+00
     9.345E+00    9.420E+00    9.494E+00    9.567E+00    9.641E+00    9.714E+00    9.787E+00    9.859E+00    9.931E+00    1.000E+01
     1.007E+01    1.015E+01    1.022E+01    1.029E+01    1.036E+01    1.043E+01    1.050E+01    1.057E+01    1.064E+01    1.071E+01
     1.077E+01    1.084E+01    1.091E+01    1.098E+01    1.105E+01    1.111E+01    1.118E+01    1.125E+01    1.132E+01    1.138E+01
     1.145E+01    1.151E+01    1.158E+01    1.165E+01    1.171E+01    1.178E+01    1.184E+01    1.190E+01    1.197E+01    1.203E+01
     1.210E+01    1.216E+01    1.223E+01    1.229E+01    1.235E+01    1.241E+01    1.248E+01    1.254E+01    1.260E+01    1.266E+01
     1.273E+01    1.279E+01    1.285E+01    1.291E+01    1.297E+01    1.303E+01    1.310E+01    1.316E+01    1.322E+01    1.328E+01
     1.334E+01    1.340E+01    1.346E+01    1.352E+01    1.358E+01    1.364E+01    1.370E+01    1.376E+01    1.382E+01    1.388E+01
     1.394E+01    1.399E+01    1.405E+01    1.411E+01    1.417E+01    1.423E+01    1.429E+01    1.435E+01    1.440E+01    1.446E+01
     1.452E+01    1.458E+01    1.464E+01    1.469E+01    1.475E+01    1.481E+01    1.487E+01    1.493E+01    1.498E+01    1.504E+01
     1.510E+01    1.515E+01    1.521E+01    1.527E+01    1.533E+01    1.538E+01    1.544E+01    1.550E+01    1.555E+01    1.561E+01
     1.567E+01    1.572E+01    1.578E+01    1.584E+01    1.589E+01    1.595E+01    1.601E+01    1.606E+01    1.612E+01    1.618E+01
     1.623E+01    1.629E+01    1.634E+01    1.640E+01    1.646E+01    1.651E+01    1.657E+01    1.663E+01
 Ala      Conc. = 1.59E+02
