 LCModel (Version 6.3-1L) Copyright: S.W. Provencher.          Ref.: Magn. Reson. Med. 30:672-679 (1993).                
 Slice#3 Row#2 Col#7  PD_24_press_2_raw_act
 36 lines in following concentration table = NCONC+1
    Conc.  %SD /Cr+PCr  Metabolite                                         
  241.308 107%   0.681 Ala                                                 
   73.899  89%   0.208 Asp                                                 
  354.435  35%   1.000 Cr                                                  
    0.000 999%   0.000 PCr                                                 
   44.591  88%   0.126 GABA                                                
   39.066 101%   0.110 Glc                                                 
   59.961 850%   0.169 Gln                                                 
    0.000 999%   0.000 Glu                                                 
    0.000 999%   0.000 GPC                                                 
  121.736  37%   0.343 PCh                                                 
    0.000 999%   0.000 GSH                                                 
    0.000 999%   0.000 Ins                                                 
    0.000 999%   0.000 Lac                                                 
  761.799  30%   2.149 NAA                                                 
   64.051 373%   0.181 NAAG                                                
   13.005 100% 3.7E-02 Scyllo                                              
   62.831 104%   0.177 Tau                                                 
   65.601 117%   0.185 -CrCH2                                              
  121.736  37%   0.343 GPC+PCh                                             
  825.850  19%   2.330 NAA+NAAG                                            
  354.435  35%   1.000 Cr+PCr                                              
   59.961 850%   0.169 Glu+Gln                                             
    0.000 999%   0.000 Lip13a                                              
    0.000 999%   0.000 Lip13b                                              
    0.000 999%   0.000 Lip09                                               
 7.85E-03 999% 2.2E-05 MM09                                                
 5.07E-04 999% 1.4E-06 Lip20                                               
 1.57E-02 999% 4.4E-05 MM20                                                
    0.000 999%   0.000 MM12                                                
 9.53E-03 999% 2.7E-05 MM14                                                
 7.50E-02 999% 2.1E-04 MM17                                                
    0.000 999%   0.000 Lip13a+Lip13b                                       
 9.53E-03 999% 2.7E-05 MM14+Lip13a+Lip13b+MM12                             
 7.85E-03 999% 2.2E-05 MM09+Lip09                                          
 1.62E-02 999% 4.6E-05 MM20+Lip20                                          
   6 lines in following misc. output table
  FWHM = 0.061 ppm    S/N =   1                                            
  Data shift = 0.031 ppm                                                   
  Ph:  -9 deg      -7.3 deg/ppm                                            
  alphaB,S = 8.5E+01,   2.6E+01                                            
   14 spline knots.   Ns = 7(1)                                            
   2 inflections.     2 extrema                                            
  498 points on ppm-axis = NY
      4.000000     3.992357     3.984714     3.977070     3.969427     3.961784     3.954141     3.946497     3.938854     3.931211
      3.923568     3.915925     3.908281     3.900638     3.892995     3.885352     3.877708     3.870065     3.862422     3.854779
      3.847136     3.839492     3.831849     3.824206     3.816563     3.808919     3.801276     3.793633     3.785990     3.778347
      3.770703     3.763060     3.755417     3.747774     3.740130     3.732487     3.724844     3.717201     3.709558     3.701914
      3.694271     3.686628     3.678985     3.671341     3.663698     3.656055     3.648412     3.640769     3.633125     3.625482
      3.617839     3.610196     3.602552     3.594909     3.587266     3.579623     3.571980     3.564336     3.556693     3.549050
      3.541407     3.533763     3.526120     3.518477     3.510834     3.503191     3.495547     3.487904     3.480261     3.472618
      3.464974     3.457331     3.449688     3.442045     3.434402     3.426758     3.419115     3.411472     3.403829     3.396185
      3.388542     3.380899     3.373256     3.365613     3.357969     3.350326     3.342683     3.335040     3.327396     3.319753
      3.312110     3.304467     3.296824     3.289180     3.281537     3.273894     3.266251     3.258607     3.250964     3.243321
      3.235678     3.228034     3.220391     3.212748     3.205105     3.197462     3.189818     3.182175     3.174532     3.166889
      3.159245     3.151602     3.143959     3.136316     3.128673     3.121029     3.113386     3.105743     3.098100     3.090456
      3.082813     3.075170     3.067527     3.059884     3.052240     3.044597     3.036954     3.029311     3.021667     3.014024
      3.006381     2.998738     2.991095     2.983451     2.975808     2.968165     2.960522     2.952878     2.945235     2.937592
      2.929949     2.922306     2.914662     2.907019     2.899376     2.891733     2.884089     2.876446     2.868803     2.861160
      2.853517     2.845873     2.838230     2.830587     2.822944     2.815300     2.807657     2.800014     2.792371     2.784728
      2.777084     2.769441     2.761798     2.754155     2.746511     2.738868     2.731225     2.723582     2.715939     2.708295
      2.700652     2.693009     2.685366     2.677722     2.670079     2.662436     2.654793     2.647150     2.639506     2.631863
      2.624220     2.616577     2.608933     2.601290     2.593647     2.586004     2.578361     2.570717     2.563074     2.555431
      2.547788     2.540144     2.532501     2.524858     2.517215     2.509572     2.501928     2.494285     2.486642     2.478999
      2.471355     2.463712     2.456069     2.448426     2.440783     2.433139     2.425496     2.417853     2.410210     2.402566
      2.394923     2.387280     2.379637     2.371994     2.364350     2.356707     2.349064     2.341421     2.333777     2.326134
      2.318491     2.310848     2.303205     2.295561     2.287918     2.280275     2.272632     2.264988     2.257345     2.249702
      2.242059     2.234416     2.226772     2.219129     2.211486     2.203843     2.196199     2.188556     2.180913     2.173270
      2.165627     2.157983     2.150340     2.142697     2.135054     2.127410     2.119767     2.112124     2.104481     2.096838
      2.089194     2.081551     2.073908     2.066265     2.058621     2.050978     2.043335     2.035692     2.028049     2.020405
      2.012762     2.005119     1.997476     1.989833     1.982190     1.974546     1.966903     1.959260     1.951617     1.943974
      1.936331     1.928688     1.921045     1.913402     1.905759     1.898115     1.890472     1.882829     1.875186     1.867543
      1.859900     1.852257     1.844614     1.836971     1.829327     1.821684     1.814041     1.806398     1.798755     1.791112
      1.783469     1.775826     1.768183     1.760540     1.752896     1.745253     1.737610     1.729967     1.722324     1.714681
      1.707038     1.699395     1.691752     1.684108     1.676465     1.668822     1.661179     1.653536     1.645893     1.638250
      1.630607     1.622964     1.615321     1.607677     1.600034     1.592391     1.584748     1.577105     1.569462     1.561819
      1.554176     1.546533     1.538890     1.531246     1.523603     1.515960     1.508317     1.500674     1.493031     1.485388
      1.477745     1.470102     1.462458     1.454815     1.447172     1.439529     1.431886     1.424243     1.416600     1.408957
      1.401314     1.393671     1.386027     1.378384     1.370741     1.363098     1.355455     1.347812     1.340169     1.332526
      1.324883     1.317240     1.309596     1.301953     1.294310     1.286667     1.279024     1.271381     1.263738     1.256095
      1.248452     1.240808     1.233165     1.225522     1.217879     1.210236     1.202593     1.194950     1.187307     1.179664
      1.172021     1.164377     1.156734     1.149091     1.141448     1.133805     1.126162     1.118519     1.110876     1.103233
      1.095590     1.087946     1.080303     1.072660     1.065017     1.057374     1.049731     1.042088     1.034445     1.026802
      1.019158     1.011515     1.003872     0.996229     0.988586     0.980943     0.973300     0.965657     0.958014     0.950371
      0.942727     0.935084     0.927441     0.919798     0.912155     0.904512     0.896869     0.889226     0.881583     0.873940
      0.866296     0.858653     0.851010     0.843367     0.835724     0.828081     0.820438     0.812795     0.805152     0.797508
      0.789865     0.782222     0.774579     0.766936     0.759293     0.751650     0.744007     0.736364     0.728721     0.721077
      0.713434     0.705791     0.698148     0.690505     0.682862     0.675219     0.667576     0.659933     0.652290     0.644646
      0.637003     0.629360     0.621717     0.614074     0.606431     0.598788     0.591145     0.583502     0.575858     0.568215
      0.560572     0.552929     0.545286     0.537643     0.530000     0.522357     0.514714     0.507071     0.499427     0.491784
      0.484141     0.476498     0.468855     0.461212     0.453569     0.445925     0.438282     0.430639     0.422996     0.415353
      0.407710     0.400067     0.392424     0.384780     0.377137     0.369494     0.361851     0.354208     0.346565     0.338922
      0.331278     0.323635     0.315992     0.308349     0.300706     0.293063     0.285420     0.277777     0.270133     0.262490
      0.254847     0.247204     0.239561     0.231918     0.224275     0.216631     0.208988     0.201345
 NY phased data points follow
   6.25889E+00 -4.46608E+00 -4.06500E+00 -1.10164E+01 -2.59188E+01 -1.10510E+01 -9.29600E+00  5.06357E-02 -1.05800E+01 -1.23398E+01
  -1.98857E+01 -2.04120E+00 -3.58695E+00  1.63946E+00  9.25274E+00 -3.98864E+00 -7.74745E+00 -1.57316E+01 -1.96085E+01 -9.80518E+00
  -1.80913E+01 -1.73050E+01 -1.52237E+01 -3.00342E+00 -8.24731E+00 -6.87261E+00 -8.66542E+00 -1.75666E+01 -2.11929E+01 -1.72278E+01
  -3.07597E+01 -1.52986E+01 -1.56902E+01 -3.79839E+00 -2.57578E+01 -8.26013E+00 -1.49706E+01 -2.40884E+01 -1.10283E+01 -1.81808E+01
  -8.26906E+00 -5.65154E+00 -6.09179E+00 -1.13763E+01 -1.64578E+01 -1.22013E+01 -2.40554E+01 -1.44771E+01 -3.80941E+00 -4.09681E+00
   6.41741E+00 -1.59425E+01 -1.52610E+01 -2.72657E+01 -2.46635E+01 -3.97817E+00 -1.33192E+01 -2.22048E+01 -1.34953E+01 -1.33001E+01
  -2.12616E+01 -8.69824E+00 -2.19433E+01  1.27812E+01 -1.34977E+01 -1.04644E+01 -5.79090E+00 -1.06097E+01 -1.96192E+01 -3.82353E+00
  -1.22800E+01 -1.14366E+01 -1.87783E+01 -7.02189E+00 -5.37564E+00 -1.42888E+00 -2.18763E+01 -8.97736E+00 -4.89915E+00 -1.32406E+01
  -1.84362E+01 -9.94161E+00 -1.13677E+01 -1.02113E+01 -1.84146E+01  5.12203E+00 -1.35745E+01 -1.89405E+01 -1.31225E+01 -7.41719E+00
  -6.61547E-01 -2.31850E+01 -8.97514E-01  5.43572E+00  9.50317E-01 -1.82580E+01 -1.76048E+01 -8.65465E+00 -6.80421E+00 -7.18809E+00
  -2.76238E+00  4.35789E+00  9.95218E+00  1.86552E+00  2.06302E+00  7.75631E+00 -2.79616E+00  2.92147E+00 -1.07437E+01 -6.49763E+00
  -2.73837E+01 -1.88685E+01  3.95353E+00 -3.58157E+01 -1.42835E+00 -1.53155E+01 -1.52662E+01 -2.26459E+01 -3.02678E+01 -5.42457E+00
   6.35530E+00  2.65574E+00  4.57701E+00 -1.11970E+01  6.64139E+00  8.45139E+00  1.03915E+01  3.32249E+00 -5.44854E+00  1.07923E+01
  -4.52155E+00 -1.70820E+01 -7.64818E+00 -2.62411E+01  4.35360E+00 -3.85427E+00 -1.07507E+01 -1.28026E+01 -1.84717E+00 -1.38988E+01
  -3.82740E-01 -2.44938E+01 -2.12806E+00 -3.97245E+00 -4.25731E+00 -1.34945E+01 -6.55316E+00 -1.59650E+01 -5.88665E+00 -3.75183E+00
   1.12801E+01 -6.58860E+00 -1.20035E+00  1.17002E+00 -6.75911E+00  8.28188E+00 -1.94184E+00  6.74188E+00 -7.15748E+00 -2.47406E+01
  -7.57150E+00  1.96626E+00 -1.58496E+00 -1.09926E+01 -4.39895E+00 -1.85722E+01 -8.36872E+00 -1.90890E+00 -2.89892E+00 -1.07921E+01
  -1.10305E+01 -2.18947E+01 -9.85193E+00 -2.25017E+01 -5.51890E+00 -1.43639E+01 -1.23222E+01 -1.26602E+01 -4.79594E+00 -1.92501E+01
  -4.09159E+00 -1.65929E+01 -1.37710E+01 -1.73223E+00 -6.04967E+00 -1.06047E+01 -2.53149E-01 -7.40812E+00 -1.64480E+01 -1.10094E+01
  -6.47007E+00 -1.47572E+01 -1.41803E+01 -5.84327E+00 -1.04372E+01 -4.91992E-01  1.40568E+00 -1.76380E+01 -1.71855E+00 -8.58354E+00
  -7.97281E+00 -1.70168E+01  2.42208E-01 -1.83461E+00  4.80429E+00  6.30195E+00 -5.62947E+00 -2.80994E-01 -1.36841E+01 -2.36237E+00
  -4.77106E+00 -1.24541E+00  1.64275E+01 -1.69684E+00 -3.32558E+00 -1.19062E+01 -1.42771E+01  9.23822E+00 -1.05047E+01  5.78071E+00
  -1.50506E+01  1.49510E+00 -3.64694E+00 -2.75573E+00  6.98706E-03 -1.17939E+01  1.10830E+01  1.95508E+00  3.47168E+00 -1.46029E+01
   9.59525E-01 -5.82826E+00 -1.23640E+01 -7.24594E+00  1.05698E+01 -4.24303E+00 -1.21339E+01 -2.13885E+01  7.42623E+00 -9.37817E+00
  -7.93521E+00 -6.59879E+00 -1.86433E+01 -1.77128E+01 -8.16254E+00 -9.14718E+00 -1.40515E+01 -1.88532E+01 -1.45573E+01  1.59846E-01
  -3.19292E+00  2.56974E+00  2.63238E+00  5.83429E+00  5.39975E+00 -1.25147E+01 -1.07666E+01  2.79753E+01  1.28269E+01  2.59897E+01
   3.04271E+01 -2.27311E+00  2.20439E+01  1.31422E+01  1.95877E+01 -2.76135E+00 -1.36751E+00 -5.16155E+00 -3.18306E+00  1.69900E+00
  -3.08089E+00 -1.48138E+01 -1.65169E+00 -8.15786E+00 -8.31833E+00 -1.87444E+00  1.74217E+00 -6.37391E+00 -9.97393E+00  1.18102E+00
  -1.19666E+00 -4.98260E-01 -8.73034E+00 -4.56888E+00 -1.55337E+01 -4.78070E+00  1.01246E+01 -4.68089E+00 -6.15360E-01 -1.51085E+01
   5.23064E+00 -6.08537E+00  7.44387E-01 -1.30392E-02  9.06893E+00  1.48158E+01 -2.43876E+00 -1.23967E+00 -7.96631E-01  9.66759E+00
   5.04057E+00  1.81768E+01  1.12719E+01 -1.92001E+00  6.74723E+00  4.81457E+00  5.58234E-02  2.16969E+00  1.17333E+01  1.98657E+01
   4.60283E+00  2.29831E+01  7.52523E+00 -6.13108E+00  3.02983E+00 -3.47547E+00  1.56153E+01  8.28536E+00  9.95350E+00  1.47281E+01
   1.33966E+01  1.63306E+01  1.22854E+01  4.30865E+00 -1.55264E+01  8.05315E+00 -5.97258E+00  5.82765E+00 -4.99531E+00 -3.28906E+00
   9.59462E+00  1.66568E-01 -8.06302E+00  1.06369E+01 -1.15011E+00  1.41898E+00  5.73957E+00 -6.25611E-02  8.91553E+00 -9.95102E-01
  -1.49047E+01 -6.20593E+00 -1.22026E+01 -2.58146E+01 -1.11764E+01 -2.30306E+01 -2.67318E+01 -2.22909E+01 -1.70542E+00 -2.44207E+01
  -1.25555E+01 -1.35290E+01 -2.41729E+01 -1.97195E+01 -2.37753E+01 -1.43633E+01 -1.87540E+01 -2.54915E+01 -2.96514E+01 -7.31469E+00
  -5.31575E+00 -2.31564E+00 -5.91642E+00 -7.65588E+00 -2.60539E+01 -4.36381E+00 -6.25233E+00 -1.14575E+01 -1.26599E+00  5.19984E+00
  -3.52743E+00 -9.32636E+00 -1.16539E+01 -5.95180E+00 -1.40063E+01 -2.38401E+00 -4.37194E+00 -3.04145E+00  1.50301E+01 -1.38479E+01
  -6.15801E+00 -2.42632E+01 -1.50205E+01 -1.86186E+01 -3.13269E+01 -5.31102E+00 -3.72656E+01  5.06598E+00 -2.31740E+01 -2.21462E+01
  -6.53570E+00 -9.51816E+00  4.29413E+00 -8.61164E+00  4.88016E+00 -1.54366E+01  4.75490E+00 -6.97652E+00  8.08072E+00  4.40636E+00
  -4.11391E+00 -8.68074E+00 -8.10888E+00 -9.18586E+00 -4.95431E-01 -6.50740E+00 -6.03611E+00 -1.24462E+01  6.66034E+00 -1.20050E+01
  -1.89469E+01  4.79142E+00 -1.32807E+01 -1.08728E+01 -1.17184E+00 -3.92982E+00 -1.02382E+00  1.25115E+00 -8.19919E+00 -1.01805E+01
   2.96246E+00 -1.83630E+01 -1.89450E+00 -1.19974E+01  6.95209E+00 -4.15987E-01 -8.99648E+00 -2.23518E+01  5.45597E+00 -9.87801E-01
  -1.38836E+01 -1.24966E+01 -1.82150E+00 -9.84412E+00 -1.51363E+01 -7.15708E+00 -1.30008E+01  6.52425E-01 -7.81689E+00 -6.74306E+00
  -7.64942E+00  3.47038E+00 -1.36910E+01  9.36398E+00  3.04176E+00 -4.31816E+00 -9.65712E+00 -1.37823E+01 -1.36572E+01 -5.55086E+00
   1.30556E+01 -5.70389E+00  7.15252E+00  1.73141E+00  5.23395E+00  3.73353E+00  4.20641E+00 -6.39502E-01 -9.68110E+00 -1.20903E+01
  -1.62796E+01 -1.14746E+01  4.05507E+00 -8.35323E+00 -8.03608E+00 -2.21259E+01  2.90807E+00 -3.70387E+00 -1.21753E+01 -1.64626E+01
  -1.44824E+01  7.89864E+00 -9.76492E+00 -2.33658E+00 -3.95414E+00 -1.04577E+00  3.59744E+00 -5.64675E+00 -3.29418E+00  3.69414E+00
  -2.43519E+00 -4.85217E+00  8.15895E+00  2.50965E+00 -8.41381E+00  6.23006E+00 -7.46202E+00 -1.00140E+01 -5.47605E+00 -8.00859E+00
  -4.50076E+00 -1.79570E-01 -5.56544E+00 -1.18935E+01  1.29410E+00 -3.51459E+00  1.31927E+01  6.90351E+00
 NY points of the fit to the data follow
  -9.97782E+00 -9.94461E+00 -9.94522E+00 -9.93568E+00 -9.77118E+00 -9.40763E+00 -8.65290E+00 -7.27325E+00 -5.54093E+00 -4.08584E+00
  -3.35416E+00 -3.26428E+00 -3.41182E+00 -3.81185E+00 -4.93602E+00 -6.89405E+00 -8.99574E+00 -1.02996E+01 -1.04480E+01 -9.95699E+00
  -9.52824E+00 -9.27479E+00 -9.11759E+00 -9.09761E+00 -9.23455E+00 -9.48765E+00 -9.76941E+00 -1.00366E+01 -1.02533E+01 -1.03123E+01
  -1.01391E+01 -9.78296E+00 -9.38571E+00 -9.08487E+00 -8.90295E+00 -8.79107E+00 -8.78522E+00 -8.92506E+00 -9.16622E+00 -9.40315E+00
  -9.54580E+00 -9.59970E+00 -9.62572E+00 -9.63425E+00 -9.61495E+00 -9.56910E+00 -9.50632E+00 -9.44462E+00 -9.38220E+00 -9.30294E+00
  -9.21846E+00 -9.14901E+00 -9.09683E+00 -9.06145E+00 -9.02925E+00 -9.00007E+00 -8.99067E+00 -9.00506E+00 -9.03175E+00 -9.05182E+00
  -9.04467E+00 -9.01272E+00 -8.96507E+00 -8.91470E+00 -8.87678E+00 -8.85585E+00 -8.85015E+00 -8.85266E+00 -8.84879E+00 -8.83103E+00
  -8.79566E+00 -8.72834E+00 -8.63048E+00 -8.53030E+00 -8.45991E+00 -8.43764E+00 -8.45491E+00 -8.48926E+00 -8.53409E+00 -8.57058E+00
  -8.57509E+00 -8.50772E+00 -8.32588E+00 -8.06166E+00 -7.82064E+00 -7.68587E+00 -7.66482E+00 -7.71378E+00 -7.80423E+00 -7.95960E+00
  -8.19359E+00 -8.44183E+00 -8.59642E+00 -8.60112E+00 -8.47553E+00 -8.25583E+00 -7.77583E+00 -6.81350E+00 -5.31432E+00 -3.02791E+00
  -1.56882E-01  2.42553E+00  3.92161E+00  4.16798E+00  3.62808E+00  2.66006E+00  9.05774E-01 -1.96907E+00 -5.34385E+00 -7.93206E+00
  -8.95207E+00 -8.71730E+00 -8.26149E+00 -8.14695E+00 -8.13795E+00 -8.13118E+00 -8.11871E+00 -8.09590E+00 -8.03580E+00 -7.83067E+00
  -7.20414E+00 -6.09916E+00 -4.31849E+00 -1.74085E+00  1.04376E+00  3.13661E+00  4.03480E+00  3.90538E+00  3.23072E+00  1.94865E+00
  -4.11775E-01 -3.69249E+00 -6.78233E+00 -8.56552E+00 -8.83465E+00 -8.38447E+00 -8.12809E+00 -8.07706E+00 -8.04574E+00 -8.01880E+00
  -7.99590E+00 -7.96679E+00 -7.92768E+00 -7.89265E+00 -7.87554E+00 -7.87182E+00 -7.86239E+00 -7.84438E+00 -7.83680E+00 -7.85466E+00
  -7.89110E+00 -7.91774E+00 -7.91442E+00 -7.88845E+00 -7.87191E+00 -7.89208E+00 -7.96628E+00 -8.10103E+00 -8.25226E+00 -8.36084E+00
  -8.38156E+00 -8.31674E+00 -8.23524E+00 -8.18191E+00 -8.12997E+00 -8.04761E+00 -7.96400E+00 -7.96830E+00 -8.12418E+00 -8.38934E+00
  -8.64147E+00 -8.80288E+00 -8.89719E+00 -8.95206E+00 -8.97011E+00 -8.93036E+00 -8.85764E+00 -8.81873E+00 -8.80294E+00 -8.71898E+00
  -8.53564E+00 -8.33544E+00 -8.24385E+00 -8.28205E+00 -8.28698E+00 -8.08454E+00 -7.70690E+00 -7.34086E+00 -7.10356E+00 -6.95695E+00
  -6.76728E+00 -6.51430E+00 -6.29547E+00 -6.19827E+00 -6.24375E+00 -6.36539E+00 -6.46589E+00 -6.50235E+00 -6.48857E+00 -6.43587E+00
  -6.36640E+00 -6.29531E+00 -6.22088E+00 -6.15930E+00 -6.14103E+00 -6.20819E+00 -6.41739E+00 -6.75164E+00 -7.15207E+00 -7.54622E+00
  -7.83394E+00 -7.94407E+00 -7.88093E+00 -7.70881E+00 -7.49671E+00 -7.28989E+00 -7.07955E+00 -6.84863E+00 -6.62057E+00 -6.44107E+00
  -6.33536E+00 -6.27754E+00 -6.22231E+00 -6.18366E+00 -6.19080E+00 -6.24005E+00 -6.32722E+00 -6.44692E+00 -6.57129E+00 -6.66010E+00
  -6.68427E+00 -6.65102E+00 -6.59034E+00 -6.51269E+00 -6.40778E+00 -6.28219E+00 -6.16915E+00 -6.09824E+00 -6.07801E+00 -6.08627E+00
  -6.09524E+00 -6.10631E+00 -6.13411E+00 -6.18540E+00 -6.24852E+00 -6.28746E+00 -6.26929E+00 -6.18068E+00 -6.01822E+00 -5.75878E+00
  -5.40680E+00 -4.90707E+00 -4.14494E+00 -2.80171E+00 -5.90733E-01  2.50016E+00  7.03509E+00  1.27397E+01  1.78637E+01  2.06839E+01
   2.08055E+01  1.92748E+01  1.69824E+01  1.32422E+01  7.27764E+00  2.44244E-01 -5.20683E+00 -7.40124E+00 -6.95332E+00 -6.00895E+00
  -5.75623E+00 -5.72423E+00 -5.70281E+00 -5.67056E+00 -5.63575E+00 -5.61276E+00 -5.61006E+00 -5.62695E+00 -5.65485E+00 -5.68483E+00
  -5.71252E+00 -5.72980E+00 -5.72908E+00 -5.71175E+00 -5.68496E+00 -5.65534E+00 -5.62583E+00 -5.59661E+00 -5.56858E+00 -5.54451E+00
  -5.52526E+00 -5.50994E+00 -5.49692E+00 -5.48316E+00 -5.46828E+00 -5.45525E+00 -5.44492E+00 -5.43547E+00 -5.42415E+00 -5.40866E+00
  -5.38909E+00 -5.36748E+00 -5.34420E+00 -5.31871E+00 -5.29193E+00 -5.26518E+00 -5.23886E+00 -5.21215E+00 -5.18371E+00 -5.15300E+00
  -5.11948E+00 -5.08232E+00 -5.04063E+00 -4.99328E+00 -4.93850E+00 -4.87347E+00 -4.79367E+00 -4.69167E+00 -4.55342E+00 -4.34621E+00
  -4.02658E+00 -3.64533E+00 -3.22488E+00 -2.85738E+00 -2.80228E+00 -3.24100E+00 -4.12229E+00 -5.22895E+00 -6.30494E+00 -7.33324E+00
  -8.27765E+00 -8.72511E+00 -8.26291E+00 -6.97300E+00 -5.39402E+00 -4.09240E+00 -3.20017E+00 -2.52076E+00 -2.14086E+00 -2.30371E+00
  -2.95574E+00 -3.72635E+00 -4.23045E+00 -4.37632E+00 -4.39129E+00 -4.42064E+00 -4.45117E+00 -4.47599E+00 -4.49475E+00 -4.50816E+00
  -4.51708E+00 -4.52237E+00 -4.52478E+00 -4.52490E+00 -4.52308E+00 -4.51956E+00 -4.51456E+00 -4.50836E+00 -4.50121E+00 -4.49328E+00
  -4.48461E+00 -4.47524E+00 -4.46525E+00 -4.45478E+00 -4.44394E+00 -4.43278E+00 -4.42126E+00 -4.40937E+00 -4.39717E+00 -4.38478E+00
  -4.37223E+00 -4.35951E+00 -4.34657E+00 -4.33341E+00 -4.32010E+00 -4.30672E+00 -4.29326E+00 -4.27968E+00 -4.26594E+00 -4.25208E+00
  -4.23815E+00 -4.22420E+00 -4.21020E+00 -4.19609E+00 -4.18188E+00 -4.16759E+00 -4.15330E+00 -4.13900E+00 -4.12465E+00 -4.11021E+00
  -4.09568E+00 -4.08114E+00 -4.06661E+00 -4.05207E+00 -4.03748E+00 -4.02280E+00 -4.00808E+00 -3.99338E+00 -3.97869E+00 -3.96398E+00
  -3.94920E+00 -3.93437E+00 -3.91953E+00 -3.90472E+00 -3.88992E+00 -3.87508E+00 -3.86018E+00 -3.84525E+00 -3.83033E+00 -3.81544E+00
  -3.80055E+00 -3.78560E+00 -3.77061E+00 -3.75561E+00 -3.74064E+00 -3.72568E+00 -3.71070E+00 -3.69567E+00 -3.68061E+00 -3.66556E+00
  -3.65054E+00 -3.63553E+00 -3.62048E+00 -3.60538E+00 -3.59028E+00 -3.57521E+00 -3.56015E+00 -3.54509E+00 -3.52998E+00 -3.51484E+00
  -3.49971E+00 -3.48462E+00 -3.46954E+00 -3.45443E+00 -3.43927E+00 -3.42411E+00 -3.40897E+00 -3.39385E+00 -3.37873E+00 -3.36356E+00
  -3.34837E+00 -3.33319E+00 -3.31804E+00 -3.30290E+00 -3.28773E+00 -3.27253E+00 -3.25732E+00 -3.24213E+00 -3.22696E+00 -3.21180E+00
  -3.19660E+00 -3.18138E+00 -3.16615E+00 -3.15096E+00 -3.13578E+00 -3.12059E+00 -3.10536E+00 -3.09012E+00 -3.07489E+00 -3.05969E+00
  -3.04449E+00 -3.02927E+00 -3.01402E+00 -2.99876E+00 -2.98353E+00 -2.96832E+00 -2.95310E+00 -2.93785E+00 -2.92258E+00 -2.90732E+00
  -2.89209E+00 -2.87686E+00 -2.86162E+00 -2.84634E+00 -2.83106E+00 -2.81580E+00 -2.80055E+00 -2.78531E+00 -2.77003E+00 -2.75473E+00
  -2.73944E+00 -2.72418E+00 -2.70892E+00 -2.69364E+00 -2.67834E+00 -2.66302E+00 -2.64772E+00 -2.63243E+00 -2.61714E+00 -2.60183E+00
  -2.58649E+00 -2.57114E+00 -2.55581E+00 -2.54049E+00 -2.52515E+00 -2.50977E+00 -2.49437E+00 -2.47897E+00
 NY background values follow
    -1.018E+01   -1.017E+01   -1.015E+01   -1.013E+01   -1.012E+01   -1.010E+01   -1.009E+01   -1.007E+01   -1.006E+01   -1.004E+01
    -1.003E+01   -1.001E+01   -9.995E+00   -9.980E+00   -9.964E+00   -9.949E+00   -9.934E+00   -9.918E+00   -9.903E+00   -9.887E+00
    -9.872E+00   -9.856E+00   -9.841E+00   -9.825E+00   -9.810E+00   -9.794E+00   -9.779E+00   -9.763E+00   -9.748E+00   -9.732E+00
    -9.717E+00   -9.702E+00   -9.686E+00   -9.671E+00   -9.655E+00   -9.640E+00   -9.624E+00   -9.609E+00   -9.593E+00   -9.578E+00
    -9.562E+00   -9.547E+00   -9.531E+00   -9.516E+00   -9.500E+00   -9.485E+00   -9.470E+00   -9.454E+00   -9.439E+00   -9.423E+00
    -9.408E+00   -9.392E+00   -9.377E+00   -9.361E+00   -9.346E+00   -9.330E+00   -9.315E+00   -9.299E+00   -9.284E+00   -9.268E+00
    -9.253E+00   -9.238E+00   -9.222E+00   -9.207E+00   -9.191E+00   -9.176E+00   -9.160E+00   -9.145E+00   -9.129E+00   -9.114E+00
    -9.098E+00   -9.083E+00   -9.067E+00   -9.052E+00   -9.037E+00   -9.021E+00   -9.006E+00   -8.990E+00   -8.975E+00   -8.959E+00
    -8.944E+00   -8.928E+00   -8.913E+00   -8.897E+00   -8.882E+00   -8.866E+00   -8.851E+00   -8.835E+00   -8.820E+00   -8.805E+00
    -8.789E+00   -8.774E+00   -8.758E+00   -8.743E+00   -8.727E+00   -8.712E+00   -8.696E+00   -8.681E+00   -8.665E+00   -8.650E+00
    -8.634E+00   -8.619E+00   -8.603E+00   -8.588E+00   -8.573E+00   -8.557E+00   -8.542E+00   -8.526E+00   -8.511E+00   -8.495E+00
    -8.480E+00   -8.464E+00   -8.449E+00   -8.433E+00   -8.418E+00   -8.402E+00   -8.387E+00   -8.372E+00   -8.356E+00   -8.341E+00
    -8.325E+00   -8.310E+00   -8.294E+00   -8.279E+00   -8.263E+00   -8.248E+00   -8.232E+00   -8.217E+00   -8.201E+00   -8.186E+00
    -8.170E+00   -8.155E+00   -8.140E+00   -8.124E+00   -8.109E+00   -8.093E+00   -8.078E+00   -8.062E+00   -8.047E+00   -8.031E+00
    -8.016E+00   -8.000E+00   -7.985E+00   -7.969E+00   -7.954E+00   -7.938E+00   -7.923E+00   -7.908E+00   -7.892E+00   -7.877E+00
    -7.861E+00   -7.846E+00   -7.830E+00   -7.815E+00   -7.799E+00   -7.784E+00   -7.768E+00   -7.753E+00   -7.737E+00   -7.722E+00
    -7.707E+00   -7.691E+00   -7.676E+00   -7.660E+00   -7.645E+00   -7.629E+00   -7.614E+00   -7.598E+00   -7.583E+00   -7.567E+00
    -7.552E+00   -7.536E+00   -7.521E+00   -7.506E+00   -7.490E+00   -7.475E+00   -7.459E+00   -7.444E+00   -7.428E+00   -7.413E+00
    -7.397E+00   -7.382E+00   -7.366E+00   -7.351E+00   -7.335E+00   -7.320E+00   -7.304E+00   -7.289E+00   -7.274E+00   -7.258E+00
    -7.243E+00   -7.227E+00   -7.212E+00   -7.196E+00   -7.181E+00   -7.165E+00   -7.150E+00   -7.134E+00   -7.119E+00   -7.103E+00
    -7.088E+00   -7.073E+00   -7.057E+00   -7.042E+00   -7.026E+00   -7.011E+00   -6.995E+00   -6.980E+00   -6.964E+00   -6.949E+00
    -6.933E+00   -6.918E+00   -6.902E+00   -6.887E+00   -6.872E+00   -6.856E+00   -6.841E+00   -6.825E+00   -6.810E+00   -6.794E+00
    -6.779E+00   -6.763E+00   -6.748E+00   -6.732E+00   -6.717E+00   -6.701E+00   -6.686E+00   -6.671E+00   -6.655E+00   -6.640E+00
    -6.624E+00   -6.609E+00   -6.593E+00   -6.578E+00   -6.562E+00   -6.547E+00   -6.531E+00   -6.516E+00   -6.500E+00   -6.485E+00
    -6.470E+00   -6.454E+00   -6.439E+00   -6.423E+00   -6.408E+00   -6.392E+00   -6.377E+00   -6.361E+00   -6.346E+00   -6.330E+00
    -6.315E+00   -6.299E+00   -6.284E+00   -6.269E+00   -6.253E+00   -6.238E+00   -6.222E+00   -6.207E+00   -6.191E+00   -6.176E+00
    -6.160E+00   -6.145E+00   -6.129E+00   -6.114E+00   -6.098E+00   -6.083E+00   -6.068E+00   -6.052E+00   -6.037E+00   -6.021E+00
    -6.006E+00   -5.990E+00   -5.975E+00   -5.959E+00   -5.944E+00   -5.928E+00   -5.913E+00   -5.898E+00   -5.882E+00   -5.867E+00
    -5.851E+00   -5.836E+00   -5.820E+00   -5.805E+00   -5.789E+00   -5.774E+00   -5.758E+00   -5.743E+00   -5.727E+00   -5.712E+00
    -5.697E+00   -5.681E+00   -5.666E+00   -5.650E+00   -5.635E+00   -5.619E+00   -5.604E+00   -5.588E+00   -5.573E+00   -5.557E+00
    -5.542E+00   -5.527E+00   -5.511E+00   -5.496E+00   -5.480E+00   -5.465E+00   -5.449E+00   -5.434E+00   -5.418E+00   -5.403E+00
    -5.387E+00   -5.372E+00   -5.356E+00   -5.341E+00   -5.326E+00   -5.310E+00   -5.295E+00   -5.279E+00   -5.264E+00   -5.248E+00
    -5.233E+00   -5.217E+00   -5.202E+00   -5.186E+00   -5.171E+00   -5.156E+00   -5.140E+00   -5.125E+00   -5.109E+00   -5.094E+00
    -5.078E+00   -5.063E+00   -5.047E+00   -5.032E+00   -5.016E+00   -5.001E+00   -4.986E+00   -4.970E+00   -4.955E+00   -4.939E+00
    -4.924E+00   -4.908E+00   -4.893E+00   -4.877E+00   -4.862E+00   -4.846E+00   -4.831E+00   -4.816E+00   -4.800E+00   -4.785E+00
    -4.769E+00   -4.754E+00   -4.738E+00   -4.723E+00   -4.707E+00   -4.692E+00   -4.676E+00   -4.661E+00   -4.645E+00   -4.630E+00
    -4.615E+00   -4.599E+00   -4.584E+00   -4.568E+00   -4.553E+00   -4.537E+00   -4.522E+00   -4.506E+00   -4.491E+00   -4.475E+00
    -4.460E+00   -4.445E+00   -4.429E+00   -4.414E+00   -4.398E+00   -4.383E+00   -4.367E+00   -4.352E+00   -4.336E+00   -4.321E+00
    -4.305E+00   -4.290E+00   -4.275E+00   -4.259E+00   -4.244E+00   -4.228E+00   -4.213E+00   -4.197E+00   -4.182E+00   -4.166E+00
    -4.151E+00   -4.135E+00   -4.120E+00   -4.105E+00   -4.089E+00   -4.074E+00   -4.058E+00   -4.043E+00   -4.027E+00   -4.012E+00
    -3.996E+00   -3.981E+00   -3.965E+00   -3.950E+00   -3.935E+00   -3.919E+00   -3.904E+00   -3.888E+00   -3.873E+00   -3.857E+00
    -3.842E+00   -3.826E+00   -3.811E+00   -3.795E+00   -3.780E+00   -3.765E+00   -3.749E+00   -3.734E+00   -3.718E+00   -3.703E+00
    -3.687E+00   -3.672E+00   -3.656E+00   -3.641E+00   -3.625E+00   -3.610E+00   -3.595E+00   -3.579E+00   -3.564E+00   -3.548E+00
    -3.533E+00   -3.517E+00   -3.502E+00   -3.486E+00   -3.471E+00   -3.455E+00   -3.440E+00   -3.425E+00   -3.409E+00   -3.394E+00
    -3.378E+00   -3.363E+00   -3.347E+00   -3.332E+00   -3.316E+00   -3.301E+00   -3.285E+00   -3.270E+00   -3.255E+00   -3.239E+00
    -3.224E+00   -3.208E+00   -3.193E+00   -3.177E+00   -3.162E+00   -3.146E+00   -3.131E+00   -3.115E+00   -3.100E+00   -3.085E+00
    -3.069E+00   -3.054E+00   -3.038E+00   -3.023E+00   -3.007E+00   -2.992E+00   -2.976E+00   -2.961E+00   -2.945E+00   -2.930E+00
    -2.914E+00   -2.899E+00   -2.884E+00   -2.868E+00   -2.853E+00   -2.837E+00   -2.822E+00   -2.806E+00   -2.791E+00   -2.775E+00
    -2.760E+00   -2.744E+00   -2.729E+00   -2.714E+00   -2.698E+00   -2.683E+00   -2.667E+00   -2.652E+00   -2.636E+00   -2.621E+00
    -2.605E+00   -2.590E+00   -2.574E+00   -2.559E+00   -2.544E+00   -2.528E+00   -2.513E+00   -2.497E+00
 Ala      Conc. = 2.41E+02
