 LCModel (Version 6.3-1L) Copyright: S.W. Provencher.          Ref.: Magn. Reson. Med. 30:672-679 (1993).                
 Slice#1 Row#6 Col#7  PD_24_press_2_raw_act
 36 lines in following concentration table = NCONC+1
    Conc.  %SD /Cr+PCr  Metabolite                                         
    0.000 999%   0.000 Ala                                                 
  221.981 106%   0.132 Asp                                                 
  284.211 319%   0.168 Cr                                                  
 1.40E+03  64%   0.832 PCr                                                 
  200.000  71%   0.119 GABA                                                
  163.509  87% 9.7E-02 Glc                                                 
 5.93E+03  33%   3.513 Gln                                                 
 6.05E+03  37%   3.586 Glu                                                 
  481.831  17%   0.286 GPC                                                 
    0.000 999%   0.000 PCh                                                 
  650.964  57%   0.386 GSH                                                 
 3.78E+03  28%   2.237 Ins                                                 
 3.49E+03  39%   2.068 Lac                                                 
  233.023 225%   0.138 NAA                                                 
 2.52E+03  20%   1.494 NAAG                                                
   79.030  57% 4.7E-02 Scyllo                                              
  230.641 100%   0.137 Tau                                                 
    0.000 999%   0.000 -CrCH2                                              
  481.831  17%   0.286 GPC+PCh                                             
 2.75E+03  11%   1.632 NAA+NAAG                                            
 1.69E+03  13%   1.000 Cr+PCr                                              
 1.20E+04  31%   7.098 Glu+Gln                                             
    0.000 999%   0.000 Lip13a                                              
 1.71E+03  52%   1.016 Lip13b                                              
    0.000 999%   0.000 Lip09                                               
 2.03E+03  22%   1.201 MM09                                                
  443.988  87%   0.263 Lip20                                               
 3.51E+03  27%   2.081 MM20                                                
  586.550  50%   0.348 MM12                                                
 3.85E+03  17%   2.280 MM14                                                
 1.62E+03  30%   0.960 MM17                                                
 1.71E+03  52%   1.016 Lip13a+Lip13b                                       
 6.15E+03  17%   3.644 MM14+Lip13a+Lip13b+MM12                             
 2.03E+03  22%   1.201 MM09+Lip09                                          
 3.96E+03  24%   2.345 MM20+Lip20                                          
   6 lines in following misc. output table
  FWHM = 0.061 ppm    S/N =   3                                            
  Data shift = 0.031 ppm                                                   
  Ph:  40 deg      30.8 deg/ppm                                            
  alphaB,S = 1.5E+00,   5.8E+00                                            
   14 spline knots.   Ns = 9(1)                                            
  (16)15 infls.   (19)13 extrs.                                            
  498 points on ppm-axis = NY
      4.000000     3.992357     3.984714     3.977070     3.969427     3.961784     3.954141     3.946497     3.938854     3.931211
      3.923568     3.915925     3.908281     3.900638     3.892995     3.885352     3.877708     3.870065     3.862422     3.854779
      3.847136     3.839492     3.831849     3.824206     3.816563     3.808919     3.801276     3.793633     3.785990     3.778347
      3.770703     3.763060     3.755417     3.747774     3.740130     3.732487     3.724844     3.717201     3.709558     3.701914
      3.694271     3.686628     3.678985     3.671341     3.663698     3.656055     3.648412     3.640769     3.633125     3.625482
      3.617839     3.610196     3.602552     3.594909     3.587266     3.579623     3.571980     3.564336     3.556693     3.549050
      3.541407     3.533763     3.526120     3.518477     3.510834     3.503191     3.495547     3.487904     3.480261     3.472618
      3.464974     3.457331     3.449688     3.442045     3.434402     3.426758     3.419115     3.411472     3.403829     3.396185
      3.388542     3.380899     3.373256     3.365613     3.357969     3.350326     3.342683     3.335040     3.327396     3.319753
      3.312110     3.304467     3.296824     3.289180     3.281537     3.273894     3.266251     3.258607     3.250964     3.243321
      3.235678     3.228034     3.220391     3.212748     3.205105     3.197462     3.189818     3.182175     3.174532     3.166889
      3.159245     3.151602     3.143959     3.136316     3.128673     3.121029     3.113386     3.105743     3.098100     3.090456
      3.082813     3.075170     3.067527     3.059884     3.052240     3.044597     3.036954     3.029311     3.021667     3.014024
      3.006381     2.998738     2.991095     2.983451     2.975808     2.968165     2.960522     2.952878     2.945235     2.937592
      2.929949     2.922306     2.914662     2.907019     2.899376     2.891733     2.884089     2.876446     2.868803     2.861160
      2.853517     2.845873     2.838230     2.830587     2.822944     2.815300     2.807657     2.800014     2.792371     2.784728
      2.777084     2.769441     2.761798     2.754155     2.746511     2.738868     2.731225     2.723582     2.715939     2.708295
      2.700652     2.693009     2.685366     2.677722     2.670079     2.662436     2.654793     2.647150     2.639506     2.631863
      2.624220     2.616577     2.608933     2.601290     2.593647     2.586004     2.578361     2.570717     2.563074     2.555431
      2.547788     2.540144     2.532501     2.524858     2.517215     2.509572     2.501928     2.494285     2.486642     2.478999
      2.471355     2.463712     2.456069     2.448426     2.440783     2.433139     2.425496     2.417853     2.410210     2.402566
      2.394923     2.387280     2.379637     2.371994     2.364350     2.356707     2.349064     2.341421     2.333777     2.326134
      2.318491     2.310848     2.303205     2.295561     2.287918     2.280275     2.272632     2.264988     2.257345     2.249702
      2.242059     2.234416     2.226772     2.219129     2.211486     2.203843     2.196199     2.188556     2.180913     2.173270
      2.165627     2.157983     2.150340     2.142697     2.135054     2.127410     2.119767     2.112124     2.104481     2.096838
      2.089194     2.081551     2.073908     2.066265     2.058621     2.050978     2.043335     2.035692     2.028049     2.020405
      2.012762     2.005119     1.997476     1.989833     1.982190     1.974546     1.966903     1.959260     1.951617     1.943974
      1.936331     1.928688     1.921045     1.913402     1.905759     1.898115     1.890472     1.882829     1.875186     1.867543
      1.859900     1.852257     1.844614     1.836971     1.829327     1.821684     1.814041     1.806398     1.798755     1.791112
      1.783469     1.775826     1.768183     1.760540     1.752896     1.745253     1.737610     1.729967     1.722324     1.714681
      1.707038     1.699395     1.691752     1.684108     1.676465     1.668822     1.661179     1.653536     1.645893     1.638250
      1.630607     1.622964     1.615321     1.607677     1.600034     1.592391     1.584748     1.577105     1.569462     1.561819
      1.554176     1.546533     1.538890     1.531246     1.523603     1.515960     1.508317     1.500674     1.493031     1.485388
      1.477745     1.470102     1.462458     1.454815     1.447172     1.439529     1.431886     1.424243     1.416600     1.408957
      1.401314     1.393671     1.386027     1.378384     1.370741     1.363098     1.355455     1.347812     1.340169     1.332526
      1.324883     1.317240     1.309596     1.301953     1.294310     1.286667     1.279024     1.271381     1.263738     1.256095
      1.248452     1.240808     1.233165     1.225522     1.217879     1.210236     1.202593     1.194950     1.187307     1.179664
      1.172021     1.164377     1.156734     1.149091     1.141448     1.133805     1.126162     1.118519     1.110876     1.103233
      1.095590     1.087946     1.080303     1.072660     1.065017     1.057374     1.049731     1.042088     1.034445     1.026802
      1.019158     1.011515     1.003872     0.996229     0.988586     0.980943     0.973300     0.965657     0.958014     0.950371
      0.942727     0.935084     0.927441     0.919798     0.912155     0.904512     0.896869     0.889226     0.881583     0.873940
      0.866296     0.858653     0.851010     0.843367     0.835724     0.828081     0.820438     0.812795     0.805152     0.797508
      0.789865     0.782222     0.774579     0.766936     0.759293     0.751650     0.744007     0.736364     0.728721     0.721077
      0.713434     0.705791     0.698148     0.690505     0.682862     0.675219     0.667576     0.659933     0.652290     0.644646
      0.637003     0.629360     0.621717     0.614074     0.606431     0.598788     0.591145     0.583502     0.575858     0.568215
      0.560572     0.552929     0.545286     0.537643     0.530000     0.522357     0.514714     0.507071     0.499427     0.491784
      0.484141     0.476498     0.468855     0.461212     0.453569     0.445925     0.438282     0.430639     0.422996     0.415353
      0.407710     0.400067     0.392424     0.384780     0.377137     0.369494     0.361851     0.354208     0.346565     0.338922
      0.331278     0.323635     0.315992     0.308349     0.300706     0.293063     0.285420     0.277777     0.270133     0.262490
      0.254847     0.247204     0.239561     0.231918     0.224275     0.216631     0.208988     0.201345
 NY phased data points follow
   8.38870E+01  6.01747E+01  7.63286E+01  5.51445E+01  7.86712E+01  6.56619E+01  7.62579E+01  4.94522E+01  7.75948E+01  6.01111E+01
   6.01679E+01  6.78591E+01  6.61911E+01  6.91855E+01  8.78490E+01  5.21429E+01  8.45034E+01  6.15814E+01  7.18933E+01  5.50897E+01
   6.40093E+01  4.30042E+01  6.76773E+01  3.83907E+01  8.00298E+01  5.89215E+01  6.49331E+01  5.79743E+01  5.48524E+01  5.07877E+01
   4.00233E+01  3.50252E+01  7.82741E+01  6.59755E+01  6.52519E+01  3.76154E+01  4.59132E+01  5.47254E+01  5.12399E+01  3.99999E+01
   7.73435E+01  4.79417E+01  5.76550E+01  3.26423E+01  5.29360E+01  5.15536E+01  4.84975E+01  6.05613E+01  5.33064E+01  5.45054E+01
   4.65693E+01  2.13275E+01  6.03755E+01  4.62549E+01  3.51691E+01  5.32655E+01  3.99526E+01  3.13037E+01  5.06108E+01  3.21311E+01
   4.77085E+01  3.50684E+01  4.06052E+01  1.78641E+01  4.03361E+01  1.28406E+01  5.61736E+01  2.95342E+01  2.76352E+01  2.68941E+01
   4.33541E+01  2.92468E+01  4.00153E+01  1.13404E+01  4.26713E+01  2.32500E+01  4.02605E+01  1.62377E+01  3.41370E+01  2.60792E+01
   3.12194E+01  2.67550E+01  3.85896E+01  1.64063E+01  3.19765E+01  2.09768E+01  3.66985E+01  2.28926E+01  2.31502E+01  2.39164E+01
   2.71164E+01  1.49242E+01  4.55995E+01  3.17657E+01  3.10993E+01  3.05574E+01  3.36605E+01  3.19058E+01  3.16706E+01  3.23643E+01
   4.31750E+01  3.26256E+01  3.45223E+01  4.06004E+01  5.08971E+01  4.23848E+01  5.11846E+01  3.07394E+01  4.38201E+01  2.40846E+01
   2.82313E+01  2.69795E+01  1.66535E+01  2.31725E+01  7.64470E+00  1.44512E+01  6.93514E+00  1.07156E+01  1.73336E+01  1.65682E+01
   2.95573E+01  2.17419E+01  2.86959E+01  1.69781E+01  2.19581E+01  3.00652E+01  6.08597E+01  3.00751E+01  6.30595E+01  5.30457E+01
   3.46232E+01  4.54809E+01  4.19777E+01  1.48657E+01  3.34193E+01  3.79995E+01  4.15956E+01  1.87240E+01  5.88062E+00  3.92356E+00
   1.96108E+01  6.81753E+00 -2.94848E-01  1.16421E+01  4.27287E+01  9.89180E+00  1.94004E+01  9.76570E+00  1.56406E+01  1.49432E+01
   1.88759E+01  6.56380E+00  3.46702E+00  2.00262E+01  2.33979E+01  1.83275E+01 -7.93633E+00  4.12516E+00  3.51842E+01  6.50920E+00
   5.09320E+00  3.18976E+00  1.08768E+01 -1.00652E+00  1.44156E+01 -1.42810E+01  1.08357E+01 -9.28999E+00  3.07635E+00  8.06189E-01
   7.56507E+00  1.30547E+01  2.01039E-01  1.29106E+01  7.56248E+00  2.28231E-01 -9.93780E+00 -2.06420E+01  1.50642E+00 -6.48108E+00
  -9.12983E+00 -8.78009E+00 -6.65757E+00 -3.70642E+00 -8.67700E+00  4.13685E+00  1.33379E+01 -3.67147E+00 -3.93673E+00  1.02743E+01
   1.02026E+00 -1.60049E+01  9.28814E+00 -1.98596E+01 -1.56623E+01 -1.40236E+01  3.78655E+00 -1.61824E+01 -1.66629E+01 -2.29261E+01
  -1.21323E+01  1.35100E-01  4.12007E-01 -2.49115E-01 -7.18374E+00  7.53171E+00 -4.22040E+00 -5.79762E-02 -1.79875E+00 -1.80069E+01
   3.02494E-01 -5.25568E-01 -1.17185E+01 -5.29991E+00  5.10888E+00  3.78059E+00 -4.25775E-02  1.82018E+01 -6.80219E+00  9.72669E-01
  -9.40067E-01  5.45176E-02 -1.70290E+00 -1.61853E+01  4.26292E+00  8.98317E+00  3.31835E+00 -6.25951E-01  1.37134E+00  7.50208E-01
  -9.58828E+00  4.29531E+00  7.76460E+00  3.22489E+00  6.47623E+00  6.60784E+00 -9.05258E+00  8.46851E+00  1.33214E+01 -7.86689E-01
   1.42129E+00  2.24918E+00  1.63574E+00  3.27989E+00  2.45433E+01  2.36160E+01  2.92991E+01  1.69988E+01  2.35641E+01  2.09098E+01
   2.72618E+01  3.33168E+01  4.24471E+01  4.54153E+01  5.26082E+01  5.42175E+01  6.53371E+01  3.40639E+01  5.98365E+01  6.49633E+01
   6.23105E+01  6.41834E+01  4.50470E+01  2.95228E+01  6.25015E+00  1.63695E+01  3.01641E+01  1.02530E+01  4.20191E+00  2.79255E+00
   6.33203E+00  4.89857E+00  3.05576E+00  1.01520E+01 -3.50904E+00 -3.05862E+00  2.44676E+00  2.57358E+00 -1.46254E+00 -1.62319E+01
   9.88094E+00  1.08779E+01  1.58197E-01 -1.40841E-01 -2.08891E+00  7.87161E+00  1.28346E+01 -6.33082E-01  6.03297E-01  6.38915E+00
   3.23146E+00 -8.46705E+00  3.56695E+00  1.83638E-01  3.20464E+00  1.65429E+01  3.74939E+00  4.31220E+00 -2.79131E+00  6.58844E+00
  -9.32505E+00  4.86000E+00  1.53383E+00 -1.13913E+01 -1.02385E+01 -1.49862E+01 -1.87875E+01 -1.54978E+01 -1.96111E+01 -3.64765E+01
  -2.18775E+01 -2.87362E+01 -3.44709E+01 -3.12911E+01 -1.96155E+01 -3.02937E+01 -3.03654E+01 -2.67729E+01 -2.09837E+01 -4.00615E+01
  -2.24634E+01 -1.74724E+01 -2.43414E+01 -2.11712E+01 -3.83878E-01 -2.45579E+01  1.39951E+00 -2.03289E+00  1.95199E+01  1.17584E+01
   3.07779E+01  2.31359E+01  2.51391E+01  2.32956E+01  2.38341E+01  1.60811E+01  1.66942E+01  2.96804E+01  1.17172E+01  2.82911E+01
   1.70657E+01  2.61162E+01  3.48477E+01  3.18199E+01  1.90803E+01  7.24032E-01  2.20201E+01  2.01906E+01  1.68461E+01  9.67734E+00
   1.59973E+01  2.17898E+01  1.03071E+01 -2.50641E+00  3.47317E+00  1.28024E+00  3.81644E+00 -4.76194E+00  3.09654E+00 -1.88411E+01
   1.74078E+01  1.91577E+01 -2.57034E+00  9.35973E+00  3.74542E+00 -4.29226E+00  6.82149E-01 -1.02738E+00 -2.21202E+01 -2.03943E+01
  -1.54689E+01 -1.83722E+01 -2.43502E+01 -2.21482E+01 -9.96137E+00 -1.59905E+01 -2.75852E+01 -1.08597E+01 -1.01327E+01 -1.77686E+01
  -2.07633E+01 -1.07416E+01 -1.42929E+01 -3.32099E+01 -5.59757E+00 -1.61624E+01 -1.63476E+01 -2.20518E+01 -1.59866E+01 -2.28655E+01
  -1.00096E+00 -1.09283E+01 -1.19866E+01 -2.02316E+01 -2.01395E+01 -1.55616E+01  1.65770E+01 -5.12152E+00 -1.22612E+01 -1.20411E+01
  -1.70175E+01  1.62963E+00 -7.57449E+00 -2.30421E+01 -2.28214E+01 -1.69385E+01 -2.64583E+00 -6.31568E+00  3.40926E+00 -1.49399E+01
  -1.04560E+01 -3.33704E+01 -2.57415E+01 -1.53516E+01 -3.88358E+01 -2.39746E+01 -2.26988E+01 -3.72708E+01 -7.56080E+00 -3.48259E+01
  -1.62468E+01 -1.87434E+01 -4.02014E+01 -1.86350E+01 -3.47567E+01 -2.58557E+01 -3.80304E+01 -4.84258E+01 -2.35713E+01 -3.18139E+01
  -3.88935E+01 -3.90043E+01 -3.11737E+01 -5.10185E+01 -2.67801E+01 -3.90291E+01 -3.59593E+01 -3.16689E+01 -1.63541E+01 -2.46231E+01
  -3.05308E+01 -2.76311E+01 -2.15117E+01 -1.49780E+01 -3.48383E+01 -1.72138E+01 -3.78687E+01 -3.20540E+01 -3.87264E+01 -3.35873E+01
  -2.06020E+01 -2.98115E+01 -3.41551E+01 -2.11054E+01 -1.76334E+01 -2.60182E+01 -2.41595E+01 -2.01012E+01 -1.83450E+01 -9.73878E+00
  -2.57788E+00 -2.71218E+01 -1.03708E+01 -1.42349E+01 -9.38231E+00 -3.35846E+01 -1.78133E+01 -2.25752E+01 -3.20675E+01 -3.37111E+01
  -2.85081E+01 -3.57348E+01 -2.70358E+01 -1.64491E+01 -3.19571E+01 -3.79473E+01 -1.79406E+01 -2.17993E+01 -1.96228E+01 -2.06908E+01
  -1.99058E+01 -2.25952E+01 -1.19315E+01 -4.32251E+01 -3.00422E+01 -2.20149E+01 -1.90417E+01 -3.06570E+01 -9.63985E+00 -3.65104E+01
  -1.11692E+01 -1.75394E+01 -2.78191E+01 -2.16873E+01 -1.20985E+01 -1.77076E+01 -2.94044E+00 -2.54072E+01
 NY points of the fit to the data follow
   6.24852E+01  6.26851E+01  6.06928E+01  5.84820E+01  5.92927E+01  6.04647E+01  5.92166E+01  6.12239E+01  6.75201E+01  6.70508E+01
   6.64466E+01  6.78984E+01  6.52378E+01  6.66188E+01  6.74947E+01  6.09881E+01  6.11180E+01  5.98736E+01  5.76404E+01  5.14968E+01
   4.86569E+01  4.88698E+01  4.80760E+01  5.03146E+01  5.38137E+01  5.46392E+01  5.36629E+01  5.11355E+01  5.13302E+01  5.28741E+01
   5.35105E+01  5.69716E+01  5.91749E+01  5.66815E+01  5.86130E+01  5.71379E+01  5.20055E+01  5.28431E+01  5.33011E+01  5.45389E+01
   5.32147E+01  5.18346E+01  5.13608E+01  4.69343E+01  4.65911E+01  4.74169E+01  4.95913E+01  5.29216E+01  5.37568E+01  5.28417E+01
   5.13605E+01  5.04029E+01  5.02480E+01  4.78444E+01  4.35458E+01  4.20402E+01  4.17242E+01  3.97947E+01  3.73544E+01  3.60632E+01
   3.60650E+01  3.68756E+01  3.64665E+01  3.64675E+01  3.71824E+01  3.66807E+01  3.61286E+01  3.58041E+01  3.55308E+01  3.52873E+01
   3.43644E+01  3.47122E+01  3.41247E+01  3.35187E+01  3.39340E+01  3.35934E+01  3.37687E+01  3.40408E+01  3.24936E+01  3.09735E+01
   3.00393E+01  2.95200E+01  2.79603E+01  2.66018E+01  2.59837E+01  2.59041E+01  2.47122E+01  2.32340E+01  2.23843E+01  2.16824E+01
   2.15581E+01  2.16267E+01  2.10003E+01  2.26177E+01  2.77284E+01  2.91145E+01  2.98547E+01  3.08973E+01  3.32197E+01  3.50737E+01
   3.45979E+01  3.84643E+01  4.61796E+01  4.44073E+01  4.14026E+01  4.22585E+01  3.89166E+01  4.01478E+01  4.13098E+01  3.15306E+01
   2.96040E+01  2.95080E+01  2.89792E+01  2.23668E+01  1.79202E+01  1.73772E+01  1.77725E+01  2.09687E+01  2.66620E+01  2.69763E+01
   2.89400E+01  3.13389E+01  3.40543E+01  3.58146E+01  3.59145E+01  4.18174E+01  5.15638E+01  4.85533E+01  4.55244E+01  4.63418E+01
   4.24156E+01  4.50286E+01  4.48495E+01  3.28041E+01  3.05012E+01  2.95541E+01  2.78648E+01  1.81785E+01  1.36652E+01  1.26444E+01
   1.16364E+01  1.17576E+01  1.15091E+01  1.10398E+01  1.07388E+01  1.02675E+01  9.92078E+00  9.81600E+00  9.42555E+00  9.29509E+00
   8.77151E+00  8.13988E+00  7.22580E+00  6.25738E+00  5.49088E+00  5.16517E+00  4.66405E+00  4.38284E+00  4.35873E+00  3.24663E+00
   2.58593E+00  2.44853E+00  1.89027E+00  1.68794E+00  1.35229E+00  7.84548E-01  5.10257E-01  1.92239E-01 -2.59183E-01 -1.34629E+00
  -1.48926E+00 -1.14747E+00 -1.26384E+00 -1.43419E+00 -2.14317E+00 -2.58732E+00 -1.86815E+00 -1.76382E+00 -2.19609E+00 -2.08456E+00
  -2.00007E+00 -1.78779E+00 -1.37780E+00 -4.49590E-01 -3.02701E-01 -8.92002E-01 -2.86027E-01 -8.84340E-01 -1.62733E+00 -1.33770E+00
  -1.77990E+00 -1.37141E+00 -1.03042E+00 -6.81872E-01 -1.10233E-01 -5.39824E-01 -5.22383E-01  8.08168E-01  5.27729E-01  6.33103E-02
   9.40832E-01 -1.19746E+00 -1.87741E+00 -1.48730E+00  3.96497E-01  1.14852E+00  2.00468E-01  4.37270E+00  1.43477E+00 -7.83083E+00
  -6.12333E+00 -1.99575E+00 -6.23908E+00 -7.93169E+00 -6.94940E+00 -4.45864E+00  2.45721E+00  3.20797E+00  2.41144E+00  1.70864E+00
   6.58400E+00  9.24868E+00  1.33521E-01 -4.78336E-02  2.33890E+00  2.24927E+00 -7.13069E-01 -5.23067E+00 -1.83076E+00  5.17540E+00
   5.85467E+00  4.67463E+00  9.42553E+00  1.40855E+01  1.33373E+01  9.14585E+00  7.46241E+00  8.76546E+00  7.58010E+00  7.95551E+00
   8.18906E+00  5.25595E+00  4.09757E+00  6.51433E+00  6.93708E+00  4.45411E+00  1.10959E+01  1.98551E+01  1.84458E+01  2.32072E+01
   2.66413E+01  3.06596E+01  3.38366E+01  3.84677E+01  4.54112E+01  6.10965E+01  6.25070E+01  5.65048E+01  5.71330E+01  5.30184E+01
   5.51324E+01  5.65638E+01  3.98080E+01  3.22238E+01  3.02471E+01  2.95760E+01  1.76159E+01  5.87162E+00  3.36102E+00  3.65136E+00
   1.91305E+00 -4.23933E-01 -9.81232E-01 -1.60433E+00 -2.10597E+00 -2.61350E+00 -2.50476E+00 -2.67554E+00 -2.33921E+00 -2.09107E+00
  -2.04569E+00 -1.90854E+00 -1.43521E+00 -6.12088E-01 -2.25858E-01  3.15521E-02  3.57243E-01  1.05093E+00  1.80781E+00  2.14440E+00
   2.21882E+00  2.75861E+00  2.90139E+00  2.69402E+00  2.32216E+00  1.78467E+00  1.12592E+00  4.42885E-01 -6.51889E-01 -1.71595E+00
  -2.75219E+00 -3.78836E+00 -4.87446E+00 -6.05169E+00 -7.17923E+00 -8.05311E+00 -8.90575E+00 -9.69055E+00 -1.03510E+01 -1.08382E+01
  -1.12161E+01 -1.15167E+01 -1.17100E+01 -1.18045E+01 -1.17897E+01 -1.16536E+01 -1.13983E+01 -1.10136E+01 -1.04962E+01 -9.84040E+00
  -9.03472E+00 -8.07639E+00 -6.96121E+00 -5.68871E+00 -4.25726E+00 -2.67534E+00 -9.56535E-01  8.82356E-01  2.81977E+00  4.83005E+00
   6.88419E+00  8.95189E+00  1.10071E+01  1.30348E+01  1.50405E+01  1.70715E+01  1.92731E+01  2.20991E+01  2.64974E+01  2.80738E+01
   2.50030E+01  2.50257E+01  2.38659E+01  2.21692E+01  1.82754E+01  1.53580E+01  2.20545E+01  2.33250E+01  1.17717E+01  1.00469E+01
   8.96553E+00  7.06321E+00  8.24264E+00 -2.13586E+00 -3.29039E+00  9.73654E+00  7.75736E+00  5.07617E+00 -1.07045E+00 -5.54295E-01
   8.91042E+00  8.85108E+00  1.52618E+00  1.02165E+00  2.67704E+00  1.64137E+00 -5.87707E+00 -1.02954E+01 -1.27416E+01 -1.43300E+01
  -1.54363E+01 -1.62348E+01 -1.68242E+01 -1.72642E+01 -1.75917E+01 -1.78283E+01 -1.79871E+01 -1.80760E+01 -1.80998E+01 -1.80603E+01
  -1.79566E+01 -1.77868E+01 -1.75487E+01 -1.72416E+01 -1.68658E+01 -1.64221E+01 -1.59125E+01 -1.53405E+01 -1.47125E+01 -1.40383E+01
  -1.33304E+01 -1.26036E+01 -1.18744E+01 -1.11615E+01 -1.04857E+01 -9.86900E+00 -9.33311E+00 -8.89784E+00 -8.58053E+00 -8.39557E+00
  -8.35397E+00 -8.46229E+00 -8.72174E+00 -9.12794E+00 -9.67154E+00 -1.03392E+01 -1.11143E+01 -1.19777E+01 -1.29080E+01 -1.38827E+01
  -1.48800E+01 -1.58799E+01 -1.68644E+01 -1.78182E+01 -1.87283E+01 -1.95847E+01 -2.03805E+01 -2.11123E+01 -2.17789E+01 -2.23810E+01
  -2.29208E+01 -2.34016E+01 -2.38277E+01 -2.42044E+01 -2.45370E+01 -2.48307E+01 -2.50897E+01 -2.53185E+01 -2.55214E+01 -2.57024E+01
  -2.58647E+01 -2.60110E+01 -2.61434E+01 -2.62638E+01 -2.63742E+01 -2.64765E+01 -2.65716E+01 -2.66604E+01 -2.67436E+01 -2.68218E+01
  -2.68962E+01 -2.69672E+01 -2.70351E+01 -2.71001E+01 -2.71624E+01 -2.72224E+01 -2.72807E+01 -2.73373E+01 -2.73923E+01 -2.74457E+01
  -2.74975E+01 -2.75482E+01 -2.75980E+01 -2.76470E+01 -2.76949E+01 -2.77417E+01 -2.77875E+01 -2.78329E+01 -2.78777E+01 -2.79219E+01
  -2.79653E+01 -2.80079E+01 -2.80501E+01 -2.80919E+01 -2.81334E+01 -2.81743E+01 -2.82146E+01 -2.82544E+01 -2.82940E+01 -2.83333E+01
  -2.83723E+01 -2.84108E+01 -2.84488E+01 -2.84865E+01 -2.85240E+01 -2.85613E+01 -2.85983E+01 -2.86348E+01 -2.86710E+01 -2.87069E+01
  -2.87427E+01 -2.87782E+01 -2.88133E+01 -2.88480E+01 -2.88823E+01 -2.89165E+01 -2.89504E+01 -2.89839E+01 -2.90170E+01 -2.90495E+01
  -2.90817E+01 -2.91136E+01 -2.91451E+01 -2.91759E+01 -2.92059E+01 -2.92354E+01 -2.92642E+01 -2.92922E+01
 NY background values follow
     4.032E+01    4.009E+01    3.986E+01    3.963E+01    3.940E+01    3.918E+01    3.895E+01    3.872E+01    3.849E+01    3.826E+01
     3.803E+01    3.780E+01    3.757E+01    3.735E+01    3.712E+01    3.689E+01    3.666E+01    3.643E+01    3.620E+01    3.597E+01
     3.574E+01    3.552E+01    3.529E+01    3.506E+01    3.483E+01    3.460E+01    3.437E+01    3.415E+01    3.392E+01    3.369E+01
     3.346E+01    3.323E+01    3.301E+01    3.278E+01    3.255E+01    3.232E+01    3.209E+01    3.187E+01    3.164E+01    3.141E+01
     3.119E+01    3.096E+01    3.073E+01    3.051E+01    3.028E+01    3.005E+01    2.983E+01    2.960E+01    2.937E+01    2.915E+01
     2.892E+01    2.870E+01    2.847E+01    2.825E+01    2.802E+01    2.780E+01    2.757E+01    2.735E+01    2.712E+01    2.690E+01
     2.667E+01    2.645E+01    2.622E+01    2.600E+01    2.578E+01    2.555E+01    2.533E+01    2.511E+01    2.489E+01    2.466E+01
     2.444E+01    2.422E+01    2.400E+01    2.378E+01    2.355E+01    2.333E+01    2.311E+01    2.289E+01    2.267E+01    2.245E+01
     2.223E+01    2.201E+01    2.179E+01    2.157E+01    2.136E+01    2.114E+01    2.092E+01    2.070E+01    2.048E+01    2.027E+01
     2.005E+01    1.983E+01    1.962E+01    1.940E+01    1.918E+01    1.897E+01    1.875E+01    1.854E+01    1.832E+01    1.811E+01
     1.789E+01    1.768E+01    1.747E+01    1.725E+01    1.704E+01    1.683E+01    1.662E+01    1.640E+01    1.619E+01    1.598E+01
     1.577E+01    1.556E+01    1.535E+01    1.514E+01    1.493E+01    1.472E+01    1.451E+01    1.430E+01    1.410E+01    1.389E+01
     1.368E+01    1.347E+01    1.327E+01    1.306E+01    1.286E+01    1.265E+01    1.244E+01    1.224E+01    1.203E+01    1.183E+01
     1.163E+01    1.142E+01    1.122E+01    1.102E+01    1.081E+01    1.061E+01    1.041E+01    1.021E+01    1.001E+01    9.809E+00
     9.609E+00    9.409E+00    9.210E+00    9.011E+00    8.812E+00    8.614E+00    8.416E+00    8.219E+00    8.022E+00    7.826E+00
     7.629E+00    7.434E+00    7.239E+00    7.044E+00    6.849E+00    6.655E+00    6.462E+00    6.269E+00    6.076E+00    5.883E+00
     5.692E+00    5.500E+00    5.309E+00    5.119E+00    4.929E+00    4.739E+00    4.550E+00    4.361E+00    4.173E+00    3.985E+00
     3.797E+00    3.611E+00    3.424E+00    3.238E+00    3.053E+00    2.868E+00    2.683E+00    2.499E+00    2.315E+00    2.132E+00
     1.949E+00    1.767E+00    1.586E+00    1.404E+00    1.224E+00    1.043E+00    8.637E-01    6.845E-01    5.058E-01    3.275E-01
     1.498E-01   -2.738E-02   -2.041E-01   -3.803E-01   -5.560E-01   -7.311E-01   -9.058E-01   -1.080E+00   -1.253E+00   -1.427E+00
    -1.599E+00   -1.771E+00   -1.943E+00   -2.114E+00   -2.284E+00   -2.454E+00   -2.623E+00   -2.792E+00   -2.960E+00   -3.128E+00
    -3.295E+00   -3.462E+00   -3.628E+00   -3.793E+00   -3.958E+00   -4.123E+00   -4.287E+00   -4.450E+00   -4.613E+00   -4.775E+00
    -4.936E+00   -5.097E+00   -5.258E+00   -5.418E+00   -5.577E+00   -5.736E+00   -5.894E+00   -6.051E+00   -6.208E+00   -6.365E+00
    -6.520E+00   -6.676E+00   -6.830E+00   -6.984E+00   -7.138E+00   -7.291E+00   -7.443E+00   -7.595E+00   -7.746E+00   -7.896E+00
    -8.046E+00   -8.196E+00   -8.344E+00   -8.493E+00   -8.640E+00   -8.787E+00   -8.934E+00   -9.080E+00   -9.225E+00   -9.370E+00
    -9.514E+00   -9.657E+00   -9.800E+00   -9.943E+00   -1.008E+01   -1.023E+01   -1.037E+01   -1.051E+01   -1.065E+01   -1.078E+01
    -1.092E+01   -1.106E+01   -1.120E+01   -1.133E+01   -1.147E+01   -1.161E+01   -1.174E+01   -1.188E+01   -1.201E+01   -1.214E+01
    -1.227E+01   -1.241E+01   -1.254E+01   -1.267E+01   -1.280E+01   -1.293E+01   -1.306E+01   -1.319E+01   -1.331E+01   -1.344E+01
    -1.357E+01   -1.369E+01   -1.382E+01   -1.394E+01   -1.407E+01   -1.419E+01   -1.432E+01   -1.444E+01   -1.456E+01   -1.468E+01
    -1.480E+01   -1.492E+01   -1.504E+01   -1.516E+01   -1.528E+01   -1.540E+01   -1.551E+01   -1.563E+01   -1.575E+01   -1.586E+01
    -1.598E+01   -1.609E+01   -1.620E+01   -1.631E+01   -1.643E+01   -1.654E+01   -1.665E+01   -1.676E+01   -1.687E+01   -1.698E+01
    -1.708E+01   -1.719E+01   -1.730E+01   -1.741E+01   -1.751E+01   -1.762E+01   -1.772E+01   -1.782E+01   -1.793E+01   -1.803E+01
    -1.813E+01   -1.823E+01   -1.833E+01   -1.843E+01   -1.853E+01   -1.863E+01   -1.873E+01   -1.882E+01   -1.892E+01   -1.901E+01
    -1.911E+01   -1.920E+01   -1.930E+01   -1.939E+01   -1.948E+01   -1.958E+01   -1.967E+01   -1.976E+01   -1.985E+01   -1.994E+01
    -2.003E+01   -2.012E+01   -2.021E+01   -2.029E+01   -2.038E+01   -2.047E+01   -2.055E+01   -2.064E+01   -2.072E+01   -2.081E+01
    -2.089E+01   -2.097E+01   -2.105E+01   -2.114E+01   -2.122E+01   -2.130E+01   -2.138E+01   -2.146E+01   -2.154E+01   -2.162E+01
    -2.169E+01   -2.177E+01   -2.185E+01   -2.193E+01   -2.200E+01   -2.208E+01   -2.215E+01   -2.223E+01   -2.230E+01   -2.237E+01
    -2.245E+01   -2.252E+01   -2.259E+01   -2.266E+01   -2.273E+01   -2.281E+01   -2.288E+01   -2.294E+01   -2.301E+01   -2.308E+01
    -2.315E+01   -2.322E+01   -2.329E+01   -2.335E+01   -2.342E+01   -2.348E+01   -2.355E+01   -2.361E+01   -2.368E+01   -2.374E+01
    -2.381E+01   -2.387E+01   -2.393E+01   -2.399E+01   -2.406E+01   -2.412E+01   -2.418E+01   -2.424E+01   -2.430E+01   -2.436E+01
    -2.442E+01   -2.447E+01   -2.453E+01   -2.459E+01   -2.465E+01   -2.470E+01   -2.476E+01   -2.482E+01   -2.487E+01   -2.493E+01
    -2.498E+01   -2.503E+01   -2.509E+01   -2.514E+01   -2.519E+01   -2.525E+01   -2.530E+01   -2.535E+01   -2.540E+01   -2.545E+01
    -2.550E+01   -2.555E+01   -2.560E+01   -2.565E+01   -2.570E+01   -2.575E+01   -2.580E+01   -2.585E+01   -2.590E+01   -2.595E+01
    -2.599E+01   -2.604E+01   -2.609E+01   -2.613E+01   -2.618E+01   -2.623E+01   -2.627E+01   -2.632E+01   -2.636E+01   -2.641E+01
    -2.645E+01   -2.650E+01   -2.654E+01   -2.658E+01   -2.663E+01   -2.667E+01   -2.671E+01   -2.676E+01   -2.680E+01   -2.684E+01
    -2.689E+01   -2.693E+01   -2.697E+01   -2.701E+01   -2.705E+01   -2.709E+01   -2.714E+01   -2.718E+01   -2.722E+01   -2.726E+01
    -2.730E+01   -2.734E+01   -2.738E+01   -2.742E+01   -2.746E+01   -2.750E+01   -2.754E+01   -2.758E+01   -2.762E+01   -2.766E+01
    -2.770E+01   -2.774E+01   -2.778E+01   -2.782E+01   -2.786E+01   -2.790E+01   -2.794E+01   -2.797E+01   -2.801E+01   -2.805E+01
    -2.809E+01   -2.813E+01   -2.817E+01   -2.821E+01   -2.825E+01   -2.828E+01   -2.832E+01   -2.836E+01   -2.840E+01   -2.844E+01
    -2.848E+01   -2.852E+01   -2.855E+01   -2.859E+01   -2.863E+01   -2.867E+01   -2.871E+01   -2.875E+01
 Asp      Conc. = 2.22E+02
