 LCModel (Version 6.3-1L) Copyright: S.W. Provencher.          Ref.: Magn. Reson. Med. 30:672-679 (1993).                
 Slice#3 Row#4 Col#11  PD_24_press_2_raw_act
 36 lines in following concentration table = NCONC+1
    Conc.  %SD /Cr+PCr  Metabolite                                         
    0.000 999%   0.000 Ala                                                 
   76.057 153%   0.170 Asp                                                 
  446.497  17%   1.000 Cr                                                  
    0.000 999%   0.000 PCr                                                 
   39.181 181% 8.8E-02 GABA                                                
   67.585 104%   0.151 Glc                                                 
   53.150 686%   0.119 Gln                                                 
  767.776  53%   1.720 Glu                                                 
    0.000 999%   0.000 GPC                                                 
  203.597  14%   0.456 PCh                                                 
  113.139  93%   0.253 GSH                                                 
  415.904  82%   0.931 Ins                                                 
   47.272 423%   0.106 Lac                                                 
  800.828  17%   1.794 NAA                                                 
   42.132 357% 9.4E-02 NAAG                                                
   40.113  52% 9.0E-02 Scyllo                                              
  113.338 100%   0.254 Tau                                                 
  390.474  27%   0.875 -CrCH2                                              
  203.597  14%   0.456 GPC+PCh                                             
  842.960  13%   1.888 NAA+NAAG                                            
  446.497  17%   1.000 Cr+PCr                                              
  820.926  73%   1.839 Glu+Gln                                             
 3.66E+03  31%   8.196 Lip13a                                              
    0.000 999%   0.000 Lip13b                                              
 1.19E+03  41%   2.656 Lip09                                               
 3.12E+03  19%   6.987 MM09                                                
  748.144  44%   1.676 Lip20                                               
 1.33E+03  43%   2.975 MM20                                                
 1.84E+03  29%   4.128 MM12                                                
 1.36E+03  51%   3.036 MM14                                                
 1.73E+03  31%   3.864 MM17                                                
 3.66E+03  31%   8.196 Lip13a+Lip13b                                       
 6.86E+03  12%  15.360 MM14+Lip13a+Lip13b+MM12                             
 4.31E+03   8%   9.643 MM09+Lip09                                          
 2.08E+03  25%   4.651 MM20+Lip20                                          
   6 lines in following misc. output table
  FWHM = 0.061 ppm    S/N =   3                                            
  Data shift = 0.023 ppm                                                   
  Ph: -42 deg     -16.5 deg/ppm                                            
  alphaB,S = 8.5E+01,   1.0E+02                                            
   14 spline knots.   Ns = 8(1)                                            
   2 inflections.     1 extrema                                            
  498 points on ppm-axis = NY
      4.000000     3.992357     3.984714     3.977070     3.969427     3.961784     3.954141     3.946497     3.938854     3.931211
      3.923568     3.915925     3.908281     3.900638     3.892995     3.885352     3.877708     3.870065     3.862422     3.854779
      3.847136     3.839492     3.831849     3.824206     3.816563     3.808919     3.801276     3.793633     3.785990     3.778347
      3.770703     3.763060     3.755417     3.747774     3.740130     3.732487     3.724844     3.717201     3.709558     3.701914
      3.694271     3.686628     3.678985     3.671341     3.663698     3.656055     3.648412     3.640769     3.633125     3.625482
      3.617839     3.610196     3.602552     3.594909     3.587266     3.579623     3.571980     3.564336     3.556693     3.549050
      3.541407     3.533763     3.526120     3.518477     3.510834     3.503191     3.495547     3.487904     3.480261     3.472618
      3.464974     3.457331     3.449688     3.442045     3.434402     3.426758     3.419115     3.411472     3.403829     3.396185
      3.388542     3.380899     3.373256     3.365613     3.357969     3.350326     3.342683     3.335040     3.327396     3.319753
      3.312110     3.304467     3.296824     3.289180     3.281537     3.273894     3.266251     3.258607     3.250964     3.243321
      3.235678     3.228034     3.220391     3.212748     3.205105     3.197462     3.189818     3.182175     3.174532     3.166889
      3.159245     3.151602     3.143959     3.136316     3.128673     3.121029     3.113386     3.105743     3.098100     3.090456
      3.082813     3.075170     3.067527     3.059884     3.052240     3.044597     3.036954     3.029311     3.021667     3.014024
      3.006381     2.998738     2.991095     2.983451     2.975808     2.968165     2.960522     2.952878     2.945235     2.937592
      2.929949     2.922306     2.914662     2.907019     2.899376     2.891733     2.884089     2.876446     2.868803     2.861160
      2.853517     2.845873     2.838230     2.830587     2.822944     2.815300     2.807657     2.800014     2.792371     2.784728
      2.777084     2.769441     2.761798     2.754155     2.746511     2.738868     2.731225     2.723582     2.715939     2.708295
      2.700652     2.693009     2.685366     2.677722     2.670079     2.662436     2.654793     2.647150     2.639506     2.631863
      2.624220     2.616577     2.608933     2.601290     2.593647     2.586004     2.578361     2.570717     2.563074     2.555431
      2.547788     2.540144     2.532501     2.524858     2.517215     2.509572     2.501928     2.494285     2.486642     2.478999
      2.471355     2.463712     2.456069     2.448426     2.440783     2.433139     2.425496     2.417853     2.410210     2.402566
      2.394923     2.387280     2.379637     2.371994     2.364350     2.356707     2.349064     2.341421     2.333777     2.326134
      2.318491     2.310848     2.303205     2.295561     2.287918     2.280275     2.272632     2.264988     2.257345     2.249702
      2.242059     2.234416     2.226772     2.219129     2.211486     2.203843     2.196199     2.188556     2.180913     2.173270
      2.165627     2.157983     2.150340     2.142697     2.135054     2.127410     2.119767     2.112124     2.104481     2.096838
      2.089194     2.081551     2.073908     2.066265     2.058621     2.050978     2.043335     2.035692     2.028049     2.020405
      2.012762     2.005119     1.997476     1.989833     1.982190     1.974546     1.966903     1.959260     1.951617     1.943974
      1.936331     1.928688     1.921045     1.913402     1.905759     1.898115     1.890472     1.882829     1.875186     1.867543
      1.859900     1.852257     1.844614     1.836971     1.829327     1.821684     1.814041     1.806398     1.798755     1.791112
      1.783469     1.775826     1.768183     1.760540     1.752896     1.745253     1.737610     1.729967     1.722324     1.714681
      1.707038     1.699395     1.691752     1.684108     1.676465     1.668822     1.661179     1.653536     1.645893     1.638250
      1.630607     1.622964     1.615321     1.607677     1.600034     1.592391     1.584748     1.577105     1.569462     1.561819
      1.554176     1.546533     1.538890     1.531246     1.523603     1.515960     1.508317     1.500674     1.493031     1.485388
      1.477745     1.470102     1.462458     1.454815     1.447172     1.439529     1.431886     1.424243     1.416600     1.408957
      1.401314     1.393671     1.386027     1.378384     1.370741     1.363098     1.355455     1.347812     1.340169     1.332526
      1.324883     1.317240     1.309596     1.301953     1.294310     1.286667     1.279024     1.271381     1.263738     1.256095
      1.248452     1.240808     1.233165     1.225522     1.217879     1.210236     1.202593     1.194950     1.187307     1.179664
      1.172021     1.164377     1.156734     1.149091     1.141448     1.133805     1.126162     1.118519     1.110876     1.103233
      1.095590     1.087946     1.080303     1.072660     1.065017     1.057374     1.049731     1.042088     1.034445     1.026802
      1.019158     1.011515     1.003872     0.996229     0.988586     0.980943     0.973300     0.965657     0.958014     0.950371
      0.942727     0.935084     0.927441     0.919798     0.912155     0.904512     0.896869     0.889226     0.881583     0.873940
      0.866296     0.858653     0.851010     0.843367     0.835724     0.828081     0.820438     0.812795     0.805152     0.797508
      0.789865     0.782222     0.774579     0.766936     0.759293     0.751650     0.744007     0.736364     0.728721     0.721077
      0.713434     0.705791     0.698148     0.690505     0.682862     0.675219     0.667576     0.659933     0.652290     0.644646
      0.637003     0.629360     0.621717     0.614074     0.606431     0.598788     0.591145     0.583502     0.575858     0.568215
      0.560572     0.552929     0.545286     0.537643     0.530000     0.522357     0.514714     0.507071     0.499427     0.491784
      0.484141     0.476498     0.468855     0.461212     0.453569     0.445925     0.438282     0.430639     0.422996     0.415353
      0.407710     0.400067     0.392424     0.384780     0.377137     0.369494     0.361851     0.354208     0.346565     0.338922
      0.331278     0.323635     0.315992     0.308349     0.300706     0.293063     0.285420     0.277777     0.270133     0.262490
      0.254847     0.247204     0.239561     0.231918     0.224275     0.216631     0.208988     0.201345
 NY phased data points follow
   2.62684E+00  1.56139E+00  5.30996E-01  2.54164E-01  2.22894E+00 -5.11305E+00  1.02478E+00 -4.38391E+00  2.97733E+00  1.66831E+00
   7.37626E+00  4.26211E+00  2.58013E+00  1.18685E+01  7.48297E+00  5.17120E+00  2.25117E+00  6.13897E+00  9.13345E+00  2.59650E+00
   1.83480E+00 -5.97989E+00  6.92939E+00  7.14705E+00  6.11402E+00  3.69516E+00  8.09682E+00  3.59869E+00  3.51208E+00  3.77935E+00
  -1.60556E-01  7.23011E+00  8.97496E+00  8.52500E+00  1.12690E+01  6.87996E+00  1.31507E+01  5.22838E+00  8.04578E+00  9.57699E+00
   1.02010E+01  6.30087E+00  8.07671E+00  1.15658E+01 -4.39983E+00  4.61643E+00  1.22291E+01  8.13076E+00  7.92497E+00  1.24187E+01
   6.80959E+00  5.04396E+00  2.45373E+00  1.05372E+01  6.69440E+00  6.53169E+00  9.10470E+00  3.76534E+00  9.14785E+00  8.23298E+00
  -2.90825E+00  4.16200E+00  3.73989E+00  7.71784E+00  3.79433E+00  9.97095E+00  3.39127E+00 -3.66705E+00 -2.99992E-01 -5.99483E-01
   9.36379E+00  1.07290E+01  7.42191E+00  7.30122E+00  3.33102E+00  2.75004E+00  8.65109E+00  8.74340E+00  1.01418E+01  6.40832E+00
   7.73561E+00  4.80286E+00  8.98853E+00  8.38588E+00  6.27676E+00  1.36622E+01  8.63682E+00  1.70472E+00  1.06753E+00  1.00899E+01
   1.20249E+01  6.67865E+00  2.76575E+00  9.86809E+00  6.14274E+00 -2.80348E-01  1.31581E+01  3.59892E+00  1.20570E+00  3.91277E+00
   6.98225E+00  1.48845E+01  2.01061E+01  2.42813E+01  2.71313E+01  2.16795E+01  1.49622E+01  1.66164E+01  9.49087E+00  9.99337E+00
   1.07521E+01  9.06400E+00  6.24391E+00  4.40930E+00 -3.55608E+00  7.16132E+00  8.21588E+00 -2.45786E+00  1.07373E+01  8.93941E+00
   7.57328E+00  8.71287E+00  4.86295E+00  1.16220E+01  1.23874E+01  1.37687E+01  1.48627E+01  2.04899E+01  2.00842E+01  1.79825E+01
   1.68518E+01  1.67368E+01  1.24130E+01  1.22879E+01  9.18727E+00  8.64368E-01  8.45656E+00  4.31357E+00 -3.58552E+00  6.25988E+00
   6.77271E-01  2.31268E+00  4.60246E+00  1.07212E+01 -1.26644E-01 -2.59641E+00  6.84475E+00  2.16014E+00  1.11627E+01  7.82719E+00
   1.10677E+01  1.17930E+01 -1.26819E-01  2.87802E+00  4.22619E+00  5.24729E+00  7.18738E+00  2.94841E+00  9.00582E+00  1.04611E+01
   3.34658E+00 -1.28138E+00  1.78846E+00  1.16806E+01 -2.78909E+00  6.25833E+00  7.24129E+00 -6.11524E-02  1.35781E+00 -4.01453E-01
  -6.20439E+00  5.62235E+00  1.75808E+00  5.87684E+00  3.35195E-02  1.18055E+00  7.23473E+00 -2.89183E+00 -5.41702E+00  1.38811E+01
   3.40864E+00  1.04792E+01  2.48348E+00 -4.95753E+00  2.89468E+00 -6.46902E-01  1.54992E+00  2.89831E+00  1.83882E+00  3.26995E+00
   4.37633E+00  8.24932E+00  4.38265E+00  8.23862E+00  4.20483E+00  9.49094E+00 -4.22409E+00 -2.00929E+00 -3.55608E+00  5.25851E-01
   1.41179E-01  6.47922E+00  1.44320E+01  2.72116E+00  1.08497E+00  5.93559E-01  6.95237E+00  5.41572E+00  2.10797E+00  1.03283E+01
   8.15080E+00  1.02264E+01  5.09333E+00  6.53551E+00 -9.78451E-01  1.87845E+01  1.48003E+01  1.28759E+01  8.80913E+00  4.75666E+00
   2.11172E+00 -2.41388E+00  4.64020E+00  1.09808E+01  3.86076E+00  4.60467E+00  6.09057E+00  1.06546E+01 -1.98033E+00  3.00984E+00
   6.33907E+00  1.03129E+01  1.53746E+01  5.78798E+00  4.77494E+00  2.37084E+00  9.32185E+00  8.22153E+00  6.01645E+00  1.50020E+00
   1.46986E+00  9.71939E+00  6.96855E-01  8.46653E+00 -2.06966E-01  5.28592E+00  5.04143E+00  1.53487E+00  7.11736E+00  9.38879E-01
   8.75311E+00  8.95310E+00  8.03200E+00  1.40674E+01  8.83682E+00  1.55608E+01  1.77092E+01  2.01594E+01  2.23605E+01  3.44206E+01
   3.27970E+01  3.43859E+01  2.97205E+01  2.36945E+01  2.75890E+01  2.47443E+01  1.32167E+01  9.81506E+00  1.62139E+01  1.16989E+01
   1.05191E+01  1.16849E+01  5.93474E+00  3.24224E+00  1.02820E+01  1.23370E+01  7.10999E+00 -8.21126E-02  7.27016E+00  4.97208E+00
   5.16510E+00  9.03337E+00  4.01528E+00  1.08586E+01 -1.74538E+00  1.11402E+00  9.72330E+00 -2.70949E+00  6.87581E+00  7.92974E+00
   6.21950E+00  1.69513E+00 -1.65848E+00 -1.44223E+00  3.42742E+00 -2.65767E+00 -8.66225E-01 -2.42033E+00  6.57546E+00  3.09953E+00
   5.90300E+00  1.56964E+00 -5.19254E+00  4.71019E+00  3.94015E+00  9.50042E+00  8.87698E+00  1.15873E+01  1.12897E+01  1.36303E+01
   1.65248E+01  8.82754E+00  1.80310E+01  8.98014E+00  1.01272E+01  1.32242E+01  1.75575E+01  1.56051E+01  1.03673E+01  2.20936E+01
   1.71167E+01  1.51622E+01  1.75274E+01  1.70556E+01  1.86976E+01  2.11532E+01  2.16005E+01  2.36566E+01  1.98691E+01  2.64213E+01
   1.23755E+01  1.55981E+01  1.28976E+01  2.01772E+01  1.63409E+01  1.93793E+01  1.75368E+01  1.22222E+01  1.11321E+01  9.85642E+00
   1.34160E+01  1.40194E+01  1.35691E+01  1.90412E+01  1.80500E+01  1.87508E+01  1.11102E+01  2.23669E+01  1.11503E+01  1.51892E+01
   2.30590E+01  1.31762E+01  1.36386E+01  1.77822E+01  1.97216E+01  1.91041E+01  1.50110E+01  2.07764E+01  2.02349E+01  2.08731E+01
   2.07405E+01  2.06184E+01  1.58175E+01  2.58953E+01  2.46765E+01  1.80360E+01  2.04193E+01  2.27968E+01  2.08982E+01  2.37327E+01
   2.02258E+01  1.53436E+01  2.38086E+01  2.08324E+01  1.98260E+01  2.38439E+01  2.80473E+01  1.78777E+01  2.35914E+01  2.17541E+01
   2.24871E+01  2.09163E+01  2.87129E+01  1.53511E+01  2.33095E+01  2.82539E+01  2.95460E+01  1.59327E+01  1.71703E+01  1.84402E+01
   1.71684E+01  2.46530E+01  2.86263E+01  2.37050E+01  2.16413E+01  1.87481E+01  2.14746E+01  2.47580E+01  2.13595E+01  3.15742E+01
   2.48482E+01  3.01537E+01  2.23196E+01  2.76401E+01  2.15107E+01  2.46898E+01  2.83101E+01  3.06354E+01  3.08857E+01  1.93867E+01
   2.26865E+01  2.90701E+01  2.57346E+01  2.32326E+01  2.59998E+01  1.48994E+01  1.56564E+01  1.67392E+01  1.71278E+01  2.02999E+01
   8.20472E+00  1.43336E+01  1.35810E+01  1.58182E+01  1.55885E+01  1.02084E+01  7.79142E+00  3.01288E+00  7.48983E+00  1.11090E+01
   7.95197E+00  1.11023E+01  1.15365E+01  1.34984E+01  9.01038E+00  1.80719E+01  8.60830E+00  9.72999E+00  9.57565E+00  4.72260E+00
   1.17243E+00 -7.29511E-01  5.02514E+00  1.71093E+00  4.68668E+00 -4.82137E+00  2.08331E+00 -7.67380E+00 -1.46841E+00  1.38694E+00
   5.33603E-01  9.10410E-01 -2.31739E+00  2.90438E+00  3.96415E+00  4.64338E+00 -3.25375E+00  2.77780E-01 -4.50631E+00  5.19711E+00
  -1.37800E+00 -7.15188E+00 -2.92483E+00 -1.27159E+01 -4.28978E+00 -4.70255E+00 -2.74460E+00  1.13821E+00 -7.57287E+00  2.48552E+00
  -1.33639E+01  3.33015E-01 -2.45342E+00 -9.21984E-01  4.76063E+00 -7.04508E-01 -4.41331E+00  2.22961E+00  1.02240E+00 -1.44820E+00
   1.05216E+00 -2.78470E+00  6.36673E+00  1.03519E+01  4.66596E-01 -9.05982E+00 -5.97969E-01 -5.42994E+00  3.24173E+00  2.88216E+00
  -2.94269E-01  4.04100E+00  2.07183E+00 -5.07914E+00  2.88497E+00  6.35206E+00 -5.03724E+00 -3.83805E+00
 NY points of the fit to the data follow
   6.09243E+00  5.66483E+00  5.15296E+00  4.54796E+00  3.78283E+00  2.89885E+00  2.17004E+00  1.93842E+00  2.43750E+00  3.64433E+00
   5.24289E+00  6.77978E+00  7.89779E+00  8.46974E+00  8.55255E+00  8.30310E+00  7.90036E+00  7.46271E+00  6.95320E+00  6.34401E+00
   5.83588E+00  5.62236E+00  5.65188E+00  5.73262E+00  5.80845E+00  5.90547E+00  6.08062E+00  6.38356E+00  6.82949E+00  7.37764E+00
   7.92877E+00  8.35574E+00  8.56001E+00  8.48135E+00  8.11917E+00  7.55563E+00  6.92341E+00  6.31945E+00  5.79169E+00  5.41031E+00
   5.22890E+00  5.21887E+00  5.35882E+00  5.67138E+00  6.13705E+00  6.66387E+00  7.11170E+00  7.36023E+00  7.33974E+00  7.06230E+00
   6.63388E+00  6.17016E+00  5.74961E+00  5.41228E+00  5.18043E+00  5.05359E+00  5.03687E+00  5.14489E+00  5.34565E+00  5.54829E+00
   5.66993E+00  5.67876E+00  5.59200E+00  5.45177E+00  5.30306E+00  5.17988E+00  5.10026E+00  5.06888E+00  5.08399E+00  5.14677E+00
   5.25596E+00  5.39592E+00  5.54096E+00  5.65525E+00  5.71030E+00  5.68705E+00  5.58543E+00  5.43199E+00  5.27860E+00  5.17009E+00
   5.13357E+00  5.20064E+00  5.37957E+00  5.61708E+00  5.83071E+00  5.94488E+00  5.90923E+00  5.71719E+00  5.41786E+00  5.07765E+00
   4.74631E+00  4.45713E+00  4.22477E+00  4.04820E+00  3.94038E+00  4.01529E+00  4.45427E+00  5.30466E+00  6.74400E+00  8.98481E+00
   1.19967E+01  1.54018E+01  1.85481E+01  2.07267E+01  2.14972E+01  2.08515E+01  1.91302E+01  1.67990E+01  1.42703E+01  1.18499E+01
   9.67367E+00  7.76101E+00  6.19289E+00  5.19286E+00  4.78994E+00  4.60786E+00  4.48904E+00  4.40509E+00  4.38039E+00  4.52990E+00
   4.94333E+00  5.72769E+00  7.07812E+00  9.08832E+00  1.16068E+01  1.42358E+01  1.64353E+01  1.77343E+01  1.79404E+01  1.71711E+01
   1.57280E+01  1.39305E+01  1.20345E+01  1.02050E+01  8.51114E+00  7.00484E+00  5.84324E+00  5.22509E+00  5.01547E+00  4.96836E+00
   4.99746E+00  5.05535E+00  5.11165E+00  5.15381E+00  5.17483E+00  5.16189E+00  5.11172E+00  5.03003E+00  4.92587E+00  4.81332E+00
   4.70594E+00  4.61022E+00  4.53014E+00  4.45713E+00  4.38671E+00  4.31107E+00  4.21550E+00  4.08952E+00  3.93343E+00  3.77041E+00
   3.63664E+00  3.55722E+00  3.53171E+00  3.53424E+00  3.52682E+00  3.48071E+00  3.38860E+00  3.25916E+00  3.10563E+00  2.93779E+00
   2.75588E+00  2.54608E+00  2.31386E+00  2.08172E+00  1.88291E+00  1.74555E+00  1.66159E+00  1.60905E+00  1.56721E+00  1.52077E+00
   1.47405E+00  1.43949E+00  1.42090E+00  1.42456E+00  1.46553E+00  1.56084E+00  1.72518E+00  1.97311E+00  2.30068E+00  2.65823E+00
   2.97611E+00  3.20381E+00  3.33209E+00  3.37349E+00  3.34716E+00  3.27447E+00  3.17780E+00  3.08642E+00  3.05325E+00  3.11774E+00
   3.28345E+00  3.52700E+00  3.78517E+00  3.98249E+00  4.05040E+00  3.94493E+00  3.67402E+00  3.28782E+00  2.87587E+00  2.55598E+00
   2.45278E+00  2.66443E+00  3.20399E+00  3.96911E+00  4.75298E+00  5.30038E+00  5.41796E+00  5.02430E+00  4.17563E+00  3.06528E+00
   1.94842E+00  1.10377E+00  7.24049E-01  8.46025E-01  1.39617E+00  2.23916E+00  3.21673E+00  4.12614E+00  4.83566E+00  5.33872E+00
   5.68700E+00  5.92795E+00  6.08314E+00  6.20005E+00  6.34395E+00  6.50804E+00  6.63134E+00  6.67333E+00  6.62376E+00  6.51196E+00
   6.40468E+00  6.36831E+00  6.45529E+00  6.69000E+00  7.04101E+00  7.43656E+00  7.79745E+00  8.08006E+00  8.28469E+00  8.43518E+00
   8.58051E+00  8.81108E+00  9.31580E+00  1.02509E+01  1.17048E+01  1.39507E+01  1.72083E+01  2.13427E+01  2.58020E+01  2.97083E+01
   3.21552E+01  3.26383E+01  3.12321E+01  2.84378E+01  2.48772E+01  2.11000E+01  1.75102E+01  1.42598E+01  1.13615E+01  8.97779E+00
   7.44807E+00  6.71485E+00  6.28957E+00  5.99421E+00  5.77097E+00  5.57352E+00  5.37137E+00  5.16062E+00  4.94006E+00  4.71404E+00
   4.49112E+00  4.28007E+00  4.08698E+00  3.91962E+00  3.78306E+00  3.67494E+00  3.59045E+00  3.52605E+00  3.48003E+00  3.45199E+00
   3.44159E+00  3.44920E+00  3.47831E+00  3.53238E+00  3.61467E+00  3.72946E+00  3.88189E+00  4.07670E+00  4.31861E+00  4.61270E+00
   4.96362E+00  5.37482E+00  5.84886E+00  6.38672E+00  6.98734E+00  7.64792E+00  8.36364E+00  9.12737E+00  9.92950E+00  1.07581E+01
   1.15994E+01  1.24381E+01  1.32581E+01  1.40431E+01  1.47776E+01  1.54472E+01  1.60398E+01  1.65461E+01  1.69604E+01  1.72801E+01
   1.75063E+01  1.76436E+01  1.76991E+01  1.76827E+01  1.76055E+01  1.74800E+01  1.73185E+01  1.71331E+01  1.69350E+01  1.67338E+01
   1.65379E+01  1.63541E+01  1.61874E+01  1.60418E+01  1.59201E+01  1.58246E+01  1.57571E+01  1.57198E+01  1.57157E+01  1.57505E+01
   1.58267E+01  1.59450E+01  1.61074E+01  1.63068E+01  1.65238E+01  1.67336E+01  1.69155E+01  1.70677E+01  1.72064E+01  1.73598E+01
   1.75639E+01  1.78492E+01  1.82298E+01  1.86987E+01  1.92272E+01  1.97758E+01  2.03105E+01  2.08072E+01  2.12407E+01  2.15952E+01
   2.18737E+01  2.20811E+01  2.22185E+01  2.22836E+01  2.22796E+01  2.22205E+01  2.21099E+01  2.19429E+01  2.17199E+01  2.14451E+01
   2.11252E+01  2.07688E+01  2.03859E+01  1.99881E+01  1.95876E+01  1.91972E+01  1.88298E+01  1.84983E+01  1.82148E+01  1.79908E+01
   1.78365E+01  1.77607E+01  1.77705E+01  1.78712E+01  1.80658E+01  1.83554E+01  1.87384E+01  1.92108E+01  1.97662E+01  2.03955E+01
   2.10874E+01  2.18281E+01  2.26020E+01  2.33917E+01  2.41787E+01  2.49437E+01  2.56673E+01  2.63303E+01  2.69147E+01  2.74044E+01
   2.77849E+01  2.80449E+01  2.81757E+01  2.81721E+01  2.80320E+01  2.77567E+01  2.73507E+01  2.68211E+01  2.61778E+01  2.54324E+01
   2.45983E+01  2.36896E+01  2.27214E+01  2.17084E+01  2.06652E+01  1.96056E+01  1.85424E+01  1.74871E+01  1.64499E+01  1.54395E+01
   1.44630E+01  1.35260E+01  1.26328E+01  1.17862E+01  1.09881E+01  1.02390E+01  9.53869E+00  8.88626E+00  8.28011E+00  7.71825E+00
   7.19833E+00  6.71781E+00  6.27403E+00  5.86429E+00  5.48593E+00  5.13637E+00  4.81314E+00  4.51393E+00  4.23655E+00  3.97903E+00
   3.73951E+00  3.51634E+00  3.30799E+00  3.11311E+00  2.93045E+00  2.75890E+00  2.59747E+00  2.44528E+00  2.30151E+00  2.16546E+00
   2.03648E+00  1.91398E+00  1.79745E+00  1.68643E+00  1.58048E+00  1.47924E+00  1.38233E+00  1.28947E+00  1.20036E+00  1.11474E+00
   1.03238E+00  9.53056E-01  8.76566E-01  8.02739E-01  7.31401E-01  6.62409E-01  5.95609E-01  5.30880E-01  4.68093E-01  4.07145E-01
   3.47928E-01  2.90355E-01  2.34327E-01  1.79768E-01  1.26594E-01  7.47431E-02  2.41409E-02 -2.52680E-02 -7.35547E-02 -1.20765E-01
  -1.66959E-01 -2.12173E-01 -2.56463E-01 -2.99864E-01 -3.42427E-01 -3.84181E-01 -4.25169E-01 -4.65414E-01 -5.04958E-01 -5.43827E-01
  -5.82058E-01 -6.19669E-01 -6.56693E-01 -6.93144E-01 -7.29059E-01 -7.64453E-01 -7.99356E-01 -8.33777E-01
 NY background values follow
     5.240E+00    5.225E+00    5.211E+00    5.196E+00    5.181E+00    5.166E+00    5.151E+00    5.136E+00    5.121E+00    5.107E+00
     5.092E+00    5.077E+00    5.062E+00    5.047E+00    5.032E+00    5.018E+00    5.003E+00    4.988E+00    4.973E+00    4.958E+00
     4.943E+00    4.928E+00    4.914E+00    4.899E+00    4.884E+00    4.869E+00    4.854E+00    4.839E+00    4.825E+00    4.810E+00
     4.795E+00    4.780E+00    4.765E+00    4.750E+00    4.736E+00    4.721E+00    4.706E+00    4.691E+00    4.676E+00    4.661E+00
     4.646E+00    4.632E+00    4.617E+00    4.602E+00    4.587E+00    4.572E+00    4.557E+00    4.543E+00    4.528E+00    4.513E+00
     4.498E+00    4.483E+00    4.468E+00    4.453E+00    4.439E+00    4.424E+00    4.409E+00    4.394E+00    4.379E+00    4.364E+00
     4.350E+00    4.335E+00    4.320E+00    4.305E+00    4.290E+00    4.275E+00    4.260E+00    4.246E+00    4.231E+00    4.216E+00
     4.201E+00    4.186E+00    4.171E+00    4.157E+00    4.142E+00    4.127E+00    4.112E+00    4.097E+00    4.082E+00    4.067E+00
     4.053E+00    4.038E+00    4.023E+00    4.008E+00    3.993E+00    3.978E+00    3.964E+00    3.949E+00    3.934E+00    3.919E+00
     3.904E+00    3.889E+00    3.874E+00    3.860E+00    3.845E+00    3.830E+00    3.815E+00    3.800E+00    3.785E+00    3.771E+00
     3.756E+00    3.741E+00    3.726E+00    3.711E+00    3.696E+00    3.681E+00    3.667E+00    3.652E+00    3.637E+00    3.622E+00
     3.607E+00    3.592E+00    3.577E+00    3.563E+00    3.548E+00    3.533E+00    3.518E+00    3.503E+00    3.488E+00    3.474E+00
     3.459E+00    3.444E+00    3.429E+00    3.414E+00    3.399E+00    3.384E+00    3.370E+00    3.355E+00    3.340E+00    3.325E+00
     3.310E+00    3.295E+00    3.280E+00    3.266E+00    3.251E+00    3.236E+00    3.221E+00    3.206E+00    3.191E+00    3.177E+00
     3.162E+00    3.147E+00    3.132E+00    3.117E+00    3.102E+00    3.087E+00    3.073E+00    3.058E+00    3.043E+00    3.028E+00
     3.013E+00    2.998E+00    2.983E+00    2.969E+00    2.954E+00    2.939E+00    2.924E+00    2.909E+00    2.894E+00    2.880E+00
     2.865E+00    2.850E+00    2.835E+00    2.820E+00    2.805E+00    2.790E+00    2.776E+00    2.761E+00    2.746E+00    2.731E+00
     2.716E+00    2.701E+00    2.686E+00    2.672E+00    2.657E+00    2.642E+00    2.627E+00    2.612E+00    2.597E+00    2.582E+00
     2.568E+00    2.553E+00    2.538E+00    2.523E+00    2.508E+00    2.493E+00    2.479E+00    2.464E+00    2.449E+00    2.434E+00
     2.419E+00    2.404E+00    2.389E+00    2.375E+00    2.360E+00    2.345E+00    2.330E+00    2.315E+00    2.300E+00    2.285E+00
     2.271E+00    2.256E+00    2.241E+00    2.226E+00    2.211E+00    2.196E+00    2.181E+00    2.167E+00    2.152E+00    2.137E+00
     2.122E+00    2.107E+00    2.092E+00    2.077E+00    2.063E+00    2.048E+00    2.033E+00    2.018E+00    2.003E+00    1.988E+00
     1.973E+00    1.959E+00    1.944E+00    1.929E+00    1.914E+00    1.899E+00    1.884E+00    1.869E+00    1.855E+00    1.840E+00
     1.825E+00    1.810E+00    1.795E+00    1.780E+00    1.765E+00    1.751E+00    1.736E+00    1.721E+00    1.706E+00    1.691E+00
     1.676E+00    1.661E+00    1.647E+00    1.632E+00    1.617E+00    1.602E+00    1.587E+00    1.572E+00    1.557E+00    1.543E+00
     1.528E+00    1.513E+00    1.498E+00    1.483E+00    1.468E+00    1.453E+00    1.439E+00    1.424E+00    1.409E+00    1.394E+00
     1.379E+00    1.364E+00    1.349E+00    1.335E+00    1.320E+00    1.305E+00    1.290E+00    1.275E+00    1.260E+00    1.245E+00
     1.231E+00    1.216E+00    1.201E+00    1.186E+00    1.171E+00    1.156E+00    1.141E+00    1.127E+00    1.112E+00    1.097E+00
     1.082E+00    1.067E+00    1.052E+00    1.037E+00    1.023E+00    1.008E+00    9.929E-01    9.780E-01    9.631E-01    9.483E-01
     9.334E-01    9.186E-01    9.037E-01    8.888E-01    8.740E-01    8.591E-01    8.443E-01    8.294E-01    8.145E-01    7.997E-01
     7.848E-01    7.700E-01    7.551E-01    7.402E-01    7.254E-01    7.105E-01    6.956E-01    6.808E-01    6.659E-01    6.511E-01
     6.362E-01    6.213E-01    6.065E-01    5.916E-01    5.768E-01    5.619E-01    5.470E-01    5.322E-01    5.173E-01    5.025E-01
     4.876E-01    4.727E-01    4.579E-01    4.430E-01    4.282E-01    4.133E-01    3.984E-01    3.836E-01    3.687E-01    3.538E-01
     3.390E-01    3.241E-01    3.093E-01    2.944E-01    2.795E-01    2.647E-01    2.498E-01    2.349E-01    2.201E-01    2.052E-01
     1.904E-01    1.755E-01    1.606E-01    1.458E-01    1.309E-01    1.161E-01    1.012E-01    8.633E-02    7.146E-02    5.660E-02
     4.174E-02    2.688E-02    1.201E-02   -2.849E-03   -1.771E-02   -3.257E-02   -4.744E-02   -6.230E-02   -7.716E-02   -9.203E-02
    -1.069E-01   -1.218E-01   -1.366E-01   -1.515E-01   -1.663E-01   -1.812E-01   -1.961E-01   -2.109E-01   -2.258E-01   -2.407E-01
    -2.555E-01   -2.704E-01   -2.852E-01   -3.001E-01   -3.150E-01   -3.298E-01   -3.447E-01   -3.596E-01   -3.744E-01   -3.893E-01
    -4.042E-01   -4.190E-01   -4.339E-01   -4.487E-01   -4.636E-01   -4.785E-01   -4.933E-01   -5.082E-01   -5.231E-01   -5.379E-01
    -5.528E-01   -5.677E-01   -5.825E-01   -5.974E-01   -6.123E-01   -6.271E-01   -6.420E-01   -6.569E-01   -6.717E-01   -6.866E-01
    -7.014E-01   -7.163E-01   -7.312E-01   -7.460E-01   -7.609E-01   -7.758E-01   -7.906E-01   -8.055E-01   -8.204E-01   -8.352E-01
    -8.501E-01   -8.650E-01   -8.798E-01   -8.947E-01   -9.096E-01   -9.244E-01   -9.393E-01   -9.541E-01   -9.690E-01   -9.839E-01
    -9.987E-01   -1.014E+00   -1.028E+00   -1.043E+00   -1.058E+00   -1.073E+00   -1.088E+00   -1.103E+00   -1.118E+00   -1.133E+00
    -1.147E+00   -1.162E+00   -1.177E+00   -1.192E+00   -1.207E+00   -1.222E+00   -1.237E+00   -1.251E+00   -1.266E+00   -1.281E+00
    -1.296E+00   -1.311E+00   -1.326E+00   -1.341E+00   -1.356E+00   -1.370E+00   -1.385E+00   -1.400E+00   -1.415E+00   -1.430E+00
    -1.445E+00   -1.460E+00   -1.474E+00   -1.489E+00   -1.504E+00   -1.519E+00   -1.534E+00   -1.549E+00   -1.564E+00   -1.579E+00
    -1.593E+00   -1.608E+00   -1.623E+00   -1.638E+00   -1.653E+00   -1.668E+00   -1.683E+00   -1.697E+00   -1.712E+00   -1.727E+00
    -1.742E+00   -1.757E+00   -1.772E+00   -1.787E+00   -1.802E+00   -1.816E+00   -1.831E+00   -1.846E+00   -1.861E+00   -1.876E+00
    -1.891E+00   -1.906E+00   -1.920E+00   -1.935E+00   -1.950E+00   -1.965E+00   -1.980E+00   -1.995E+00   -2.010E+00   -2.025E+00
    -2.039E+00   -2.054E+00   -2.069E+00   -2.084E+00   -2.099E+00   -2.114E+00   -2.129E+00   -2.143E+00
 Asp      Conc. = 7.61E+01
