 LCModel (Version 6.3-1L) Copyright: S.W. Provencher.          Ref.: Magn. Reson. Med. 30:672-679 (1993).                
 Slice#3 Row#1 Col#5  PD_24_press_2_raw_act
 36 lines in following concentration table = NCONC+1
    Conc.  %SD /Cr+PCr  Metabolite                                         
  138.218 116%   0.539 Ala                                                 
   42.127  70%   0.164 Asp                                                 
   79.487 341%   0.310 Cr                                                  
  177.158 155%   0.690 PCr                                                 
   24.801  72% 9.7E-02 GABA                                                
   23.816  75% 9.3E-02 Glc                                                 
    0.000 999%   0.000 Gln                                                 
  236.295 148%   0.921 Glu                                                 
    0.000 999%   0.000 GPC                                                 
   80.433  36%   0.313 PCh                                                 
  124.054  91%   0.483 GSH                                                 
    0.000 999%   0.000 Ins                                                 
    0.000 999%   0.000 Lac                                                 
  341.608  26%   1.331 NAA                                                 
    0.000 999%   0.000 NAAG                                                
    7.924  75% 3.1E-02 Scyllo                                              
   38.911  76%   0.152 Tau                                                 
   18.083 206% 7.0E-02 -CrCH2                                              
   80.433  36%   0.313 GPC+PCh                                             
  341.608  26%   1.331 NAA+NAAG                                            
  256.645  32%   1.000 Cr+PCr                                              
  236.295 148%   0.921 Glu+Gln                                             
    0.000 999%   0.000 Lip13a                                              
    0.000 999%   0.000 Lip13b                                              
 6.32E-04 999% 2.5E-06 Lip09                                               
  484.700  33%   1.889 MM09                                                
    0.000 999%   0.000 Lip20                                               
    0.000 999%   0.000 MM20                                                
  112.135  91%   0.437 MM12                                                
  720.328  39%   2.807 MM14                                                
  474.044  46%   1.847 MM17                                                
    0.000 999%   0.000 Lip13a+Lip13b                                       
  832.463  36%   3.244 MM14+Lip13a+Lip13b+MM12                             
  484.701  33%   1.889 MM09+Lip09                                          
    0.000 999%   0.000 MM20+Lip20                                          
   6 lines in following misc. output table
  FWHM = 0.054 ppm    S/N =   1                                            
  Data shift = 0.038 ppm                                                   
  Ph: 119 deg     -20.7 deg/ppm                                            
  alphaB,S = 8.5E+01,   5.1E+01                                            
   14 spline knots.   Ns = 7(1)                                            
   2 inflections.     2 extrema                                            
  498 points on ppm-axis = NY
      4.000000     3.992357     3.984714     3.977070     3.969427     3.961784     3.954141     3.946497     3.938854     3.931211
      3.923568     3.915925     3.908281     3.900638     3.892995     3.885352     3.877708     3.870065     3.862422     3.854779
      3.847136     3.839492     3.831849     3.824206     3.816563     3.808919     3.801276     3.793633     3.785990     3.778347
      3.770703     3.763060     3.755417     3.747774     3.740130     3.732487     3.724844     3.717201     3.709558     3.701914
      3.694271     3.686628     3.678985     3.671341     3.663698     3.656055     3.648412     3.640769     3.633125     3.625482
      3.617839     3.610196     3.602552     3.594909     3.587266     3.579623     3.571980     3.564336     3.556693     3.549050
      3.541407     3.533763     3.526120     3.518477     3.510834     3.503191     3.495547     3.487904     3.480261     3.472618
      3.464974     3.457331     3.449688     3.442045     3.434402     3.426758     3.419115     3.411472     3.403829     3.396185
      3.388542     3.380899     3.373256     3.365613     3.357969     3.350326     3.342683     3.335040     3.327396     3.319753
      3.312110     3.304467     3.296824     3.289180     3.281537     3.273894     3.266251     3.258607     3.250964     3.243321
      3.235678     3.228034     3.220391     3.212748     3.205105     3.197462     3.189818     3.182175     3.174532     3.166889
      3.159245     3.151602     3.143959     3.136316     3.128673     3.121029     3.113386     3.105743     3.098100     3.090456
      3.082813     3.075170     3.067527     3.059884     3.052240     3.044597     3.036954     3.029311     3.021667     3.014024
      3.006381     2.998738     2.991095     2.983451     2.975808     2.968165     2.960522     2.952878     2.945235     2.937592
      2.929949     2.922306     2.914662     2.907019     2.899376     2.891733     2.884089     2.876446     2.868803     2.861160
      2.853517     2.845873     2.838230     2.830587     2.822944     2.815300     2.807657     2.800014     2.792371     2.784728
      2.777084     2.769441     2.761798     2.754155     2.746511     2.738868     2.731225     2.723582     2.715939     2.708295
      2.700652     2.693009     2.685366     2.677722     2.670079     2.662436     2.654793     2.647150     2.639506     2.631863
      2.624220     2.616577     2.608933     2.601290     2.593647     2.586004     2.578361     2.570717     2.563074     2.555431
      2.547788     2.540144     2.532501     2.524858     2.517215     2.509572     2.501928     2.494285     2.486642     2.478999
      2.471355     2.463712     2.456069     2.448426     2.440783     2.433139     2.425496     2.417853     2.410210     2.402566
      2.394923     2.387280     2.379637     2.371994     2.364350     2.356707     2.349064     2.341421     2.333777     2.326134
      2.318491     2.310848     2.303205     2.295561     2.287918     2.280275     2.272632     2.264988     2.257345     2.249702
      2.242059     2.234416     2.226772     2.219129     2.211486     2.203843     2.196199     2.188556     2.180913     2.173270
      2.165627     2.157983     2.150340     2.142697     2.135054     2.127410     2.119767     2.112124     2.104481     2.096838
      2.089194     2.081551     2.073908     2.066265     2.058621     2.050978     2.043335     2.035692     2.028049     2.020405
      2.012762     2.005119     1.997476     1.989833     1.982190     1.974546     1.966903     1.959260     1.951617     1.943974
      1.936331     1.928688     1.921045     1.913402     1.905759     1.898115     1.890472     1.882829     1.875186     1.867543
      1.859900     1.852257     1.844614     1.836971     1.829327     1.821684     1.814041     1.806398     1.798755     1.791112
      1.783469     1.775826     1.768183     1.760540     1.752896     1.745253     1.737610     1.729967     1.722324     1.714681
      1.707038     1.699395     1.691752     1.684108     1.676465     1.668822     1.661179     1.653536     1.645893     1.638250
      1.630607     1.622964     1.615321     1.607677     1.600034     1.592391     1.584748     1.577105     1.569462     1.561819
      1.554176     1.546533     1.538890     1.531246     1.523603     1.515960     1.508317     1.500674     1.493031     1.485388
      1.477745     1.470102     1.462458     1.454815     1.447172     1.439529     1.431886     1.424243     1.416600     1.408957
      1.401314     1.393671     1.386027     1.378384     1.370741     1.363098     1.355455     1.347812     1.340169     1.332526
      1.324883     1.317240     1.309596     1.301953     1.294310     1.286667     1.279024     1.271381     1.263738     1.256095
      1.248452     1.240808     1.233165     1.225522     1.217879     1.210236     1.202593     1.194950     1.187307     1.179664
      1.172021     1.164377     1.156734     1.149091     1.141448     1.133805     1.126162     1.118519     1.110876     1.103233
      1.095590     1.087946     1.080303     1.072660     1.065017     1.057374     1.049731     1.042088     1.034445     1.026802
      1.019158     1.011515     1.003872     0.996229     0.988586     0.980943     0.973300     0.965657     0.958014     0.950371
      0.942727     0.935084     0.927441     0.919798     0.912155     0.904512     0.896869     0.889226     0.881583     0.873940
      0.866296     0.858653     0.851010     0.843367     0.835724     0.828081     0.820438     0.812795     0.805152     0.797508
      0.789865     0.782222     0.774579     0.766936     0.759293     0.751650     0.744007     0.736364     0.728721     0.721077
      0.713434     0.705791     0.698148     0.690505     0.682862     0.675219     0.667576     0.659933     0.652290     0.644646
      0.637003     0.629360     0.621717     0.614074     0.606431     0.598788     0.591145     0.583502     0.575858     0.568215
      0.560572     0.552929     0.545286     0.537643     0.530000     0.522357     0.514714     0.507071     0.499427     0.491784
      0.484141     0.476498     0.468855     0.461212     0.453569     0.445925     0.438282     0.430639     0.422996     0.415353
      0.407710     0.400067     0.392424     0.384780     0.377137     0.369494     0.361851     0.354208     0.346565     0.338922
      0.331278     0.323635     0.315992     0.308349     0.300706     0.293063     0.285420     0.277777     0.270133     0.262490
      0.254847     0.247204     0.239561     0.231918     0.224275     0.216631     0.208988     0.201345
 NY phased data points follow
  -2.70900E+00 -1.72194E+01 -1.08958E+01 -2.64536E+01 -9.67171E+00  2.88667E-01  4.76030E+00 -6.93481E+00  6.74075E+00 -1.06342E+01
   4.27215E+00 -1.05218E+01  2.30124E-01 -1.84609E+00 -1.90119E+01 -4.25484E+00 -1.90153E+01 -8.07253E+00 -2.16718E+01 -1.54499E+01
  -7.92519E+00 -1.18862E+01 -5.76081E+00 -5.23920E+00 -1.75866E+00 -3.12398E+00 -1.45417E+01 -8.42866E+00 -2.01367E+00 -1.47994E+01
  -8.22199E+00  6.44864E+00  1.77331E+00 -2.15052E+01 -3.22941E+00 -2.04337E+01 -8.64694E+00 -1.27913E+01 -4.43154E-01 -9.46083E+00
   3.23570E+00 -1.69358E+01  7.58661E-01 -1.16748E+01 -1.30130E+01 -1.30328E+01  3.45162E+00 -1.26538E+01 -6.43523E+00 -3.81412E+00
  -2.77949E+00 -1.77854E+01 -1.93029E+01 -6.74739E+00 -5.53187E+00 -1.32812E+01  2.01212E+00 -6.02862E+00 -1.83256E+01 -4.50804E+00
  -1.20539E+01 -2.52601E+00 -6.83461E+00 -1.13990E+01 -1.49163E+00 -1.05667E+01 -4.08012E+00 -1.78668E+01 -9.99696E+00 -1.32964E+01
  -1.79689E+01 -7.28821E+00 -1.08643E+01 -1.61083E+01 -6.85807E+00 -1.28803E+01 -1.49276E+01 -3.70145E+00 -9.64876E+00 -9.33473E+00
  -7.82701E+00 -1.23614E+01  4.34069E+00 -4.15014E+00 -1.30032E+01 -1.30999E+01 -8.38680E+00 -3.85630E+00 -1.26026E+01 -2.03397E+01
  -8.68787E-01 -9.19738E+00 -9.30209E+00 -2.81713E+00  1.54726E+00  1.60392E+00 -4.35321E+00 -6.79504E+00  3.69633E+00  2.29472E+00
  -3.11454E+00  1.71376E+00 -1.71443E+00  5.95307E-01  5.34139E+00 -4.60487E+00 -7.93260E-01 -6.42277E+00 -9.08268E+00 -1.08319E+01
  -9.72254E+00 -1.82229E+01  7.60534E+00 -1.34459E+01 -8.92338E+00  3.87331E+00 -4.51875E+00 -5.68063E+00  1.03567E+00 -6.90260E+00
  -3.84492E+00 -1.25080E+01  1.41928E+00 -5.14643E+00  3.94476E-01  1.83218E+00  5.63396E+00  8.09254E-01 -1.07913E+00 -2.09026E+00
   7.47663E+00 -3.27837E+00 -9.27880E+00 -1.45924E+01 -6.35855E+00 -4.03541E+00 -3.72245E+00 -8.07340E+00 -6.26346E+00  2.57478E+00
  -9.47616E+00 -5.47841E+00  3.81014E-01 -7.57620E+00  4.22747E+00 -8.15504E+00 -3.52523E+00 -1.25854E+01 -7.10859E+00 -7.97630E-01
  -1.14804E+01 -1.01010E+01 -6.19780E+00  3.03459E+00 -1.06212E+01 -1.12620E+01 -5.76362E+00 -4.43516E+00  5.46506E+00 -8.70592E+00
  -3.80858E+00 -8.91295E+00 -1.68402E+01 -1.03897E+01  2.29831E+00 -1.08040E+01 -3.95947E-01 -7.46438E+00 -3.35113E+00 -3.72303E+00
  -6.71228E+00  7.04166E+00 -4.23084E+00 -6.96605E+00 -9.98700E+00 -1.64232E+00 -1.60298E+01 -9.97187E+00 -6.88787E+00 -9.86639E+00
  -3.69204E+00  8.21111E-01 -1.27059E+01 -4.16072E+00 -8.94655E-01 -3.97028E+00 -7.85462E+00 -7.34033E+00  3.60589E+00 -9.79754E+00
  -2.29814E+00  7.71780E+00 -2.37270E+00 -3.16482E+00 -7.05078E+00  5.46917E-01 -7.91493E+00 -3.08174E+00  2.44588E+00 -5.38791E+00
  -2.10418E+01 -1.02837E+01 -9.48672E+00 -8.95546E+00 -1.31372E+01 -4.43902E+00 -4.94990E+00 -3.71552E+00  8.02009E-01  2.99539E+00
  -1.10806E+00 -1.21841E+01 -8.07865E+00  2.70499E+00  7.94990E+00 -2.81827E+00 -9.82245E+00 -8.72684E-01 -4.31613E+00 -8.01219E+00
  -1.38436E+01 -5.45001E+00 -2.74086E+00 -5.89638E+00  9.84226E-01 -1.20693E+01 -5.55849E+00 -8.69645E+00  1.57707E+00 -3.64711E+00
  -1.23487E+01 -1.92469E+01 -8.30228E+00  4.26850E+00 -6.29542E+00 -7.58782E+00 -3.76937E+00 -8.52478E+00 -9.87294E+00 -1.45373E+01
  -1.70733E+01 -1.11828E+01 -5.16172E-01 -1.57994E+01 -1.43213E+01 -3.37496E+00 -7.69779E+00 -1.47409E+01 -1.10617E+01  4.09480E-01
  -7.38829E+00 -1.35358E+01 -1.11911E+01 -1.32153E+01 -2.50332E+00  3.87160E+00  9.22193E+00  9.24435E+00  1.60293E+01  3.89722E+00
   1.58728E+00  1.46254E+01  4.64936E+00 -4.94611E+00 -6.72471E+00 -4.19597E+00 -6.61423E+00 -1.42896E+01 -1.24618E+01 -1.12451E+01
  -7.00807E+00 -1.15949E+01 -1.56675E+01 -1.13716E+01 -1.42555E+01 -2.01726E+00  7.16254E+00 -8.46760E+00 -5.83635E+00 -7.63367E+00
   2.75920E+00 -3.35185E+00 -2.96485E+00 -8.90684E-02 -1.00966E+00 -2.82705E+00  1.28451E+00  6.53052E+00 -7.42305E+00  2.83075E+00
  -8.41826E+00  1.41555E+01 -2.60312E+00 -4.51507E+00 -7.10997E+00 -7.41439E-01  4.36721E+00 -9.33750E-01 -9.60718E+00 -3.10500E+00
   7.73288E+00 -2.92914E+00  3.52766E+00  4.88591E+00 -8.60924E+00  5.24915E+00  8.35449E+00  1.69270E+00  8.92940E+00  6.35768E+00
   5.67959E+00  7.77532E+00  1.32011E+00  2.56821E+00 -6.09733E+00  7.56587E+00  8.02521E+00  5.47833E+00  7.88091E+00 -2.00762E+00
  -8.53141E+00  1.04000E+00 -4.05719E+00 -2.56543E+00  2.08110E+00 -1.64806E+00 -9.59352E+00 -8.49193E+00  9.23734E+00 -3.84879E+00
  -5.96059E+00  9.62602E+00  2.67236E+00  1.75242E-01  8.82654E+00  7.85627E-01  4.16473E+00  1.45608E+01  2.86923E+00  4.85172E+00
   3.99175E+00  1.02697E+01  3.40163E+00  1.03508E+00  8.46168E+00  1.07041E+01  5.99299E+00 -1.68662E+00  2.65931E+00  4.19496E-01
   9.97027E+00  1.31251E-01 -1.35725E+01 -8.26093E+00 -1.02349E+01  4.19616E+00  4.76333E-01 -1.01470E+01 -9.33355E+00 -2.82874E+00
  -1.80510E+01 -3.80263E+00 -9.43164E-01 -4.84430E+00 -1.17942E+01 -1.06160E+00 -2.32910E+00 -5.84820E+00  8.59189E+00 -1.51940E+00
   8.72132E+00 -3.66558E+00  5.19280E+00 -5.03971E+00 -9.83145E+00  6.42646E+00 -1.26945E+01 -7.92562E-02  3.58289E+00  1.07528E+01
  -3.41654E+00 -1.12518E+01  6.66538E+00 -1.12941E+01  1.17830E+01  1.38629E+01  4.63766E+00  3.46878E+00  1.69593E+01  6.36690E+00
   8.03554E+00  7.86586E+00 -6.25985E+00  1.02645E+00  1.52720E+01  4.83277E+00  2.34604E+01 -2.14348E+00  5.86506E+00  5.18973E+00
  -3.18395E+00  6.99515E-01  7.59186E+00  8.07545E+00  2.52794E+00  2.42544E+00  8.66645E+00  1.92246E+00  1.07847E+00 -2.01022E+00
   4.49511E+00  4.63924E-01 -2.87665E+00 -2.58497E+00  5.89633E+00 -5.46261E-01  9.50335E+00 -5.40154E+00  7.37869E+00  3.67953E+00
   6.35079E-01 -3.28552E+00  7.88648E+00  8.31010E+00  7.07529E+00 -3.26368E+00 -8.11547E+00 -1.58617E+00 -7.93122E+00 -4.22624E+00
  -4.09805E+00  7.37076E+00 -6.42673E+00 -5.18704E+00  2.31688E+00 -3.76847E+00 -6.81487E+00 -1.69734E+00  1.24751E+01 -6.36452E-01
   8.26096E-01  2.76502E+00  1.68080E+00  1.05354E+01 -1.59268E+00 -4.42305E+00  5.63847E+00 -1.26148E-01  3.48018E+00  3.12602E-01
  -5.43083E+00 -1.26186E+01  1.00541E+00 -3.69286E+00 -5.36530E+00 -1.10895E+01  3.98358E+00  7.74539E+00 -8.66334E+00 -5.98240E+00
   7.51027E+00 -1.20043E+01 -3.50499E+00 -3.17927E+00  5.87529E+00 -1.59997E+01  6.08878E+00 -8.02875E+00 -9.28371E-01 -7.09687E+00
   5.38585E+00  1.34675E+01  5.94868E+00  1.04055E+01 -2.21524E+00  6.87462E-01  8.24505E+00 -3.29524E-01  1.08418E+01 -1.70656E+00
   7.75478E+00 -5.44419E+00  2.78571E+00 -4.28635E+00  3.72539E+00 -5.04656E+00  1.18444E+01 -1.55121E-01 -4.17218E+00 -2.33619E+00
  -3.82085E+00 -1.64424E+00 -2.80980E+00 -7.00912E+00  4.47920E+00  1.11780E+01 -7.96356E+00  5.84492E+00
 NY points of the fit to the data follow
  -9.30361E+00 -9.22787E+00 -8.92004E+00 -8.24045E+00 -7.23030E+00 -6.01858E+00 -4.84687E+00 -3.94005E+00 -3.44005E+00 -3.39633E+00
  -3.80651E+00 -4.62603E+00 -5.72801E+00 -6.92071E+00 -7.98031E+00 -8.70081E+00 -8.97577E+00 -8.87665E+00 -8.61779E+00 -8.33982E+00
  -8.12446E+00 -8.05562E+00 -8.07139E+00 -7.95108E+00 -7.59265E+00 -7.09025E+00 -6.53163E+00 -5.96790E+00 -5.48241E+00 -5.17200E+00
  -5.10023E+00 -5.31410E+00 -5.81481E+00 -6.49872E+00 -7.22910E+00 -7.85464E+00 -8.25126E+00 -8.36276E+00 -8.28592E+00 -8.20248E+00
  -8.12199E+00 -8.01246E+00 -7.93274E+00 -7.91947E+00 -7.95251E+00 -7.99250E+00 -8.01547E+00 -8.00613E+00 -7.96511E+00 -7.91568E+00
  -7.87002E+00 -7.83504E+00 -7.80806E+00 -7.79032E+00 -7.77956E+00 -7.77676E+00 -7.78402E+00 -7.79505E+00 -7.80173E+00 -7.79625E+00
  -7.77006E+00 -7.73297E+00 -7.69519E+00 -7.66352E+00 -7.64483E+00 -7.63905E+00 -7.64062E+00 -7.64455E+00 -7.63638E+00 -7.59822E+00
  -7.53352E+00 -7.45768E+00 -7.38781E+00 -7.34002E+00 -7.32377E+00 -7.33540E+00 -7.36492E+00 -7.40200E+00 -7.43436E+00 -7.42002E+00
  -7.33300E+00 -7.19247E+00 -7.03091E+00 -6.88374E+00 -6.78709E+00 -6.75587E+00 -6.78381E+00 -6.86768E+00 -6.99824E+00 -7.15131E+00
  -7.29714E+00 -7.40297E+00 -7.43508E+00 -7.38916E+00 -7.28131E+00 -7.07803E+00 -6.41741E+00 -4.94569E+00 -2.94077E+00 -8.87768E-01
   7.79871E-01  1.78407E+00  2.01857E+00  1.51746E+00  3.66846E-01 -1.30383E+00 -3.24299E+00 -5.10163E+00 -6.54202E+00 -7.32052E+00
  -7.39621E+00 -7.01673E+00 -6.66881E+00 -6.58147E+00 -6.57697E+00 -6.58794E+00 -6.60129E+00 -6.60762E+00 -6.57134E+00 -6.33814E+00
  -5.39541E+00 -3.60102E+00 -1.37759E+00  7.58704E-01  2.39911E+00  3.30135E+00  3.41059E+00  2.79341E+00  1.49990E+00 -3.57571E-01
  -2.49803E+00 -4.54101E+00 -6.11041E+00 -6.94270E+00 -7.03086E+00 -6.69048E+00 -6.42243E+00 -6.25719E+00 -6.03777E+00 -5.76150E+00
  -5.47700E+00 -5.25456E+00 -5.15827E+00 -5.20626E+00 -5.34679E+00 -5.51847E+00 -5.67247E+00 -5.77693E+00 -5.83597E+00 -5.86632E+00
  -5.87762E+00 -5.88157E+00 -5.87087E+00 -5.85316E+00 -5.85628E+00 -5.89436E+00 -5.95234E+00 -6.00521E+00 -6.02436E+00 -6.00572E+00
  -5.96381E+00 -5.91119E+00 -5.85437E+00 -5.79696E+00 -5.74652E+00 -5.71760E+00 -5.72290E+00 -5.76547E+00 -5.83894E+00 -5.93510E+00
  -6.03390E+00 -6.10165E+00 -6.12558E+00 -6.11584E+00 -6.10696E+00 -6.10598E+00 -6.09969E+00 -6.07405E+00 -6.02978E+00 -5.98879E+00
  -5.98229E+00 -6.00894E+00 -6.02402E+00 -5.97162E+00 -5.80641E+00 -5.51832E+00 -5.15875E+00 -4.81259E+00 -4.53075E+00 -4.33553E+00
  -4.24042E+00 -4.29048E+00 -4.47954E+00 -4.74496E+00 -5.00401E+00 -5.18157E+00 -5.22203E+00 -5.10641E+00 -4.87074E+00 -4.56999E+00
  -4.27799E+00 -4.05352E+00 -3.92333E+00 -3.91307E+00 -4.02536E+00 -4.23742E+00 -4.50781E+00 -4.75329E+00 -4.90206E+00 -4.85553E+00
  -4.60868E+00 -4.24857E+00 -3.89174E+00 -3.64728E+00 -3.58779E+00 -3.77741E+00 -4.21660E+00 -4.80516E+00 -5.38246E+00 -5.80059E+00
  -5.96209E+00 -5.82486E+00 -5.41243E+00 -4.83586E+00 -4.27074E+00 -3.88570E+00 -3.70786E+00 -3.70439E+00 -3.82326E+00 -3.97889E+00
  -4.05304E+00 -3.95046E+00 -3.71047E+00 -3.46857E+00 -3.33402E+00 -3.34867E+00 -3.53595E+00 -3.86453E+00 -4.24471E+00 -4.55566E+00
  -4.69877E+00 -4.62978E+00 -4.37977E+00 -4.02381E+00 -3.65768E+00 -3.37564E+00 -3.24085E+00 -3.26075E+00 -3.37238E+00 -3.50166E+00
  -3.58907E+00 -3.58558E+00 -3.35400E+00 -2.36389E+00 -1.75874E-01  2.72569E+00  5.61605E+00  7.88812E+00  9.16580E+00  9.32054E+00
   8.42732E+00  6.62414E+00  4.09984E+00  1.22781E+00 -1.47332E+00 -3.51713E+00 -4.57464E+00 -4.59901E+00 -3.97024E+00 -3.40037E+00
  -3.19449E+00 -3.07535E+00 -2.96668E+00 -2.87301E+00 -2.79758E+00 -2.74415E+00 -2.71941E+00 -2.71853E+00 -2.72858E+00 -2.73319E+00
  -2.71929E+00 -2.67951E+00 -2.61551E+00 -2.53272E+00 -2.43556E+00 -2.32906E+00 -2.21695E+00 -2.10040E+00 -1.97897E+00 -1.85056E+00
  -1.71223E+00 -1.56273E+00 -1.40105E+00 -1.22690E+00 -1.04213E+00 -8.49697E-01 -6.52112E-01 -4.52157E-01 -2.53808E-01 -6.14047E-02
   1.21158E-01  2.90053E-01  4.41642E-01  5.73268E-01  6.82811E-01  7.68933E-01  8.31254E-01  8.70436E-01  8.88225E-01  8.87411E-01
   8.71708E-01  8.45554E-01  8.13970E-01  7.82624E-01  7.57835E-01  7.46615E-01  7.57111E-01  7.99905E-01  8.92055E-01  1.07075E+00
   1.39037E+00  1.74993E+00  1.97099E+00  1.95847E+00  1.69917E+00  1.23161E+00  6.15968E-01 -8.20115E-02 -6.82028E-01 -9.51700E-01
  -7.89949E-01 -2.19338E-01  6.45181E-01  1.63205E+00  2.54507E+00  3.20319E+00  3.49934E+00  3.48478E+00  3.23962E+00  2.82803E+00
   2.34868E+00  1.91610E+00  1.62371E+00  1.48557E+00  1.39257E+00  1.26538E+00  1.12267E+00  9.76599E-01  8.32227E-01  6.92611E-01
   5.59928E-01  4.35796E-01  3.21390E-01  2.17504E-01  1.24577E-01  4.27038E-02 -2.83431E-02 -8.90572E-02 -1.40124E-01 -1.82354E-01
  -2.16632E-01 -2.43893E-01 -2.65078E-01 -2.81081E-01 -2.92691E-01 -3.00560E-01 -3.05196E-01 -3.06968E-01 -3.06099E-01 -3.02652E-01
  -2.96508E-01 -2.87384E-01 -2.74857E-01 -2.58388E-01 -2.37328E-01 -2.10906E-01 -1.78239E-01 -1.38348E-01 -9.01993E-02 -3.27228E-02
   3.51775E-02  1.14605E-01  2.06634E-01  3.12234E-01  4.32203E-01  5.67084E-01  7.17108E-01  8.82107E-01  1.06142E+00  1.25381E+00
   1.45735E+00  1.66946E+00  1.88687E+00  2.10567E+00  2.32139E+00  2.52912E+00  2.72370E+00  2.89992E+00  3.05279E+00  3.17781E+00
   3.27116E+00  3.32994E+00  3.35232E+00  3.33769E+00  3.28669E+00  3.20119E+00  3.08415E+00  2.93946E+00  2.77174E+00  2.58610E+00
   2.38789E+00  2.18242E+00  1.97473E+00  1.76938E+00  1.57036E+00  1.38095E+00  1.20373E+00  1.04051E+00  8.92389E-01  7.59858E-01
   6.42877E-01  5.40989E-01  4.53410E-01  3.79119E-01  3.16946E-01  2.65662E-01  2.24050E-01  1.90939E-01  1.65229E-01  1.45901E-01
   1.32038E-01  1.22839E-01  1.17620E-01  1.15791E-01  1.16845E-01  1.20339E-01  1.25902E-01  1.33233E-01  1.42088E-01  1.52259E-01
   1.63563E-01  1.75837E-01  1.88954E-01  2.02812E-01  2.17331E-01  2.32436E-01  2.48051E-01  2.64109E-01  2.80565E-01  2.97384E-01
   3.14538E-01  3.31992E-01  3.49707E-01  3.67652E-01  3.85813E-01  4.04179E-01  4.22735E-01  4.41457E-01  4.60323E-01  4.79319E-01
   4.98442E-01  5.17691E-01  5.37055E-01  5.56516E-01  5.76061E-01  5.95687E-01  6.15398E-01  6.35193E-01  6.55061E-01  6.74987E-01
   6.94966E-01  7.15002E-01  7.35102E-01  7.55261E-01  7.75467E-01  7.95711E-01  8.15992E-01  8.36319E-01  8.56695E-01  8.77114E-01
   8.97565E-01  9.18043E-01  9.38555E-01  9.59110E-01  9.79709E-01  1.00034E+00  1.02100E+00  1.04169E+00  1.06242E+00  1.08319E+00
   1.10401E+00  1.12487E+00  1.14575E+00  1.16668E+00  1.18767E+00  1.20872E+00  1.22984E+00  1.25101E+00
 NY background values follow
    -8.985E+00   -8.966E+00   -8.946E+00   -8.926E+00   -8.906E+00   -8.887E+00   -8.867E+00   -8.847E+00   -8.827E+00   -8.808E+00
    -8.788E+00   -8.768E+00   -8.748E+00   -8.728E+00   -8.708E+00   -8.689E+00   -8.669E+00   -8.649E+00   -8.629E+00   -8.609E+00
    -8.589E+00   -8.569E+00   -8.550E+00   -8.530E+00   -8.510E+00   -8.490E+00   -8.470E+00   -8.450E+00   -8.430E+00   -8.410E+00
    -8.390E+00   -8.370E+00   -8.350E+00   -8.330E+00   -8.310E+00   -8.290E+00   -8.270E+00   -8.250E+00   -8.230E+00   -8.210E+00
    -8.190E+00   -8.170E+00   -8.150E+00   -8.130E+00   -8.110E+00   -8.090E+00   -8.069E+00   -8.049E+00   -8.029E+00   -8.009E+00
    -7.989E+00   -7.969E+00   -7.949E+00   -7.928E+00   -7.908E+00   -7.888E+00   -7.868E+00   -7.848E+00   -7.828E+00   -7.807E+00
    -7.787E+00   -7.767E+00   -7.747E+00   -7.727E+00   -7.706E+00   -7.686E+00   -7.666E+00   -7.646E+00   -7.625E+00   -7.605E+00
    -7.585E+00   -7.564E+00   -7.544E+00   -7.524E+00   -7.503E+00   -7.483E+00   -7.463E+00   -7.442E+00   -7.422E+00   -7.402E+00
    -7.381E+00   -7.361E+00   -7.341E+00   -7.320E+00   -7.300E+00   -7.280E+00   -7.259E+00   -7.239E+00   -7.218E+00   -7.198E+00
    -7.178E+00   -7.157E+00   -7.137E+00   -7.116E+00   -7.096E+00   -7.075E+00   -7.055E+00   -7.034E+00   -7.014E+00   -6.993E+00
    -6.973E+00   -6.952E+00   -6.932E+00   -6.911E+00   -6.891E+00   -6.870E+00   -6.850E+00   -6.829E+00   -6.809E+00   -6.788E+00
    -6.768E+00   -6.747E+00   -6.727E+00   -6.706E+00   -6.685E+00   -6.665E+00   -6.644E+00   -6.624E+00   -6.603E+00   -6.582E+00
    -6.562E+00   -6.541E+00   -6.521E+00   -6.500E+00   -6.479E+00   -6.459E+00   -6.438E+00   -6.417E+00   -6.397E+00   -6.376E+00
    -6.355E+00   -6.335E+00   -6.314E+00   -6.293E+00   -6.273E+00   -6.252E+00   -6.231E+00   -6.211E+00   -6.190E+00   -6.169E+00
    -6.148E+00   -6.128E+00   -6.107E+00   -6.086E+00   -6.065E+00   -6.045E+00   -6.024E+00   -6.003E+00   -5.982E+00   -5.962E+00
    -5.941E+00   -5.920E+00   -5.899E+00   -5.879E+00   -5.858E+00   -5.837E+00   -5.816E+00   -5.795E+00   -5.775E+00   -5.754E+00
    -5.733E+00   -5.712E+00   -5.691E+00   -5.670E+00   -5.650E+00   -5.629E+00   -5.608E+00   -5.587E+00   -5.566E+00   -5.545E+00
    -5.524E+00   -5.504E+00   -5.483E+00   -5.462E+00   -5.441E+00   -5.420E+00   -5.399E+00   -5.378E+00   -5.357E+00   -5.336E+00
    -5.316E+00   -5.295E+00   -5.274E+00   -5.253E+00   -5.232E+00   -5.211E+00   -5.190E+00   -5.169E+00   -5.148E+00   -5.127E+00
    -5.106E+00   -5.085E+00   -5.064E+00   -5.043E+00   -5.022E+00   -5.001E+00   -4.980E+00   -4.959E+00   -4.939E+00   -4.918E+00
    -4.897E+00   -4.876E+00   -4.855E+00   -4.834E+00   -4.813E+00   -4.792E+00   -4.771E+00   -4.750E+00   -4.729E+00   -4.708E+00
    -4.687E+00   -4.666E+00   -4.645E+00   -4.623E+00   -4.602E+00   -4.581E+00   -4.560E+00   -4.539E+00   -4.518E+00   -4.497E+00
    -4.476E+00   -4.455E+00   -4.434E+00   -4.413E+00   -4.392E+00   -4.371E+00   -4.350E+00   -4.329E+00   -4.308E+00   -4.287E+00
    -4.266E+00   -4.245E+00   -4.223E+00   -4.202E+00   -4.181E+00   -4.160E+00   -4.139E+00   -4.118E+00   -4.097E+00   -4.076E+00
    -4.055E+00   -4.034E+00   -4.013E+00   -3.991E+00   -3.970E+00   -3.949E+00   -3.928E+00   -3.907E+00   -3.886E+00   -3.865E+00
    -3.844E+00   -3.823E+00   -3.801E+00   -3.780E+00   -3.759E+00   -3.738E+00   -3.717E+00   -3.696E+00   -3.675E+00   -3.654E+00
    -3.632E+00   -3.611E+00   -3.590E+00   -3.569E+00   -3.548E+00   -3.527E+00   -3.506E+00   -3.484E+00   -3.463E+00   -3.442E+00
    -3.421E+00   -3.400E+00   -3.379E+00   -3.358E+00   -3.336E+00   -3.315E+00   -3.294E+00   -3.273E+00   -3.252E+00   -3.231E+00
    -3.210E+00   -3.188E+00   -3.167E+00   -3.146E+00   -3.125E+00   -3.104E+00   -3.083E+00   -3.061E+00   -3.040E+00   -3.019E+00
    -2.998E+00   -2.977E+00   -2.956E+00   -2.934E+00   -2.913E+00   -2.892E+00   -2.871E+00   -2.850E+00   -2.829E+00   -2.807E+00
    -2.786E+00   -2.765E+00   -2.744E+00   -2.723E+00   -2.701E+00   -2.680E+00   -2.659E+00   -2.638E+00   -2.617E+00   -2.596E+00
    -2.574E+00   -2.553E+00   -2.532E+00   -2.511E+00   -2.490E+00   -2.469E+00   -2.447E+00   -2.426E+00   -2.405E+00   -2.384E+00
    -2.363E+00   -2.341E+00   -2.320E+00   -2.299E+00   -2.278E+00   -2.257E+00   -2.236E+00   -2.214E+00   -2.193E+00   -2.172E+00
    -2.151E+00   -2.130E+00   -2.109E+00   -2.087E+00   -2.066E+00   -2.045E+00   -2.024E+00   -2.003E+00   -1.982E+00   -1.960E+00
    -1.939E+00   -1.918E+00   -1.897E+00   -1.876E+00   -1.855E+00   -1.833E+00   -1.812E+00   -1.791E+00   -1.770E+00   -1.749E+00
    -1.728E+00   -1.706E+00   -1.685E+00   -1.664E+00   -1.643E+00   -1.622E+00   -1.601E+00   -1.580E+00   -1.558E+00   -1.537E+00
    -1.516E+00   -1.495E+00   -1.474E+00   -1.453E+00   -1.432E+00   -1.410E+00   -1.389E+00   -1.368E+00   -1.347E+00   -1.326E+00
    -1.305E+00   -1.284E+00   -1.263E+00   -1.241E+00   -1.220E+00   -1.199E+00   -1.178E+00   -1.157E+00   -1.136E+00   -1.115E+00
    -1.094E+00   -1.073E+00   -1.051E+00   -1.030E+00   -1.009E+00   -9.881E-01   -9.670E-01   -9.459E-01   -9.248E-01   -9.038E-01
    -8.827E-01   -8.616E-01   -8.405E-01   -8.194E-01   -7.984E-01   -7.773E-01   -7.562E-01   -7.351E-01   -7.141E-01   -6.930E-01
    -6.719E-01   -6.509E-01   -6.298E-01   -6.088E-01   -5.877E-01   -5.667E-01   -5.456E-01   -5.246E-01   -5.035E-01   -4.825E-01
    -4.615E-01   -4.404E-01   -4.194E-01   -3.984E-01   -3.774E-01   -3.564E-01   -3.353E-01   -3.143E-01   -2.933E-01   -2.723E-01
    -2.513E-01   -2.303E-01   -2.093E-01   -1.883E-01   -1.673E-01   -1.463E-01   -1.254E-01   -1.044E-01   -8.340E-02   -6.243E-02
    -4.146E-02   -2.049E-02    4.697E-04    2.143E-02    4.238E-02    6.333E-02    8.428E-02    1.052E-01    1.262E-01    1.471E-01
     1.680E-01    1.890E-01    2.099E-01    2.308E-01    2.517E-01    2.726E-01    2.935E-01    3.145E-01    3.354E-01    3.563E-01
     3.771E-01    3.980E-01    4.189E-01    4.398E-01    4.607E-01    4.815E-01    5.024E-01    5.233E-01    5.441E-01    5.650E-01
     5.858E-01    6.067E-01    6.275E-01    6.484E-01    6.692E-01    6.900E-01    7.108E-01    7.317E-01    7.525E-01    7.733E-01
     7.941E-01    8.149E-01    8.357E-01    8.565E-01    8.773E-01    8.980E-01    9.188E-01    9.396E-01    9.603E-01    9.811E-01
     1.002E+00    1.023E+00    1.043E+00    1.064E+00    1.085E+00    1.106E+00    1.126E+00    1.147E+00    1.168E+00    1.188E+00
     1.209E+00    1.230E+00    1.251E+00    1.271E+00    1.292E+00    1.313E+00    1.333E+00    1.354E+00
 Ala      Conc. = 1.38E+02
