 LCModel (Version 6.3-1L) Copyright: S.W. Provencher.          Ref.: Magn. Reson. Med. 30:672-679 (1993).                
 Slice#1 Row#5 Col#12  PD_24_press_2_raw_act
 36 lines in following concentration table = NCONC+1
    Conc.  %SD /Cr+PCr  Metabolite                                         
  445.030 104%   0.000 Ala                                                 
   33.866  32%   0.000 Asp                                                 
    0.000 999%   0.000 Cr                                                  
    0.000 999%   0.000 PCr                                                 
   20.348  32%   0.000 GABA                                                
   20.477  32%   0.000 Glc                                                 
  458.751 124%   0.000 Gln                                                 
 1.23E+03  52%   0.000 Glu                                                 
    0.000 999%   0.000 GPC                                                 
    0.000 999%   0.000 PCh                                                 
    0.000 999%   0.000 GSH                                                 
  111.921 228%   0.000 Ins                                                 
 1.47E+03  39%   0.000 Lac                                                 
    0.000 999%   0.000 NAA                                                 
  679.222  18%   0.000 NAAG                                                
    6.826  31%   0.000 Scyllo                                              
   33.904  32%   0.000 Tau                                                 
    0.000 999%   0.000 -CrCH2                                              
    0.000 999%   0.000 GPC+PCh                                             
  679.222  18%   0.000 NAA+NAAG                                            
    0.000 999%   0.000 Cr+PCr                                              
 1.69E+03  56%   0.000 Glu+Gln                                             
  640.472  62%   0.000 Lip13a                                              
    0.000 999%   0.000 Lip13b                                              
   27.362 632%   0.000 Lip09                                               
  764.648  26%   0.000 MM09                                                
  111.648 104%   0.000 Lip20                                               
  852.029  41%   0.000 MM20                                                
  265.336  38%   0.000 MM12                                                
 1.08E+03  27%   0.000 MM14                                                
 1.29E+03  11%   0.000+MM17                                                
  640.472  62%   0.000 Lip13a+Lip13b                                       
 1.98E+03  22%   0.000 MM14+Lip13a+Lip13b+MM12                             
  792.010  18%   0.000 MM09+Lip09                                          
  963.677  36%   0.000 MM20+Lip20                                          
   6 lines in following misc. output table
  FWHM = 0.138 ppm    S/N =   2                                            
  Data shift = 0.046 ppm                                                   
  Ph: 125 deg      41.0 deg/ppm                                            
  alphaB,S = 8.5E+01,   1.0E+02                                            
   10 spline knots.   Ns = 9(2)                                            
   2 inflections.     1 extrema                                            
  498 points on ppm-axis = NY
      4.000000     3.992357     3.984714     3.977070     3.969427     3.961784     3.954141     3.946497     3.938854     3.931211
      3.923568     3.915925     3.908281     3.900638     3.892995     3.885352     3.877708     3.870065     3.862422     3.854779
      3.847136     3.839492     3.831849     3.824206     3.816563     3.808919     3.801276     3.793633     3.785990     3.778347
      3.770703     3.763060     3.755417     3.747774     3.740130     3.732487     3.724844     3.717201     3.709558     3.701914
      3.694271     3.686628     3.678985     3.671341     3.663698     3.656055     3.648412     3.640769     3.633125     3.625482
      3.617839     3.610196     3.602552     3.594909     3.587266     3.579623     3.571980     3.564336     3.556693     3.549050
      3.541407     3.533763     3.526120     3.518477     3.510834     3.503191     3.495547     3.487904     3.480261     3.472618
      3.464974     3.457331     3.449688     3.442045     3.434402     3.426758     3.419115     3.411472     3.403829     3.396185
      3.388542     3.380899     3.373256     3.365613     3.357969     3.350326     3.342683     3.335040     3.327396     3.319753
      3.312110     3.304467     3.296824     3.289180     3.281537     3.273894     3.266251     3.258607     3.250964     3.243321
      3.235678     3.228034     3.220391     3.212748     3.205105     3.197462     3.189818     3.182175     3.174532     3.166889
      3.159245     3.151602     3.143959     3.136316     3.128673     3.121029     3.113386     3.105743     3.098100     3.090456
      3.082813     3.075170     3.067527     3.059884     3.052240     3.044597     3.036954     3.029311     3.021667     3.014024
      3.006381     2.998738     2.991095     2.983451     2.975808     2.968165     2.960522     2.952878     2.945235     2.937592
      2.929949     2.922306     2.914662     2.907019     2.899376     2.891733     2.884089     2.876446     2.868803     2.861160
      2.853517     2.845873     2.838230     2.830587     2.822944     2.815300     2.807657     2.800014     2.792371     2.784728
      2.777084     2.769441     2.761798     2.754155     2.746511     2.738868     2.731225     2.723582     2.715939     2.708295
      2.700652     2.693009     2.685366     2.677722     2.670079     2.662436     2.654793     2.647150     2.639506     2.631863
      2.624220     2.616577     2.608933     2.601290     2.593647     2.586004     2.578361     2.570717     2.563074     2.555431
      2.547788     2.540144     2.532501     2.524858     2.517215     2.509572     2.501928     2.494285     2.486642     2.478999
      2.471355     2.463712     2.456069     2.448426     2.440783     2.433139     2.425496     2.417853     2.410210     2.402566
      2.394923     2.387280     2.379637     2.371994     2.364350     2.356707     2.349064     2.341421     2.333777     2.326134
      2.318491     2.310848     2.303205     2.295561     2.287918     2.280275     2.272632     2.264988     2.257345     2.249702
      2.242059     2.234416     2.226772     2.219129     2.211486     2.203843     2.196199     2.188556     2.180913     2.173270
      2.165627     2.157983     2.150340     2.142697     2.135054     2.127410     2.119767     2.112124     2.104481     2.096838
      2.089194     2.081551     2.073908     2.066265     2.058621     2.050978     2.043335     2.035692     2.028049     2.020405
      2.012762     2.005119     1.997476     1.989833     1.982190     1.974546     1.966903     1.959260     1.951617     1.943974
      1.936331     1.928688     1.921045     1.913402     1.905759     1.898115     1.890472     1.882829     1.875186     1.867543
      1.859900     1.852257     1.844614     1.836971     1.829327     1.821684     1.814041     1.806398     1.798755     1.791112
      1.783469     1.775826     1.768183     1.760540     1.752896     1.745253     1.737610     1.729967     1.722324     1.714681
      1.707038     1.699395     1.691752     1.684108     1.676465     1.668822     1.661179     1.653536     1.645893     1.638250
      1.630607     1.622964     1.615321     1.607677     1.600034     1.592391     1.584748     1.577105     1.569462     1.561819
      1.554176     1.546533     1.538890     1.531246     1.523603     1.515960     1.508317     1.500674     1.493031     1.485388
      1.477745     1.470102     1.462458     1.454815     1.447172     1.439529     1.431886     1.424243     1.416600     1.408957
      1.401314     1.393671     1.386027     1.378384     1.370741     1.363098     1.355455     1.347812     1.340169     1.332526
      1.324883     1.317240     1.309596     1.301953     1.294310     1.286667     1.279024     1.271381     1.263738     1.256095
      1.248452     1.240808     1.233165     1.225522     1.217879     1.210236     1.202593     1.194950     1.187307     1.179664
      1.172021     1.164377     1.156734     1.149091     1.141448     1.133805     1.126162     1.118519     1.110876     1.103233
      1.095590     1.087946     1.080303     1.072660     1.065017     1.057374     1.049731     1.042088     1.034445     1.026802
      1.019158     1.011515     1.003872     0.996229     0.988586     0.980943     0.973300     0.965657     0.958014     0.950371
      0.942727     0.935084     0.927441     0.919798     0.912155     0.904512     0.896869     0.889226     0.881583     0.873940
      0.866296     0.858653     0.851010     0.843367     0.835724     0.828081     0.820438     0.812795     0.805152     0.797508
      0.789865     0.782222     0.774579     0.766936     0.759293     0.751650     0.744007     0.736364     0.728721     0.721077
      0.713434     0.705791     0.698148     0.690505     0.682862     0.675219     0.667576     0.659933     0.652290     0.644646
      0.637003     0.629360     0.621717     0.614074     0.606431     0.598788     0.591145     0.583502     0.575858     0.568215
      0.560572     0.552929     0.545286     0.537643     0.530000     0.522357     0.514714     0.507071     0.499427     0.491784
      0.484141     0.476498     0.468855     0.461212     0.453569     0.445925     0.438282     0.430639     0.422996     0.415353
      0.407710     0.400067     0.392424     0.384780     0.377137     0.369494     0.361851     0.354208     0.346565     0.338922
      0.331278     0.323635     0.315992     0.308349     0.300706     0.293063     0.285420     0.277777     0.270133     0.262490
      0.254847     0.247204     0.239561     0.231918     0.224275     0.216631     0.208988     0.201345
 NY phased data points follow
   5.51623E+00  1.10954E+01  4.51990E+00  4.01154E+00  4.41222E+00  1.01811E+00  5.74916E-01  1.00261E+00  1.19635E+00 -3.22950E+00
   8.75760E+00  2.84341E+00  5.16100E+00  7.20252E-01  5.00821E+00  7.34489E-01  4.66726E+00 -3.23603E+00  1.89154E-01  5.29819E+00
  -3.37577E-01  3.63392E+00  4.75303E+00 -2.36472E+00 -1.44078E-01  5.98710E+00  7.35997E+00 -8.33237E-01  5.83179E+00 -1.23585E+00
   7.14186E-01  3.63924E+00  6.24510E+00 -2.88345E+00  3.80080E+00 -8.74036E-01  1.79612E+00 -1.04135E+00  3.38361E+00  1.21577E+00
  -5.57208E+00  9.61993E-01  2.60431E+00  4.32169E-01  1.80854E+00  1.82936E-01 -7.93861E+00 -1.61200E+00  7.37445E+00  4.93935E+00
  -1.99572E+00  2.59277E+00  2.82561E+00  3.51942E+00  2.49484E+00 -1.15303E+00  1.37885E+00 -1.26899E+00 -2.14925E-01 -1.34608E+00
   6.30182E+00  1.51420E+00  2.83819E+00  1.16606E+00  1.08709E-01  3.46476E+00  9.11021E+00  1.55046E+00  2.73103E+00  6.07970E+00
  -1.52412E+00  3.49999E+00  4.42892E-01 -3.14859E+00  1.43554E-01  1.50303E+00  5.11403E+00  3.13474E+00  1.38166E+00 -6.14521E-01
   5.69780E+00  1.95522E+00  1.86087E+00  1.71629E+00  2.10756E+00  7.02938E-01  1.49930E+00  1.48584E+00 -2.54630E+00  2.78451E-01
  -2.48156E+00 -3.07499E+00  3.03889E+00 -1.74800E+00 -8.48049E-01  2.30540E+00 -3.88085E+00 -9.42845E-01 -3.09557E+00 -7.14736E-01
  -2.16163E+00 -1.00816E+00  4.28132E+00 -2.23795E+00 -1.67158E+00  7.56910E-01  1.37099E+00  1.25544E+00  4.93739E+00  4.10179E+00
   9.27306E-01 -7.66094E-01  1.48116E+00  1.57380E+00  3.15270E+00 -1.18911E+00 -8.35878E-02  3.77882E+00 -3.20067E+00 -4.73297E-01
   1.05054E+00 -3.69923E+00  3.70303E+00 -5.31442E+00 -1.33108E-02 -1.74529E+00  2.24258E+00 -4.89064E+00  2.29552E+00  5.19347E-01
  -5.41426E+00 -5.04743E+00 -1.50415E+00 -3.32434E+00 -1.28912E+00  1.52800E+00 -3.34673E+00  2.14014E+00  1.34954E+00 -3.35106E-02
   5.47950E+00 -9.03807E-01 -1.09647E+00  2.57916E-01  3.24092E+00  2.16538E+00  8.22056E-01 -6.02735E-01  1.57992E+00  1.46134E+00
   1.36744E+00  9.02551E-01  1.13587E+00 -8.43442E-01  2.42377E+00  1.22602E+00  5.23973E-01 -2.12640E+00  1.05183E+00  3.09793E+00
   3.04401E+00 -7.90336E+00 -1.69132E+00  5.07217E-01  5.69234E+00 -2.30072E+00 -8.41003E-01 -1.58824E+00  2.30374E-01 -2.17767E+00
   3.88325E+00 -7.74417E-02  4.78561E+00  5.31499E-01 -8.16840E-01  9.67918E-01  1.99242E+00  1.26499E+00  4.90075E+00  2.20627E+00
  -2.44437E+00  1.84577E+00  7.17763E-01 -2.55533E+00 -8.86684E-01 -1.11211E+00 -1.08850E+00 -1.03176E+00 -1.14590E+00  1.34422E+00
   2.41138E+00  4.98610E+00 -1.71566E+00  1.07051E+00 -2.01946E+00  4.07329E+00  1.12898E+00 -6.70458E+00  1.93682E+00  1.78857E-01
   1.12073E+00 -2.98022E+00 -8.00627E-01  1.83253E+00  3.38363E+00  4.22176E+00 -2.22594E+00 -5.30390E-01  5.94683E-01 -2.95153E+00
  -1.28136E+00 -1.21771E+00  5.48680E+00  1.15113E+00  2.14415E-01 -3.01291E+00  1.76388E+00  1.83935E+00 -8.79299E-01 -3.69030E+00
   2.71109E+00  1.36925E+00 -1.69016E+00  1.68325E+00  9.59563E-01  3.85890E-03 -2.27723E+00  2.48730E+00  9.60361E-01  5.76754E+00
   7.20700E+00  2.49885E-01  6.43526E+00  5.72584E+00  5.16048E+00  1.85204E+00  5.98634E+00  5.58847E-01 -4.56516E-01  1.67772E+00
   1.03244E+01  3.12921E+00  9.07529E+00  8.22812E+00  6.48590E+00  5.34203E+00  1.04883E+01  1.25532E+01  1.45620E+01  1.20344E+01
   1.19164E+01  1.13923E+01  1.41337E+01  1.84342E+01  1.66756E+01  1.88243E+01  1.50739E+01  1.30814E+01  1.29667E+01  1.48226E+01
   3.35772E+00  3.76944E+00  5.82210E+00  2.51950E+00  5.42643E+00  4.43097E+00  2.21528E+00  3.01161E+00  3.79490E+00  1.20617E+00
   1.45836E+00 -2.23869E-01  5.52697E+00  2.53911E+00  1.43382E-01  3.58997E+00  3.44163E+00  3.19873E-01  5.41049E+00 -1.85081E+00
  -3.11179E+00  2.87748E+00 -1.93018E+00  3.81837E+00  8.35158E-01  1.95623E+00  2.66132E+00 -8.89690E-01 -2.58185E+00 -3.21986E+00
   1.28405E-01  3.02677E-01  1.65418E+00  3.36083E+00  5.77234E+00  7.71328E+00  4.93476E+00  4.68666E+00  1.47975E+01  1.18114E+01
   8.75766E+00  1.34278E+01  1.37396E+01  2.25123E+01  1.47029E+01  1.51222E+01  1.53249E+01  1.72174E+01  1.33246E+01  1.24203E+01
   1.35680E+01  5.44909E+00  6.56212E+00  9.94547E+00  8.46243E+00  8.81513E+00  1.34532E+01  9.52106E+00  1.17851E+01  1.32272E+01
   9.46364E+00  3.74230E+00  7.48211E+00  1.23308E+01  2.02503E+00  9.49699E+00  3.68058E+00  1.10135E+01  5.94548E+00  9.67999E+00
   7.77009E+00  7.93138E+00  1.50624E+01  5.68215E+00  1.01591E+01  9.96816E+00  9.04166E+00  9.14575E+00  1.36305E+01  9.85719E+00
   8.58851E+00  1.02238E+01  7.15340E-01  1.30272E+01  9.79051E+00  9.50788E+00  5.89590E+00  4.18825E+00  7.54548E+00  8.32586E+00
   3.72917E+00  5.52713E+00  4.02064E+00  3.17770E+00  4.49179E+00  4.66375E+00  6.15853E+00  2.11180E+00  7.61173E+00  1.22932E+01
   2.87631E+00  1.01414E+01  8.34188E+00  4.79051E+00  6.09986E+00  5.85359E+00  8.63524E+00  8.65193E+00  7.10644E+00 -2.94704E+00
   7.98019E+00  3.08703E+00  6.35638E+00  8.53752E+00  1.09232E+00  2.42293E+00 -2.06968E-01  7.86458E+00  5.76739E+00  5.71332E+00
   4.09039E+00  2.59921E+00  5.45621E+00  9.60745E+00  3.45679E+00  8.34369E+00  1.91287E-02  3.76518E+00 -2.67349E+00  7.98325E+00
   1.26126E+00  1.09032E+00  4.32910E+00  2.57170E+00  1.07334E+00 -1.05746E+00  4.21129E+00 -1.66279E+00  5.26413E+00  9.06066E+00
   3.31294E+00  3.82005E+00  5.37647E+00  3.75999E+00  5.47296E+00  3.46034E+00  2.82630E+00  5.33926E+00  4.84416E+00 -2.77537E+00
   6.49219E-01  2.51493E+00  6.73793E+00  3.82467E+00 -1.30237E+00  8.69936E-01  7.88621E-01  1.69430E+00 -4.47165E-01 -1.96037E+00
  -5.81022E-01  5.97917E-01  1.57393E+00  1.62867E+00 -4.44685E+00  1.11452E+00  3.92591E+00  3.04462E+00 -2.94175E+00  3.54590E+00
  -3.65199E+00  8.17942E-01  7.53646E-01  1.91351E+00  1.08751E+00 -2.19401E+00 -4.56657E-01  2.10158E-01  3.57927E-01 -2.43920E-01
  -2.88725E-02 -2.09601E+00 -2.15576E+00  2.93905E+00 -5.29501E-01  1.80588E+00  1.76477E+00 -1.24165E+00 -9.57321E-01 -3.56657E+00
   2.13858E+00 -4.62051E+00 -4.21593E+00 -7.69031E-01 -2.76531E+00 -1.80657E+00 -5.40212E+00 -4.50125E+00  5.19342E-01 -1.83125E+00
  -5.51076E+00 -9.60233E-01  1.05165E+00 -5.31177E+00 -4.82352E+00  1.16837E+00 -2.88211E+00  2.96220E+00 -3.19423E+00 -1.28670E+00
   6.99258E-01 -8.74407E+00 -1.41455E+00  1.66157E+00 -2.86902E+00  3.00054E-01 -8.24719E-01 -3.97209E+00 -3.53034E+00 -1.21543E+00
   1.12877E+00 -5.76934E+00 -1.35014E+00 -3.25689E-01 -5.41341E+00 -7.45841E-01 -2.28514E+00 -5.26323E+00 -2.95611E+00 -6.66097E+00
  -3.92502E+00 -5.40653E+00 -3.13706E+00  2.02289E+00 -1.54904E+00  3.04360E+00 -2.56874E+00 -1.90662E+00
 NY points of the fit to the data follow
   1.88748E+00  1.64074E+00  1.64945E+00  1.50518E+00  1.47759E+00  1.46569E+00  1.53572E+00  1.67182E+00  1.79034E+00  1.97008E+00
   1.99796E+00  2.13939E+00  2.01446E+00  2.09862E+00  1.97131E+00  2.12031E+00  2.06520E+00  2.24780E+00  2.22878E+00  2.37482E+00
   2.33676E+00  2.44769E+00  2.42410E+00  2.45155E+00  2.43844E+00  2.36915E+00  2.37069E+00  2.21599E+00  2.30217E+00  2.15507E+00
   2.37876E+00  2.24115E+00  2.54004E+00  2.34575E+00  2.59433E+00  2.32186E+00  2.48955E+00  2.18303E+00  2.32565E+00  2.07334E+00
   2.21815E+00  2.00923E+00  2.10756E+00  1.90636E+00  1.93571E+00  1.78337E+00  1.81162E+00  1.75276E+00  1.79914E+00  1.75298E+00
   1.74553E+00  1.65986E+00  1.57321E+00  1.47954E+00  1.39631E+00  1.35147E+00  1.31830E+00  1.30562E+00  1.30296E+00  1.29545E+00
   1.29248E+00  1.29186E+00  1.29249E+00  1.28990E+00  1.28686E+00  1.27870E+00  1.26837E+00  1.25695E+00  1.25406E+00  1.23841E+00
   1.24303E+00  1.21819E+00  1.22776E+00  1.19136E+00  1.20446E+00  1.15670E+00  1.16928E+00  1.10846E+00  1.11931E+00  1.04746E+00
   1.05606E+00  9.87436E-01  9.97147E-01  9.36156E-01  9.39371E-01  8.82499E-01  8.75765E-01  8.25871E-01  8.10383E-01  7.72013E-01
   7.49995E-01  7.25237E-01  7.03015E-01  6.88389E-01  6.68690E-01  6.61511E-01  6.42888E-01  6.43173E-01  6.31318E-01  6.35202E-01
   6.31892E-01  6.34291E-01  6.36672E-01  6.34901E-01  6.43601E-01  6.39956E-01  6.54260E-01  6.52718E-01  6.73727E-01  6.74178E-01
   6.97532E-01  7.01418E-01  7.26023E-01  7.36407E-01  7.60701E-01  7.75558E-01  7.97296E-01  8.13902E-01  8.35161E-01  8.51211E-01
   8.73890E-01  8.89881E-01  9.14069E-01  9.28211E-01  9.50716E-01  9.60122E-01  9.78198E-01  9.83185E-01  9.95340E-01  9.94153E-01
   9.98119E-01  9.89685E-01  9.85149E-01  9.70203E-01  9.57981E-01  9.37566E-01  9.08827E-01  8.74269E-01  8.36173E-01  7.89972E-01
   7.57588E-01  7.12487E-01  6.79441E-01  6.31917E-01  5.91001E-01  5.37362E-01  4.87437E-01  4.28496E-01  3.71535E-01  3.11705E-01
   2.38351E-01  1.68900E-01  7.45918E-02  9.68126E-03 -7.93436E-02 -1.26131E-01 -2.06054E-01 -2.48647E-01 -3.28674E-01 -3.63246E-01
  -4.52246E-01 -4.79780E-01 -5.69423E-01 -5.90688E-01 -6.73474E-01 -6.95159E-01 -7.55430E-01 -7.61996E-01 -7.80137E-01 -7.71237E-01
  -7.37631E-01 -7.19062E-01 -6.38280E-01 -5.99956E-01 -4.72123E-01 -4.26981E-01 -3.00832E-01 -2.62255E-01 -1.61769E-01 -1.41374E-01
  -4.46739E-02 -3.33565E-02  6.81795E-02  8.66919E-02  2.07374E-01  2.52718E-01  3.88647E-01  4.77653E-01  6.14709E-01  6.84867E-01
   7.88608E-01  7.45920E-01  7.32485E-01  5.87236E-01  5.16566E-01  3.33233E-01  3.19362E-01  2.06589E-01  4.23136E-01  2.90616E-01
   7.07447E-01  4.67890E-01  9.95029E-01  5.08086E-01  9.92971E-01  2.34638E-01  7.29859E-01 -1.75298E-01  4.17928E-01 -4.90725E-01
   2.16167E-01 -5.45909E-01  2.84672E-01 -3.82836E-01  4.92606E-01 -1.28719E-01  6.41733E-01  5.07970E-02  5.38280E-01  9.35298E-02
   3.91361E-01  2.51276E-01  4.61098E-01  6.52071E-01  7.87979E-01  1.19337E+00  1.29619E+00  1.79497E+00  1.84557E+00  2.31536E+00
   2.37015E+00  2.66813E+00  2.67305E+00  2.74738E+00  2.71676E+00  2.65912E+00  2.65412E+00  2.75676E+00  3.38343E+00  3.64021E+00
   4.86956E+00  5.18887E+00  6.80899E+00  7.07078E+00  8.86565E+00  9.01842E+00  1.09150E+01  1.09048E+01  1.26925E+01  1.24691E+01
   1.39392E+01  1.35514E+01  1.48272E+01  1.42043E+01  1.49897E+01  1.40670E+01  1.42367E+01  1.30105E+01  1.25019E+01  1.10851E+01
   1.00299E+01  8.67862E+00  7.53943E+00  6.42782E+00  5.43432E+00  4.57026E+00  3.76168E+00  3.17593E+00  2.65406E+00  2.37159E+00
   2.25695E+00  2.14165E+00  2.22735E+00  2.10382E+00  2.14190E+00  1.96660E+00  1.89184E+00  1.72861E+00  1.72302E+00  1.58149E+00
   1.60797E+00  1.49236E+00  1.56213E+00  1.49681E+00  1.61888E+00  1.63219E+00  1.82908E+00  1.94865E+00  2.25344E+00  2.51564E+00
   2.94980E+00  3.36866E+00  3.94119E+00  4.51724E+00  5.21902E+00  5.93549E+00  6.73548E+00  7.54495E+00  8.38390E+00  9.20183E+00
   9.99332E+00  1.07204E+01  1.13641E+01  1.19047E+01  1.23184E+01  1.26080E+01  1.27592E+01  1.27945E+01  1.27389E+01  1.26264E+01
   1.22936E+01  1.20188E+01  1.14204E+01  1.10185E+01  1.02239E+01  9.74809E+00  8.83367E+00  8.50033E+00  7.63858E+00  7.49923E+00
   6.78060E+00  6.82033E+00  6.31603E+00  6.53242E+00  6.18242E+00  6.49387E+00  6.33514E+00  6.71489E+00  6.81510E+00  7.33192E+00
   7.99337E+00  8.55114E+00  9.41396E+00  9.88199E+00  1.05325E+01  1.07683E+01  1.08562E+01  1.07155E+01  1.06144E+01  1.03417E+01
   9.97356E+00  9.74554E+00  9.03270E+00  8.96671E+00  8.09994E+00  8.05694E+00  6.92093E+00  6.98505E+00  5.71335E+00  6.00076E+00
   4.64782E+00  5.13662E+00  4.21450E+00  5.11303E+00  4.84019E+00  5.95310E+00  6.07425E+00  7.15874E+00  7.22835E+00  8.03554E+00
   7.80838E+00  8.15867E+00  7.80827E+00  7.72154E+00  7.19456E+00  6.78147E+00  5.97328E+00  5.36940E+00  4.51442E+00  3.94845E+00
   3.50207E+00  3.13095E+00  2.98057E+00  2.81277E+00  2.74214E+00  2.64985E+00  2.50421E+00  2.38742E+00  2.29826E+00  2.23328E+00
   2.19219E+00  2.17530E+00  2.18296E+00  2.21539E+00  2.27254E+00  2.35404E+00  2.45909E+00  2.58641E+00  2.73415E+00  2.89986E+00
   3.08048E+00  3.27229E+00  3.47098E+00  3.67171E+00  3.86921E+00  4.05790E+00  4.23216E+00  4.38642E+00  4.51548E+00  4.61463E+00
   4.67996E+00  4.70847E+00  4.69824E+00  4.64851E+00  4.55968E+00  4.43333E+00  4.27207E+00  4.07946E+00  3.85979E+00  3.61786E+00
   3.35879E+00  3.08776E+00  2.80983E+00  2.52979E+00  2.25194E+00  1.98004E+00  1.71723E+00  1.46599E+00  1.22819E+00  1.00506E+00
   7.97301E-01  6.05141E-01  4.28404E-01  2.66604E-01  1.19027E-01 -1.52107E-02 -1.37086E-01 -2.47637E-01 -3.47894E-01 -4.38870E-01
  -5.21517E-01 -5.96733E-01 -6.65335E-01 -7.28075E-01 -7.85619E-01 -8.38563E-01 -8.87431E-01 -9.32684E-01 -9.74732E-01 -1.01393E+00
  -1.05059E+00 -1.08498E+00 -1.11734E+00 -1.14787E+00 -1.17676E+00 -1.20416E+00 -1.23023E+00 -1.25508E+00 -1.27882E+00 -1.30154E+00
  -1.32334E+00 -1.34430E+00 -1.36447E+00 -1.38393E+00 -1.40272E+00 -1.42090E+00 -1.43852E+00 -1.45560E+00 -1.47221E+00 -1.48835E+00
  -1.50406E+00 -1.51938E+00 -1.53433E+00 -1.54893E+00 -1.56321E+00 -1.57717E+00 -1.59085E+00 -1.60425E+00 -1.61740E+00 -1.63030E+00
  -1.64298E+00 -1.65543E+00 -1.66768E+00 -1.67974E+00 -1.69161E+00 -1.70330E+00 -1.71482E+00 -1.72618E+00 -1.73738E+00 -1.74844E+00
  -1.75936E+00 -1.77013E+00 -1.78078E+00 -1.79130E+00 -1.80170E+00 -1.81197E+00 -1.82213E+00 -1.83217E+00 -1.84210E+00 -1.85191E+00
  -1.86161E+00 -1.87120E+00 -1.88066E+00 -1.88999E+00 -1.89919E+00 -1.90824E+00 -1.91712E+00 -1.92580E+00
 NY background values follow
     1.272E+00    1.265E+00    1.258E+00    1.251E+00    1.245E+00    1.238E+00    1.231E+00    1.224E+00    1.217E+00    1.211E+00
     1.204E+00    1.197E+00    1.190E+00    1.184E+00    1.177E+00    1.170E+00    1.163E+00    1.156E+00    1.150E+00    1.143E+00
     1.136E+00    1.129E+00    1.123E+00    1.116E+00    1.109E+00    1.102E+00    1.095E+00    1.089E+00    1.082E+00    1.075E+00
     1.068E+00    1.062E+00    1.055E+00    1.048E+00    1.041E+00    1.034E+00    1.028E+00    1.021E+00    1.014E+00    1.007E+00
     1.001E+00    9.938E-01    9.870E-01    9.802E-01    9.734E-01    9.666E-01    9.599E-01    9.531E-01    9.463E-01    9.395E-01
     9.328E-01    9.260E-01    9.192E-01    9.124E-01    9.056E-01    8.989E-01    8.921E-01    8.853E-01    8.785E-01    8.717E-01
     8.650E-01    8.582E-01    8.514E-01    8.446E-01    8.378E-01    8.311E-01    8.243E-01    8.175E-01    8.107E-01    8.040E-01
     7.972E-01    7.904E-01    7.836E-01    7.768E-01    7.701E-01    7.633E-01    7.565E-01    7.497E-01    7.429E-01    7.362E-01
     7.294E-01    7.226E-01    7.158E-01    7.090E-01    7.023E-01    6.955E-01    6.887E-01    6.819E-01    6.752E-01    6.684E-01
     6.616E-01    6.548E-01    6.480E-01    6.413E-01    6.345E-01    6.277E-01    6.209E-01    6.141E-01    6.074E-01    6.006E-01
     5.938E-01    5.870E-01    5.802E-01    5.735E-01    5.667E-01    5.599E-01    5.531E-01    5.464E-01    5.396E-01    5.328E-01
     5.260E-01    5.192E-01    5.125E-01    5.057E-01    4.989E-01    4.921E-01    4.853E-01    4.786E-01    4.718E-01    4.650E-01
     4.582E-01    4.515E-01    4.447E-01    4.379E-01    4.311E-01    4.243E-01    4.176E-01    4.108E-01    4.040E-01    3.972E-01
     3.905E-01    3.837E-01    3.769E-01    3.701E-01    3.633E-01    3.566E-01    3.498E-01    3.430E-01    3.362E-01    3.294E-01
     3.227E-01    3.159E-01    3.091E-01    3.023E-01    2.956E-01    2.888E-01    2.820E-01    2.752E-01    2.684E-01    2.617E-01
     2.549E-01    2.481E-01    2.413E-01    2.345E-01    2.278E-01    2.210E-01    2.142E-01    2.074E-01    2.007E-01    1.939E-01
     1.871E-01    1.803E-01    1.735E-01    1.668E-01    1.600E-01    1.532E-01    1.464E-01    1.397E-01    1.329E-01    1.261E-01
     1.193E-01    1.125E-01    1.058E-01    9.898E-02    9.221E-02    8.543E-02    7.865E-02    7.187E-02    6.509E-02    5.831E-02
     5.154E-02    4.476E-02    3.798E-02    3.120E-02    2.442E-02    1.764E-02    1.087E-02    4.088E-03   -2.690E-03   -9.469E-03
    -1.625E-02   -2.303E-02   -2.980E-02   -3.658E-02   -4.336E-02   -5.014E-02   -5.692E-02   -6.370E-02   -7.047E-02   -7.725E-02
    -8.403E-02   -9.081E-02   -9.759E-02   -1.044E-01   -1.111E-01   -1.179E-01   -1.247E-01   -1.315E-01   -1.383E-01   -1.450E-01
    -1.518E-01   -1.586E-01   -1.654E-01   -1.722E-01   -1.789E-01   -1.857E-01   -1.925E-01   -1.993E-01   -2.060E-01   -2.128E-01
    -2.196E-01   -2.264E-01   -2.332E-01   -2.399E-01   -2.467E-01   -2.535E-01   -2.603E-01   -2.671E-01   -2.738E-01   -2.806E-01
    -2.874E-01   -2.942E-01   -3.009E-01   -3.077E-01   -3.145E-01   -3.213E-01   -3.281E-01   -3.348E-01   -3.416E-01   -3.484E-01
    -3.552E-01   -3.620E-01   -3.687E-01   -3.755E-01   -3.823E-01   -3.891E-01   -3.958E-01   -4.026E-01   -4.094E-01   -4.162E-01
    -4.230E-01   -4.297E-01   -4.365E-01   -4.433E-01   -4.501E-01   -4.569E-01   -4.636E-01   -4.704E-01   -4.772E-01   -4.840E-01
    -4.907E-01   -4.975E-01   -5.043E-01   -5.111E-01   -5.179E-01   -5.246E-01   -5.314E-01   -5.382E-01   -5.450E-01   -5.518E-01
    -5.585E-01   -5.653E-01   -5.721E-01   -5.789E-01   -5.857E-01   -5.924E-01   -5.992E-01   -6.060E-01   -6.128E-01   -6.196E-01
    -6.263E-01   -6.331E-01   -6.399E-01   -6.467E-01   -6.534E-01   -6.602E-01   -6.670E-01   -6.738E-01   -6.806E-01   -6.873E-01
    -6.941E-01   -7.009E-01   -7.077E-01   -7.145E-01   -7.212E-01   -7.280E-01   -7.348E-01   -7.416E-01   -7.484E-01   -7.551E-01
    -7.619E-01   -7.687E-01   -7.755E-01   -7.823E-01   -7.890E-01   -7.958E-01   -8.026E-01   -8.094E-01   -8.162E-01   -8.229E-01
    -8.297E-01   -8.365E-01   -8.433E-01   -8.500E-01   -8.568E-01   -8.636E-01   -8.704E-01   -8.772E-01   -8.839E-01   -8.907E-01
    -8.975E-01   -9.043E-01   -9.111E-01   -9.178E-01   -9.246E-01   -9.314E-01   -9.382E-01   -9.450E-01   -9.517E-01   -9.585E-01
    -9.653E-01   -9.721E-01   -9.789E-01   -9.856E-01   -9.924E-01   -9.992E-01   -1.006E+00   -1.013E+00   -1.020E+00   -1.026E+00
    -1.033E+00   -1.040E+00   -1.047E+00   -1.053E+00   -1.060E+00   -1.067E+00   -1.074E+00   -1.081E+00   -1.087E+00   -1.094E+00
    -1.101E+00   -1.108E+00   -1.114E+00   -1.121E+00   -1.128E+00   -1.135E+00   -1.142E+00   -1.148E+00   -1.155E+00   -1.162E+00
    -1.169E+00   -1.175E+00   -1.182E+00   -1.189E+00   -1.196E+00   -1.203E+00   -1.209E+00   -1.216E+00   -1.223E+00   -1.230E+00
    -1.237E+00   -1.243E+00   -1.250E+00   -1.257E+00   -1.264E+00   -1.270E+00   -1.277E+00   -1.284E+00   -1.291E+00   -1.298E+00
    -1.304E+00   -1.311E+00   -1.318E+00   -1.325E+00   -1.331E+00   -1.338E+00   -1.345E+00   -1.352E+00   -1.359E+00   -1.365E+00
    -1.372E+00   -1.379E+00   -1.386E+00   -1.392E+00   -1.399E+00   -1.406E+00   -1.413E+00   -1.420E+00   -1.426E+00   -1.433E+00
    -1.440E+00   -1.447E+00   -1.454E+00   -1.460E+00   -1.467E+00   -1.474E+00   -1.481E+00   -1.487E+00   -1.494E+00   -1.501E+00
    -1.508E+00   -1.515E+00   -1.521E+00   -1.528E+00   -1.535E+00   -1.542E+00   -1.548E+00   -1.555E+00   -1.562E+00   -1.569E+00
    -1.576E+00   -1.582E+00   -1.589E+00   -1.596E+00   -1.603E+00   -1.609E+00   -1.616E+00   -1.623E+00   -1.630E+00   -1.637E+00
    -1.643E+00   -1.650E+00   -1.657E+00   -1.664E+00   -1.671E+00   -1.677E+00   -1.684E+00   -1.691E+00   -1.698E+00   -1.704E+00
    -1.711E+00   -1.718E+00   -1.725E+00   -1.732E+00   -1.738E+00   -1.745E+00   -1.752E+00   -1.759E+00   -1.765E+00   -1.772E+00
    -1.779E+00   -1.786E+00   -1.793E+00   -1.799E+00   -1.806E+00   -1.813E+00   -1.820E+00   -1.826E+00   -1.833E+00   -1.840E+00
    -1.847E+00   -1.854E+00   -1.860E+00   -1.867E+00   -1.874E+00   -1.881E+00   -1.888E+00   -1.894E+00   -1.901E+00   -1.908E+00
    -1.915E+00   -1.921E+00   -1.928E+00   -1.935E+00   -1.942E+00   -1.949E+00   -1.955E+00   -1.962E+00   -1.969E+00   -1.976E+00
    -1.982E+00   -1.989E+00   -1.996E+00   -2.003E+00   -2.010E+00   -2.016E+00   -2.023E+00   -2.030E+00   -2.037E+00   -2.043E+00
    -2.050E+00   -2.057E+00   -2.064E+00   -2.071E+00   -2.077E+00   -2.084E+00   -2.091E+00   -2.098E+00
 Ala      Conc. = 4.45E+02
