 LCModel (Version 6.3-1L) Copyright: S.W. Provencher.          Ref.: Magn. Reson. Med. 30:672-679 (1993).                
 Slice#3 Row#7 Col#5  PD_24_press_2_raw_act
 36 lines in following concentration table = NCONC+1
    Conc.  %SD /Cr+PCr  Metabolite                                         
  222.246 119% 7.6E-02 Ala                                                 
  163.251 298% 5.6E-02 Asp                                                 
 1.21E+03  39%   0.414 Cr                                                  
 1.71E+03  28%   0.586 PCr                                                 
  368.525  84%   0.126 GABA                                                
  744.934  43%   0.255 Glc                                                 
  301.989 174%   0.103 Gln                                                 
 2.63E+03  24%   0.900 Glu                                                 
  963.173  19%   0.330 GPC                                                 
  204.730  85% 7.0E-02 PCh                                                 
  910.751  21%   0.312 GSH                                                 
 4.20E+03  16%   1.437 Ins                                                 
  556.844  55%   0.191 Lac                                                 
 4.04E+03   4%   1.383 NAA                                                 
    0.000 999%   0.000 NAAG                                                
  400.612  17%   0.137 Scyllo                                              
 1.86E+03  25%   0.636 Tau                                                 
  546.389  51%   0.187 -CrCH2                                              
 1.17E+03   5%   0.400 GPC+PCh                                             
 4.04E+03   4%   1.383 NAA+NAAG                                            
 2.92E+03   5%   1.000 Cr+PCr                                              
 2.93E+03  28%   1.003 Glu+Gln                                             
    0.000 999%   0.000 Lip13a                                              
 1.31E+03  52%   0.447 Lip13b                                              
  218.026 153% 7.5E-02 Lip09                                               
  843.389  57%   0.289 MM09                                                
  256.741  87% 8.8E-02 Lip20                                               
 1.45E+03  52%   0.495 MM20                                                
  260.366  66% 8.9E-02 MM12                                                
  283.981 179% 9.7E-02 MM14                                                
  434.926  70%   0.149 MM17                                                
 1.31E+03  52%   0.447 Lip13a+Lip13b                                       
 1.85E+03  46%   0.634 MM14+Lip13a+Lip13b+MM12                             
 1.06E+03  43%   0.363 MM09+Lip09                                          
 1.70E+03  44%   0.583 MM20+Lip20                                          
   6 lines in following misc. output table
  FWHM = 0.054 ppm    S/N =   7                                            
  Data shift = 0.015 ppm                                                   
  Ph: -55 deg     -20.0 deg/ppm                                            
  alphaB,S = 1.2E+00,   4.0E-01                                            
   14 spline knots.   Ns = 5(1)                                            
   9 inflections.    11 extrema                                            
  498 points on ppm-axis = NY
      4.000000     3.992357     3.984714     3.977070     3.969427     3.961784     3.954141     3.946497     3.938854     3.931211
      3.923568     3.915925     3.908281     3.900638     3.892995     3.885352     3.877708     3.870065     3.862422     3.854779
      3.847136     3.839492     3.831849     3.824206     3.816563     3.808919     3.801276     3.793633     3.785990     3.778347
      3.770703     3.763060     3.755417     3.747774     3.740130     3.732487     3.724844     3.717201     3.709558     3.701914
      3.694271     3.686628     3.678985     3.671341     3.663698     3.656055     3.648412     3.640769     3.633125     3.625482
      3.617839     3.610196     3.602552     3.594909     3.587266     3.579623     3.571980     3.564336     3.556693     3.549050
      3.541407     3.533763     3.526120     3.518477     3.510834     3.503191     3.495547     3.487904     3.480261     3.472618
      3.464974     3.457331     3.449688     3.442045     3.434402     3.426758     3.419115     3.411472     3.403829     3.396185
      3.388542     3.380899     3.373256     3.365613     3.357969     3.350326     3.342683     3.335040     3.327396     3.319753
      3.312110     3.304467     3.296824     3.289180     3.281537     3.273894     3.266251     3.258607     3.250964     3.243321
      3.235678     3.228034     3.220391     3.212748     3.205105     3.197462     3.189818     3.182175     3.174532     3.166889
      3.159245     3.151602     3.143959     3.136316     3.128673     3.121029     3.113386     3.105743     3.098100     3.090456
      3.082813     3.075170     3.067527     3.059884     3.052240     3.044597     3.036954     3.029311     3.021667     3.014024
      3.006381     2.998738     2.991095     2.983451     2.975808     2.968165     2.960522     2.952878     2.945235     2.937592
      2.929949     2.922306     2.914662     2.907019     2.899376     2.891733     2.884089     2.876446     2.868803     2.861160
      2.853517     2.845873     2.838230     2.830587     2.822944     2.815300     2.807657     2.800014     2.792371     2.784728
      2.777084     2.769441     2.761798     2.754155     2.746511     2.738868     2.731225     2.723582     2.715939     2.708295
      2.700652     2.693009     2.685366     2.677722     2.670079     2.662436     2.654793     2.647150     2.639506     2.631863
      2.624220     2.616577     2.608933     2.601290     2.593647     2.586004     2.578361     2.570717     2.563074     2.555431
      2.547788     2.540144     2.532501     2.524858     2.517215     2.509572     2.501928     2.494285     2.486642     2.478999
      2.471355     2.463712     2.456069     2.448426     2.440783     2.433139     2.425496     2.417853     2.410210     2.402566
      2.394923     2.387280     2.379637     2.371994     2.364350     2.356707     2.349064     2.341421     2.333777     2.326134
      2.318491     2.310848     2.303205     2.295561     2.287918     2.280275     2.272632     2.264988     2.257345     2.249702
      2.242059     2.234416     2.226772     2.219129     2.211486     2.203843     2.196199     2.188556     2.180913     2.173270
      2.165627     2.157983     2.150340     2.142697     2.135054     2.127410     2.119767     2.112124     2.104481     2.096838
      2.089194     2.081551     2.073908     2.066265     2.058621     2.050978     2.043335     2.035692     2.028049     2.020405
      2.012762     2.005119     1.997476     1.989833     1.982190     1.974546     1.966903     1.959260     1.951617     1.943974
      1.936331     1.928688     1.921045     1.913402     1.905759     1.898115     1.890472     1.882829     1.875186     1.867543
      1.859900     1.852257     1.844614     1.836971     1.829327     1.821684     1.814041     1.806398     1.798755     1.791112
      1.783469     1.775826     1.768183     1.760540     1.752896     1.745253     1.737610     1.729967     1.722324     1.714681
      1.707038     1.699395     1.691752     1.684108     1.676465     1.668822     1.661179     1.653536     1.645893     1.638250
      1.630607     1.622964     1.615321     1.607677     1.600034     1.592391     1.584748     1.577105     1.569462     1.561819
      1.554176     1.546533     1.538890     1.531246     1.523603     1.515960     1.508317     1.500674     1.493031     1.485388
      1.477745     1.470102     1.462458     1.454815     1.447172     1.439529     1.431886     1.424243     1.416600     1.408957
      1.401314     1.393671     1.386027     1.378384     1.370741     1.363098     1.355455     1.347812     1.340169     1.332526
      1.324883     1.317240     1.309596     1.301953     1.294310     1.286667     1.279024     1.271381     1.263738     1.256095
      1.248452     1.240808     1.233165     1.225522     1.217879     1.210236     1.202593     1.194950     1.187307     1.179664
      1.172021     1.164377     1.156734     1.149091     1.141448     1.133805     1.126162     1.118519     1.110876     1.103233
      1.095590     1.087946     1.080303     1.072660     1.065017     1.057374     1.049731     1.042088     1.034445     1.026802
      1.019158     1.011515     1.003872     0.996229     0.988586     0.980943     0.973300     0.965657     0.958014     0.950371
      0.942727     0.935084     0.927441     0.919798     0.912155     0.904512     0.896869     0.889226     0.881583     0.873940
      0.866296     0.858653     0.851010     0.843367     0.835724     0.828081     0.820438     0.812795     0.805152     0.797508
      0.789865     0.782222     0.774579     0.766936     0.759293     0.751650     0.744007     0.736364     0.728721     0.721077
      0.713434     0.705791     0.698148     0.690505     0.682862     0.675219     0.667576     0.659933     0.652290     0.644646
      0.637003     0.629360     0.621717     0.614074     0.606431     0.598788     0.591145     0.583502     0.575858     0.568215
      0.560572     0.552929     0.545286     0.537643     0.530000     0.522357     0.514714     0.507071     0.499427     0.491784
      0.484141     0.476498     0.468855     0.461212     0.453569     0.445925     0.438282     0.430639     0.422996     0.415353
      0.407710     0.400067     0.392424     0.384780     0.377137     0.369494     0.361851     0.354208     0.346565     0.338922
      0.331278     0.323635     0.315992     0.308349     0.300706     0.293063     0.285420     0.277777     0.270133     0.262490
      0.254847     0.247204     0.239561     0.231918     0.224275     0.216631     0.208988     0.201345
 NY phased data points follow
  -2.48057E+02 -2.76544E+02 -2.32898E+02 -2.72955E+02 -2.10233E+02 -2.49293E+02 -1.81955E+02 -2.02928E+02 -1.49548E+02 -1.73340E+02
  -1.25063E+02 -1.69977E+02 -1.43522E+02 -1.99960E+02 -1.73315E+02 -2.10627E+02 -1.98715E+02 -2.23757E+02 -1.90899E+02 -2.29430E+02
  -1.92518E+02 -2.31768E+02 -1.84249E+02 -2.01286E+02 -1.64345E+02 -1.97889E+02 -1.55454E+02 -1.80164E+02 -1.58081E+02 -1.74976E+02
  -1.36125E+02 -1.72660E+02 -1.36871E+02 -1.76194E+02 -1.47424E+02 -1.71518E+02 -1.48217E+02 -1.74547E+02 -1.36655E+02 -1.64572E+02
  -1.43891E+02 -1.65282E+02 -1.41375E+02 -1.61349E+02 -1.21188E+02 -1.41292E+02 -1.07432E+02 -1.37328E+02 -1.15086E+02 -1.41397E+02
  -1.25615E+02 -1.45844E+02 -1.18772E+02 -1.52218E+02 -1.21091E+02 -1.39221E+02 -1.20113E+02 -1.46500E+02 -1.12008E+02 -1.26236E+02
  -1.13050E+02 -1.35972E+02 -1.18748E+02 -1.46831E+02 -1.24688E+02 -1.40011E+02 -1.08203E+02 -1.39020E+02 -1.15252E+02 -1.24785E+02
  -9.61277E+01 -1.31337E+02 -9.85585E+01 -1.08692E+02 -9.01109E+01 -1.07594E+02 -9.18163E+01 -1.09553E+02 -9.53247E+01 -1.10582E+02
  -8.66117E+01 -1.10227E+02 -8.19724E+01 -9.92849E+01 -8.00211E+01 -9.16187E+01 -7.48145E+01 -9.78121E+01 -7.44557E+01 -8.99655E+01
  -6.85518E+01 -8.66091E+01 -7.48887E+01 -8.44967E+01 -8.06655E+01 -8.91362E+01 -6.47042E+01 -7.92222E+01 -5.78343E+01 -5.10367E+01
  -2.00584E+01 -5.71784E+00  4.32104E+01  2.72582E+01  3.53776E+01 -8.39086E-01 -2.65989E+01 -4.77878E+01 -3.48713E+01 -6.96483E+01
  -4.66733E+01 -7.39111E+01 -7.04537E+01 -7.41005E+01 -6.63437E+01 -7.97561E+01 -5.90416E+01 -7.44896E+01 -6.34112E+01 -7.57370E+01
  -6.45537E+01 -6.78124E+01 -5.33345E+01 -4.35407E+01 -5.71429E+00 -1.30200E+00  4.73058E+01  4.01394E+01  4.46850E+01  5.20528E-01
   4.11240E+00 -3.58154E+01 -2.90003E+01 -5.04581E+01 -4.64710E+01 -6.24041E+01 -6.52036E+01 -7.07462E+01 -5.62668E+01 -5.87074E+01
  -4.81099E+01 -6.92661E+01 -4.81995E+01 -6.31871E+01 -5.24073E+01 -5.67571E+01 -4.58625E+01 -6.88916E+01 -5.24148E+01 -6.28564E+01
  -4.45378E+01 -5.24224E+01 -4.95399E+01 -4.13522E+01 -4.94532E+01 -4.96451E+01 -4.25414E+01 -5.73903E+01 -4.12373E+01 -5.78198E+01
  -4.93954E+01 -4.29574E+01 -3.79251E+01 -4.84578E+01 -3.42844E+01 -3.50505E+01 -2.45249E+01 -4.08166E+01 -2.99866E+01 -4.96202E+01
  -3.59675E+01 -4.26021E+01 -3.89638E+01 -4.98734E+01 -4.78164E+01 -5.69488E+01 -5.23154E+01 -5.39143E+01 -4.70635E+01 -6.50017E+01
  -4.48789E+01 -6.43741E+01 -4.61834E+01 -5.71030E+01 -4.13411E+01 -5.91209E+01 -3.86726E+01 -3.85436E+01 -2.96494E+01 -4.71650E+01
  -2.47092E+01 -2.62909E+01 -9.57504E+00 -2.21576E+01 -1.68482E+01 -1.22501E+01 -1.82255E+01 -2.52022E+01 -2.52028E+01 -3.25530E+01
  -2.01711E+01 -2.36844E+01 -1.59529E+01 -2.31609E+01 -6.07640E+00 -2.41189E+01 -2.56163E+01 -1.94902E+01 -2.07695E+01 -3.31063E+01
  -1.44353E+01 -3.70703E+01 -1.55822E+01 -5.82147E+00  1.53964E+00 -3.51296E+00  1.79642E+01 -1.09814E+01  1.23974E+01 -1.10878E+01
  -7.52252E+00 -2.67261E+01 -1.05138E+01 -2.64159E+01 -3.28004E+00 -1.55921E+01 -3.99057E+00 -1.71127E+00  4.82565E+00 -1.22382E+00
   6.04760E+00 -1.85317E+00 -2.19015E+00 -1.83217E+00  8.14654E+00  1.83241E+00  2.54084E+00  4.24852E+00  1.02504E+01 -2.48347E+00
  -6.72030E+00 -1.50603E+00 -3.93493E+00  2.42675E+00  1.28447E+01  2.82022E+00  7.95286E+00  6.74862E+00  7.02250E+00  1.60401E+01
   2.82721E+01  1.99672E+01  1.96036E+01  4.23853E+00  1.20722E+01  1.13793E+01  3.30533E+01  5.36216E+01  1.02860E+02  1.16162E+02
   1.52103E+02  1.51107E+02  1.43261E+02  1.03847E+02  8.91773E+01  6.67488E+01  5.41285E+01  2.44299E+01  1.33418E+01  1.44582E+01
   1.36668E+01  7.86953E+00  1.46334E+01  9.98006E+00  1.37917E+01  1.68751E+01  8.27481E+00  1.96095E+00  8.48640E+00  8.76583E+00
   1.08338E+01  3.66760E-01  9.84152E+00 -1.45897E+00  1.18450E+01  1.24957E+01  3.00842E+00  9.13421E+00  9.89101E+00  1.38082E+01
   5.45446E+00  8.03059E+00  1.20781E+01  5.01651E+00  1.82069E+01  1.78951E+01  8.92443E+00  1.68131E+01  9.71705E+00  1.38328E+01
   1.71320E+01  2.05642E+01  9.35210E+00  1.12055E+01  1.98485E+01  5.20437E+00  2.25795E+01  1.60895E+01  2.26753E+01  1.93071E+01
   2.16713E+01  2.00189E+01  1.59326E+01  2.30977E+01  3.52092E+01  1.08369E+01  2.38353E+01  1.78461E+01  2.40813E+01  1.91294E+01
   1.43194E+01  4.76591E+00  1.32259E+01  5.69725E+00  1.44056E+01  1.38101E+01  8.79528E+00  2.14411E+01  1.06983E+01 -8.81124E-01
   1.02877E+01  1.70631E+01  1.49161E+01  5.32993E+00  1.32178E+01  7.93765E+00  2.05541E+01  2.20950E+01  1.98236E+01  2.02252E+01
   2.02203E+01  1.60036E+01  2.76404E+01  1.51029E+01  3.23401E+01  3.10727E+01  2.92277E+01  3.30291E+01  2.41117E+01  1.92552E+01
   2.20591E+01  2.63939E+01  1.99933E+01  2.29321E+01  3.34813E+01  3.87599E+01  3.16848E+01  3.27805E+01  3.80047E+01  3.63711E+01
   2.75751E+01  3.31245E+01  3.18075E+01  2.52159E+01  2.94970E+01  2.70745E+01  3.23537E+01  2.87418E+01  2.50007E+01  3.37669E+01
   3.42837E+01  1.91550E+01  2.17752E+01  2.74975E+01  2.36453E+01  2.73859E+01  3.41176E+01  2.37690E+01  2.84854E+01  2.60630E+01
   2.29983E+01  2.47368E+01  1.54270E+01  2.49142E+01  1.15211E+01  1.96651E+01  2.06491E+01  2.02141E+01  1.61489E+01  1.42615E+01
   2.07659E+01  2.02321E+01  2.06199E+01  2.77668E+01  2.67653E+01  2.33076E+01  1.74685E+01  3.23151E+01  1.87243E+01  2.31745E+01
   1.85587E+01  3.44235E+01  2.22513E+01  3.61862E+01  3.74173E+01  3.78738E+01  2.75388E+01  2.75373E+01  3.99414E+01  4.09378E+01
   3.29446E+01  3.38388E+01  2.50997E+01  3.72801E+01  2.23042E+01  3.30790E+01  2.89400E+01  2.09909E+01  2.63136E+01  3.40908E+01
   2.53834E+01  3.19093E+01  2.68744E+01  3.37752E+01  2.67517E+01  1.85074E+01  1.84963E+01  3.24489E+01  1.71625E+01  1.80204E+01
   2.68527E+01  3.05619E+01  2.30114E+01  3.73164E+01  3.42174E+01  2.80552E+01  3.57201E+01  2.08144E+01  2.64435E+01  2.78380E+01
   3.01275E+01  2.03959E+01  3.23516E+01  3.14364E+01  3.54589E+01  2.74857E+01  3.13481E+01  3.07337E+01  2.12751E+01  2.51396E+01
   2.53826E+01  3.46983E+01  1.93080E+01  3.75909E+01  1.65348E+01  3.26521E+01  3.74839E+01  3.31194E+01  2.66441E+01  2.63195E+01
   2.93166E+01  3.03627E+01  3.28776E+01  3.69684E+01  2.79700E+01  2.75194E+01  3.44191E+01  3.26758E+01  3.52691E+01  3.69509E+01
   3.83480E+01  3.56272E+01  3.62644E+01  3.04539E+01  2.87954E+01  3.57553E+01  2.79101E+01  3.14053E+01  3.57618E+01  3.80746E+01
   2.58347E+01  2.94902E+01  3.23858E+01  2.96347E+01  2.24878E+01  3.72485E+01  2.67231E+01  3.02780E+01  3.90770E+01  3.11383E+01
   3.72065E+01  2.32995E+01  3.60674E+01  3.11137E+01  3.33767E+01  3.64503E+01  3.80368E+01  3.59225E+01
 NY points of the fit to the data follow
  -2.28684E+02 -2.26435E+02 -2.26751E+02 -2.20323E+02 -2.16763E+02 -2.12897E+02 -1.89314E+02 -1.94565E+02 -1.55507E+02 -1.71558E+02
  -1.41117E+02 -1.72873E+02 -1.55379E+02 -1.88159E+02 -1.75352E+02 -1.93406E+02 -1.91300E+02 -1.98124E+02 -1.98312E+02 -1.99186E+02
  -1.96010E+02 -1.94989E+02 -1.91864E+02 -1.92374E+02 -1.87648E+02 -1.87214E+02 -1.84108E+02 -1.84583E+02 -1.68675E+02 -1.74267E+02
  -1.51439E+02 -1.58427E+02 -1.40950E+02 -1.56668E+02 -1.44877E+02 -1.59076E+02 -1.53286E+02 -1.62330E+02 -1.65762E+02 -1.68565E+02
  -1.66189E+02 -1.63059E+02 -1.60145E+02 -1.52942E+02 -1.41711E+02 -1.34489E+02 -1.23131E+02 -1.20196E+02 -1.22293E+02 -1.30606E+02
  -1.37202E+02 -1.42871E+02 -1.44147E+02 -1.44026E+02 -1.46815E+02 -1.44345E+02 -1.38822E+02 -1.36701E+02 -1.27845E+02 -1.27933E+02
  -1.21690E+02 -1.25621E+02 -1.24029E+02 -1.28852E+02 -1.24795E+02 -1.28106E+02 -1.19772E+02 -1.24629E+02 -1.15520E+02 -1.19908E+02
  -1.08942E+02 -1.16256E+02 -1.03709E+02 -1.06765E+02 -1.01052E+02 -9.96743E+01 -9.94361E+01 -1.01171E+02 -1.05752E+02 -1.05777E+02
  -1.08721E+02 -1.02426E+02 -1.00640E+02 -1.03196E+02 -8.60229E+01 -9.62004E+01 -7.69560E+01 -8.96409E+01 -7.74184E+01 -9.42508E+01
  -8.38732E+01 -9.61247E+01 -8.96760E+01 -9.17541E+01 -9.75835E+01 -9.40592E+01 -8.77318E+01 -7.58940E+01 -7.37474E+01 -5.02869E+01
  -1.76832E+01 -3.33103E+00  3.78220E+01  2.94641E+01  3.38083E+01 -3.92809E+00 -1.18762E+01 -4.31558E+01 -4.06558E+01 -5.91899E+01
  -7.23995E+01 -7.48558E+01 -7.73554E+01 -7.64106E+01 -7.66138E+01 -7.66235E+01 -7.59737E+01 -7.56744E+01 -7.49467E+01 -7.37278E+01
  -7.08665E+01 -5.87346E+01 -5.98907E+01 -4.50487E+01  1.87522E+00 -2.63603E+00  5.54638E+01  2.99968E+01  5.09693E+01 -5.36513E+00
   7.54517E+00 -3.61727E+01 -2.14117E+01 -4.35672E+01 -5.54812E+01 -5.92047E+01 -6.26713E+01 -6.29335E+01 -6.47183E+01 -6.11037E+01
  -5.95029E+01 -5.55593E+01 -5.48856E+01 -5.16003E+01 -5.19898E+01 -5.10037E+01 -5.08892E+01 -5.11115E+01 -5.08652E+01 -5.10015E+01
  -5.10304E+01 -5.06374E+01 -5.03999E+01 -5.01561E+01 -4.94919E+01 -4.92605E+01 -4.85635E+01 -4.77767E+01 -4.82215E+01 -4.78925E+01
  -4.83582E+01 -4.87084E+01 -4.68379E+01 -4.59523E+01 -4.38064E+01 -4.34967E+01 -4.27397E+01 -4.41695E+01 -4.34967E+01 -4.38980E+01
  -4.38760E+01 -4.38494E+01 -4.39757E+01 -4.44105E+01 -4.50665E+01 -4.41062E+01 -4.50732E+01 -4.21868E+01 -4.27777E+01 -4.00802E+01
  -4.12817E+01 -4.00000E+01 -4.02180E+01 -3.87162E+01 -3.80089E+01 -3.80499E+01 -3.63922E+01 -3.58166E+01 -3.10474E+01 -2.79032E+01
  -2.30875E+01 -2.15446E+01 -1.90030E+01 -2.06021E+01 -1.79095E+01 -2.16939E+01 -2.16146E+01 -2.34932E+01 -2.35443E+01 -2.31623E+01
  -2.14794E+01 -1.71377E+01 -1.62223E+01 -1.17386E+01 -1.16907E+01 -1.18949E+01 -9.86016E+00 -1.60605E+01 -1.52001E+01 -2.01607E+01
  -1.94735E+01 -2.13750E+01 -1.89690E+01 -1.66470E+01 -7.48894E+00 -6.63446E+00  1.66416E+00 -4.40947E+00 -2.17118E+00 -1.41187E+01
  -1.51400E+01 -2.53616E+01 -2.24416E+01 -2.59261E+01 -2.05032E+01 -1.41260E+01 -8.18530E+00 -4.94213E+00 -2.12806E+00 -3.49205E+00
  -1.81055E+00 -2.68098E+00 -3.25704E+00 -2.76588E+00 -2.47716E-02  2.00003E+00  5.11450E+00  5.98395E+00  5.43543E+00  5.49153E+00
   6.97001E-01 -4.55131E-01 -4.52287E+00 -1.04801E+00 -2.12860E+00  3.33437E+00  4.31168E+00  8.54905E+00  9.14694E+00  9.41804E+00
   9.24824E+00  9.21380E+00  1.01568E+01  1.17773E+01  1.79574E+01  3.33025E+01  2.96141E+01  6.13943E+01  9.89439E+01  1.14928E+02
   1.60183E+02  1.45986E+02  1.47954E+02  9.57504E+01  9.39153E+01  4.85236E+01  5.71678E+01  2.75960E+01  1.58612E+01  9.77485E+00
   9.37803E+00  7.63160E+00  7.72889E+00  8.21573E+00  9.28631E+00  9.80496E+00  1.02915E+01  1.07570E+01  1.02765E+01  1.01902E+01
   9.76609E+00  9.39517E+00  8.97848E+00  9.08940E+00  9.03712E+00  9.38631E+00  9.73939E+00  1.00423E+01  1.04316E+01  1.06971E+01
   1.10408E+01  1.12129E+01  1.15664E+01  1.16513E+01  1.19852E+01  1.21184E+01  1.25050E+01  1.26735E+01  1.30367E+01  1.32768E+01
   1.35771E+01  1.38351E+01  1.41082E+01  1.43349E+01  1.45689E+01  1.47466E+01  1.49297E+01  1.50571E+01  1.51998E+01  1.52882E+01
   1.54065E+01  1.54617E+01  1.55619E+01  1.56091E+01  1.57093E+01  1.57688E+01  1.58889E+01  1.59813E+01  1.61495E+01  1.63137E+01
   1.65978E+01  1.69850E+01  1.73847E+01  1.73026E+01  1.91814E+01  1.79476E+01  1.92876E+01  1.72874E+01  1.72074E+01  1.48078E+01
   1.55998E+01  1.34599E+01  1.55101E+01  1.54075E+01  1.70945E+01  1.85353E+01  2.06718E+01  2.11126E+01  2.18364E+01  2.21163E+01
   2.23730E+01  2.36597E+01  2.44765E+01  2.40684E+01  2.74311E+01  2.82017E+01  2.82760E+01  2.88053E+01  2.53197E+01  2.39130E+01
   2.18814E+01  2.08667E+01  2.27412E+01  2.56586E+01  2.83679E+01  3.19527E+01  3.62156E+01  3.67990E+01  3.66238E+01  3.56861E+01
   3.34204E+01  3.32341E+01  3.06020E+01  2.86294E+01  2.71804E+01  2.59716E+01  2.50237E+01  2.42314E+01  2.36468E+01  2.31684E+01
   2.28475E+01  2.25856E+01  2.24383E+01  2.23144E+01  2.22756E+01  2.22380E+01  2.22690E+01  2.22905E+01  2.23735E+01  2.24435E+01
   2.25726E+01  2.26887E+01  2.28642E+01  2.30288E+01  2.32550E+01  2.34732E+01  2.37552E+01  2.40316E+01  2.43735E+01  2.47112E+01
   2.51144E+01  2.55124E+01  2.59721E+01  2.64215E+01  2.69248E+01  2.74083E+01  2.79330E+01  2.84233E+01  2.89375E+01  2.93991E+01
   2.98650E+01  3.02593E+01  3.06390E+01  3.09300E+01  3.11912E+01  3.13526E+01  3.14765E+01  3.14977E+01  3.14825E+01  3.13704E+01
   3.12313E+01  3.10091E+01  3.07760E+01  3.04784E+01  3.01891E+01  2.98551E+01  2.95479E+01  2.92139E+01  2.89224E+01  2.86177E+01
   2.83659E+01  2.81091E+01  2.79104E+01  2.77104E+01  2.75696E+01  2.74272E+01  2.73416E+01  2.72516E+01  2.72145E+01  2.71693E+01
   2.71725E+01  2.71637E+01  2.71988E+01  2.72180E+01  2.72776E+01  2.73185E+01  2.73967E+01  2.74538E+01  2.75456E+01  2.76147E+01
   2.77169E+01  2.77952E+01  2.79051E+01  2.79903E+01  2.81058E+01  2.81962E+01  2.83162E+01  2.84107E+01  2.85341E+01  2.86317E+01
   2.87575E+01  2.88576E+01  2.89854E+01  2.90875E+01  2.92169E+01  2.93205E+01  2.94510E+01  2.95559E+01  2.96875E+01  2.97937E+01
   2.99259E+01  3.00329E+01  3.01657E+01  3.02735E+01  3.04070E+01  3.05155E+01  3.06493E+01  3.07583E+01  3.08925E+01  3.10022E+01
   3.11367E+01  3.12468E+01  3.13814E+01  3.14919E+01  3.16269E+01  3.17379E+01  3.18732E+01  3.19845E+01  3.21198E+01  3.22316E+01
   3.23672E+01  3.24795E+01  3.26152E+01  3.27278E+01  3.28637E+01  3.29767E+01  3.31130E+01  3.32266E+01  3.33631E+01  3.34770E+01
   3.36138E+01  3.37284E+01  3.38657E+01  3.39810E+01  3.41187E+01  3.42346E+01  3.43731E+01  3.44901E+01
 NY background values follow
    -2.378E+02   -2.362E+02   -2.346E+02   -2.330E+02   -2.314E+02   -2.298E+02   -2.282E+02   -2.266E+02   -2.250E+02   -2.234E+02
    -2.219E+02   -2.203E+02   -2.187E+02   -2.171E+02   -2.155E+02   -2.139E+02   -2.123E+02   -2.107E+02   -2.091E+02   -2.075E+02
    -2.060E+02   -2.044E+02   -2.028E+02   -2.012E+02   -1.997E+02   -1.981E+02   -1.965E+02   -1.950E+02   -1.934E+02   -1.918E+02
    -1.903E+02   -1.887E+02   -1.872E+02   -1.857E+02   -1.841E+02   -1.826E+02   -1.811E+02   -1.795E+02   -1.780E+02   -1.765E+02
    -1.750E+02   -1.735E+02   -1.720E+02   -1.705E+02   -1.690E+02   -1.675E+02   -1.660E+02   -1.646E+02   -1.631E+02   -1.617E+02
    -1.602E+02   -1.587E+02   -1.573E+02   -1.559E+02   -1.544E+02   -1.530E+02   -1.516E+02   -1.502E+02   -1.488E+02   -1.474E+02
    -1.460E+02   -1.446E+02   -1.433E+02   -1.419E+02   -1.405E+02   -1.392E+02   -1.378E+02   -1.365E+02   -1.352E+02   -1.338E+02
    -1.325E+02   -1.312E+02   -1.299E+02   -1.286E+02   -1.273E+02   -1.260E+02   -1.248E+02   -1.235E+02   -1.223E+02   -1.210E+02
    -1.198E+02   -1.185E+02   -1.173E+02   -1.161E+02   -1.149E+02   -1.137E+02   -1.125E+02   -1.113E+02   -1.102E+02   -1.090E+02
    -1.079E+02   -1.067E+02   -1.056E+02   -1.045E+02   -1.033E+02   -1.022E+02   -1.011E+02   -1.000E+02   -9.896E+01   -9.788E+01
    -9.682E+01   -9.576E+01   -9.472E+01   -9.368E+01   -9.265E+01   -9.163E+01   -9.061E+01   -8.960E+01   -8.861E+01   -8.762E+01
    -8.664E+01   -8.566E+01   -8.470E+01   -8.374E+01   -8.279E+01   -8.184E+01   -8.091E+01   -7.998E+01   -7.906E+01   -7.815E+01
    -7.724E+01   -7.634E+01   -7.545E+01   -7.457E+01   -7.369E+01   -7.282E+01   -7.196E+01   -7.111E+01   -7.026E+01   -6.942E+01
    -6.858E+01   -6.776E+01   -6.693E+01   -6.612E+01   -6.531E+01   -6.451E+01   -6.372E+01   -6.293E+01   -6.215E+01   -6.137E+01
    -6.060E+01   -5.984E+01   -5.908E+01   -5.833E+01   -5.758E+01   -5.684E+01   -5.611E+01   -5.538E+01   -5.466E+01   -5.394E+01
    -5.323E+01   -5.252E+01   -5.182E+01   -5.113E+01   -5.044E+01   -4.975E+01   -4.907E+01   -4.839E+01   -4.772E+01   -4.705E+01
    -4.639E+01   -4.573E+01   -4.508E+01   -4.443E+01   -4.379E+01   -4.315E+01   -4.251E+01   -4.188E+01   -4.125E+01   -4.063E+01
    -4.001E+01   -3.939E+01   -3.878E+01   -3.817E+01   -3.757E+01   -3.696E+01   -3.637E+01   -3.577E+01   -3.518E+01   -3.459E+01
    -3.400E+01   -3.342E+01   -3.284E+01   -3.226E+01   -3.169E+01   -3.112E+01   -3.055E+01   -2.999E+01   -2.943E+01   -2.887E+01
    -2.831E+01   -2.776E+01   -2.721E+01   -2.667E+01   -2.612E+01   -2.558E+01   -2.505E+01   -2.452E+01   -2.399E+01   -2.346E+01
    -2.294E+01   -2.242E+01   -2.191E+01   -2.140E+01   -2.089E+01   -2.038E+01   -1.988E+01   -1.939E+01   -1.889E+01   -1.840E+01
    -1.792E+01   -1.744E+01   -1.696E+01   -1.648E+01   -1.601E+01   -1.555E+01   -1.509E+01   -1.463E+01   -1.417E+01   -1.372E+01
    -1.328E+01   -1.283E+01   -1.240E+01   -1.196E+01   -1.153E+01   -1.111E+01   -1.068E+01   -1.027E+01   -9.854E+00   -9.446E+00
    -9.041E+00   -8.641E+00   -8.244E+00   -7.852E+00   -7.464E+00   -7.080E+00   -6.700E+00   -6.324E+00   -5.953E+00   -5.585E+00
    -5.221E+00   -4.861E+00   -4.505E+00   -4.153E+00   -3.805E+00   -3.461E+00   -3.120E+00   -2.784E+00   -2.451E+00   -2.122E+00
    -1.797E+00   -1.476E+00   -1.158E+00   -8.444E-01   -5.343E-01   -2.278E-01    7.507E-02    3.743E-01    6.698E-01    9.618E-01
     1.250E+00    1.535E+00    1.816E+00    2.094E+00    2.368E+00    2.639E+00    2.907E+00    3.170E+00    3.431E+00    3.688E+00
     3.942E+00    4.192E+00    4.439E+00    4.683E+00    4.923E+00    5.161E+00    5.395E+00    5.626E+00    5.854E+00    6.079E+00
     6.301E+00    6.520E+00    6.736E+00    6.949E+00    7.160E+00    7.368E+00    7.573E+00    7.775E+00    7.975E+00    8.172E+00
     8.367E+00    8.559E+00    8.749E+00    8.936E+00    9.121E+00    9.304E+00    9.485E+00    9.663E+00    9.840E+00    1.001E+01
     1.019E+01    1.036E+01    1.052E+01    1.069E+01    1.085E+01    1.102E+01    1.118E+01    1.134E+01    1.149E+01    1.165E+01
     1.180E+01    1.196E+01    1.211E+01    1.226E+01    1.240E+01    1.255E+01    1.270E+01    1.284E+01    1.298E+01    1.312E+01
     1.326E+01    1.340E+01    1.354E+01    1.368E+01    1.381E+01    1.395E+01    1.408E+01    1.421E+01    1.434E+01    1.448E+01
     1.460E+01    1.473E+01    1.486E+01    1.499E+01    1.511E+01    1.524E+01    1.536E+01    1.549E+01    1.561E+01    1.573E+01
     1.585E+01    1.597E+01    1.609E+01    1.621E+01    1.633E+01    1.644E+01    1.656E+01    1.668E+01    1.679E+01    1.691E+01
     1.702E+01    1.714E+01    1.725E+01    1.737E+01    1.748E+01    1.759E+01    1.770E+01    1.782E+01    1.793E+01    1.804E+01
     1.815E+01    1.826E+01    1.837E+01    1.848E+01    1.859E+01    1.870E+01    1.881E+01    1.892E+01    1.903E+01    1.914E+01
     1.925E+01    1.936E+01    1.947E+01    1.958E+01    1.969E+01    1.979E+01    1.990E+01    2.001E+01    2.012E+01    2.023E+01
     2.034E+01    2.045E+01    2.056E+01    2.067E+01    2.078E+01    2.089E+01    2.100E+01    2.111E+01    2.122E+01    2.133E+01
     2.144E+01    2.155E+01    2.167E+01    2.178E+01    2.189E+01    2.200E+01    2.211E+01    2.223E+01    2.234E+01    2.246E+01
     2.257E+01    2.268E+01    2.280E+01    2.292E+01    2.303E+01    2.315E+01    2.327E+01    2.338E+01    2.350E+01    2.362E+01
     2.374E+01    2.386E+01    2.398E+01    2.410E+01    2.422E+01    2.434E+01    2.447E+01    2.459E+01    2.471E+01    2.484E+01
     2.496E+01    2.508E+01    2.521E+01    2.533E+01    2.546E+01    2.558E+01    2.571E+01    2.583E+01    2.596E+01    2.609E+01
     2.621E+01    2.634E+01    2.647E+01    2.659E+01    2.672E+01    2.685E+01    2.698E+01    2.710E+01    2.723E+01    2.736E+01
     2.749E+01    2.761E+01    2.774E+01    2.787E+01    2.800E+01    2.813E+01    2.825E+01    2.838E+01    2.851E+01    2.864E+01
     2.877E+01    2.889E+01    2.902E+01    2.915E+01    2.928E+01    2.940E+01    2.953E+01    2.966E+01    2.979E+01    2.991E+01
     3.004E+01    3.017E+01    3.029E+01    3.042E+01    3.055E+01    3.067E+01    3.080E+01    3.092E+01    3.105E+01    3.118E+01
     3.130E+01    3.143E+01    3.155E+01    3.168E+01    3.181E+01    3.193E+01    3.206E+01    3.218E+01    3.231E+01    3.243E+01
     3.256E+01    3.268E+01    3.281E+01    3.293E+01    3.306E+01    3.318E+01    3.331E+01    3.343E+01    3.356E+01    3.368E+01
     3.381E+01    3.393E+01    3.406E+01    3.418E+01    3.431E+01    3.443E+01    3.456E+01    3.468E+01
 Ala      Conc. = 2.22E+02
