 LCModel (Version 6.3-1L) Copyright: S.W. Provencher.          Ref.: Magn. Reson. Med. 30:672-679 (1993).                
 Slice#3 Row#8 Col#1  PD_24_press_2_raw_act
 36 lines in following concentration table = NCONC+1
    Conc.  %SD /Cr+PCr  Metabolite                                         
 1.62E+03  51%   3.118 Ala                                                 
   51.751  18%   0.100 Asp                                                 
    0.000 999%   0.000 Cr                                                  
  519.783  20%   1.000 PCr                                                 
   31.105  18% 6.0E-02 GABA                                                
   31.076  18% 6.0E-02 Glc                                                 
 2.58E+03  40%   4.969 Gln                                                 
    0.000 999%   0.000 Glu                                                 
    0.000 999%   0.000 GPC                                                 
  172.369  22%   0.332 PCh                                                 
    0.000 999%   0.000 GSH                                                 
    0.000 999%   0.000 Ins                                                 
    0.000 999%   0.000 Lac                                                 
    0.000 999%   0.000 NAA                                                 
    0.000 999%   0.000 NAAG                                                
   10.385  18% 2.0E-02 Scyllo                                              
   51.751  18%   0.100 Tau                                                 
   50.441  25% 9.7E-02 -CrCH2                                              
  172.369  22%   0.332 GPC+PCh                                             
    0.000 999%   0.000 NAA+NAAG                                            
  519.783  20%   1.000 Cr+PCr                                              
 2.58E+03  40%   4.969 Glu+Gln                                             
 3.35E+03  21%   6.453 Lip13a                                              
    0.000 999%   0.000 Lip13b                                              
  345.069 107%   0.664 Lip09                                               
 1.11E+03  29%   2.132 MM09                                                
 1.54E+03  20%   2.971+Lip20                                               
 3.19E+03  15%   6.136 MM20                                                
  407.316  70%   0.784 MM12                                                
 2.34E+03  15%   4.505 MM14                                                
 1.49E+03  15%   2.873 MM17                                                
 3.35E+03  21%   6.453 Lip13a+Lip13b                                       
 6.10E+03  12%  11.741 MM14+Lip13a+Lip13b+MM12                             
 1.45E+03  19%   2.796 MM09+Lip09                                          
 4.73E+03   9%   9.108 MM20+Lip20                                          
   6 lines in following misc. output table
  FWHM = 0.122 ppm    S/N =   2                                            
  Data shift = 0.229 ppm                                                   
  Ph:  89 deg      21.8 deg/ppm                                            
  alphaB,S = 8.1E+00,   1.0E+02                                            
    6 spline knots.   Ns = 9(2)                                            
  (13) 3 infls.   (15) 1 extrs.                                            
  498 points on ppm-axis = NY
      4.000000     3.992357     3.984714     3.977070     3.969427     3.961784     3.954141     3.946497     3.938854     3.931211
      3.923568     3.915925     3.908281     3.900638     3.892995     3.885352     3.877708     3.870065     3.862422     3.854779
      3.847136     3.839492     3.831849     3.824206     3.816563     3.808919     3.801276     3.793633     3.785990     3.778347
      3.770703     3.763060     3.755417     3.747774     3.740130     3.732487     3.724844     3.717201     3.709558     3.701914
      3.694271     3.686628     3.678985     3.671341     3.663698     3.656055     3.648412     3.640769     3.633125     3.625482
      3.617839     3.610196     3.602552     3.594909     3.587266     3.579623     3.571980     3.564336     3.556693     3.549050
      3.541407     3.533763     3.526120     3.518477     3.510834     3.503191     3.495547     3.487904     3.480261     3.472618
      3.464974     3.457331     3.449688     3.442045     3.434402     3.426758     3.419115     3.411472     3.403829     3.396185
      3.388542     3.380899     3.373256     3.365613     3.357969     3.350326     3.342683     3.335040     3.327396     3.319753
      3.312110     3.304467     3.296824     3.289180     3.281537     3.273894     3.266251     3.258607     3.250964     3.243321
      3.235678     3.228034     3.220391     3.212748     3.205105     3.197462     3.189818     3.182175     3.174532     3.166889
      3.159245     3.151602     3.143959     3.136316     3.128673     3.121029     3.113386     3.105743     3.098100     3.090456
      3.082813     3.075170     3.067527     3.059884     3.052240     3.044597     3.036954     3.029311     3.021667     3.014024
      3.006381     2.998738     2.991095     2.983451     2.975808     2.968165     2.960522     2.952878     2.945235     2.937592
      2.929949     2.922306     2.914662     2.907019     2.899376     2.891733     2.884089     2.876446     2.868803     2.861160
      2.853517     2.845873     2.838230     2.830587     2.822944     2.815300     2.807657     2.800014     2.792371     2.784728
      2.777084     2.769441     2.761798     2.754155     2.746511     2.738868     2.731225     2.723582     2.715939     2.708295
      2.700652     2.693009     2.685366     2.677722     2.670079     2.662436     2.654793     2.647150     2.639506     2.631863
      2.624220     2.616577     2.608933     2.601290     2.593647     2.586004     2.578361     2.570717     2.563074     2.555431
      2.547788     2.540144     2.532501     2.524858     2.517215     2.509572     2.501928     2.494285     2.486642     2.478999
      2.471355     2.463712     2.456069     2.448426     2.440783     2.433139     2.425496     2.417853     2.410210     2.402566
      2.394923     2.387280     2.379637     2.371994     2.364350     2.356707     2.349064     2.341421     2.333777     2.326134
      2.318491     2.310848     2.303205     2.295561     2.287918     2.280275     2.272632     2.264988     2.257345     2.249702
      2.242059     2.234416     2.226772     2.219129     2.211486     2.203843     2.196199     2.188556     2.180913     2.173270
      2.165627     2.157983     2.150340     2.142697     2.135054     2.127410     2.119767     2.112124     2.104481     2.096838
      2.089194     2.081551     2.073908     2.066265     2.058621     2.050978     2.043335     2.035692     2.028049     2.020405
      2.012762     2.005119     1.997476     1.989833     1.982190     1.974546     1.966903     1.959260     1.951617     1.943974
      1.936331     1.928688     1.921045     1.913402     1.905759     1.898115     1.890472     1.882829     1.875186     1.867543
      1.859900     1.852257     1.844614     1.836971     1.829327     1.821684     1.814041     1.806398     1.798755     1.791112
      1.783469     1.775826     1.768183     1.760540     1.752896     1.745253     1.737610     1.729967     1.722324     1.714681
      1.707038     1.699395     1.691752     1.684108     1.676465     1.668822     1.661179     1.653536     1.645893     1.638250
      1.630607     1.622964     1.615321     1.607677     1.600034     1.592391     1.584748     1.577105     1.569462     1.561819
      1.554176     1.546533     1.538890     1.531246     1.523603     1.515960     1.508317     1.500674     1.493031     1.485388
      1.477745     1.470102     1.462458     1.454815     1.447172     1.439529     1.431886     1.424243     1.416600     1.408957
      1.401314     1.393671     1.386027     1.378384     1.370741     1.363098     1.355455     1.347812     1.340169     1.332526
      1.324883     1.317240     1.309596     1.301953     1.294310     1.286667     1.279024     1.271381     1.263738     1.256095
      1.248452     1.240808     1.233165     1.225522     1.217879     1.210236     1.202593     1.194950     1.187307     1.179664
      1.172021     1.164377     1.156734     1.149091     1.141448     1.133805     1.126162     1.118519     1.110876     1.103233
      1.095590     1.087946     1.080303     1.072660     1.065017     1.057374     1.049731     1.042088     1.034445     1.026802
      1.019158     1.011515     1.003872     0.996229     0.988586     0.980943     0.973300     0.965657     0.958014     0.950371
      0.942727     0.935084     0.927441     0.919798     0.912155     0.904512     0.896869     0.889226     0.881583     0.873940
      0.866296     0.858653     0.851010     0.843367     0.835724     0.828081     0.820438     0.812795     0.805152     0.797508
      0.789865     0.782222     0.774579     0.766936     0.759293     0.751650     0.744007     0.736364     0.728721     0.721077
      0.713434     0.705791     0.698148     0.690505     0.682862     0.675219     0.667576     0.659933     0.652290     0.644646
      0.637003     0.629360     0.621717     0.614074     0.606431     0.598788     0.591145     0.583502     0.575858     0.568215
      0.560572     0.552929     0.545286     0.537643     0.530000     0.522357     0.514714     0.507071     0.499427     0.491784
      0.484141     0.476498     0.468855     0.461212     0.453569     0.445925     0.438282     0.430639     0.422996     0.415353
      0.407710     0.400067     0.392424     0.384780     0.377137     0.369494     0.361851     0.354208     0.346565     0.338922
      0.331278     0.323635     0.315992     0.308349     0.300706     0.293063     0.285420     0.277777     0.270133     0.262490
      0.254847     0.247204     0.239561     0.231918     0.224275     0.216631     0.208988     0.201345
 NY phased data points follow
   2.22819E+02  2.14465E+02  2.21355E+02  2.15733E+02  2.18283E+02  2.12109E+02  2.06062E+02  2.13322E+02  2.09185E+02  2.07716E+02
   2.03824E+02  2.04882E+02  2.02982E+02  1.98247E+02  1.97603E+02  1.95695E+02  1.91040E+02  1.85590E+02  1.81561E+02  1.86181E+02
   1.84305E+02  1.81269E+02  1.75478E+02  1.82336E+02  1.79750E+02  1.69659E+02  1.68825E+02  1.71296E+02  1.64681E+02  1.58860E+02
   1.54695E+02  1.56381E+02  1.53165E+02  1.50002E+02  1.53967E+02  1.53336E+02  1.52940E+02  1.47353E+02  1.47722E+02  1.46762E+02
   1.45953E+02  1.46803E+02  1.41871E+02  1.37206E+02  1.37031E+02  1.36355E+02  1.36322E+02  1.38011E+02  1.35839E+02  1.31477E+02
   1.34369E+02  1.23737E+02  1.28097E+02  1.27065E+02  1.25805E+02  1.25959E+02  1.29336E+02  1.22765E+02  1.24033E+02  1.20297E+02
   1.20555E+02  1.16847E+02  1.16756E+02  1.18146E+02  1.18277E+02  1.12668E+02  1.11558E+02  1.10444E+02  1.10741E+02  9.97639E+01
   1.10099E+02  1.07145E+02  1.02569E+02  9.74952E+01  9.54967E+01  9.65562E+01  1.04721E+02  1.08866E+02  1.10607E+02  1.05775E+02
   1.06951E+02  1.01412E+02  1.02714E+02  1.03505E+02  1.03997E+02  9.71443E+01  1.00636E+02  9.45078E+01  1.01064E+02  9.26813E+01
   9.34922E+01  9.31750E+01  9.74049E+01  9.05857E+01  8.43913E+01  8.62360E+01  8.08659E+01  7.50267E+01  8.32995E+01  8.72187E+01
   9.23535E+01  9.07943E+01  9.05890E+01  8.88100E+01  9.08704E+01  8.51417E+01  8.74364E+01  8.40202E+01  8.26594E+01  8.38745E+01
   7.93775E+01  7.94435E+01  8.02971E+01  7.38674E+01  7.08462E+01  6.93630E+01  7.67032E+01  7.47100E+01  7.06344E+01  7.18737E+01
   7.09483E+01  7.12575E+01  6.61879E+01  6.52526E+01  6.95832E+01  6.05864E+01  6.81135E+01  6.28807E+01  6.68945E+01  6.65056E+01
   6.52902E+01  6.50090E+01  6.42747E+01  6.98157E+01  6.63787E+01  6.64760E+01  5.73461E+01  5.78183E+01  5.92365E+01  5.88313E+01
   5.86925E+01  6.17848E+01  5.56274E+01  5.42419E+01  5.46909E+01  5.69209E+01  5.37506E+01  4.98079E+01  5.45320E+01  5.15371E+01
   4.90195E+01  4.88019E+01  5.18709E+01  5.00410E+01  5.31201E+01  5.06499E+01  4.73436E+01  4.69311E+01  4.81450E+01  4.41829E+01
   4.98099E+01  4.22817E+01  4.76735E+01  4.42500E+01  4.26413E+01  4.14205E+01  4.45916E+01  4.45106E+01  4.71240E+01  4.15592E+01
   4.31828E+01  3.92563E+01  3.69419E+01  3.64022E+01  3.68064E+01  3.30761E+01  3.63927E+01  3.58877E+01  2.92248E+01  3.62073E+01
   3.36430E+01  2.27649E+01  2.42005E+01  2.62005E+01  2.61427E+01  2.25544E+01  2.49298E+01  2.36212E+01  2.25161E+01  2.21767E+01
   2.70131E+01  2.70362E+01  2.28821E+01  1.80031E+01  2.00880E+01  1.48474E+01  1.66892E+01  1.50684E+01  1.86925E+01  1.31717E+01
   1.79792E+01  1.53918E+01  1.77826E+01  1.29012E+01  1.50137E+01  1.71290E+01  1.20220E+01  1.18332E+01  1.57627E+01  1.83205E+01
   1.65638E+01  1.37919E+01  1.28172E+01  1.84011E+01  1.33019E+01  1.21186E+01  1.33134E+01  1.34646E+01  1.80418E+01  1.31644E+01
   1.82565E+01  1.85749E+01  2.20174E+01  1.62687E+01  1.74729E+01  2.33426E+01  1.76625E+01  1.02441E+01  1.46946E+01  4.94012E+00
   1.15589E+01  8.51644E+00  1.68727E+01  2.06152E+01  2.41413E+01  2.70395E+01  2.49463E+01  2.00535E+01  1.67606E+01  1.82401E+01
   1.60821E+01  1.47699E+01  1.31452E+01  1.29002E+01  1.33787E+01  1.40900E+01  4.14306E+00  1.24271E+01  7.50532E+00  6.42426E+00
   1.08470E+01  1.40613E+01  7.20359E+00  8.25319E+00  7.03219E+00  7.50393E+00  7.26802E+00  1.35330E+00  3.64681E+00  1.03230E+01
   4.24936E+00  3.65183E+00  6.45058E+00 -6.47472E-03  6.78835E+00  4.65367E-01 -5.77546E-01  2.64905E+00 -1.20247E+00  6.59069E+00
   2.14011E+00  9.83510E-02  5.66496E+00  4.05100E-01 -4.10411E+00 -3.50594E+00 -8.69698E+00 -8.31016E+00 -1.77816E+01 -1.05423E+01
  -1.51099E+01 -1.93380E+01 -2.10752E+01 -2.56328E+01 -1.65467E+01 -1.79400E+01 -1.74179E+01 -2.31775E+01 -1.47314E+01 -2.18064E+01
  -1.78131E+01 -1.93311E+01 -1.96566E+01 -2.23477E+01 -1.31010E+01 -1.59358E+01 -1.57186E+01 -1.57826E+01 -1.05189E+01 -1.35605E+01
  -5.40935E+00 -1.04989E+01 -8.07982E+00 -4.99852E+00 -8.13872E+00 -1.06354E+01 -7.57618E+00 -9.64148E+00 -6.40295E+00 -4.58183E+00
  -3.77078E+00 -1.55211E+00 -6.03809E+00 -4.48053E+00 -2.89141E+00 -6.58916E+00 -6.42778E+00 -8.63401E+00 -8.47106E+00 -4.89419E+00
  -3.72511E+00 -7.90794E+00 -3.46937E+00 -7.56868E+00  2.28840E-01 -4.19321E+00 -3.45372E+00 -6.34728E+00 -7.05749E+00 -5.32431E+00
  -4.02200E+00 -9.56557E+00 -9.33943E+00 -7.48553E+00 -1.13192E+01 -8.32422E+00 -1.07743E+01 -1.10508E+01 -8.74862E+00 -1.12314E+01
  -1.44139E+01 -1.26185E+01 -1.07607E+01 -1.13747E+01 -1.75251E+01 -1.35609E+01 -5.52081E+00 -1.17418E+01 -1.42186E+01 -9.17768E+00
  -1.00396E+01 -1.16989E+01 -1.51075E+01 -1.25103E+01 -1.55162E+01 -1.28252E+01 -1.12247E+01 -1.69641E+01 -1.70127E+01 -1.12321E+01
  -1.37996E+01 -1.70125E+01 -1.40819E+01 -1.50548E+01 -1.35264E+01 -1.76718E+01 -2.37310E+01 -1.59804E+01 -1.64287E+01 -1.24196E+01
  -1.35468E+01 -1.54378E+01 -1.67043E+01 -2.11655E+01 -1.87570E+01 -1.98018E+01 -1.82129E+01 -2.20508E+01 -1.96899E+01 -2.22605E+01
  -2.17841E+01 -2.61070E+01 -2.44451E+01 -2.12877E+01 -1.87164E+01 -1.96819E+01 -1.98152E+01 -2.07752E+01 -2.24929E+01 -2.24545E+01
  -2.22104E+01 -2.18338E+01 -2.28637E+01 -2.20005E+01 -1.69475E+01 -1.67224E+01 -1.89214E+01 -1.84455E+01 -2.16854E+01 -1.90991E+01
  -2.09771E+01 -2.04756E+01 -2.44969E+01 -1.80322E+01 -2.00008E+01 -1.78333E+01 -2.24539E+01 -2.30794E+01 -2.27534E+01 -2.09470E+01
  -2.30243E+01 -2.52093E+01 -2.31666E+01 -2.41103E+01 -2.45257E+01 -2.38946E+01 -2.37885E+01 -2.26010E+01 -2.41281E+01 -2.36752E+01
  -2.45673E+01 -2.39662E+01 -2.47220E+01 -2.26506E+01 -2.22226E+01 -2.57100E+01 -2.23079E+01 -2.23807E+01 -2.23697E+01 -2.40917E+01
  -2.40189E+01 -2.47984E+01 -2.19987E+01 -2.53630E+01 -2.26023E+01 -2.67294E+01 -2.33907E+01 -2.08884E+01 -2.19687E+01 -2.91200E+01
  -2.42818E+01 -3.07743E+01 -2.52783E+01 -2.65575E+01 -2.67600E+01 -2.61481E+01 -2.68397E+01 -2.34136E+01 -3.01298E+01 -2.63370E+01
  -2.80756E+01 -2.84263E+01 -2.46642E+01 -2.54202E+01 -3.08324E+01 -2.74780E+01 -3.02189E+01 -2.79742E+01 -3.36825E+01 -2.18968E+01
  -2.68616E+01 -2.52028E+01 -3.34131E+01 -3.11999E+01 -2.57103E+01 -2.76893E+01 -2.62313E+01 -2.84136E+01 -2.16959E+01 -2.25088E+01
  -2.60641E+01 -2.38125E+01 -2.64030E+01 -2.47919E+01 -2.14207E+01 -1.82213E+01 -2.17286E+01 -1.86564E+01 -2.37549E+01 -2.24918E+01
  -2.48863E+01 -2.75450E+01 -2.29859E+01 -2.68705E+01 -2.27322E+01 -2.27043E+01 -2.72714E+01 -2.01088E+01 -2.18826E+01 -1.99649E+01
  -2.67512E+01 -2.56079E+01 -2.69995E+01 -2.67001E+01 -2.89764E+01 -2.73337E+01 -2.46837E+01 -3.11917E+01
 NY points of the fit to the data follow
   2.15114E+02  2.13494E+02  2.11634E+02  2.10201E+02  2.08432E+02  2.07172E+02  2.05510E+02  2.04445E+02  2.02593E+02  2.01351E+02
   1.99304E+02  1.97837E+02  1.95707E+02  1.94107E+02  1.92148E+02  1.90638E+02  1.88694E+02  1.87089E+02  1.84995E+02  1.83219E+02
   1.81000E+02  1.79237E+02  1.77070E+02  1.75382E+02  1.73324E+02  1.71604E+02  1.69675E+02  1.67942E+02  1.66129E+02  1.64380E+02
   1.62793E+02  1.61253E+02  1.59786E+02  1.58315E+02  1.56936E+02  1.55560E+02  1.54124E+02  1.52772E+02  1.51307E+02  1.49988E+02
   1.48397E+02  1.47049E+02  1.45469E+02  1.44121E+02  1.42572E+02  1.41240E+02  1.39840E+02  1.38583E+02  1.37157E+02  1.35817E+02
   1.34419E+02  1.33050E+02  1.31670E+02  1.30339E+02  1.29101E+02  1.27869E+02  1.26665E+02  1.25453E+02  1.24246E+02  1.23012E+02
   1.21787E+02  1.20610E+02  1.19397E+02  1.18234E+02  1.17048E+02  1.15917E+02  1.14757E+02  1.13661E+02  1.12542E+02  1.11470E+02
   1.10375E+02  1.09321E+02  1.08241E+02  1.07208E+02  1.06154E+02  1.05135E+02  1.04107E+02  1.03098E+02  1.02100E+02  1.01103E+02
   1.00145E+02  9.91722E+01  9.82640E+01  9.74009E+01  9.68767E+01  9.61053E+01  9.56024E+01  9.47933E+01  9.41184E+01  9.32628E+01
   9.25354E+01  9.16996E+01  9.10542E+01  9.02930E+01  8.98024E+01  8.91399E+01  8.88126E+01  8.82468E+01  8.80498E+01  8.75549E+01
   8.74474E+01  8.69656E+01  8.67779E+01  8.62339E+01  8.58445E+01  8.51651E+01  8.44128E+01  8.36007E+01  8.27004E+01  8.21284E+01
   8.09154E+01  8.03367E+01  7.88831E+01  7.81759E+01  7.66222E+01  7.59433E+01  7.45444E+01  7.40554E+01  7.27996E+01  7.25900E+01
   7.14947E+01  7.15974E+01  7.05747E+01  7.10060E+01  7.01735E+01  7.08746E+01  6.98836E+01  7.06239E+01  6.94045E+01  7.00152E+01
   6.85215E+01  6.87779E+01  6.70932E+01  6.69925E+01  6.52019E+01  6.47023E+01  6.29548E+01  6.22065E+01  6.05913E+01  5.96673E+01
   5.82765E+01  5.73584E+01  5.61706E+01  5.52459E+01  5.42513E+01  5.33774E+01  5.25381E+01  5.17056E+01  5.10580E+01  5.04594E+01
   4.98642E+01  4.92788E+01  4.86824E+01  4.80911E+01  4.74816E+01  4.68767E+01  4.62475E+01  4.56259E+01  4.49744E+01  4.43338E+01
   4.36586E+01  4.29998E+01  4.23045E+01  4.16315E+01  4.09208E+01  4.02387E+01  3.95222E+01  3.88395E+01  3.81217E+01  3.74419E+01
   3.67280E+01  3.60493E+01  3.53444E+01  3.46711E+01  3.39792E+01  3.33075E+01  3.25874E+01  3.19091E+01  3.11454E+01  3.04247E+01
   2.96934E+01  2.89711E+01  2.83179E+01  2.77126E+01  2.72313E+01  2.67251E+01  2.62680E+01  2.58031E+01  2.52655E+01  2.46891E+01
   2.40114E+01  2.31880E+01  2.21626E+01  2.13027E+01  2.04980E+01  1.98113E+01  1.93933E+01  1.88897E+01  1.86943E+01  1.83004E+01
   1.81916E+01  1.78451E+01  1.77118E+01  1.73546E+01  1.71444E+01  1.67113E+01  1.63715E+01  1.58210E+01  1.53818E+01  1.47488E+01
   1.43621E+01  1.37559E+01  1.36015E+01  1.31380E+01  1.33445E+01  1.30731E+01  1.35503E+01  1.34002E+01  1.38800E+01  1.38168E+01
   1.43289E+01  1.43884E+01  1.49995E+01  1.52101E+01  1.57021E+01  1.56728E+01  1.59148E+01  1.55743E+01  1.54788E+01  1.49491E+01
   1.46572E+01  1.40230E+01  1.35476E+01  1.30286E+01  1.27694E+01  1.23653E+01  1.23401E+01  1.19463E+01  1.21365E+01  1.16631E+01
   1.21190E+01  1.14531E+01  1.20973E+01  1.12629E+01  1.20480E+01  1.10656E+01  1.18703E+01  1.08593E+01  1.16317E+01  1.06377E+01
   1.12908E+01  1.03980E+01  1.09233E+01  1.00913E+01  1.04263E+01  9.59751E+00  9.70102E+00  8.71900E+00  8.46610E+00  7.34638E+00
   6.88425E+00  5.69348E+00  5.09574E+00  3.93883E+00  3.22015E+00  1.99750E+00  1.18608E+00 -3.09697E-02 -9.18814E-01 -2.07449E+00
  -2.97370E+00 -4.04105E+00 -4.91112E+00 -5.83875E+00 -6.64409E+00 -7.45680E+00 -8.20345E+00 -8.92546E+00 -9.62518E+00 -1.02823E+01
  -1.09230E+01 -1.15305E+01 -1.21045E+01 -1.26396E+01 -1.31370E+01 -1.35914E+01 -1.40012E+01 -1.43590E+01 -1.46637E+01 -1.49049E+01
  -1.50798E+01 -1.51767E+01 -1.51937E+01 -1.51168E+01 -1.49476E+01 -1.46732E+01 -1.43013E+01 -1.38234E+01 -1.32542E+01 -1.25936E+01
  -1.18652E+01 -1.10772E+01 -1.02589E+01 -9.42554E+00 -8.60658E+00 -7.81620E+00 -7.07198E+00 -6.36421E+00 -5.63758E+00 -4.83358E+00
  -4.61812E+00 -4.31416E+00 -4.61969E+00 -4.84140E+00 -5.38317E+00 -5.82829E+00 -6.49032E+00 -6.46650E+00 -6.61526E+00 -6.21924E+00
  -6.01333E+00 -5.58066E+00 -5.42578E+00 -5.08055E+00 -5.14462E+00 -4.93557E+00 -5.30740E+00 -5.39359E+00 -5.99840E+00 -6.46024E+00
  -7.18396E+00 -8.08644E+00 -8.61743E+00 -9.69039E+00 -9.78376E+00 -1.09878E+01 -1.04761E+01 -1.16017E+01 -1.05544E+01 -1.17223E+01
  -1.03999E+01 -1.14601E+01 -1.01348E+01 -1.12722E+01 -1.01817E+01 -1.12355E+01 -1.04145E+01 -1.13799E+01 -1.07962E+01 -1.13732E+01
  -1.11112E+01 -1.16954E+01 -1.17002E+01 -1.22117E+01 -1.23873E+01 -1.28920E+01 -1.32713E+01 -1.35454E+01 -1.37894E+01 -1.40308E+01
  -1.42887E+01 -1.45692E+01 -1.48805E+01 -1.52216E+01 -1.55954E+01 -1.59970E+01 -1.64259E+01 -1.68746E+01 -1.73407E+01 -1.78150E+01
  -1.82943E+01 -1.87690E+01 -1.92357E+01 -1.96849E+01 -2.01137E+01 -2.05134E+01 -2.08821E+01 -2.12121E+01 -2.15024E+01 -2.17468E+01
  -2.19457E+01 -2.20939E+01 -2.21936E+01 -2.22411E+01 -2.22399E+01 -2.21885E+01 -2.20920E+01 -2.19507E+01 -2.17719E+01 -2.15578E+01
  -2.13177E+01 -2.10556E+01 -2.07824E+01 -2.05034E+01 -2.02305E+01 -1.99692E+01 -1.97314E+01 -1.95219E+01 -1.93510E+01 -1.92220E+01
  -1.91427E+01 -1.91135E+01 -1.91391E+01 -1.92169E+01 -1.93485E+01 -1.95280E+01 -1.97544E+01 -2.00196E+01 -2.03208E+01 -2.06485E+01
  -2.09991E+01 -2.13630E+01 -2.17368E+01 -2.21115E+01 -2.24847E+01 -2.28487E+01 -2.32025E+01 -2.35398E+01 -2.38611E+01 -2.41616E+01
  -2.44429E+01 -2.47015E+01 -2.49403E+01 -2.51563E+01 -2.53532E+01 -2.55286E+01 -2.56867E+01 -2.58254E+01 -2.59489E+01 -2.60554E+01
  -2.61491E+01 -2.62281E+01 -2.62965E+01 -2.63523E+01 -2.63996E+01 -2.64363E+01 -2.64662E+01 -2.64870E+01 -2.65026E+01 -2.65104E+01
  -2.65142E+01 -2.65114E+01 -2.65056E+01 -2.64940E+01 -2.64802E+01 -2.64615E+01 -2.64412E+01 -2.64165E+01 -2.63908E+01 -2.63613E+01
  -2.63312E+01 -2.62977E+01 -2.62640E+01 -2.62272E+01 -2.61906E+01 -2.61512E+01 -2.61122E+01 -2.60707E+01 -2.60298E+01 -2.59867E+01
  -2.59444E+01 -2.59001E+01 -2.58568E+01 -2.58116E+01 -2.57676E+01 -2.57219E+01 -2.56775E+01 -2.56316E+01 -2.55872E+01 -2.55413E+01
  -2.54971E+01 -2.54515E+01 -2.54078E+01 -2.53628E+01 -2.53197E+01 -2.52755E+01 -2.52333E+01 -2.51901E+01 -2.51490E+01 -2.51071E+01
  -2.50673E+01 -2.50268E+01 -2.49885E+01 -2.49496E+01 -2.49130E+01 -2.48759E+01 -2.48412E+01 -2.48061E+01 -2.47735E+01 -2.47405E+01
  -2.47101E+01 -2.46794E+01 -2.46514E+01 -2.46232E+01 -2.45979E+01 -2.45723E+01 -2.45497E+01 -2.45269E+01
 NY background values follow
     2.131E+02    2.112E+02    2.093E+02    2.074E+02    2.055E+02    2.036E+02    2.017E+02    1.999E+02    1.981E+02    1.963E+02
     1.944E+02    1.927E+02    1.909E+02    1.891E+02    1.874E+02    1.856E+02    1.839E+02    1.822E+02    1.805E+02    1.789E+02
     1.772E+02    1.756E+02    1.739E+02    1.723E+02    1.707E+02    1.691E+02    1.675E+02    1.659E+02    1.644E+02    1.628E+02
     1.613E+02    1.598E+02    1.583E+02    1.568E+02    1.553E+02    1.539E+02    1.524E+02    1.510E+02    1.495E+02    1.481E+02
     1.467E+02    1.453E+02    1.439E+02    1.426E+02    1.412E+02    1.398E+02    1.385E+02    1.372E+02    1.359E+02    1.346E+02
     1.333E+02    1.320E+02    1.307E+02    1.295E+02    1.282E+02    1.270E+02    1.258E+02    1.246E+02    1.233E+02    1.222E+02
     1.210E+02    1.198E+02    1.186E+02    1.175E+02    1.163E+02    1.152E+02    1.141E+02    1.130E+02    1.119E+02    1.108E+02
     1.097E+02    1.086E+02    1.075E+02    1.065E+02    1.054E+02    1.044E+02    1.034E+02    1.023E+02    1.013E+02    1.003E+02
     9.933E+01    9.834E+01    9.737E+01    9.640E+01    9.544E+01    9.448E+01    9.354E+01    9.260E+01    9.167E+01    9.075E+01
     8.984E+01    8.893E+01    8.803E+01    8.714E+01    8.626E+01    8.538E+01    8.452E+01    8.365E+01    8.280E+01    8.195E+01
     8.111E+01    8.028E+01    7.945E+01    7.863E+01    7.782E+01    7.701E+01    7.621E+01    7.542E+01    7.463E+01    7.385E+01
     7.308E+01    7.231E+01    7.154E+01    7.079E+01    7.003E+01    6.929E+01    6.855E+01    6.781E+01    6.708E+01    6.636E+01
     6.564E+01    6.493E+01    6.422E+01    6.351E+01    6.282E+01    6.212E+01    6.143E+01    6.075E+01    6.007E+01    5.939E+01
     5.872E+01    5.806E+01    5.739E+01    5.673E+01    5.608E+01    5.543E+01    5.478E+01    5.414E+01    5.350E+01    5.287E+01
     5.224E+01    5.161E+01    5.098E+01    5.036E+01    4.974E+01    4.913E+01    4.852E+01    4.791E+01    4.730E+01    4.670E+01
     4.610E+01    4.550E+01    4.491E+01    4.431E+01    4.372E+01    4.314E+01    4.255E+01    4.197E+01    4.138E+01    4.080E+01
     4.023E+01    3.965E+01    3.908E+01    3.850E+01    3.793E+01    3.736E+01    3.679E+01    3.623E+01    3.566E+01    3.510E+01
     3.453E+01    3.397E+01    3.341E+01    3.285E+01    3.230E+01    3.174E+01    3.119E+01    3.063E+01    3.008E+01    2.953E+01
     2.898E+01    2.844E+01    2.789E+01    2.735E+01    2.680E+01    2.626E+01    2.572E+01    2.519E+01    2.465E+01    2.412E+01
     2.358E+01    2.305E+01    2.252E+01    2.200E+01    2.147E+01    2.095E+01    2.042E+01    1.990E+01    1.938E+01    1.887E+01
     1.835E+01    1.784E+01    1.733E+01    1.682E+01    1.631E+01    1.580E+01    1.530E+01    1.480E+01    1.430E+01    1.380E+01
     1.330E+01    1.281E+01    1.232E+01    1.183E+01    1.134E+01    1.085E+01    1.037E+01    9.885E+00    9.405E+00    8.927E+00
     8.451E+00    7.977E+00    7.506E+00    7.036E+00    6.569E+00    6.104E+00    5.641E+00    5.180E+00    4.721E+00    4.265E+00
     3.811E+00    3.359E+00    2.910E+00    2.463E+00    2.018E+00    1.575E+00    1.135E+00    6.975E-01    2.620E-01   -1.710E-01
    -6.017E-01   -1.030E+00   -1.456E+00   -1.879E+00   -2.300E+00   -2.718E+00   -3.134E+00   -3.548E+00   -3.959E+00   -4.367E+00
    -4.773E+00   -5.176E+00   -5.577E+00   -5.975E+00   -6.371E+00   -6.763E+00   -7.154E+00   -7.541E+00   -7.926E+00   -8.308E+00
    -8.688E+00   -9.065E+00   -9.439E+00   -9.810E+00   -1.018E+01   -1.054E+01   -1.091E+01   -1.127E+01   -1.163E+01   -1.198E+01
    -1.233E+01   -1.268E+01   -1.303E+01   -1.337E+01   -1.371E+01   -1.405E+01   -1.438E+01   -1.471E+01   -1.504E+01   -1.537E+01
    -1.569E+01   -1.601E+01   -1.633E+01   -1.664E+01   -1.695E+01   -1.726E+01   -1.756E+01   -1.786E+01   -1.816E+01   -1.845E+01
    -1.875E+01   -1.904E+01   -1.932E+01   -1.960E+01   -1.988E+01   -2.016E+01   -2.043E+01   -2.070E+01   -2.097E+01   -2.123E+01
    -2.149E+01   -2.174E+01   -2.200E+01   -2.225E+01   -2.249E+01   -2.274E+01   -2.298E+01   -2.321E+01   -2.345E+01   -2.367E+01
    -2.390E+01   -2.412E+01   -2.434E+01   -2.456E+01   -2.477E+01   -2.498E+01   -2.518E+01   -2.538E+01   -2.558E+01   -2.578E+01
    -2.597E+01   -2.615E+01   -2.634E+01   -2.652E+01   -2.669E+01   -2.687E+01   -2.704E+01   -2.720E+01   -2.736E+01   -2.752E+01
    -2.768E+01   -2.783E+01   -2.797E+01   -2.812E+01   -2.825E+01   -2.839E+01   -2.852E+01   -2.865E+01   -2.878E+01   -2.890E+01
    -2.901E+01   -2.913E+01   -2.924E+01   -2.935E+01   -2.945E+01   -2.955E+01   -2.965E+01   -2.974E+01   -2.983E+01   -2.992E+01
    -3.001E+01   -3.009E+01   -3.016E+01   -3.024E+01   -3.031E+01   -3.038E+01   -3.045E+01   -3.051E+01   -3.057E+01   -3.063E+01
    -3.068E+01   -3.073E+01   -3.078E+01   -3.083E+01   -3.087E+01   -3.091E+01   -3.095E+01   -3.098E+01   -3.102E+01   -3.105E+01
    -3.107E+01   -3.110E+01   -3.112E+01   -3.114E+01   -3.116E+01   -3.118E+01   -3.119E+01   -3.120E+01   -3.121E+01   -3.121E+01
    -3.122E+01   -3.122E+01   -3.122E+01   -3.122E+01   -3.121E+01   -3.121E+01   -3.120E+01   -3.119E+01   -3.117E+01   -3.116E+01
    -3.114E+01   -3.112E+01   -3.110E+01   -3.108E+01   -3.106E+01   -3.103E+01   -3.101E+01   -3.098E+01   -3.095E+01   -3.092E+01
    -3.088E+01   -3.085E+01   -3.081E+01   -3.077E+01   -3.073E+01   -3.069E+01   -3.065E+01   -3.061E+01   -3.056E+01   -3.052E+01
    -3.047E+01   -3.042E+01   -3.037E+01   -3.032E+01   -3.027E+01   -3.022E+01   -3.016E+01   -3.011E+01   -3.005E+01   -2.999E+01
    -2.994E+01   -2.988E+01   -2.982E+01   -2.976E+01   -2.970E+01   -2.964E+01   -2.957E+01   -2.951E+01   -2.945E+01   -2.938E+01
    -2.932E+01   -2.925E+01   -2.918E+01   -2.912E+01   -2.905E+01   -2.898E+01   -2.891E+01   -2.885E+01   -2.878E+01   -2.871E+01
    -2.864E+01   -2.857E+01   -2.850E+01   -2.843E+01   -2.836E+01   -2.829E+01   -2.822E+01   -2.815E+01   -2.808E+01   -2.801E+01
    -2.794E+01   -2.787E+01   -2.780E+01   -2.773E+01   -2.766E+01   -2.759E+01   -2.752E+01   -2.745E+01   -2.738E+01   -2.732E+01
    -2.725E+01   -2.718E+01   -2.711E+01   -2.705E+01   -2.698E+01   -2.692E+01   -2.685E+01   -2.679E+01   -2.672E+01   -2.666E+01
    -2.660E+01   -2.654E+01   -2.648E+01   -2.642E+01   -2.636E+01   -2.630E+01   -2.624E+01   -2.619E+01   -2.613E+01   -2.608E+01
    -2.602E+01   -2.597E+01   -2.592E+01   -2.587E+01   -2.582E+01   -2.577E+01   -2.573E+01   -2.568E+01   -2.564E+01   -2.560E+01
    -2.555E+01   -2.552E+01   -2.548E+01   -2.544E+01   -2.540E+01   -2.537E+01   -2.534E+01   -2.531E+01
 Ala      Conc. = 1.62E+03
