 LCModel (Version 6.3-1L) Copyright: S.W. Provencher.          Ref.: Magn. Reson. Med. 30:672-679 (1993).                
 Slice#1 Row#9 Col#5  PD_24_press_2_raw_act
 36 lines in following concentration table = NCONC+1
    Conc.  %SD /Cr+PCr  Metabolite                                         
    0.000 999%   0.000 Ala                                                 
    0.000 999%   0.000 Asp                                                 
 1.35E+03  19%   0.581 Cr                                                  
  971.396  27%   0.419 PCr                                                 
    0.000 999%   0.000 GABA                                                
  116.834 190% 5.0E-02 Glc                                                 
 1.09E+03  31%   0.472 Gln                                                 
 2.19E+03  17%   0.943 Glu                                                 
  532.262   6%   0.229 GPC                                                 
    0.000 999%   0.000 PCh                                                 
  715.033  15%   0.308 GSH                                                 
 2.51E+03  14%   1.084 Ins                                                 
  164.308 108% 7.1E-02 Lac                                                 
 4.06E+03   6%   1.752 NAA                                                 
   41.679 608% 1.8E-02 NAAG                                                
  151.922  25% 6.6E-02 Scyllo                                              
  479.069  60%   0.207 Tau                                                 
  180.679  83% 7.8E-02 -CrCH2                                              
  532.262   6%   0.229 GPC+PCh                                             
 4.11E+03   3%   1.770 NAA+NAAG                                            
 2.32E+03   4%   1.000 Cr+PCr                                              
 3.28E+03  16%   1.414 Glu+Gln                                             
 3.40E+03  31%   1.468 Lip13a                                              
    0.000 999%   0.000 Lip13b                                              
  413.329 128%   0.178 Lip09                                               
 3.02E+03  19%   1.302 MM09                                                
  123.629 295% 5.3E-02 Lip20                                               
 4.90E+03  12%   2.112 MM20                                                
 1.22E+03  33%   0.526 MM12                                                
 2.76E+03  24%   1.190 MM14                                                
 2.59E+03   7%   1.118 MM17                                                
 3.40E+03  31%   1.468 Lip13a+Lip13b                                       
 7.39E+03   7%   3.184 MM14+Lip13a+Lip13b+MM12                             
 3.43E+03   9%   1.480 MM09+Lip09                                          
 5.02E+03  11%   2.165 MM20+Lip20                                          
   6 lines in following misc. output table
  FWHM = 0.054 ppm    S/N =  15                                            
  Data shift = 0.015 ppm                                                   
  Ph:   4 deg       6.2 deg/ppm                                            
  alphaB,S = 2.7E+00,   9.1E+01                                            
   14 spline knots.   Ns = 7(1)                                            
  (13) 2 infls.   (11) 1 extrs.                                            
  498 points on ppm-axis = NY
      4.000000     3.992357     3.984714     3.977070     3.969427     3.961784     3.954141     3.946497     3.938854     3.931211
      3.923568     3.915925     3.908281     3.900638     3.892995     3.885352     3.877708     3.870065     3.862422     3.854779
      3.847136     3.839492     3.831849     3.824206     3.816563     3.808919     3.801276     3.793633     3.785990     3.778347
      3.770703     3.763060     3.755417     3.747774     3.740130     3.732487     3.724844     3.717201     3.709558     3.701914
      3.694271     3.686628     3.678985     3.671341     3.663698     3.656055     3.648412     3.640769     3.633125     3.625482
      3.617839     3.610196     3.602552     3.594909     3.587266     3.579623     3.571980     3.564336     3.556693     3.549050
      3.541407     3.533763     3.526120     3.518477     3.510834     3.503191     3.495547     3.487904     3.480261     3.472618
      3.464974     3.457331     3.449688     3.442045     3.434402     3.426758     3.419115     3.411472     3.403829     3.396185
      3.388542     3.380899     3.373256     3.365613     3.357969     3.350326     3.342683     3.335040     3.327396     3.319753
      3.312110     3.304467     3.296824     3.289180     3.281537     3.273894     3.266251     3.258607     3.250964     3.243321
      3.235678     3.228034     3.220391     3.212748     3.205105     3.197462     3.189818     3.182175     3.174532     3.166889
      3.159245     3.151602     3.143959     3.136316     3.128673     3.121029     3.113386     3.105743     3.098100     3.090456
      3.082813     3.075170     3.067527     3.059884     3.052240     3.044597     3.036954     3.029311     3.021667     3.014024
      3.006381     2.998738     2.991095     2.983451     2.975808     2.968165     2.960522     2.952878     2.945235     2.937592
      2.929949     2.922306     2.914662     2.907019     2.899376     2.891733     2.884089     2.876446     2.868803     2.861160
      2.853517     2.845873     2.838230     2.830587     2.822944     2.815300     2.807657     2.800014     2.792371     2.784728
      2.777084     2.769441     2.761798     2.754155     2.746511     2.738868     2.731225     2.723582     2.715939     2.708295
      2.700652     2.693009     2.685366     2.677722     2.670079     2.662436     2.654793     2.647150     2.639506     2.631863
      2.624220     2.616577     2.608933     2.601290     2.593647     2.586004     2.578361     2.570717     2.563074     2.555431
      2.547788     2.540144     2.532501     2.524858     2.517215     2.509572     2.501928     2.494285     2.486642     2.478999
      2.471355     2.463712     2.456069     2.448426     2.440783     2.433139     2.425496     2.417853     2.410210     2.402566
      2.394923     2.387280     2.379637     2.371994     2.364350     2.356707     2.349064     2.341421     2.333777     2.326134
      2.318491     2.310848     2.303205     2.295561     2.287918     2.280275     2.272632     2.264988     2.257345     2.249702
      2.242059     2.234416     2.226772     2.219129     2.211486     2.203843     2.196199     2.188556     2.180913     2.173270
      2.165627     2.157983     2.150340     2.142697     2.135054     2.127410     2.119767     2.112124     2.104481     2.096838
      2.089194     2.081551     2.073908     2.066265     2.058621     2.050978     2.043335     2.035692     2.028049     2.020405
      2.012762     2.005119     1.997476     1.989833     1.982190     1.974546     1.966903     1.959260     1.951617     1.943974
      1.936331     1.928688     1.921045     1.913402     1.905759     1.898115     1.890472     1.882829     1.875186     1.867543
      1.859900     1.852257     1.844614     1.836971     1.829327     1.821684     1.814041     1.806398     1.798755     1.791112
      1.783469     1.775826     1.768183     1.760540     1.752896     1.745253     1.737610     1.729967     1.722324     1.714681
      1.707038     1.699395     1.691752     1.684108     1.676465     1.668822     1.661179     1.653536     1.645893     1.638250
      1.630607     1.622964     1.615321     1.607677     1.600034     1.592391     1.584748     1.577105     1.569462     1.561819
      1.554176     1.546533     1.538890     1.531246     1.523603     1.515960     1.508317     1.500674     1.493031     1.485388
      1.477745     1.470102     1.462458     1.454815     1.447172     1.439529     1.431886     1.424243     1.416600     1.408957
      1.401314     1.393671     1.386027     1.378384     1.370741     1.363098     1.355455     1.347812     1.340169     1.332526
      1.324883     1.317240     1.309596     1.301953     1.294310     1.286667     1.279024     1.271381     1.263738     1.256095
      1.248452     1.240808     1.233165     1.225522     1.217879     1.210236     1.202593     1.194950     1.187307     1.179664
      1.172021     1.164377     1.156734     1.149091     1.141448     1.133805     1.126162     1.118519     1.110876     1.103233
      1.095590     1.087946     1.080303     1.072660     1.065017     1.057374     1.049731     1.042088     1.034445     1.026802
      1.019158     1.011515     1.003872     0.996229     0.988586     0.980943     0.973300     0.965657     0.958014     0.950371
      0.942727     0.935084     0.927441     0.919798     0.912155     0.904512     0.896869     0.889226     0.881583     0.873940
      0.866296     0.858653     0.851010     0.843367     0.835724     0.828081     0.820438     0.812795     0.805152     0.797508
      0.789865     0.782222     0.774579     0.766936     0.759293     0.751650     0.744007     0.736364     0.728721     0.721077
      0.713434     0.705791     0.698148     0.690505     0.682862     0.675219     0.667576     0.659933     0.652290     0.644646
      0.637003     0.629360     0.621717     0.614074     0.606431     0.598788     0.591145     0.583502     0.575858     0.568215
      0.560572     0.552929     0.545286     0.537643     0.530000     0.522357     0.514714     0.507071     0.499427     0.491784
      0.484141     0.476498     0.468855     0.461212     0.453569     0.445925     0.438282     0.430639     0.422996     0.415353
      0.407710     0.400067     0.392424     0.384780     0.377137     0.369494     0.361851     0.354208     0.346565     0.338922
      0.331278     0.323635     0.315992     0.308349     0.300706     0.293063     0.285420     0.277777     0.270133     0.262490
      0.254847     0.247204     0.239561     0.231918     0.224275     0.216631     0.208988     0.201345
 NY phased data points follow
   1.22068E+01  1.55644E+00  1.32151E+01  8.87831E+00  1.71169E+01  1.25573E+01  2.46153E+01  3.13272E+01  3.64648E+01  3.83831E+01
   4.66995E+01  4.22090E+01  4.63039E+01  4.02821E+01  4.20085E+01  3.12780E+01  2.99219E+01  1.64738E+01  2.28519E+01  1.79536E+01
   2.05182E+01  1.29891E+01  1.43555E+01  1.27436E+01  1.44144E+01  1.25857E+01  2.12140E+01  1.50462E+01  1.41006E+01  2.24162E+01
   2.16159E+01  2.10334E+01  2.32121E+01  2.45028E+01  1.45760E+01  1.34643E+01  8.83523E+00  1.24869E+01  1.51789E+01  1.24940E+01
   1.60841E+01  8.34758E+00  1.37675E+01  1.05073E+01  1.98057E+01  2.48600E+01  2.16455E+01  1.76691E+01  2.48244E+01  1.64964E+01
   1.96094E+01  7.42525E+00  1.81490E+01  1.33634E+01  1.58332E+01  1.19855E+01  1.44784E+01  7.72649E+00  2.09812E+01  1.64081E+01
   1.77632E+01  6.32511E+00  6.14642E+00  6.07260E+00  9.97480E+00  6.10727E+00  8.52761E+00  4.43753E+00  8.97663E+00 -7.73522E-01
   5.29542E+00 -9.16401E-01  7.00984E+00  3.64503E+00  1.29162E+01  4.54883E+00  7.23471E+00  1.22582E+01  3.68439E+00  3.70657E+00
   4.75854E+00 -4.87336E+00  2.89901E+00  4.43511E+00  1.00968E+01  7.24432E+00  8.75933E+00  7.33417E+00  7.21260E+00  5.82464E+00
   5.83397E+00  2.28633E+00  1.24836E+01  3.15624E-01  4.47269E+00  2.43185E+00  7.69156E+00  9.25547E+00  1.65244E+01  1.57593E+01
   2.18270E+01  2.67266E+01  4.05196E+01  4.09225E+01  4.23279E+01  4.26857E+01  4.20686E+01  3.18621E+01  3.07491E+01  2.09816E+01
   1.22694E+01  1.28059E+01  1.07443E+01  1.60268E+00  6.09394E+00  3.01893E+00  7.70310E+00  7.27810E+00  8.15373E+00  6.29661E+00
   1.00872E+01  9.98698E+00  1.69372E+01  2.29926E+01  3.75323E+01  5.38392E+01  6.62797E+01  7.50056E+01  7.41719E+01  6.50238E+01
   5.45370E+01  4.73253E+01  4.31165E+01  3.21916E+01  2.20431E+01  1.31075E+01  1.54004E+01  1.05525E+01  7.76581E+00  7.56504E+00
   3.41051E+00  6.49195E+00  4.78412E+00  4.04730E+00  4.80168E+00  3.37843E+00  1.14202E+00 -1.72167E+00  1.37796E+00  8.91516E-01
  -6.14728E+00 -5.14692E+00  9.93562E-01 -5.18948E+00 -1.50293E+00 -4.99836E+00  1.14386E+00 -1.62076E+00  3.00506E-01 -4.15388E+00
   3.42146E-01 -6.74557E+00  3.38775E+00 -5.79662E+00  6.80662E-01 -1.21809E+01 -4.98769E+00 -1.46352E+01 -1.35329E+01 -9.63831E+00
  -1.04711E+01 -2.30410E+01 -1.59433E+01 -1.97568E+01 -1.83222E+01 -1.80463E+01 -1.35454E+01 -1.97137E+01 -1.58210E+01 -1.88475E+01
  -1.21833E+01 -1.36705E+01 -1.06329E+01 -1.40630E+01 -5.34755E+00 -9.47253E+00 -1.03962E+01 -6.02864E+00 -6.50430E+00 -1.15909E+01
  -5.92737E+00 -7.43804E+00 -3.13145E+00 -5.23764E+00 -2.19750E+00 -8.31431E+00 -8.33963E+00 -1.08251E+01 -1.10677E+01 -9.98170E+00
  -6.17955E-01 -8.77263E+00 -4.63792E+00  2.48521E+00  1.68206E+00 -2.43914E+00  1.44727E+00 -8.03110E+00 -1.87883E+00 -3.32689E+00
  -3.22441E-01  1.05504E+00  9.38316E+00  5.33538E+00  9.04997E+00  1.33778E+01  1.44066E+01  6.63441E+00  1.05858E+01 -1.31729E+00
   1.16245E+00 -7.74251E+00 -7.77570E+00 -6.06510E+00  4.22595E+00  8.16137E+00  5.81123E+00  4.98959E+00  7.68621E+00  1.01395E+01
   7.82017E+00  6.78822E+00  7.95643E+00  9.49664E+00  8.83714E+00  7.89598E+00  7.84290E+00  1.02467E+01  7.63429E+00  5.36090E+00
   3.93675E+00  1.05115E+00  5.02844E+00  2.35947E+00  3.54201E+00  1.24939E+01  8.46367E+00  1.16378E+01  1.81925E+01  1.88275E+01
   2.26963E+01  2.60083E+01  3.16006E+01  3.23242E+01  3.30896E+01  4.15333E+01  6.27707E+01  8.93243E+01  1.19310E+02  1.48682E+02
   1.48355E+02  1.33621E+02  1.18320E+02  9.61030E+01  7.80275E+01  6.04211E+01  3.89679E+01  2.61531E+01  1.76418E+01  1.92727E+01
   7.04262E+00  9.16717E+00  7.36409E+00 -2.22259E+00  8.97371E-01  6.41352E+00  9.78839E+00 -2.24398E+00 -2.43037E+00 -3.01102E-01
  -2.59689E+00 -6.78298E-01 -6.24332E+00  2.75107E+00  4.30251E+00 -1.62915E+00  2.76139E+00 -2.16934E+00  1.57526E+00  3.36900E+00
   1.85904E+00 -1.12263E+00  5.06699E+00  2.15162E+00  3.89567E+00  7.81888E+00  5.85528E+00  1.07962E+01  5.45126E+00  9.22982E+00
   1.73963E+01  1.40832E+01  1.55746E+01  9.39519E+00  1.95462E+01  1.95303E+01  2.17583E+01  1.83571E+01  2.46796E+01  2.24869E+01
   2.59211E+01  1.65012E+01  2.47406E+01  9.59309E+00  2.22606E+01  1.43470E+01  6.21907E+00  9.56186E+00  7.69169E+00  4.32131E-01
   2.68468E+00  2.68049E+00  1.86188E+00  3.98754E+00  2.20180E-01 -1.07511E-02  2.73637E+00  5.53805E+00  1.01224E+01  8.38558E+00
   1.28507E+01  1.00207E+01  9.62259E+00  1.26022E+01  1.66008E+01  2.24984E+01  1.66957E+01  2.04726E+01  1.83919E+01  1.75864E+01
   2.18878E+01  2.54854E+01  2.38019E+01  2.40947E+01  2.85735E+01  2.46481E+01  2.66647E+01  1.86856E+01  2.25882E+01  1.89719E+01
   2.41204E+01  2.11959E+01  2.49675E+01  2.58929E+01  2.33934E+01  1.82293E+01  2.74684E+01  2.03755E+01  2.55820E+01  1.37197E+01
   2.14902E+01  2.28353E+01  2.01343E+01  1.69220E+01  2.31759E+01  1.30928E+01  2.14573E+01  2.08698E+01  1.82400E+01  1.94534E+01
   1.70198E+01  1.76899E+01  1.25417E+01  1.12822E+01  9.94571E+00  8.35123E+00  7.07910E+00  1.16424E+01  9.15531E+00  6.13945E+00
   8.51871E+00  6.49014E+00  7.68365E+00  9.23562E+00  4.72576E+00  6.85442E+00  1.22458E+01  1.38341E+01  5.98001E+00  8.28401E+00
   1.03799E+01  1.11272E+01  1.80619E+01  1.59732E+01  1.66003E+01  1.42564E+01  1.71423E+01  2.20976E+01  2.16153E+01  1.98605E+01
   2.22128E+01  2.40849E+01  2.12328E+01  2.40243E+01  2.93772E+01  2.92886E+01  1.92709E+01  2.75516E+01  2.44510E+01  2.03864E+01
   2.34564E+01  1.85038E+01  2.04453E+01  1.44594E+01  1.73447E+01  1.65061E+01  1.26716E+01  1.13391E+01  1.27977E+01  6.96488E+00
   6.32273E+00  2.87444E+00  9.04159E+00  5.03894E+00  6.38485E+00 -6.48150E-01  1.39337E+00  1.84873E-03 -1.46431E+00  9.29760E-01
  -3.97380E+00 -1.84624E+00  7.37780E-01  3.54772E-01  2.95220E+00 -4.36177E+00 -1.53338E+00  3.69267E+00  2.56839E+00 -2.12286E+00
   2.20543E+00  2.24149E+00  1.60673E+00 -2.21427E+00  6.14772E-01  1.30505E+00 -2.99746E+00 -3.60431E+00 -1.06428E+00 -3.09838E+00
   2.22361E+00 -5.30791E+00 -4.33952E+00  2.89246E+00 -1.24104E+00 -2.88386E+00 -1.78265E-01  2.31831E-01  2.18798E+00 -3.48382E+00
   6.72108E-01 -2.57643E-01 -5.42791E+00 -2.62209E+00  2.50401E-01  3.60697E+00  5.92582E+00  2.50290E+00 -1.22696E+00  4.08990E+00
   2.91768E+00 -9.08240E-01 -1.12602E+00  2.58045E+00  6.70265E+00  1.37426E+00 -2.08919E+00  5.02616E+00 -5.58560E+00 -1.17854E+00
  -2.72907E+00 -1.93587E+00  2.63194E-01 -3.15219E+00 -5.41163E-01 -3.49315E+00  2.11773E-01 -3.30554E+00  4.20354E+00  6.10319E+00
   3.29573E-02 -3.31254E+00 -1.47336E+00 -5.72091E-01 -3.39588E+00 -1.87000E+00  5.78981E+00  8.09193E+00
 NY points of the fit to the data follow
   1.01231E+01  9.45761E+00  1.00022E+01  1.11043E+01  1.30116E+01  1.69955E+01  2.28541E+01  2.88646E+01  3.45705E+01  3.98873E+01
   4.44146E+01  4.71376E+01  4.68377E+01  4.34343E+01  3.81669E+01  3.24989E+01  2.72040E+01  2.24023E+01  1.85362E+01  1.54619E+01
   1.26971E+01  1.04939E+01  9.65502E+00  9.64343E+00  9.66740E+00  1.02492E+01  1.21889E+01  1.57754E+01  2.01428E+01  2.38204E+01
   2.57844E+01  2.57936E+01  2.40880E+01  2.13652E+01  1.81286E+01  1.47971E+01  1.19249E+01  9.57101E+00  7.83175E+00  7.23190E+00
   7.72910E+00  9.02226E+00  1.07829E+01  1.33903E+01  1.70235E+01  2.07847E+01  2.32623E+01  2.34127E+01  2.12382E+01  1.79521E+01
   1.46396E+01  1.17599E+01  9.50921E+00  7.87466E+00  6.80020E+00  6.31939E+00  6.75650E+00  8.13699E+00  9.72430E+00  1.07149E+01
   1.08536E+01  1.01559E+01  9.04376E+00  7.90364E+00  7.08046E+00  6.77825E+00  6.77159E+00  6.87231E+00  7.25656E+00  7.93247E+00
   8.66966E+00  9.32613E+00  9.78088E+00  9.99050E+00  9.89607E+00  9.43663E+00  8.63836E+00  7.60899E+00  6.70674E+00  6.18633E+00
   6.13567E+00  6.23660E+00  6.55050E+00  7.14768E+00  7.80972E+00  8.14557E+00  7.71544E+00  6.60282E+00  5.37780E+00  4.51138E+00
   3.96994E+00  3.61294E+00  3.34164E+00  3.05657E+00  2.82187E+00  2.85925E+00  3.81470E+00  6.45470E+00  9.58979E+00  1.35481E+01
   2.02787E+01  2.99421E+01  4.00432E+01  4.68408E+01  4.79617E+01  4.42594E+01  3.81691E+01  3.16456E+01  2.55238E+01  1.97155E+01
   1.43034E+01  9.47850E+00  5.34390E+00  3.22254E+00  2.63363E+00  2.45922E+00  2.41148E+00  2.50893E+00  2.84781E+00  3.93342E+00
   6.64168E+00  1.10086E+01  1.73733E+01  2.60844E+01  3.82697E+01  5.28143E+01  6.59373E+01  7.34228E+01  7.34130E+01  6.74469E+01
   5.85849E+01  4.89376E+01  3.92183E+01  2.95138E+01  2.01305E+01  1.19045E+01  6.08874E+00  3.05293E+00  2.51102E+00  2.83743E+00
   3.26360E+00  3.47854E+00  3.48700E+00  3.36801E+00  3.08253E+00  2.66676E+00  2.15679E+00  1.53298E+00  8.80806E-01  2.56567E-01
  -2.81678E-01 -6.91739E-01 -9.98843E-01 -1.26450E+00 -1.58790E+00 -1.83778E+00 -2.13217E+00 -2.63271E+00 -3.32182E+00 -4.16181E+00
  -4.65582E+00 -4.48730E+00 -3.91693E+00 -3.48469E+00 -3.59868E+00 -4.23634E+00 -5.06680E+00 -5.85023E+00 -6.53329E+00 -7.24317E+00
  -8.04597E+00 -8.85668E+00 -9.82528E+00 -1.08414E+01 -1.15227E+01 -1.15742E+01 -1.11106E+01 -1.06388E+01 -1.05507E+01 -1.07800E+01
  -1.10266E+01 -1.08814E+01 -1.05616E+01 -1.03654E+01 -1.01297E+01 -9.52502E+00 -8.15336E+00 -5.92708E+00 -3.38884E+00 -1.17431E+00
   1.65741E-01  5.18907E-01  3.30342E-01 -1.53231E-01 -8.31060E-01 -1.57883E+00 -2.17942E+00 -2.08569E+00 -1.20777E+00  3.11353E-01
   2.17541E+00  4.06450E+00  5.32075E+00  5.51946E+00  4.58405E+00  2.32780E+00 -9.03541E-01 -4.18627E+00 -6.59346E+00 -7.49937E+00
  -7.16212E+00 -5.56666E+00 -2.56996E+00  1.38604E+00  4.96109E+00  6.78011E+00  6.41593E+00  4.48982E+00  1.36244E+00 -2.53995E+00
  -5.94270E+00 -7.83862E+00 -7.81980E+00 -6.06351E+00 -3.47202E+00 -4.80916E-01  2.27575E+00  4.32931E+00  5.48904E+00  6.02166E+00
   6.35599E+00  6.49503E+00  6.52295E+00  6.90944E+00  7.90415E+00  9.14105E+00  1.02546E+01  1.08828E+01  1.08056E+01  1.00948E+01
   9.02909E+00  8.18439E+00  8.08946E+00  8.85679E+00  1.01125E+01  1.14905E+01  1.29008E+01  1.41997E+01  1.53026E+01  1.63056E+01
   1.74101E+01  1.86434E+01  2.11440E+01  2.85422E+01  3.76522E+01  4.80440E+01  6.57158E+01  9.20258E+01  1.20654E+02  1.40927E+02
   1.45164E+02  1.34777E+02  1.16938E+02  9.76832E+01  7.95082E+01  6.22796E+01  4.61960E+01  3.16539E+01  1.85121E+01  1.09967E+01
   8.44044E+00  7.14305E+00  6.30581E+00  5.71362E+00  5.17125E+00  4.60184E+00  4.02948E+00  3.45073E+00  2.86769E+00  2.30281E+00
   1.78242E+00  1.31419E+00  9.21466E-01  6.24831E-01  4.18441E-01  2.99992E-01  2.76537E-01  3.59841E-01  5.65543E-01  8.98923E-01
   1.36650E+00  1.98475E+00  2.76336E+00  3.70566E+00  4.80691E+00  6.05536E+00  7.43401E+00  8.91578E+00  1.04682E+01  1.20520E+01
   1.36195E+01  1.51180E+01  1.64939E+01  1.76955E+01  1.86765E+01  1.93979E+01  1.98316E+01  1.99618E+01  1.97867E+01  1.93192E+01
   1.85855E+01  1.76217E+01  1.64743E+01  1.51957E+01  1.38425E+01  1.24714E+01  1.11362E+01  9.88487E+00  8.75919E+00  7.79330E+00
   7.01361E+00  6.43755E+00  6.07418E+00  5.92475E+00  5.98484E+00  6.24519E+00  6.69267E+00  7.31010E+00  8.07752E+00  8.97286E+00
   9.97365E+00  1.10569E+01  1.21997E+01  1.33784E+01  1.45705E+01  1.57550E+01  1.69145E+01  1.80352E+01  1.91100E+01  2.01460E+01
   2.11646E+01  2.20834E+01  2.28951E+01  2.36702E+01  2.43334E+01  2.47111E+01  2.46595E+01  2.42040E+01  2.36132E+01  2.30431E+01
   2.25649E+01  2.22935E+01  2.23081E+01  2.25964E+01  2.30072E+01  2.33228E+01  2.34734E+01  2.34205E+01  2.31534E+01  2.27322E+01
   2.21780E+01  2.15049E+01  2.07262E+01  1.98351E+01  1.89313E+01  1.80516E+01  1.71699E+01  1.62801E+01  1.53857E+01  1.44942E+01
   1.36150E+01  1.27584E+01  1.19347E+01  1.11534E+01  1.04242E+01  9.75633E+00  9.15891E+00  8.63998E+00  8.20696E+00  7.86650E+00
   7.62530E+00  7.48975E+00  7.46602E+00  7.55927E+00  7.77401E+00  8.11371E+00  8.58113E+00  9.17733E+00  9.90125E+00  1.07486E+01
   1.17120E+01  1.27804E+01  1.39391E+01  1.51691E+01  1.64471E+01  1.77455E+01  1.90336E+01  2.02785E+01  2.14465E+01  2.25036E+01
   2.34175E+01  2.41587E+01  2.47028E+01  2.50311E+01  2.51322E+01  2.50018E+01  2.46431E+01  2.40662E+01  2.32888E+01  2.23339E+01
   2.12293E+01  2.00049E+01  1.86923E+01  1.73229E+01  1.59272E+01  1.45329E+01  1.31648E+01  1.18428E+01  1.05833E+01  9.39814E+00
   8.29585E+00  7.28104E+00  6.35513E+00  5.51659E+00  4.76219E+00  4.08724E+00  3.48641E+00  2.95345E+00  2.48187E+00  2.06496E+00
   1.69666E+00  1.37135E+00  1.08409E+00  8.30003E-01  6.04778E-01  4.04435E-01  2.25942E-01  6.66123E-02 -7.57472E-02 -2.03456E-01
  -3.18410E-01 -4.22311E-01 -5.16195E-01 -6.01100E-01 -6.77887E-01 -7.47711E-01 -8.11364E-01 -8.69546E-01 -9.22485E-01 -9.70646E-01
  -1.01444E+00 -1.05457E+00 -1.09135E+00 -1.12503E+00 -1.15556E+00 -1.18326E+00 -1.20839E+00 -1.23145E+00 -1.25248E+00 -1.27155E+00
  -1.28854E+00 -1.30375E+00 -1.31739E+00 -1.32980E+00 -1.34084E+00 -1.35051E+00 -1.35872E+00 -1.36582E+00 -1.37195E+00 -1.37729E+00
  -1.38161E+00 -1.38491E+00 -1.38718E+00 -1.38876E+00 -1.38971E+00 -1.39011E+00 -1.38968E+00 -1.38848E+00 -1.38657E+00 -1.38427E+00
  -1.38156E+00 -1.37840E+00 -1.37455E+00 -1.37013E+00 -1.36525E+00 -1.36020E+00 -1.35482E+00 -1.34904E+00 -1.34267E+00 -1.33594E+00
  -1.32895E+00 -1.32190E+00 -1.31455E+00 -1.30684E+00 -1.29865E+00 -1.29028E+00 -1.28180E+00 -1.27330E+00
 NY background values follow
     2.331E+00    2.292E+00    2.253E+00    2.215E+00    2.176E+00    2.137E+00    2.099E+00    2.060E+00    2.021E+00    1.983E+00
     1.944E+00    1.905E+00    1.867E+00    1.828E+00    1.789E+00    1.751E+00    1.712E+00    1.673E+00    1.635E+00    1.596E+00
     1.557E+00    1.518E+00    1.480E+00    1.441E+00    1.402E+00    1.364E+00    1.325E+00    1.286E+00    1.248E+00    1.209E+00
     1.170E+00    1.132E+00    1.093E+00    1.054E+00    1.016E+00    9.772E-01    9.386E-01    9.000E-01    8.614E-01    8.227E-01
     7.841E-01    7.456E-01    7.070E-01    6.684E-01    6.298E-01    5.912E-01    5.527E-01    5.142E-01    4.756E-01    4.371E-01
     3.986E-01    3.601E-01    3.216E-01    2.832E-01    2.447E-01    2.063E-01    1.679E-01    1.295E-01    9.118E-02    5.286E-02
     1.456E-02   -2.371E-02   -6.195E-02   -1.002E-01   -1.383E-01   -1.765E-01   -2.146E-01   -2.527E-01   -2.907E-01   -3.287E-01
    -3.667E-01   -4.046E-01   -4.424E-01   -4.803E-01   -5.181E-01   -5.558E-01   -5.935E-01   -6.311E-01   -6.687E-01   -7.063E-01
    -7.438E-01   -7.812E-01   -8.186E-01   -8.559E-01   -8.931E-01   -9.303E-01   -9.675E-01   -1.005E+00   -1.042E+00   -1.079E+00
    -1.115E+00   -1.152E+00   -1.189E+00   -1.226E+00   -1.262E+00   -1.299E+00   -1.335E+00   -1.372E+00   -1.408E+00   -1.444E+00
    -1.480E+00   -1.516E+00   -1.552E+00   -1.588E+00   -1.624E+00   -1.660E+00   -1.695E+00   -1.731E+00   -1.766E+00   -1.802E+00
    -1.837E+00   -1.872E+00   -1.907E+00   -1.942E+00   -1.977E+00   -2.012E+00   -2.047E+00   -2.081E+00   -2.116E+00   -2.150E+00
    -2.184E+00   -2.218E+00   -2.252E+00   -2.286E+00   -2.320E+00   -2.354E+00   -2.387E+00   -2.421E+00   -2.454E+00   -2.487E+00
    -2.520E+00   -2.553E+00   -2.586E+00   -2.618E+00   -2.651E+00   -2.683E+00   -2.716E+00   -2.748E+00   -2.780E+00   -2.812E+00
    -2.843E+00   -2.875E+00   -2.906E+00   -2.938E+00   -2.969E+00   -3.000E+00   -3.030E+00   -3.061E+00   -3.092E+00   -3.122E+00
    -3.152E+00   -3.182E+00   -3.212E+00   -3.241E+00   -3.271E+00   -3.300E+00   -3.329E+00   -3.358E+00   -3.387E+00   -3.415E+00
    -3.444E+00   -3.472E+00   -3.500E+00   -3.528E+00   -3.555E+00   -3.582E+00   -3.610E+00   -3.636E+00   -3.663E+00   -3.690E+00
    -3.716E+00   -3.742E+00   -3.768E+00   -3.793E+00   -3.819E+00   -3.844E+00   -3.869E+00   -3.894E+00   -3.918E+00   -3.942E+00
    -3.966E+00   -3.990E+00   -4.013E+00   -4.037E+00   -4.060E+00   -4.082E+00   -4.105E+00   -4.127E+00   -4.149E+00   -4.171E+00
    -4.192E+00   -4.214E+00   -4.235E+00   -4.256E+00   -4.276E+00   -4.296E+00   -4.317E+00   -4.336E+00   -4.356E+00   -4.376E+00
    -4.395E+00   -4.414E+00   -4.432E+00   -4.451E+00   -4.469E+00   -4.487E+00   -4.505E+00   -4.522E+00   -4.540E+00   -4.557E+00
    -4.574E+00   -4.590E+00   -4.607E+00   -4.623E+00   -4.639E+00   -4.655E+00   -4.670E+00   -4.686E+00   -4.701E+00   -4.716E+00
    -4.731E+00   -4.745E+00   -4.759E+00   -4.773E+00   -4.787E+00   -4.801E+00   -4.814E+00   -4.827E+00   -4.840E+00   -4.853E+00
    -4.866E+00   -4.878E+00   -4.890E+00   -4.902E+00   -4.914E+00   -4.925E+00   -4.936E+00   -4.947E+00   -4.958E+00   -4.969E+00
    -4.979E+00   -4.990E+00   -5.000E+00   -5.009E+00   -5.019E+00   -5.028E+00   -5.038E+00   -5.046E+00   -5.055E+00   -5.064E+00
    -5.072E+00   -5.080E+00   -5.088E+00   -5.096E+00   -5.103E+00   -5.110E+00   -5.117E+00   -5.124E+00   -5.131E+00   -5.137E+00
    -5.143E+00   -5.149E+00   -5.155E+00   -5.161E+00   -5.166E+00   -5.171E+00   -5.176E+00   -5.181E+00   -5.185E+00   -5.190E+00
    -5.194E+00   -5.197E+00   -5.201E+00   -5.205E+00   -5.208E+00   -5.211E+00   -5.214E+00   -5.216E+00   -5.219E+00   -5.221E+00
    -5.223E+00   -5.224E+00   -5.226E+00   -5.227E+00   -5.228E+00   -5.229E+00   -5.230E+00   -5.231E+00   -5.231E+00   -5.231E+00
    -5.231E+00   -5.231E+00   -5.230E+00   -5.230E+00   -5.229E+00   -5.228E+00   -5.227E+00   -5.225E+00   -5.223E+00   -5.222E+00
    -5.220E+00   -5.217E+00   -5.215E+00   -5.212E+00   -5.210E+00   -5.207E+00   -5.203E+00   -5.200E+00   -5.196E+00   -5.193E+00
    -5.189E+00   -5.185E+00   -5.180E+00   -5.176E+00   -5.171E+00   -5.166E+00   -5.161E+00   -5.156E+00   -5.151E+00   -5.145E+00
    -5.139E+00   -5.134E+00   -5.127E+00   -5.121E+00   -5.115E+00   -5.108E+00   -5.101E+00   -5.094E+00   -5.087E+00   -5.080E+00
    -5.072E+00   -5.065E+00   -5.057E+00   -5.049E+00   -5.041E+00   -5.033E+00   -5.024E+00   -5.016E+00   -5.007E+00   -4.998E+00
    -4.989E+00   -4.980E+00   -4.970E+00   -4.961E+00   -4.951E+00   -4.941E+00   -4.931E+00   -4.921E+00   -4.911E+00   -4.901E+00
    -4.890E+00   -4.879E+00   -4.868E+00   -4.857E+00   -4.846E+00   -4.835E+00   -4.824E+00   -4.812E+00   -4.800E+00   -4.789E+00
    -4.777E+00   -4.765E+00   -4.753E+00   -4.740E+00   -4.728E+00   -4.715E+00   -4.702E+00   -4.690E+00   -4.677E+00   -4.664E+00
    -4.650E+00   -4.637E+00   -4.624E+00   -4.610E+00   -4.596E+00   -4.583E+00   -4.569E+00   -4.555E+00   -4.541E+00   -4.526E+00
    -4.512E+00   -4.497E+00   -4.483E+00   -4.468E+00   -4.453E+00   -4.438E+00   -4.423E+00   -4.408E+00   -4.393E+00   -4.377E+00
    -4.362E+00   -4.346E+00   -4.331E+00   -4.315E+00   -4.299E+00   -4.283E+00   -4.267E+00   -4.251E+00   -4.234E+00   -4.218E+00
    -4.202E+00   -4.185E+00   -4.168E+00   -4.151E+00   -4.135E+00   -4.118E+00   -4.101E+00   -4.083E+00   -4.066E+00   -4.049E+00
    -4.031E+00   -4.014E+00   -3.996E+00   -3.979E+00   -3.961E+00   -3.943E+00   -3.925E+00   -3.907E+00   -3.889E+00   -3.871E+00
    -3.853E+00   -3.834E+00   -3.816E+00   -3.797E+00   -3.779E+00   -3.760E+00   -3.742E+00   -3.723E+00   -3.704E+00   -3.685E+00
    -3.666E+00   -3.647E+00   -3.628E+00   -3.609E+00   -3.590E+00   -3.571E+00   -3.551E+00   -3.532E+00   -3.513E+00   -3.493E+00
    -3.474E+00   -3.454E+00   -3.434E+00   -3.415E+00   -3.395E+00   -3.375E+00   -3.356E+00   -3.336E+00   -3.316E+00   -3.296E+00
    -3.276E+00   -3.256E+00   -3.236E+00   -3.216E+00   -3.196E+00   -3.176E+00   -3.156E+00   -3.135E+00   -3.115E+00   -3.095E+00
    -3.075E+00   -3.054E+00   -3.034E+00   -3.014E+00   -2.993E+00   -2.973E+00   -2.952E+00   -2.932E+00   -2.911E+00   -2.891E+00
    -2.870E+00   -2.850E+00   -2.829E+00   -2.809E+00   -2.788E+00   -2.768E+00   -2.747E+00   -2.726E+00   -2.706E+00   -2.685E+00
    -2.664E+00   -2.644E+00   -2.623E+00   -2.602E+00   -2.582E+00   -2.561E+00   -2.540E+00   -2.520E+00   -2.499E+00   -2.478E+00
    -2.458E+00   -2.437E+00   -2.416E+00   -2.396E+00   -2.375E+00   -2.354E+00   -2.333E+00   -2.313E+00
 Cr       Conc. = 1.35E+03
