 LCModel (Version 6.3-1L) Copyright: S.W. Provencher.          Ref.: Magn. Reson. Med. 30:672-679 (1993).                
 Slice#2 Row#1 Col#6  PD_24_press_2_raw_act
 36 lines in following concentration table = NCONC+1
    Conc.  %SD /Cr+PCr  Metabolite                                         
    0.000 999%   0.000 Ala                                                 
   62.639  36%   0.896 Asp                                                 
    0.000 999%   0.000 Cr                                                  
   69.948 158%   1.000 PCr                                                 
   37.890  36%   0.542 GABA                                                
   37.587  36%   0.537 Glc                                                 
  158.251 364%   2.262 Gln                                                 
 1.47E+03  45%  20.982 Glu                                                 
    0.000 999%   0.000 GPC                                                 
  111.701  38%   1.597 PCh                                                 
    0.000 999%   0.000 GSH                                                 
    0.000 999%   0.000 Ins                                                 
    0.000 999%   0.000 Lac                                                 
  370.321  57%   5.294 NAA                                                 
  483.129  42%   6.907 NAAG                                                
   12.778  35%   0.183 Scyllo                                              
   62.732  36%   0.897 Tau                                                 
    6.996 159%   0.100 -CrCH2                                              
  111.701  38%   1.597 GPC+PCh                                             
  853.450  16%  12.201 NAA+NAAG                                            
   69.948 158%   1.000 Cr+PCr                                              
 1.63E+03  58%  23.245 Glu+Gln                                             
    0.000 999%   0.000 Lip13a                                              
  209.828 107%   3.000 Lip13b                                              
    0.000 999%   0.000 Lip09                                               
    0.000 999%   0.000 MM09                                                
  152.111 121%   2.175 Lip20                                               
    4.466 847% 6.4E-02 MM20                                                
    0.000 999%   0.000 MM12                                                
    0.000 999%   0.000 MM14                                                
    4.422 684% 6.3E-02 MM17                                                
  209.828 107%   3.000 Lip13a+Lip13b                                       
  209.828 107%   3.000 MM14+Lip13a+Lip13b+MM12                             
    0.000 999%   0.000 MM09+Lip09                                          
  156.577 119%   2.238 MM20+Lip20                                          
   6 lines in following misc. output table
  FWHM = 0.061 ppm    S/N =   1                                            
  Data shift = 0.031 ppm                                                   
  Ph: -52 deg       5.2 deg/ppm                                            
  alphaB,S = 8.5E+01,   2.6E+01                                            
   14 spline knots.   Ns = 5(1)                                            
   2 inflections.     1 extrema                                            
  498 points on ppm-axis = NY
      4.000000     3.992357     3.984714     3.977070     3.969427     3.961784     3.954141     3.946497     3.938854     3.931211
      3.923568     3.915925     3.908281     3.900638     3.892995     3.885352     3.877708     3.870065     3.862422     3.854779
      3.847136     3.839492     3.831849     3.824206     3.816563     3.808919     3.801276     3.793633     3.785990     3.778347
      3.770703     3.763060     3.755417     3.747774     3.740130     3.732487     3.724844     3.717201     3.709558     3.701914
      3.694271     3.686628     3.678985     3.671341     3.663698     3.656055     3.648412     3.640769     3.633125     3.625482
      3.617839     3.610196     3.602552     3.594909     3.587266     3.579623     3.571980     3.564336     3.556693     3.549050
      3.541407     3.533763     3.526120     3.518477     3.510834     3.503191     3.495547     3.487904     3.480261     3.472618
      3.464974     3.457331     3.449688     3.442045     3.434402     3.426758     3.419115     3.411472     3.403829     3.396185
      3.388542     3.380899     3.373256     3.365613     3.357969     3.350326     3.342683     3.335040     3.327396     3.319753
      3.312110     3.304467     3.296824     3.289180     3.281537     3.273894     3.266251     3.258607     3.250964     3.243321
      3.235678     3.228034     3.220391     3.212748     3.205105     3.197462     3.189818     3.182175     3.174532     3.166889
      3.159245     3.151602     3.143959     3.136316     3.128673     3.121029     3.113386     3.105743     3.098100     3.090456
      3.082813     3.075170     3.067527     3.059884     3.052240     3.044597     3.036954     3.029311     3.021667     3.014024
      3.006381     2.998738     2.991095     2.983451     2.975808     2.968165     2.960522     2.952878     2.945235     2.937592
      2.929949     2.922306     2.914662     2.907019     2.899376     2.891733     2.884089     2.876446     2.868803     2.861160
      2.853517     2.845873     2.838230     2.830587     2.822944     2.815300     2.807657     2.800014     2.792371     2.784728
      2.777084     2.769441     2.761798     2.754155     2.746511     2.738868     2.731225     2.723582     2.715939     2.708295
      2.700652     2.693009     2.685366     2.677722     2.670079     2.662436     2.654793     2.647150     2.639506     2.631863
      2.624220     2.616577     2.608933     2.601290     2.593647     2.586004     2.578361     2.570717     2.563074     2.555431
      2.547788     2.540144     2.532501     2.524858     2.517215     2.509572     2.501928     2.494285     2.486642     2.478999
      2.471355     2.463712     2.456069     2.448426     2.440783     2.433139     2.425496     2.417853     2.410210     2.402566
      2.394923     2.387280     2.379637     2.371994     2.364350     2.356707     2.349064     2.341421     2.333777     2.326134
      2.318491     2.310848     2.303205     2.295561     2.287918     2.280275     2.272632     2.264988     2.257345     2.249702
      2.242059     2.234416     2.226772     2.219129     2.211486     2.203843     2.196199     2.188556     2.180913     2.173270
      2.165627     2.157983     2.150340     2.142697     2.135054     2.127410     2.119767     2.112124     2.104481     2.096838
      2.089194     2.081551     2.073908     2.066265     2.058621     2.050978     2.043335     2.035692     2.028049     2.020405
      2.012762     2.005119     1.997476     1.989833     1.982190     1.974546     1.966903     1.959260     1.951617     1.943974
      1.936331     1.928688     1.921045     1.913402     1.905759     1.898115     1.890472     1.882829     1.875186     1.867543
      1.859900     1.852257     1.844614     1.836971     1.829327     1.821684     1.814041     1.806398     1.798755     1.791112
      1.783469     1.775826     1.768183     1.760540     1.752896     1.745253     1.737610     1.729967     1.722324     1.714681
      1.707038     1.699395     1.691752     1.684108     1.676465     1.668822     1.661179     1.653536     1.645893     1.638250
      1.630607     1.622964     1.615321     1.607677     1.600034     1.592391     1.584748     1.577105     1.569462     1.561819
      1.554176     1.546533     1.538890     1.531246     1.523603     1.515960     1.508317     1.500674     1.493031     1.485388
      1.477745     1.470102     1.462458     1.454815     1.447172     1.439529     1.431886     1.424243     1.416600     1.408957
      1.401314     1.393671     1.386027     1.378384     1.370741     1.363098     1.355455     1.347812     1.340169     1.332526
      1.324883     1.317240     1.309596     1.301953     1.294310     1.286667     1.279024     1.271381     1.263738     1.256095
      1.248452     1.240808     1.233165     1.225522     1.217879     1.210236     1.202593     1.194950     1.187307     1.179664
      1.172021     1.164377     1.156734     1.149091     1.141448     1.133805     1.126162     1.118519     1.110876     1.103233
      1.095590     1.087946     1.080303     1.072660     1.065017     1.057374     1.049731     1.042088     1.034445     1.026802
      1.019158     1.011515     1.003872     0.996229     0.988586     0.980943     0.973300     0.965657     0.958014     0.950371
      0.942727     0.935084     0.927441     0.919798     0.912155     0.904512     0.896869     0.889226     0.881583     0.873940
      0.866296     0.858653     0.851010     0.843367     0.835724     0.828081     0.820438     0.812795     0.805152     0.797508
      0.789865     0.782222     0.774579     0.766936     0.759293     0.751650     0.744007     0.736364     0.728721     0.721077
      0.713434     0.705791     0.698148     0.690505     0.682862     0.675219     0.667576     0.659933     0.652290     0.644646
      0.637003     0.629360     0.621717     0.614074     0.606431     0.598788     0.591145     0.583502     0.575858     0.568215
      0.560572     0.552929     0.545286     0.537643     0.530000     0.522357     0.514714     0.507071     0.499427     0.491784
      0.484141     0.476498     0.468855     0.461212     0.453569     0.445925     0.438282     0.430639     0.422996     0.415353
      0.407710     0.400067     0.392424     0.384780     0.377137     0.369494     0.361851     0.354208     0.346565     0.338922
      0.331278     0.323635     0.315992     0.308349     0.300706     0.293063     0.285420     0.277777     0.270133     0.262490
      0.254847     0.247204     0.239561     0.231918     0.224275     0.216631     0.208988     0.201345
 NY phased data points follow
   1.24737E+01  6.27248E+00  1.00682E+01 -6.77137E-01  1.85674E+01  1.26704E+01  1.24000E+01  5.92865E+00  2.84284E+00  7.27924E+00
   5.18514E+00  9.70591E+00  7.71934E+00  1.35408E+01  1.26790E+01  8.59694E+00  4.62190E+00  7.27101E+00  1.43289E+01  8.32022E+00
   8.36332E+00  2.69782E+01 -4.91665E+00 -4.94989E+00  7.30406E+00  5.27550E+00  4.83436E+00  8.84240E+00  1.27431E+01  1.91989E+01
   4.57563E+00  1.03892E+01  6.32846E-01  3.01171E-02  1.26746E+01  3.94324E+00  1.69779E+01  1.76989E+01  1.48875E+01 -5.58036E+00
  -2.29705E-01  8.66946E+00  1.87056E+01  4.80301E+00  1.10075E+01  3.66621E+00  1.11955E+01  9.88931E+00  6.84107E+00 -2.53625E+00
   1.71958E+01  9.34865E+00  1.53673E+01 -4.58717E+00  8.34654E+00  1.04462E+01 -1.19862E+00  2.42192E+00  9.98929E+00 -5.19021E+00
   2.76092E+00  6.31173E+00 -3.18490E+00  1.23680E+01  9.31729E+00  4.04426E+00  1.78679E+01  2.83381E+00  1.62374E+01  8.88572E+00
   9.72558E+00  4.01237E+00  1.83068E+00 -9.13820E+00  9.08819E-01  5.77139E+00  9.97087E+00  1.37886E+01  5.52435E+00  1.42082E+01
  -1.67045E+00 -1.17046E+01  4.89820E+00  5.83136E+00  1.24723E+01  2.41658E+01  1.72310E+01  5.55483E+00  9.79330E+00 -7.00397E-02
   5.75509E-01  1.72222E+01 -2.34207E+00  5.98125E+00  2.61373E+00  1.08726E+00  1.24826E+01 -4.07725E+00  9.44202E-01  2.23375E+00
   2.05840E+00  2.42842E+00  9.60252E+00  2.25303E+01  2.42624E+01  1.94933E+01  1.29703E+01  1.74288E+01  1.08231E+01 -7.13616E-01
   2.65798E+00  6.26889E+00  2.19190E+01 -1.16649E+01 -4.98883E+00  2.38567E-01  1.76549E+01 -6.08615E-02  1.62731E+01  3.21068E+00
   1.31506E+01  2.07718E+00  1.64047E+01  1.03851E+01  5.27920E+00  2.85430E+00  1.79845E+00  3.74102E+00  5.51191E+00  1.14884E+01
   3.93726E+00  1.23001E+01  3.37561E+00 -2.35998E+00  4.94526E+00  5.05250E+00  1.16955E+00  6.94907E-01 -9.96469E+00  5.25095E+00
   5.00238E+00 -3.88911E-01  1.47847E+01 -2.05599E+00  1.52628E+00  4.48362E+00  2.70411E+00  3.50336E+00  9.02745E-01 -6.53480E-01
   1.10321E+01  9.26336E+00 -5.21624E+00  5.53680E+00  5.57860E+00 -1.51288E+00  1.32309E+01  1.53636E+01  1.30388E+01  2.14003E+01
  -1.43594E+00 -1.05737E+01 -6.01681E+00  3.66886E+00 -6.90063E+00  1.22535E+01  1.59803E+01  3.72538E+00 -4.13885E+00 -1.33273E+00
  -6.66641E+00 -5.19567E+00 -1.91958E+00  1.01965E+01 -8.74183E+00 -6.01810E+00  8.85565E-01  5.15852E+00  1.95615E+01  4.85961E+00
   1.41039E+01  1.52326E+01 -8.77588E-01 -5.48267E+00  7.10847E+00  2.93218E-01  1.15016E+01  2.35710E+00 -1.03968E+00 -2.14848E+00
   7.21820E+00  4.74909E+00 -1.16984E+00 -1.39591E+01  9.41190E+00  2.71548E+01  7.76816E+00  8.03330E+00  8.01745E+00  1.57295E+00
   4.14220E+00  2.85450E+00  1.70331E+01  6.73704E+00 -5.36889E+00 -2.40274E+00  2.95021E+00 -1.03422E+01  3.76626E+00  7.93605E+00
  -5.34658E+00  3.51316E+00  5.25163E+00  1.01020E+01  1.31288E+01  4.05773E+00 -1.60704E-01  6.65287E+00  3.97131E+00 -7.46312E-02
   1.14800E+01  7.39961E+00 -5.09753E+00 -1.77644E+01  8.94918E-01 -5.04178E+00 -9.75088E+00  1.36922E+00  1.32201E+01  1.93173E+00
   8.50566E+00  6.77358E+00  6.52036E-01  6.29805E+00 -7.66174E+00 -1.49676E+01  5.91359E+00 -9.53990E+00  2.64180E+01  2.36700E+00
   8.19160E+00  8.37263E+00  1.00000E+01  1.27040E+01  1.74064E+01 -3.59850E+00  6.10821E+00  1.75567E-01  1.69516E-01 -1.06796E+01
  -7.48664E-01 -1.98423E+00  1.17236E+01  2.17309E+01  1.35633E+01  9.88225E+00  1.93744E+01  9.35961E+00  1.51641E+01  3.42201E+01
   2.67419E+01  2.91548E+01  1.09384E+01  1.45321E+01  1.40874E+01  1.08753E+01  2.04263E+00 -1.74557E+00 -5.43019E+00  1.00590E+01
   1.25092E+01  1.60014E+01  3.09161E+00 -1.06297E+00 -1.49154E+00  8.05566E+00  4.72888E+00  1.04349E+01  1.19104E+01  9.81879E+00
   6.93787E+00  1.05990E+01 -2.19209E-01  1.48948E+01  4.50370E+00  1.73958E+01 -1.30700E+00 -9.21991E-01  8.82135E+00 -4.53204E+00
   4.03652E+00 -1.88809E+00 -3.93512E+00  1.51134E+00  1.22527E+01  3.20435E+00  2.92989E+01  7.06746E+00  1.60338E+01  7.56593E+00
   1.99830E+01  1.62310E+01  1.47153E+01 -6.00701E-01  1.16571E+01  1.20759E+01  3.24916E+00 -6.19343E+00 -1.55600E+01 -7.30624E+00
  -9.17204E+00 -4.52336E+00 -1.97497E+01 -1.11312E+01 -7.61019E+00 -3.51081E+00 -4.07894E+00 -6.10847E+00 -1.52059E+01 -8.51391E+00
  -1.67489E+01  6.96220E+00  5.09943E+00  1.22367E+01 -1.25900E+01 -1.34873E+01  7.36262E+00  9.02458E+00  9.92658E+00  2.61121E+00
   3.03382E+00  7.74452E+00 -6.51343E+00  9.20048E+00 -1.25359E+01 -2.09014E+01 -2.96301E+00 -5.58385E+00 -2.46384E+00  8.85593E-01
  -1.12346E+01 -6.88180E+00  1.20436E+01  2.66892E+00 -1.94140E+01 -9.75778E+00 -1.02226E+01 -8.01843E+00 -5.61093E+00  3.36738E+00
   2.09355E+00  1.01274E+01  7.71371E+00 -1.47806E+01  1.09176E+01  4.04268E+00 -1.27524E+01 -2.39786E+00 -7.12394E+00  5.97154E-01
   2.33711E+00  2.32392E+00  6.39198E+00  1.82397E+00 -3.04024E-01 -1.84792E+01 -8.71741E+00 -1.37620E+01 -8.17615E+00 -8.08065E+00
  -9.93618E+00 -2.03643E+01 -4.14275E+00 -6.75647E+00 -3.17862E+01 -2.42754E+00 -1.85852E+01  6.09384E+00  3.71013E+00 -1.04882E+01
  -1.28935E+01  3.72914E+00 -1.38741E+01 -1.74983E+01  4.76792E+00 -1.42860E+01 -3.54899E+01 -6.89607E+00 -7.39978E+00  1.37542E+01
  -3.45753E+01 -2.10202E+01 -1.34518E+01 -1.92145E+01  2.13640E+00 -2.54598E+01 -1.04983E+01 -1.16967E+01 -2.25193E+00 -1.18335E+01
  -2.37096E+01 -3.35914E+00 -1.37779E+01 -8.39365E+00 -2.50257E+00 -1.03965E+01 -3.17785E+00 -4.69817E+00  1.19567E+01 -1.35905E+01
  -1.68111E+01 -2.63218E+00 -1.45951E+01 -9.71035E+00 -7.20379E+00 -1.02175E+01 -7.66301E+00 -1.16877E+01 -1.50599E-01 -1.23380E+01
   3.77620E+00 -1.15424E+01 -9.97525E-01 -2.02399E+01 -8.68276E+00 -6.44150E+00  3.75218E+00 -1.34034E+01 -2.79435E+01 -1.09683E+01
  -1.27378E+01 -2.58505E+01 -1.40472E+01 -2.96034E+00 -1.01285E+01 -1.92431E+01  8.03240E+00  2.88010E-01  6.87307E+00  1.83283E+00
   5.49148E-01 -8.71072E+00  4.35621E-01 -5.10069E+00 -2.82210E+00 -1.38046E+01  1.42605E-01 -1.22020E+00  1.19625E+00 -1.90908E+01
  -7.58556E+00  4.01428E+00  2.87672E+00 -6.13310E+00  2.41764E-01 -1.05930E+01 -1.06342E+01 -2.58543E+01  2.00942E+00  1.12762E+00
  -1.07880E+01  4.09480E-02 -6.06862E+00 -4.80096E-01 -5.23229E+00  5.53200E+00  1.71053E+01 -5.78830E-01 -1.07783E+01  1.04527E+01
   5.04805E+00 -9.28029E+00 -1.64526E+01 -1.15339E+01 -6.88429E+00 -7.52651E-01 -4.79084E+00  2.24215E+00 -3.74976E+00 -1.93377E+00
  -7.59962E+00 -1.12362E+01  3.33995E+00  1.54968E+00 -4.19584E+00 -2.80915E+00 -7.41219E+00 -1.14069E+01  7.00743E+00 -4.81202E+00
  -4.75069E+00  4.37213E+00  2.06541E+00 -9.04067E+00 -5.61416E+00 -5.08880E+00  1.20116E+01 -1.30466E+01
 NY points of the fit to the data follow
   8.54835E+00  8.54219E+00  8.54642E+00  8.57648E+00  8.71114E+00  8.91472E+00  9.09358E+00  9.22641E+00  9.32799E+00  9.40516E+00
   9.45712E+00  9.48637E+00  9.44659E+00  9.25265E+00  8.89414E+00  8.51525E+00  8.33510E+00  8.31634E+00  8.37537E+00  8.50533E+00
   8.69874E+00  8.96567E+00  9.22333E+00  9.20332E+00  8.91421E+00  8.52230E+00  8.15475E+00  7.97078E+00  8.07174E+00  8.32389E+00
   8.44443E+00  8.37976E+00  8.49211E+00  9.03919E+00  9.78877E+00  1.03098E+01  1.03853E+01  9.71002E+00  8.29973E+00  6.82462E+00
   5.98102E+00  6.04629E+00  6.84789E+00  7.89624E+00  8.67208E+00  8.76344E+00  8.29671E+00  7.83691E+00  7.56458E+00  7.41257E+00
   7.30505E+00  7.22112E+00  7.13965E+00  7.05798E+00  6.99621E+00  6.95386E+00  6.91987E+00  6.87833E+00  6.80394E+00  6.71768E+00
   6.64933E+00  6.60080E+00  6.57352E+00  6.55459E+00  6.53727E+00  6.50882E+00  6.46699E+00  6.42283E+00  6.38317E+00  6.34014E+00
   6.30789E+00  6.30331E+00  6.30566E+00  6.30123E+00  6.29178E+00  6.27602E+00  6.26790E+00  6.26113E+00  6.24311E+00  6.18873E+00
   6.08345E+00  5.99964E+00  6.01919E+00  6.11703E+00  6.22584E+00  6.32593E+00  6.40619E+00  6.45009E+00  6.44981E+00  6.38496E+00
   6.20904E+00  5.91892E+00  5.61341E+00  5.44945E+00  5.43447E+00  5.46083E+00  5.50814E+00  5.70211E+00  6.59862E+00  8.47770E+00
   1.04712E+01  1.19915E+01  1.30750E+01  1.39547E+01  1.47218E+01  1.53706E+01  1.55823E+01  1.45706E+01  1.19148E+01  8.46036E+00
   6.05704E+00  5.30733E+00  5.06017E+00  4.91165E+00  4.79812E+00  4.71182E+00  4.63912E+00  4.57701E+00  4.52022E+00  4.46821E+00
   4.43540E+00  4.49312E+00  4.77111E+00  5.15558E+00  5.48434E+00  5.73085E+00  5.94122E+00  6.13478E+00  6.30907E+00  6.41867E+00
   6.31239E+00  5.85025E+00  5.09758E+00  4.39798E+00  4.06925E+00  3.93662E+00  3.84526E+00  3.77526E+00  3.72965E+00  3.70771E+00
   3.70100E+00  3.70246E+00  3.70399E+00  3.69971E+00  3.67647E+00  3.63987E+00  3.61509E+00  3.60977E+00  3.60720E+00  3.55487E+00
   3.43158E+00  3.29012E+00  3.18073E+00  3.13002E+00  3.12766E+00  3.10192E+00  2.99953E+00  2.85457E+00  2.75261E+00  2.73984E+00
   2.78793E+00  2.77393E+00  2.62129E+00  2.37316E+00  2.11072E+00  1.92913E+00  1.89588E+00  1.94083E+00  1.94604E+00  1.87436E+00
   1.72933E+00  1.53493E+00  1.38647E+00  1.34870E+00  1.42279E+00  1.52555E+00  1.50887E+00  1.30019E+00  1.02661E+00  9.14825E-01
   1.03656E+00  1.29152E+00  1.47418E+00  1.50373E+00  1.52616E+00  1.68196E+00  1.99506E+00  2.41012E+00  2.75394E+00  2.87815E+00
   2.83358E+00  2.80703E+00  2.84177E+00  2.83258E+00  2.71849E+00  2.57454E+00  2.45430E+00  2.38069E+00  2.42502E+00  2.65385E+00
   3.00842E+00  3.39035E+00  3.67883E+00  3.78674E+00  3.66626E+00  3.14242E+00  2.33667E+00  1.49349E+00  6.81476E-01  3.62104E-03
  -3.20907E-01  1.97442E-01  1.34979E+00  2.67259E+00  3.99006E+00  5.31109E+00  6.25980E+00  6.05310E+00  4.64694E+00  2.38599E+00
  -5.19376E-01 -3.69859E+00 -6.18447E+00 -6.97326E+00 -6.51360E+00 -5.18420E+00 -2.85342E+00  2.99025E-01  3.31414E+00  4.92616E+00
   5.00353E+00  4.44807E+00  3.85623E+00  3.21290E+00  2.69943E+00  2.39477E+00  2.29742E+00  2.29019E+00  2.03217E+00  1.62623E+00
   1.29976E+00  1.07417E+00  8.83148E-01  7.33499E-01  6.77361E-01  6.88876E-01  8.49622E-01  1.20967E+00  1.72622E+00  2.15502E+00
   2.56981E+00  4.22885E+00  6.85340E+00  9.17450E+00  1.10714E+01  1.37829E+01  1.77416E+01  2.15730E+01  2.42174E+01  2.50963E+01
   2.36137E+01  1.99939E+01  1.63595E+01  1.47619E+01  1.34260E+01  1.02768E+01  6.05044E+00  2.95739E+00  1.68526E+00  1.05524E+00
   7.38934E-01  6.73528E-01  6.52998E-01  6.07936E-01  6.57941E-01  7.73674E-01  8.89026E-01  9.40386E-01  8.70608E-01  6.56708E-01
   3.76489E-01  1.58428E-01  4.60058E-02 -2.06010E-03 -3.71597E-02 -5.64930E-02 -6.13425E-02 -7.91624E-02 -1.37063E-01 -2.19571E-01
  -3.00143E-01 -3.65583E-01 -4.21325E-01 -4.56042E-01 -4.75903E-01 -4.90029E-01 -5.11111E-01 -5.60777E-01 -6.43174E-01 -7.27124E-01
  -8.01324E-01 -8.69265E-01 -9.26933E-01 -9.65177E-01 -9.81827E-01 -9.90419E-01 -1.01168E+00 -1.04480E+00 -1.08393E+00 -1.12768E+00
  -1.17221E+00 -1.21589E+00 -1.25902E+00 -1.30182E+00 -1.34441E+00 -1.38683E+00 -1.42916E+00 -1.47150E+00 -1.51379E+00 -1.55558E+00
  -1.59657E+00 -1.63697E+00 -1.67689E+00 -1.71645E+00 -1.75576E+00 -1.79489E+00 -1.83378E+00 -1.87232E+00 -1.91050E+00 -1.94845E+00
  -1.98626E+00 -2.02397E+00 -2.06147E+00 -2.09868E+00 -2.13560E+00 -2.17225E+00 -2.20854E+00 -2.24411E+00 -2.27827E+00 -2.30995E+00
  -2.33742E+00 -2.35796E+00 -2.36734E+00 -2.35962E+00 -2.32716E+00 -2.26118E+00 -2.15259E+00 -1.99368E+00 -1.78022E+00 -1.51399E+00
  -1.20493E+00 -8.72147E-01 -5.43054E-01 -2.50428E-01 -2.77398E-02  9.63390E-02  1.03135E-01 -1.24438E-02 -2.40811E-01 -5.59554E-01
  -9.37705E-01 -1.34136E+00 -1.73910E+00 -2.10613E+00 -2.42633E+00 -2.69244E+00 -2.90474E+00 -3.06883E+00 -3.19321E+00 -3.28716E+00
  -3.35916E+00 -3.41618E+00 -3.46350E+00 -3.50489E+00 -3.54288E+00 -3.57903E+00 -3.61419E+00 -3.64878E+00 -3.68304E+00 -3.71715E+00
  -3.75124E+00 -3.78534E+00 -3.81939E+00 -3.85335E+00 -3.88725E+00 -3.92114E+00 -3.95507E+00 -3.98900E+00 -4.02288E+00 -4.05668E+00
  -4.09043E+00 -4.12421E+00 -4.15802E+00 -4.19181E+00 -4.22553E+00 -4.25919E+00 -4.29284E+00 -4.32652E+00 -4.36022E+00 -4.39387E+00
  -4.42746E+00 -4.46100E+00 -4.49456E+00 -4.52816E+00 -4.56175E+00 -4.59528E+00 -4.62875E+00 -4.66221E+00 -4.69571E+00 -4.72922E+00
  -4.76271E+00 -4.79613E+00 -4.82951E+00 -4.86290E+00 -4.89633E+00 -4.92976E+00 -4.96314E+00 -4.99646E+00 -5.02976E+00 -5.06310E+00
  -5.09646E+00 -5.12981E+00 -5.16309E+00 -5.19633E+00 -5.22958E+00 -5.26288E+00 -5.29617E+00 -5.32944E+00 -5.36264E+00 -5.39582E+00
  -5.42903E+00 -5.46228E+00 -5.49550E+00 -5.52869E+00 -5.56182E+00 -5.59496E+00 -5.62814E+00 -5.66133E+00 -5.69449E+00 -5.72761E+00
  -5.76070E+00 -5.79381E+00 -5.82695E+00 -5.86009E+00 -5.89318E+00 -5.92623E+00 -5.95927E+00 -5.99234E+00 -6.02543E+00 -6.05852E+00
  -6.09154E+00 -6.12455E+00 -6.15757E+00 -6.19062E+00 -6.22367E+00 -6.25669E+00 -6.28966E+00 -6.32263E+00 -6.35561E+00 -6.38863E+00
  -6.42163E+00 -6.45459E+00 -6.48752E+00 -6.52046E+00 -6.55343E+00 -6.58642E+00 -6.61937E+00 -6.65229E+00 -6.68518E+00 -6.71811E+00
  -6.75106E+00 -6.78401E+00 -6.81691E+00 -6.84978E+00 -6.88265E+00 -6.91555E+00 -6.94846E+00 -6.98134E+00 -7.01418E+00 -7.04700E+00
  -7.07984E+00 -7.11271E+00 -7.14557E+00 -7.17840E+00 -7.21120E+00 -7.24398E+00 -7.27678E+00 -7.30961E+00 -7.34242E+00 -7.37518E+00
  -7.40791E+00 -7.44065E+00 -7.47340E+00 -7.50616E+00 -7.53889E+00 -7.57156E+00 -7.60420E+00 -7.63685E+00
 NY background values follow
     8.355E+00    8.323E+00    8.291E+00    8.258E+00    8.226E+00    8.194E+00    8.161E+00    8.129E+00    8.097E+00    8.065E+00
     8.032E+00    8.000E+00    7.968E+00    7.935E+00    7.903E+00    7.871E+00    7.839E+00    7.806E+00    7.774E+00    7.742E+00
     7.709E+00    7.677E+00    7.645E+00    7.613E+00    7.580E+00    7.548E+00    7.516E+00    7.483E+00    7.451E+00    7.419E+00
     7.387E+00    7.354E+00    7.322E+00    7.290E+00    7.258E+00    7.225E+00    7.193E+00    7.161E+00    7.128E+00    7.096E+00
     7.064E+00    7.032E+00    6.999E+00    6.967E+00    6.935E+00    6.902E+00    6.870E+00    6.838E+00    6.806E+00    6.773E+00
     6.741E+00    6.709E+00    6.676E+00    6.644E+00    6.612E+00    6.580E+00    6.547E+00    6.515E+00    6.483E+00    6.450E+00
     6.418E+00    6.386E+00    6.354E+00    6.321E+00    6.289E+00    6.257E+00    6.224E+00    6.192E+00    6.160E+00    6.128E+00
     6.095E+00    6.063E+00    6.031E+00    5.998E+00    5.966E+00    5.934E+00    5.902E+00    5.869E+00    5.837E+00    5.805E+00
     5.772E+00    5.740E+00    5.708E+00    5.676E+00    5.643E+00    5.611E+00    5.579E+00    5.546E+00    5.514E+00    5.482E+00
     5.450E+00    5.417E+00    5.385E+00    5.353E+00    5.320E+00    5.288E+00    5.256E+00    5.224E+00    5.191E+00    5.159E+00
     5.127E+00    5.094E+00    5.062E+00    5.030E+00    4.998E+00    4.965E+00    4.933E+00    4.901E+00    4.868E+00    4.836E+00
     4.804E+00    4.772E+00    4.739E+00    4.707E+00    4.675E+00    4.643E+00    4.610E+00    4.578E+00    4.546E+00    4.513E+00
     4.481E+00    4.449E+00    4.417E+00    4.384E+00    4.352E+00    4.320E+00    4.287E+00    4.255E+00    4.223E+00    4.191E+00
     4.158E+00    4.126E+00    4.094E+00    4.061E+00    4.029E+00    3.997E+00    3.965E+00    3.932E+00    3.900E+00    3.868E+00
     3.835E+00    3.803E+00    3.771E+00    3.739E+00    3.706E+00    3.674E+00    3.642E+00    3.609E+00    3.577E+00    3.545E+00
     3.513E+00    3.480E+00    3.448E+00    3.416E+00    3.383E+00    3.351E+00    3.319E+00    3.287E+00    3.254E+00    3.222E+00
     3.190E+00    3.157E+00    3.125E+00    3.093E+00    3.061E+00    3.028E+00    2.996E+00    2.964E+00    2.931E+00    2.899E+00
     2.867E+00    2.835E+00    2.802E+00    2.770E+00    2.738E+00    2.705E+00    2.673E+00    2.641E+00    2.609E+00    2.576E+00
     2.544E+00    2.512E+00    2.479E+00    2.447E+00    2.415E+00    2.383E+00    2.350E+00    2.318E+00    2.286E+00    2.253E+00
     2.221E+00    2.189E+00    2.157E+00    2.124E+00    2.092E+00    2.060E+00    2.027E+00    1.995E+00    1.963E+00    1.931E+00
     1.898E+00    1.866E+00    1.834E+00    1.801E+00    1.769E+00    1.737E+00    1.705E+00    1.672E+00    1.640E+00    1.608E+00
     1.575E+00    1.543E+00    1.511E+00    1.479E+00    1.446E+00    1.414E+00    1.382E+00    1.349E+00    1.317E+00    1.285E+00
     1.253E+00    1.220E+00    1.188E+00    1.156E+00    1.123E+00    1.091E+00    1.059E+00    1.027E+00    9.943E-01    9.620E-01
     9.298E-01    8.975E-01    8.652E-01    8.329E-01    8.006E-01    7.683E-01    7.360E-01    7.038E-01    6.715E-01    6.392E-01
     6.069E-01    5.746E-01    5.423E-01    5.100E-01    4.778E-01    4.455E-01    4.132E-01    3.809E-01    3.486E-01    3.163E-01
     2.840E-01    2.518E-01    2.195E-01    1.872E-01    1.549E-01    1.226E-01    9.033E-02    5.805E-02    2.576E-02   -6.526E-03
    -3.881E-02   -7.110E-02   -1.034E-01   -1.357E-01   -1.680E-01   -2.002E-01   -2.325E-01   -2.648E-01   -2.971E-01   -3.294E-01
    -3.617E-01   -3.940E-01   -4.262E-01   -4.585E-01   -4.908E-01   -5.231E-01   -5.554E-01   -5.877E-01   -6.200E-01   -6.522E-01
    -6.845E-01   -7.168E-01   -7.491E-01   -7.814E-01   -8.137E-01   -8.460E-01   -8.783E-01   -9.105E-01   -9.428E-01   -9.751E-01
    -1.007E+00   -1.040E+00   -1.072E+00   -1.104E+00   -1.137E+00   -1.169E+00   -1.201E+00   -1.233E+00   -1.266E+00   -1.298E+00
    -1.330E+00   -1.363E+00   -1.395E+00   -1.427E+00   -1.459E+00   -1.492E+00   -1.524E+00   -1.556E+00   -1.589E+00   -1.621E+00
    -1.653E+00   -1.685E+00   -1.718E+00   -1.750E+00   -1.782E+00   -1.815E+00   -1.847E+00   -1.879E+00   -1.911E+00   -1.944E+00
    -1.976E+00   -2.008E+00   -2.041E+00   -2.073E+00   -2.105E+00   -2.137E+00   -2.170E+00   -2.202E+00   -2.234E+00   -2.267E+00
    -2.299E+00   -2.331E+00   -2.363E+00   -2.396E+00   -2.428E+00   -2.460E+00   -2.493E+00   -2.525E+00   -2.557E+00   -2.589E+00
    -2.622E+00   -2.654E+00   -2.686E+00   -2.719E+00   -2.751E+00   -2.783E+00   -2.815E+00   -2.848E+00   -2.880E+00   -2.912E+00
    -2.945E+00   -2.977E+00   -3.009E+00   -3.041E+00   -3.074E+00   -3.106E+00   -3.138E+00   -3.171E+00   -3.203E+00   -3.235E+00
    -3.267E+00   -3.300E+00   -3.332E+00   -3.364E+00   -3.397E+00   -3.429E+00   -3.461E+00   -3.493E+00   -3.526E+00   -3.558E+00
    -3.590E+00   -3.623E+00   -3.655E+00   -3.687E+00   -3.719E+00   -3.752E+00   -3.784E+00   -3.816E+00   -3.849E+00   -3.881E+00
    -3.913E+00   -3.945E+00   -3.978E+00   -4.010E+00   -4.042E+00   -4.075E+00   -4.107E+00   -4.139E+00   -4.171E+00   -4.204E+00
    -4.236E+00   -4.268E+00   -4.301E+00   -4.333E+00   -4.365E+00   -4.397E+00   -4.430E+00   -4.462E+00   -4.494E+00   -4.527E+00
    -4.559E+00   -4.591E+00   -4.623E+00   -4.656E+00   -4.688E+00   -4.720E+00   -4.753E+00   -4.785E+00   -4.817E+00   -4.849E+00
    -4.882E+00   -4.914E+00   -4.946E+00   -4.979E+00   -5.011E+00   -5.043E+00   -5.075E+00   -5.108E+00   -5.140E+00   -5.172E+00
    -5.205E+00   -5.237E+00   -5.269E+00   -5.301E+00   -5.334E+00   -5.366E+00   -5.398E+00   -5.431E+00   -5.463E+00   -5.495E+00
    -5.527E+00   -5.560E+00   -5.592E+00   -5.624E+00   -5.657E+00   -5.689E+00   -5.721E+00   -5.753E+00   -5.786E+00   -5.818E+00
    -5.850E+00   -5.883E+00   -5.915E+00   -5.947E+00   -5.979E+00   -6.012E+00   -6.044E+00   -6.076E+00   -6.109E+00   -6.141E+00
    -6.173E+00   -6.205E+00   -6.238E+00   -6.270E+00   -6.302E+00   -6.335E+00   -6.367E+00   -6.399E+00   -6.431E+00   -6.464E+00
    -6.496E+00   -6.528E+00   -6.561E+00   -6.593E+00   -6.625E+00   -6.657E+00   -6.690E+00   -6.722E+00   -6.754E+00   -6.787E+00
    -6.819E+00   -6.851E+00   -6.883E+00   -6.916E+00   -6.948E+00   -6.980E+00   -7.013E+00   -7.045E+00   -7.077E+00   -7.109E+00
    -7.142E+00   -7.174E+00   -7.206E+00   -7.239E+00   -7.271E+00   -7.303E+00   -7.335E+00   -7.368E+00   -7.400E+00   -7.432E+00
    -7.465E+00   -7.497E+00   -7.529E+00   -7.561E+00   -7.594E+00   -7.626E+00   -7.658E+00   -7.691E+00
 Asp      Conc. = 6.26E+01
