 LCModel (Version 6.3-1L) Copyright: S.W. Provencher.          Ref.: Magn. Reson. Med. 30:672-679 (1993).                
 Slice#3 Row#10 Col#10  PD_24_press_2_raw_act
 36 lines in following concentration table = NCONC+1
    Conc.  %SD /Cr+PCr  Metabolite                                         
   13.075 149%   0.104 Ala                                                 
    0.000 999%   0.000 Asp                                                 
    0.000 999%   0.000 Cr                                                  
  125.208  19%   1.000 PCr                                                 
    2.624 999% 2.1E-02 GABA                                                
    1.211 999% 9.7E-03 Glc                                                 
    0.000 999%   0.000 Gln                                                 
   99.932  46%   0.798 Glu                                                 
   27.431  23%   0.219 GPC                                                 
    0.000 999%   0.000 PCh                                                 
    8.744 186% 7.0E-02 GSH                                                 
  108.098  49%   0.863 Ins                                                 
    3.488 594% 2.8E-02 Lac                                                 
  119.495  25%   0.954 NAA                                                 
  153.859  18%   1.229 NAAG                                                
    0.000 999%   0.000 Scyllo                                              
   21.255 219%   0.170 Tau                                                 
  141.689  22%   1.132 -CrCH2                                              
   27.431  23%   0.219 GPC+PCh                                             
  273.354  16%   2.183 NAA+NAAG                                            
  125.208  19%   1.000 Cr+PCr                                              
   99.932  46%   0.798 Glu+Gln                                             
 1.83E+03  27%  14.587 Lip13a                                              
    0.000 999%   0.000 Lip13b                                              
    0.000 999%   0.000 Lip09                                               
  777.593  18%   6.210 MM09                                                
  768.178  20%   6.135 Lip20                                               
 3.12E+03   9%  24.955 MM20                                                
  366.991  46%   2.931 MM12                                                
  794.707  33%   6.347 MM14                                                
    0.000 999%   0.000 MM17                                                
 1.83E+03  27%  14.587 Lip13a+Lip13b                                       
 2.99E+03  11%  23.865 MM14+Lip13a+Lip13b+MM12                             
  777.593  18%   6.210 MM09+Lip09                                          
 3.89E+03   7%  31.090 MM20+Lip20                                          
   6 lines in following misc. output table
  FWHM = 0.038 ppm    S/N =   6                                            
  Data shift = 0.023 ppm                                                   
  Ph: 156 deg      71.4 deg/ppm                                            
  alphaB,S = 6.6E+00,   1.7E+01                                            
   14 spline knots.   Ns = 6(1)                                            
  (11) 2 infls.   ( 8) 2 extrs.                                            
  498 points on ppm-axis = NY
      4.000000     3.992357     3.984714     3.977070     3.969427     3.961784     3.954141     3.946497     3.938854     3.931211
      3.923568     3.915925     3.908281     3.900638     3.892995     3.885352     3.877708     3.870065     3.862422     3.854779
      3.847136     3.839492     3.831849     3.824206     3.816563     3.808919     3.801276     3.793633     3.785990     3.778347
      3.770703     3.763060     3.755417     3.747774     3.740130     3.732487     3.724844     3.717201     3.709558     3.701914
      3.694271     3.686628     3.678985     3.671341     3.663698     3.656055     3.648412     3.640769     3.633125     3.625482
      3.617839     3.610196     3.602552     3.594909     3.587266     3.579623     3.571980     3.564336     3.556693     3.549050
      3.541407     3.533763     3.526120     3.518477     3.510834     3.503191     3.495547     3.487904     3.480261     3.472618
      3.464974     3.457331     3.449688     3.442045     3.434402     3.426758     3.419115     3.411472     3.403829     3.396185
      3.388542     3.380899     3.373256     3.365613     3.357969     3.350326     3.342683     3.335040     3.327396     3.319753
      3.312110     3.304467     3.296824     3.289180     3.281537     3.273894     3.266251     3.258607     3.250964     3.243321
      3.235678     3.228034     3.220391     3.212748     3.205105     3.197462     3.189818     3.182175     3.174532     3.166889
      3.159245     3.151602     3.143959     3.136316     3.128673     3.121029     3.113386     3.105743     3.098100     3.090456
      3.082813     3.075170     3.067527     3.059884     3.052240     3.044597     3.036954     3.029311     3.021667     3.014024
      3.006381     2.998738     2.991095     2.983451     2.975808     2.968165     2.960522     2.952878     2.945235     2.937592
      2.929949     2.922306     2.914662     2.907019     2.899376     2.891733     2.884089     2.876446     2.868803     2.861160
      2.853517     2.845873     2.838230     2.830587     2.822944     2.815300     2.807657     2.800014     2.792371     2.784728
      2.777084     2.769441     2.761798     2.754155     2.746511     2.738868     2.731225     2.723582     2.715939     2.708295
      2.700652     2.693009     2.685366     2.677722     2.670079     2.662436     2.654793     2.647150     2.639506     2.631863
      2.624220     2.616577     2.608933     2.601290     2.593647     2.586004     2.578361     2.570717     2.563074     2.555431
      2.547788     2.540144     2.532501     2.524858     2.517215     2.509572     2.501928     2.494285     2.486642     2.478999
      2.471355     2.463712     2.456069     2.448426     2.440783     2.433139     2.425496     2.417853     2.410210     2.402566
      2.394923     2.387280     2.379637     2.371994     2.364350     2.356707     2.349064     2.341421     2.333777     2.326134
      2.318491     2.310848     2.303205     2.295561     2.287918     2.280275     2.272632     2.264988     2.257345     2.249702
      2.242059     2.234416     2.226772     2.219129     2.211486     2.203843     2.196199     2.188556     2.180913     2.173270
      2.165627     2.157983     2.150340     2.142697     2.135054     2.127410     2.119767     2.112124     2.104481     2.096838
      2.089194     2.081551     2.073908     2.066265     2.058621     2.050978     2.043335     2.035692     2.028049     2.020405
      2.012762     2.005119     1.997476     1.989833     1.982190     1.974546     1.966903     1.959260     1.951617     1.943974
      1.936331     1.928688     1.921045     1.913402     1.905759     1.898115     1.890472     1.882829     1.875186     1.867543
      1.859900     1.852257     1.844614     1.836971     1.829327     1.821684     1.814041     1.806398     1.798755     1.791112
      1.783469     1.775826     1.768183     1.760540     1.752896     1.745253     1.737610     1.729967     1.722324     1.714681
      1.707038     1.699395     1.691752     1.684108     1.676465     1.668822     1.661179     1.653536     1.645893     1.638250
      1.630607     1.622964     1.615321     1.607677     1.600034     1.592391     1.584748     1.577105     1.569462     1.561819
      1.554176     1.546533     1.538890     1.531246     1.523603     1.515960     1.508317     1.500674     1.493031     1.485388
      1.477745     1.470102     1.462458     1.454815     1.447172     1.439529     1.431886     1.424243     1.416600     1.408957
      1.401314     1.393671     1.386027     1.378384     1.370741     1.363098     1.355455     1.347812     1.340169     1.332526
      1.324883     1.317240     1.309596     1.301953     1.294310     1.286667     1.279024     1.271381     1.263738     1.256095
      1.248452     1.240808     1.233165     1.225522     1.217879     1.210236     1.202593     1.194950     1.187307     1.179664
      1.172021     1.164377     1.156734     1.149091     1.141448     1.133805     1.126162     1.118519     1.110876     1.103233
      1.095590     1.087946     1.080303     1.072660     1.065017     1.057374     1.049731     1.042088     1.034445     1.026802
      1.019158     1.011515     1.003872     0.996229     0.988586     0.980943     0.973300     0.965657     0.958014     0.950371
      0.942727     0.935084     0.927441     0.919798     0.912155     0.904512     0.896869     0.889226     0.881583     0.873940
      0.866296     0.858653     0.851010     0.843367     0.835724     0.828081     0.820438     0.812795     0.805152     0.797508
      0.789865     0.782222     0.774579     0.766936     0.759293     0.751650     0.744007     0.736364     0.728721     0.721077
      0.713434     0.705791     0.698148     0.690505     0.682862     0.675219     0.667576     0.659933     0.652290     0.644646
      0.637003     0.629360     0.621717     0.614074     0.606431     0.598788     0.591145     0.583502     0.575858     0.568215
      0.560572     0.552929     0.545286     0.537643     0.530000     0.522357     0.514714     0.507071     0.499427     0.491784
      0.484141     0.476498     0.468855     0.461212     0.453569     0.445925     0.438282     0.430639     0.422996     0.415353
      0.407710     0.400067     0.392424     0.384780     0.377137     0.369494     0.361851     0.354208     0.346565     0.338922
      0.331278     0.323635     0.315992     0.308349     0.300706     0.293063     0.285420     0.277777     0.270133     0.262490
      0.254847     0.247204     0.239561     0.231918     0.224275     0.216631     0.208988     0.201345
 NY phased data points follow
   4.04454E+00  2.59800E+00  1.74789E+00  2.62623E+00 -1.24870E+00  1.66162E+00  3.64199E-02  2.05688E-01  2.64038E+00  3.13366E+00
   1.71009E+00  5.78957E+00  4.39013E+00  6.51180E+00  5.54350E+00  6.07733E+00  5.94258E+00  6.87635E+00  5.66255E+00  4.81155E+00
   5.85973E+00  6.38288E+00  3.26829E+00  4.88954E+00  4.32117E+00  5.57527E+00  2.66757E+00  4.21467E+00  2.17840E+00  5.50162E+00
   4.82412E+00  4.14971E+00  5.36851E+00  5.36043E+00  4.50099E+00  4.20760E+00  4.51251E+00  7.90777E+00  4.42514E+00  7.58139E+00
   6.39873E+00  4.79276E+00  3.52937E+00  5.47695E+00  3.05508E+00  3.57042E+00  3.00109E+00  3.26171E+00  2.32858E+00  6.86678E+00
   6.14294E+00  6.10318E+00  5.86493E+00  5.58709E+00  2.91167E+00  5.90049E+00 -5.65882E-02  7.95694E+00  4.55110E+00  6.80717E+00
   6.39977E+00  4.74760E+00  4.64559E+00  6.73404E+00  5.77933E+00  6.18721E+00  1.97787E+00  4.21422E+00  3.02608E-01  2.38512E+00
   3.27640E+00  2.21936E-01  1.91993E+00  4.78289E+00  2.38050E+00  3.00350E+00  6.34300E-01  4.92533E+00  1.97734E+00 -1.37981E-01
   1.91618E+00  4.39261E+00  2.28108E+00  1.07866E+00  3.03323E+00  1.45158E+00  1.95344E+00  1.67697E+00  8.84511E-01  2.29744E+00
   2.33520E+00  2.07066E+00  4.82503E+00  8.70822E-01 -8.93618E-02  1.86004E+00  1.67554E+00  9.21373E-01 -1.13103E-01  7.28802E-01
   2.43876E+00  2.04129E+00  6.47034E+00  6.51789E+00  1.01081E+01  8.50610E+00  9.53201E+00  8.42074E+00  6.38733E+00  8.11810E+00
   6.54832E+00  7.25502E+00  4.00104E+00  6.04947E+00  2.63657E+00  6.89243E+00  2.25015E+00  6.16187E-01  8.60187E-01  3.01196E+00
  -2.01731E+00 -7.56414E-01 -1.90878E+00 -1.99416E+00  2.58943E+00  5.44299E+00  6.05555E+00  8.26859E+00  1.06245E+01  1.46931E+01
   1.52826E+01  1.21145E+01  1.03302E+01  9.30425E+00  8.14657E+00  7.00436E+00  4.75728E+00  6.00119E+00  6.38179E+00  2.81121E+00
   6.07298E+00  4.63727E+00  3.21561E+00  3.95030E+00  5.34748E+00  2.43352E+00  4.14591E+00  4.15639E+00  7.46623E-01  1.80228E+00
   2.02909E+00  3.68296E+00  2.83914E+00  1.26248E+00  2.63741E+00  2.00409E+00  1.83951E+00  1.65675E+00  2.96123E+00  3.74709E+00
   3.04142E+00  1.42562E+00  1.18200E+00  1.45332E+00  1.44047E+00  3.24948E+00  3.55488E+00  2.25937E+00  2.95508E+00  2.60218E+00
   2.59249E+00  1.21421E+00 -7.76495E-01  4.55141E-01 -3.83820E+00 -1.13855E+00 -4.36417E-01 -3.32512E+00 -5.36415E-01 -1.81476E+00
  -2.44976E+00 -1.73664E-01  4.67118E-01  1.08389E+00  3.92690E-01 -2.80072E-01 -2.93838E+00 -6.02048E-01 -1.51915E+00 -4.22512E+00
  -1.34535E+00  2.89288E+00 -6.13419E-01 -2.45328E-01  2.38090E-01  6.35173E-01  3.20899E+00 -9.76545E-01  2.25164E+00 -5.48659E-01
   2.45585E+00  1.57532E+00  9.49185E-01  1.60912E+00  2.64781E+00  1.71075E+00  3.68954E+00  8.10687E-01 -9.24362E-01 -1.92898E+00
   1.31625E+00 -1.40993E+00  3.52395E+00  6.00307E+00  5.43365E+00  4.68232E+00  5.22194E+00  8.25993E+00  8.79932E+00  6.49721E+00
   5.63379E+00  3.39327E+00  4.92045E+00  6.37749E+00  3.57360E+00  6.47387E+00  7.59885E+00  9.44014E+00  5.48297E+00  8.73692E+00
   7.41189E+00  5.82033E+00  1.00738E+01  8.65249E+00  4.70545E+00  9.85261E+00  9.22438E+00  5.88221E+00  8.53306E+00  7.44810E+00
   7.40841E+00  2.77424E+00  5.85230E+00  8.97721E+00  9.05435E+00  7.09817E+00  8.28483E+00  9.99314E+00  1.06011E+01  1.01896E+01
   7.36362E+00  7.12863E+00  8.05028E+00  9.36492E+00  7.60302E+00  9.43055E+00  1.10657E+01  1.33141E+01  1.99202E+01  2.39359E+01
   2.64161E+01  2.54137E+01  2.50871E+01  1.89878E+01  1.76082E+01  1.53281E+01  7.39530E+00  5.26398E+00  6.81371E+00  3.62744E+00
   6.51811E+00  3.03952E+00  9.97759E-01  4.57132E+00  1.41969E+00  3.49497E+00  4.36190E-01  1.50444E+00  4.70203E+00  2.58178E+00
   4.51282E+00  2.00125E+00  2.42086E+00  1.52399E+00  2.42405E+00  6.49304E-01 -1.20936E+00 -1.43109E+00 -2.69296E+00 -3.44510E+00
  -1.80700E+00 -1.74601E+00 -3.24115E+00 -3.44241E+00 -2.70816E+00 -3.83083E+00 -2.53820E+00 -2.62614E+00 -5.83420E+00 -2.01690E+00
  -2.11515E+00 -4.41656E+00 -5.69450E+00 -6.10258E+00 -4.79004E+00 -4.63550E+00 -4.92969E+00 -4.04755E+00 -1.84842E+00 -6.46769E+00
  -2.15367E+00 -3.28932E+00 -3.61021E+00 -3.85754E+00 -2.82109E+00 -8.66844E-01 -2.33506E+00 -3.41638E+00 -2.54438E+00 -2.30481E+00
  -1.83988E+00 -3.27697E+00 -4.62235E+00 -2.60054E+00 -6.60375E+00 -4.54727E+00 -4.04022E+00 -6.58576E+00 -5.54824E+00 -5.68073E+00
  -3.55661E+00 -3.29823E+00 -2.25035E-01 -5.44873E+00 -3.59080E+00 -3.44888E+00 -2.50191E+00 -1.52291E+00  8.93201E-01  2.84997E+00
   4.15377E+00  3.04744E+00  4.72069E+00  7.03147E+00  4.21795E+00  7.56567E+00  6.04867E+00  6.62674E+00  6.67938E+00  3.83410E+00
   7.65123E+00  6.58160E+00  6.62117E+00  6.20549E+00  6.06464E+00  5.17280E+00  5.97860E+00  6.97298E+00  9.40769E+00  2.95906E+00
   6.84195E+00  6.78710E+00  6.41752E+00  2.58890E+00  2.69019E+00  4.93651E+00  3.26208E+00  2.67482E+00  2.85903E+00  6.60512E+00
   7.90721E+00  4.26976E+00  5.52445E+00  4.99048E+00  5.87692E+00  5.56061E+00  5.24122E+00  5.53619E+00  5.40426E+00  2.80516E+00
   4.38487E+00  8.75458E-01  4.52014E-01  1.50185E+00  4.39860E+00  5.12593E+00  3.13285E+00  4.92092E+00  3.94226E+00  3.48383E+00
   7.22125E+00  2.08496E+00  5.59052E+00  4.46984E+00  5.60697E+00  1.36777E+00  1.37710E+00  1.54557E+00  1.67265E+00 -4.13876E-01
   3.62185E+00  1.93994E+00  1.95033E-01  2.55268E+00  5.34246E+00  1.29879E+00  2.14696E+00  6.40676E-01  3.69519E+00  4.12946E-01
   1.45083E+00 -5.03335E-01 -8.04146E-01 -1.29630E+00 -1.36805E+00 -2.07934E+00  3.89589E-01 -1.77460E+00  1.57936E+00 -3.46136E+00
  -9.47768E-01 -3.05252E-01  3.74461E-01  1.92684E+00 -2.36294E+00 -2.17677E+00 -3.84388E+00 -8.16594E-01 -6.36017E-01 -1.89169E+00
   1.12356E-01 -8.79849E-01 -2.28764E+00 -2.70298E+00 -1.33714E+00 -2.35542E+00  1.13370E+00 -2.89271E+00 -1.95015E+00 -2.18399E+00
  -3.59137E+00 -7.28761E-01 -1.40676E+00 -3.01381E+00 -2.15165E+00 -2.40435E+00 -2.34745E+00 -3.29373E+00 -1.16342E+00  3.77680E-01
  -2.33696E+00 -3.19538E+00  1.33487E+00 -6.12649E-01 -9.21170E-01 -1.51753E+00 -1.45781E+00 -1.81601E+00 -6.54086E-02 -2.14971E+00
  -1.45265E+00 -2.52161E+00 -3.31699E+00 -3.10679E+00 -1.64342E+00 -3.71850E+00 -9.63165E-01 -2.22165E+00 -1.35766E+00 -1.83267E+00
  -1.03014E+00 -4.85522E-01 -3.79881E+00 -3.54314E+00 -1.00068E+00 -3.38128E+00 -3.30164E+00  1.29315E+00 -3.54367E+00 -2.21292E+00
  -2.88854E+00 -1.49188E+00 -1.73013E+00  9.33509E-03 -2.01782E+00 -6.28500E+00 -2.77611E+00 -6.93965E-01 -8.19738E-01 -3.68585E+00
  -3.43303E-01 -2.27627E-01 -2.07594E+00 -1.17479E+00 -9.11414E-01 -2.00725E+00 -4.88186E-01 -1.14776E+00
 NY points of the fit to the data follow
   3.84995E+00  3.91492E+00  4.39092E+00  4.22894E+00  2.83391E+00  1.69655E+00  1.26257E+00  1.40384E+00  1.83579E+00  2.36677E+00
   3.06774E+00  4.12120E+00  5.19800E+00  5.96137E+00  6.21255E+00  5.83539E+00  4.64994E+00  3.70306E+00  3.69094E+00  3.78944E+00
   3.89528E+00  4.04148E+00  4.12678E+00  4.06370E+00  3.87123E+00  3.66332E+00  3.51058E+00  3.42523E+00  3.46892E+00  3.66803E+00
   3.97525E+00  4.30625E+00  4.56330E+00  4.68733E+00  4.68321E+00  4.53567E+00  4.28023E+00  3.97351E+00  3.71942E+00  3.57316E+00
   3.49654E+00  3.37405E+00  3.21115E+00  3.22866E+00  3.55787E+00  4.08726E+00  4.66216E+00  5.17032E+00  5.50757E+00  5.60145E+00
   5.41224E+00  4.96821E+00  4.35001E+00  3.62677E+00  2.97432E+00  2.66326E+00  2.75389E+00  3.08983E+00  3.48505E+00  3.83461E+00
   4.09026E+00  4.23092E+00  4.24317E+00  4.13686E+00  3.95906E+00  3.74041E+00  3.47715E+00  3.28594E+00  3.26205E+00  3.34883E+00
   3.51481E+00  3.71994E+00  3.91083E+00  4.05866E+00  4.14496E+00  4.14568E+00  4.06799E+00  3.95237E+00  3.81105E+00  3.66859E+00
   3.59042E+00  3.59756E+00  3.65917E+00  3.75158E+00  3.79280E+00  3.72312E+00  3.56321E+00  3.37076E+00  3.18067E+00  3.02683E+00
   2.94553E+00  2.94610E+00  3.04290E+00  3.22053E+00  3.44037E+00  3.56788E+00  3.43948E+00  2.73493E+00  1.79438E+00  1.82945E+00
   2.90984E+00  4.51412E+00  6.17679E+00  7.64509E+00  8.85057E+00  9.66155E+00  9.75500E+00  8.98550E+00  7.51306E+00  5.68830E+00
   4.01984E+00  3.19727E+00  3.28449E+00  3.50442E+00  3.67505E+00  3.80116E+00  3.89385E+00  3.94417E+00  3.93443E+00  3.82248E+00
   3.45878E+00  2.31561E+00  7.62178E-01  6.68291E-01  2.25441E+00  4.78646E+00  7.53445E+00  1.00125E+01  1.20632E+01  1.34863E+01
   1.37759E+01  1.26634E+01  1.03900E+01  7.44201E+00  4.58307E+00  2.94467E+00  2.75425E+00  2.85295E+00  2.93369E+00  3.00311E+00
   3.07867E+00  3.17130E+00  3.26960E+00  3.34632E+00  3.39158E+00  3.40373E+00  3.38859E+00  3.37070E+00  3.38887E+00  3.41458E+00
   3.38325E+00  3.27807E+00  3.10926E+00  2.91954E+00  2.82204E+00  2.81513E+00  2.80344E+00  2.75159E+00  2.65269E+00  2.54224E+00
   2.47794E+00  2.40846E+00  2.25976E+00  2.06336E+00  1.89128E+00  1.69437E+00  1.46927E+00  1.25941E+00  1.03816E+00  8.60417E-01
   7.58242E-01  6.16442E-01  4.56325E-01  3.50915E-01  3.08059E-01  3.24818E-01  3.27758E-01  2.48098E-01  3.21393E-02 -1.68654E-01
  -2.37465E-01 -2.04687E-01 -1.94305E-01 -2.72016E-01 -3.94722E-01 -4.24509E-01 -3.36685E-01 -1.24593E-01  1.85522E-01  5.00725E-01
   7.51433E-01  9.35839E-01  1.13866E+00  1.26887E+00  1.22084E+00  1.04572E+00  8.51610E-01  6.51495E-01  4.78914E-01  4.06227E-01
   5.03542E-01  7.35919E-01  1.01664E+00  1.36476E+00  1.68185E+00  1.85684E+00  1.84903E+00  1.69339E+00  1.39114E+00  8.95845E-01
   4.30665E-01  3.03701E-01  5.71258E-01  1.14585E+00  1.92702E+00  2.86970E+00  3.82634E+00  4.42025E+00  4.48158E+00  4.13073E+00
   3.52848E+00  2.86264E+00  2.38485E+00  2.28821E+00  2.58562E+00  3.22083E+00  4.06247E+00  4.93522E+00  5.65862E+00  6.02910E+00
   6.04928E+00  5.96801E+00  5.96947E+00  6.07375E+00  6.31215E+00  6.67343E+00  7.17531E+00  7.69651E+00  8.04204E+00  8.15289E+00
   8.13888E+00  8.09507E+00  8.12854E+00  8.37847E+00  8.87674E+00  9.54697E+00  1.02461E+01  1.08516E+01  1.12470E+01  1.09179E+01
   8.80208E+00  6.59338E+00  6.06388E+00  6.87956E+00  7.56542E+00  8.77273E+00  1.14951E+01  1.55159E+01  1.97711E+01  2.29892E+01
   2.45531E+01  2.44997E+01  2.28742E+01  2.02023E+01  1.77719E+01  1.51163E+01  1.17087E+01  8.33002E+00  6.30360E+00  5.22397E+00
   4.42729E+00  3.82783E+00  3.36609E+00  2.96777E+00  2.62655E+00  2.31536E+00  1.99430E+00  1.62578E+00  1.19207E+00  7.33590E-01
   3.03429E-01 -6.11292E-02 -3.40042E-01 -5.29372E-01 -6.49301E-01 -7.46794E-01 -8.69677E-01 -1.02861E+00 -1.21520E+00 -1.41790E+00
  -1.62170E+00 -1.80361E+00 -1.94624E+00 -2.04378E+00 -2.10104E+00 -2.14244E+00 -2.18680E+00 -2.24646E+00 -2.33277E+00 -2.44812E+00
  -2.56992E+00 -2.68520E+00 -2.78826E+00 -2.87519E+00 -2.94440E+00 -2.99686E+00 -3.04032E+00 -3.08982E+00 -3.14583E+00 -3.20354E+00
  -3.26174E+00 -3.31888E+00 -3.37447E+00 -3.42825E+00 -3.47976E+00 -3.52844E+00 -3.57372E+00 -3.61503E+00 -3.65204E+00 -3.68565E+00
  -3.72240E+00 -3.78123E+00 -3.81117E+00 -3.72556E+00 -3.53976E+00 -3.29914E+00 -3.03541E+00 -2.75909E+00 -2.46248E+00 -2.19591E+00
  -2.05176E+00 -1.98418E+00 -1.90352E+00 -1.74394E+00 -1.45542E+00 -9.98935E-01 -3.99534E-01  2.80246E-01  1.01086E+00  1.75004E+00
   2.45276E+00  3.07117E+00  3.58369E+00  4.04134E+00  4.50901E+00  4.96785E+00  5.39295E+00  5.77269E+00  6.10291E+00  6.36051E+00
   6.52882E+00  6.62395E+00  6.66851E+00  6.68075E+00  6.67690E+00  6.67370E+00  6.67254E+00  6.65969E+00  6.62907E+00  6.57378E+00
   6.48720E+00  6.36238E+00  6.19668E+00  6.00699E+00  5.80842E+00  5.60010E+00  5.38192E+00  5.15513E+00  4.92182E+00  4.68459E+00
   4.44663E+00  4.21143E+00  3.98270E+00  3.76413E+00  3.55949E+00  3.37240E+00  3.20631E+00  3.06417E+00  2.94836E+00  2.86052E+00
   2.80159E+00  2.77167E+00  2.77006E+00  2.79499E+00  2.84381E+00  2.91296E+00  2.99822E+00  3.09480E+00  3.19746E+00  3.30063E+00
   3.39873E+00  3.48634E+00  3.55858E+00  3.61113E+00  3.64045E+00  3.64381E+00  3.61947E+00  3.56670E+00  3.48584E+00  3.37806E+00
   3.24532E+00  3.09014E+00  2.91561E+00  2.72510E+00  2.52225E+00  2.31057E+00  2.09348E+00  1.87404E+00  1.65512E+00  1.43917E+00
   1.22831E+00  1.02411E+00  8.27826E-01  6.40237E-01  4.61955E-01  2.93251E-01  1.34233E-01 -1.53190E-02 -1.55689E-01 -2.87318E-01
  -4.10575E-01 -5.25956E-01 -6.33923E-01 -7.35072E-01 -8.29884E-01 -9.18867E-01 -1.00237E+00 -1.08084E+00 -1.15463E+00 -1.22419E+00
  -1.28980E+00 -1.35177E+00 -1.41029E+00 -1.46563E+00 -1.51801E+00 -1.56772E+00 -1.61486E+00 -1.65962E+00 -1.70207E+00 -1.74242E+00
  -1.78077E+00 -1.81731E+00 -1.85206E+00 -1.88513E+00 -1.91655E+00 -1.94648E+00 -1.97497E+00 -2.00216E+00 -2.02800E+00 -2.05258E+00
  -2.07591E+00 -2.09815E+00 -2.11929E+00 -2.13942E+00 -2.15848E+00 -2.17655E+00 -2.19364E+00 -2.20988E+00 -2.22524E+00 -2.23978E+00
  -2.25342E+00 -2.26627E+00 -2.27833E+00 -2.28970E+00 -2.30032E+00 -2.31024E+00 -2.31941E+00 -2.32792E+00 -2.33576E+00 -2.34303E+00
  -2.34964E+00 -2.35564E+00 -2.36099E+00 -2.36578E+00 -2.37002E+00 -2.37373E+00 -2.37685E+00 -2.37943E+00 -2.38144E+00 -2.38298E+00
  -2.38401E+00 -2.38458E+00 -2.38460E+00 -2.38413E+00 -2.38317E+00 -2.38180E+00 -2.37997E+00 -2.37770E+00 -2.37491E+00 -2.37171E+00
  -2.36806E+00 -2.36405E+00 -2.35958E+00 -2.35471E+00 -2.34937E+00 -2.34365E+00 -2.33752E+00 -2.33105E+00
 NY background values follow
     1.348E+00    1.348E+00    1.348E+00    1.347E+00    1.347E+00    1.346E+00    1.345E+00    1.344E+00    1.342E+00    1.341E+00
     1.339E+00    1.337E+00    1.335E+00    1.333E+00    1.330E+00    1.327E+00    1.324E+00    1.321E+00    1.318E+00    1.314E+00
     1.310E+00    1.306E+00    1.302E+00    1.298E+00    1.293E+00    1.289E+00    1.284E+00    1.279E+00    1.273E+00    1.268E+00
     1.262E+00    1.256E+00    1.250E+00    1.244E+00    1.238E+00    1.231E+00    1.224E+00    1.217E+00    1.210E+00    1.203E+00
     1.195E+00    1.187E+00    1.179E+00    1.171E+00    1.163E+00    1.154E+00    1.146E+00    1.137E+00    1.128E+00    1.119E+00
     1.109E+00    1.100E+00    1.090E+00    1.080E+00    1.070E+00    1.060E+00    1.050E+00    1.039E+00    1.028E+00    1.017E+00
     1.006E+00    9.950E-01    9.835E-01    9.719E-01    9.602E-01    9.483E-01    9.362E-01    9.239E-01    9.115E-01    8.989E-01
     8.862E-01    8.733E-01    8.602E-01    8.470E-01    8.336E-01    8.201E-01    8.064E-01    7.926E-01    7.786E-01    7.644E-01
     7.501E-01    7.357E-01    7.210E-01    7.063E-01    6.914E-01    6.763E-01    6.611E-01    6.458E-01    6.303E-01    6.147E-01
     5.989E-01    5.830E-01    5.669E-01    5.507E-01    5.344E-01    5.179E-01    5.013E-01    4.846E-01    4.677E-01    4.507E-01
     4.335E-01    4.162E-01    3.988E-01    3.813E-01    3.636E-01    3.458E-01    3.279E-01    3.098E-01    2.917E-01    2.734E-01
     2.549E-01    2.364E-01    2.177E-01    1.989E-01    1.800E-01    1.610E-01    1.419E-01    1.226E-01    1.032E-01    8.375E-02
     6.415E-02    4.444E-02    2.462E-02    4.695E-03   -1.534E-02   -3.548E-02   -5.573E-02   -7.609E-02   -9.655E-02   -1.171E-01
    -1.378E-01   -1.585E-01   -1.794E-01   -2.004E-01   -2.214E-01   -2.426E-01   -2.638E-01   -2.852E-01   -3.066E-01   -3.281E-01
    -3.497E-01   -3.714E-01   -3.932E-01   -4.151E-01   -4.371E-01   -4.591E-01   -4.813E-01   -5.035E-01   -5.258E-01   -5.481E-01
    -5.706E-01   -5.931E-01   -6.157E-01   -6.384E-01   -6.612E-01   -6.840E-01   -7.069E-01   -7.299E-01   -7.529E-01   -7.760E-01
    -7.992E-01   -8.224E-01   -8.458E-01   -8.691E-01   -8.925E-01   -9.160E-01   -9.396E-01   -9.632E-01   -9.869E-01   -1.011E+00
    -1.034E+00   -1.058E+00   -1.082E+00   -1.106E+00   -1.130E+00   -1.154E+00   -1.178E+00   -1.202E+00   -1.226E+00   -1.251E+00
    -1.275E+00   -1.299E+00   -1.323E+00   -1.348E+00   -1.372E+00   -1.397E+00   -1.421E+00   -1.446E+00   -1.470E+00   -1.495E+00
    -1.519E+00   -1.544E+00   -1.569E+00   -1.593E+00   -1.618E+00   -1.643E+00   -1.667E+00   -1.692E+00   -1.717E+00   -1.742E+00
    -1.767E+00   -1.792E+00   -1.816E+00   -1.841E+00   -1.866E+00   -1.891E+00   -1.916E+00   -1.941E+00   -1.966E+00   -1.991E+00
    -2.016E+00   -2.041E+00   -2.065E+00   -2.090E+00   -2.115E+00   -2.140E+00   -2.165E+00   -2.190E+00   -2.215E+00   -2.240E+00
    -2.265E+00   -2.290E+00   -2.314E+00   -2.339E+00   -2.364E+00   -2.389E+00   -2.414E+00   -2.439E+00   -2.463E+00   -2.488E+00
    -2.513E+00   -2.538E+00   -2.562E+00   -2.587E+00   -2.611E+00   -2.636E+00   -2.661E+00   -2.685E+00   -2.710E+00   -2.734E+00
    -2.759E+00   -2.783E+00   -2.807E+00   -2.832E+00   -2.856E+00   -2.880E+00   -2.904E+00   -2.928E+00   -2.953E+00   -2.977E+00
    -3.001E+00   -3.025E+00   -3.048E+00   -3.072E+00   -3.096E+00   -3.120E+00   -3.144E+00   -3.167E+00   -3.191E+00   -3.214E+00
    -3.238E+00   -3.261E+00   -3.284E+00   -3.308E+00   -3.331E+00   -3.354E+00   -3.377E+00   -3.400E+00   -3.423E+00   -3.446E+00
    -3.468E+00   -3.491E+00   -3.514E+00   -3.536E+00   -3.559E+00   -3.581E+00   -3.603E+00   -3.625E+00   -3.647E+00   -3.669E+00
    -3.691E+00   -3.713E+00   -3.735E+00   -3.757E+00   -3.778E+00   -3.800E+00   -3.821E+00   -3.842E+00   -3.863E+00   -3.884E+00
    -3.905E+00   -3.926E+00   -3.947E+00   -3.968E+00   -3.988E+00   -4.009E+00   -4.029E+00   -4.049E+00   -4.069E+00   -4.089E+00
    -4.109E+00   -4.129E+00   -4.148E+00   -4.168E+00   -4.187E+00   -4.207E+00   -4.226E+00   -4.245E+00   -4.264E+00   -4.283E+00
    -4.301E+00   -4.320E+00   -4.338E+00   -4.356E+00   -4.375E+00   -4.393E+00   -4.411E+00   -4.428E+00   -4.446E+00   -4.463E+00
    -4.481E+00   -4.498E+00   -4.515E+00   -4.532E+00   -4.549E+00   -4.565E+00   -4.582E+00   -4.598E+00   -4.614E+00   -4.630E+00
    -4.646E+00   -4.662E+00   -4.678E+00   -4.693E+00   -4.708E+00   -4.723E+00   -4.738E+00   -4.753E+00   -4.768E+00   -4.782E+00
    -4.797E+00   -4.811E+00   -4.825E+00   -4.839E+00   -4.852E+00   -4.866E+00   -4.879E+00   -4.892E+00   -4.905E+00   -4.918E+00
    -4.931E+00   -4.944E+00   -4.956E+00   -4.968E+00   -4.980E+00   -4.992E+00   -5.003E+00   -5.015E+00   -5.026E+00   -5.037E+00
    -5.048E+00   -5.059E+00   -5.069E+00   -5.080E+00   -5.090E+00   -5.100E+00   -5.110E+00   -5.119E+00   -5.129E+00   -5.138E+00
    -5.147E+00   -5.156E+00   -5.165E+00   -5.173E+00   -5.181E+00   -5.190E+00   -5.197E+00   -5.205E+00   -5.213E+00   -5.220E+00
    -5.227E+00   -5.234E+00   -5.241E+00   -5.247E+00   -5.253E+00   -5.260E+00   -5.265E+00   -5.271E+00   -5.277E+00   -5.282E+00
    -5.287E+00   -5.292E+00   -5.296E+00   -5.301E+00   -5.305E+00   -5.309E+00   -5.313E+00   -5.316E+00   -5.320E+00   -5.323E+00
    -5.326E+00   -5.329E+00   -5.331E+00   -5.333E+00   -5.336E+00   -5.337E+00   -5.339E+00   -5.340E+00   -5.342E+00   -5.343E+00
    -5.343E+00   -5.344E+00   -5.344E+00   -5.344E+00   -5.344E+00   -5.344E+00   -5.343E+00   -5.342E+00   -5.341E+00   -5.340E+00
    -5.338E+00   -5.337E+00   -5.335E+00   -5.332E+00   -5.330E+00   -5.327E+00   -5.324E+00   -5.321E+00   -5.318E+00   -5.314E+00
    -5.310E+00   -5.306E+00   -5.302E+00   -5.298E+00   -5.293E+00   -5.288E+00   -5.282E+00   -5.277E+00   -5.271E+00   -5.265E+00
    -5.259E+00   -5.253E+00   -5.246E+00   -5.239E+00   -5.232E+00   -5.224E+00   -5.217E+00   -5.209E+00   -5.201E+00   -5.192E+00
    -5.184E+00   -5.175E+00   -5.166E+00   -5.156E+00   -5.146E+00   -5.137E+00   -5.127E+00   -5.116E+00   -5.106E+00   -5.095E+00
    -5.084E+00   -5.072E+00   -5.061E+00   -5.049E+00   -5.037E+00   -5.024E+00   -5.012E+00   -4.999E+00   -4.986E+00   -4.972E+00
    -4.959E+00   -4.945E+00   -4.931E+00   -4.916E+00   -4.902E+00   -4.887E+00   -4.872E+00   -4.856E+00   -4.841E+00   -4.825E+00
    -4.809E+00   -4.792E+00   -4.776E+00   -4.759E+00   -4.742E+00   -4.724E+00   -4.706E+00   -4.689E+00   -4.670E+00   -4.652E+00
    -4.633E+00   -4.614E+00   -4.595E+00   -4.576E+00   -4.556E+00   -4.536E+00   -4.516E+00   -4.495E+00
 Ala      Conc. = 1.31E+01
