 LCModel (Version 6.3-1L) Copyright: S.W. Provencher.          Ref.: Magn. Reson. Med. 30:672-679 (1993).                
 Slice#3 Row#3 Col#3  PD_24_press_2_raw_act
 36 lines in following concentration table = NCONC+1
    Conc.  %SD /Cr+PCr  Metabolite                                         
    0.000 999%   0.000 Ala                                                 
  133.329 112%   0.231 Asp                                                 
   52.574 693% 9.1E-02 Cr                                                  
  524.304  71%   0.909 PCr                                                 
   76.175 120%   0.132 GABA                                                
  101.338  90%   0.176 Glc                                                 
  824.787  53%   1.430 Gln                                                 
  314.979 152%   0.546 Glu                                                 
  234.744  91%   0.407 GPC                                                 
   72.772 296%   0.126 PCh                                                 
  304.310  44%   0.528 GSH                                                 
 1.14E+03  42%   1.982 Ins                                                 
  192.939 127%   0.334 Lac                                                 
  954.502  12%   1.655 NAA                                                 
    0.000 999%   0.000 NAAG                                                
   88.835  31%   0.154 Scyllo                                              
  263.476  57%   0.457 Tau                                                 
  295.835  55%   0.513 -CrCH2                                              
  307.516  13%   0.533 GPC+PCh                                             
  954.502  12%   1.655 NAA+NAAG                                            
  576.878  17%   1.000 Cr+PCr                                              
 1.14E+03  62%   1.976 Glu+Gln                                             
 1.08E+03 100%   1.867 Lip13a                                              
   80.145 453%   0.139 Lip13b                                              
  195.818 147%   0.339 Lip09                                               
 1.23E+03  27%   2.124 MM09                                                
  183.196  98%   0.318 Lip20                                               
 2.55E+03  21%   4.422 MM20                                                
  418.680  48%   0.726 MM12                                                
 1.79E+03  24%   3.097 MM14                                                
    0.000 999%   0.000 MM17                                                
 1.16E+03  70%   2.006 Lip13a+Lip13b                                       
 3.36E+03  22%   5.828 MM14+Lip13a+Lip13b+MM12                             
 1.42E+03  22%   2.464 MM09+Lip09                                          
 2.73E+03  19%   4.740 MM20+Lip20                                          
   6 lines in following misc. output table
  FWHM = 0.054 ppm    S/N =   3                                            
  Data shift = 0.015 ppm                                                   
  Ph: -57 deg     -11.1 deg/ppm                                            
  alphaB,S = 5.7E-01,   2.1E+01                                            
   14 spline knots.   Ns = 7(1)                                            
  (12) 7 infls.   (14) 2 extrs.                                            
  498 points on ppm-axis = NY
      4.000000     3.992357     3.984714     3.977070     3.969427     3.961784     3.954141     3.946497     3.938854     3.931211
      3.923568     3.915925     3.908281     3.900638     3.892995     3.885352     3.877708     3.870065     3.862422     3.854779
      3.847136     3.839492     3.831849     3.824206     3.816563     3.808919     3.801276     3.793633     3.785990     3.778347
      3.770703     3.763060     3.755417     3.747774     3.740130     3.732487     3.724844     3.717201     3.709558     3.701914
      3.694271     3.686628     3.678985     3.671341     3.663698     3.656055     3.648412     3.640769     3.633125     3.625482
      3.617839     3.610196     3.602552     3.594909     3.587266     3.579623     3.571980     3.564336     3.556693     3.549050
      3.541407     3.533763     3.526120     3.518477     3.510834     3.503191     3.495547     3.487904     3.480261     3.472618
      3.464974     3.457331     3.449688     3.442045     3.434402     3.426758     3.419115     3.411472     3.403829     3.396185
      3.388542     3.380899     3.373256     3.365613     3.357969     3.350326     3.342683     3.335040     3.327396     3.319753
      3.312110     3.304467     3.296824     3.289180     3.281537     3.273894     3.266251     3.258607     3.250964     3.243321
      3.235678     3.228034     3.220391     3.212748     3.205105     3.197462     3.189818     3.182175     3.174532     3.166889
      3.159245     3.151602     3.143959     3.136316     3.128673     3.121029     3.113386     3.105743     3.098100     3.090456
      3.082813     3.075170     3.067527     3.059884     3.052240     3.044597     3.036954     3.029311     3.021667     3.014024
      3.006381     2.998738     2.991095     2.983451     2.975808     2.968165     2.960522     2.952878     2.945235     2.937592
      2.929949     2.922306     2.914662     2.907019     2.899376     2.891733     2.884089     2.876446     2.868803     2.861160
      2.853517     2.845873     2.838230     2.830587     2.822944     2.815300     2.807657     2.800014     2.792371     2.784728
      2.777084     2.769441     2.761798     2.754155     2.746511     2.738868     2.731225     2.723582     2.715939     2.708295
      2.700652     2.693009     2.685366     2.677722     2.670079     2.662436     2.654793     2.647150     2.639506     2.631863
      2.624220     2.616577     2.608933     2.601290     2.593647     2.586004     2.578361     2.570717     2.563074     2.555431
      2.547788     2.540144     2.532501     2.524858     2.517215     2.509572     2.501928     2.494285     2.486642     2.478999
      2.471355     2.463712     2.456069     2.448426     2.440783     2.433139     2.425496     2.417853     2.410210     2.402566
      2.394923     2.387280     2.379637     2.371994     2.364350     2.356707     2.349064     2.341421     2.333777     2.326134
      2.318491     2.310848     2.303205     2.295561     2.287918     2.280275     2.272632     2.264988     2.257345     2.249702
      2.242059     2.234416     2.226772     2.219129     2.211486     2.203843     2.196199     2.188556     2.180913     2.173270
      2.165627     2.157983     2.150340     2.142697     2.135054     2.127410     2.119767     2.112124     2.104481     2.096838
      2.089194     2.081551     2.073908     2.066265     2.058621     2.050978     2.043335     2.035692     2.028049     2.020405
      2.012762     2.005119     1.997476     1.989833     1.982190     1.974546     1.966903     1.959260     1.951617     1.943974
      1.936331     1.928688     1.921045     1.913402     1.905759     1.898115     1.890472     1.882829     1.875186     1.867543
      1.859900     1.852257     1.844614     1.836971     1.829327     1.821684     1.814041     1.806398     1.798755     1.791112
      1.783469     1.775826     1.768183     1.760540     1.752896     1.745253     1.737610     1.729967     1.722324     1.714681
      1.707038     1.699395     1.691752     1.684108     1.676465     1.668822     1.661179     1.653536     1.645893     1.638250
      1.630607     1.622964     1.615321     1.607677     1.600034     1.592391     1.584748     1.577105     1.569462     1.561819
      1.554176     1.546533     1.538890     1.531246     1.523603     1.515960     1.508317     1.500674     1.493031     1.485388
      1.477745     1.470102     1.462458     1.454815     1.447172     1.439529     1.431886     1.424243     1.416600     1.408957
      1.401314     1.393671     1.386027     1.378384     1.370741     1.363098     1.355455     1.347812     1.340169     1.332526
      1.324883     1.317240     1.309596     1.301953     1.294310     1.286667     1.279024     1.271381     1.263738     1.256095
      1.248452     1.240808     1.233165     1.225522     1.217879     1.210236     1.202593     1.194950     1.187307     1.179664
      1.172021     1.164377     1.156734     1.149091     1.141448     1.133805     1.126162     1.118519     1.110876     1.103233
      1.095590     1.087946     1.080303     1.072660     1.065017     1.057374     1.049731     1.042088     1.034445     1.026802
      1.019158     1.011515     1.003872     0.996229     0.988586     0.980943     0.973300     0.965657     0.958014     0.950371
      0.942727     0.935084     0.927441     0.919798     0.912155     0.904512     0.896869     0.889226     0.881583     0.873940
      0.866296     0.858653     0.851010     0.843367     0.835724     0.828081     0.820438     0.812795     0.805152     0.797508
      0.789865     0.782222     0.774579     0.766936     0.759293     0.751650     0.744007     0.736364     0.728721     0.721077
      0.713434     0.705791     0.698148     0.690505     0.682862     0.675219     0.667576     0.659933     0.652290     0.644646
      0.637003     0.629360     0.621717     0.614074     0.606431     0.598788     0.591145     0.583502     0.575858     0.568215
      0.560572     0.552929     0.545286     0.537643     0.530000     0.522357     0.514714     0.507071     0.499427     0.491784
      0.484141     0.476498     0.468855     0.461212     0.453569     0.445925     0.438282     0.430639     0.422996     0.415353
      0.407710     0.400067     0.392424     0.384780     0.377137     0.369494     0.361851     0.354208     0.346565     0.338922
      0.331278     0.323635     0.315992     0.308349     0.300706     0.293063     0.285420     0.277777     0.270133     0.262490
      0.254847     0.247204     0.239561     0.231918     0.224275     0.216631     0.208988     0.201345
 NY phased data points follow
  -1.76207E+02 -1.60979E+02 -1.66891E+02 -1.67011E+02 -1.54772E+02 -1.56345E+02 -1.58970E+02 -1.47993E+02 -1.45655E+02 -1.34993E+02
  -1.34833E+02 -1.36368E+02 -1.44861E+02 -1.28507E+02 -1.37789E+02 -1.37257E+02 -1.35685E+02 -1.33500E+02 -1.43422E+02 -1.41490E+02
  -1.43074E+02 -1.37548E+02 -1.41124E+02 -1.27670E+02 -1.31286E+02 -1.22895E+02 -1.26524E+02 -1.23748E+02 -1.23881E+02 -1.23840E+02
  -1.08766E+02 -1.19698E+02 -1.18503E+02 -1.09625E+02 -1.19308E+02 -1.12348E+02 -1.16293E+02 -1.12705E+02 -1.12630E+02 -1.24547E+02
  -1.06755E+02 -1.12881E+02 -1.08564E+02 -1.03123E+02 -1.06608E+02 -1.07849E+02 -1.08238E+02 -9.89383E+01 -1.03702E+02 -9.90412E+01
  -9.58215E+01 -1.02820E+02 -1.02818E+02 -9.41760E+01 -9.41047E+01 -9.97536E+01 -9.49357E+01 -9.65554E+01 -9.74874E+01 -8.97997E+01
  -9.75244E+01 -9.80250E+01 -8.84296E+01 -9.47678E+01 -9.42084E+01 -9.05005E+01 -8.60314E+01 -9.56122E+01 -9.92961E+01 -8.89682E+01
  -9.79647E+01 -8.80380E+01 -8.87285E+01 -7.64647E+01 -8.56204E+01 -8.35047E+01 -9.80263E+01 -8.11866E+01 -8.88994E+01 -8.22094E+01
  -7.57082E+01 -8.58919E+01 -7.73522E+01 -7.48712E+01 -7.32751E+01 -7.07355E+01 -7.34605E+01 -6.29528E+01 -6.95354E+01 -7.77771E+01
  -7.26752E+01 -7.08153E+01 -7.76576E+01 -7.44692E+01 -8.00303E+01 -8.28394E+01 -7.65311E+01 -7.41928E+01 -6.84983E+01 -6.20467E+01
  -5.74166E+01 -4.88072E+01 -5.05463E+01 -4.76520E+01 -4.78773E+01 -4.61639E+01 -5.04477E+01 -5.26544E+01 -6.13951E+01 -5.05987E+01
  -6.09637E+01 -6.12289E+01 -5.45675E+01 -6.51899E+01 -6.86727E+01 -5.51133E+01 -7.33009E+01 -6.69287E+01 -7.21166E+01 -6.78092E+01
  -7.68779E+01 -6.41319E+01 -6.35485E+01 -5.09237E+01 -5.59922E+01 -4.95167E+01 -4.37612E+01 -4.68948E+01 -3.87855E+01 -5.20997E+01
  -3.19547E+01 -4.24535E+01 -4.88908E+01 -4.37748E+01 -5.42313E+01 -4.70356E+01 -5.03547E+01 -4.68286E+01 -6.59276E+01 -5.47900E+01
  -5.30741E+01 -5.56397E+01 -6.22106E+01 -4.69212E+01 -5.60827E+01 -5.72282E+01 -5.71425E+01 -6.11896E+01 -5.98076E+01 -6.12807E+01
  -5.34698E+01 -5.21239E+01 -4.98341E+01 -5.14794E+01 -6.60023E+01 -5.46894E+01 -5.94421E+01 -5.49633E+01 -4.85336E+01 -3.79380E+01
  -5.32553E+01 -5.52522E+01 -4.45622E+01 -4.94938E+01 -4.55769E+01 -4.69865E+01 -5.13734E+01 -3.74804E+01 -4.69876E+01 -4.47881E+01
  -4.78555E+01 -4.09776E+01 -4.94240E+01 -4.65775E+01 -6.23929E+01 -3.84021E+01 -4.99730E+01 -4.61937E+01 -5.09195E+01 -4.40341E+01
  -5.13243E+01 -4.45662E+01 -4.36411E+01 -4.86182E+01 -4.90711E+01 -4.08948E+01 -3.83809E+01 -3.26820E+01 -5.30184E+01 -4.36805E+01
  -3.88729E+01 -2.99356E+01 -3.73166E+01 -4.51809E+01 -3.14069E+01 -3.01778E+01 -4.01081E+01 -4.09602E+01 -3.29211E+01 -3.70347E+01
  -3.90676E+01 -2.39787E+01 -3.13036E+01 -3.79198E+01 -3.36051E+01 -4.10763E+01 -3.47768E+01 -2.67566E+01 -3.80166E+01 -3.73139E+01
  -4.11491E+01 -3.40719E+01 -3.29419E+01 -3.05921E+01 -3.29384E+01 -2.47700E+01 -2.47205E+01 -2.46466E+01 -2.45706E+01 -2.63745E+01
  -2.57613E+01 -2.64044E+01 -2.77019E+01 -2.33645E+01 -3.03326E+01 -1.72321E+01 -2.73131E+01 -2.31095E+01 -2.32265E+01 -1.81642E+01
  -2.58933E+01 -2.51585E+01 -3.10489E+01 -2.03683E+01 -2.67452E+01 -1.96097E+01 -2.10960E+01 -1.67139E+01 -8.30003E+00 -2.13727E+01
  -2.50773E+01 -1.45380E+01 -1.42022E+01 -1.61510E+01 -1.99532E+01 -8.66375E+00 -1.24702E+01 -2.16129E+01 -2.69535E+01 -2.57415E+01
  -1.92898E+01 -1.36921E+01 -2.50251E+01 -2.14755E+01 -2.09080E+01 -1.35941E+01  5.74234E-01 -1.55117E+01 -3.48349E+00 -3.13816E+00
   2.01870E+01  1.03917E+01  8.08576E+00  6.59109E-01  9.43025E+00 -7.69568E+00 -1.57417E+01 -1.11174E+01 -2.55003E+01 -1.15208E+01
  -2.20500E+01 -1.34230E+01 -2.45406E+01 -1.91162E+01 -2.36227E+01 -2.44582E+01 -2.18441E+01 -3.08818E+01 -1.96577E+01 -1.59652E+01
  -3.07723E+01 -1.98518E+01 -1.60588E+01 -2.69515E+01 -2.76722E+01 -2.37757E+01 -2.09573E+01 -3.52054E+01 -2.88762E+01 -1.97897E+01
  -1.74492E+01 -3.24350E+01 -1.86457E+01 -3.19377E+01 -2.36883E+01 -2.51750E+01 -2.65634E+01 -2.33404E+01 -2.33262E+01 -3.63686E+01
  -2.53003E+01 -3.43000E+01 -2.56841E+01 -2.92094E+01 -3.74752E+01 -3.15826E+01 -2.76253E+01 -3.54048E+01 -2.46262E+01 -2.59353E+01
  -2.09661E+01 -2.31163E+01 -1.87147E+01 -2.83239E+01 -2.27869E+01 -1.51216E+01 -1.74028E+01 -2.08631E+01 -2.35882E+01 -1.29981E+01
  -1.70945E+01 -1.89206E+01 -1.92160E+01 -1.15294E+01 -1.70945E+01 -8.20980E+00 -1.74851E+01 -4.35048E+00 -1.28828E+01 -4.93734E+00
  -1.73836E+01 -1.52178E+00 -1.01381E+01 -4.90210E+00 -1.33396E+01 -3.08640E+00 -2.93824E-01 -8.15077E+00 -8.93024E+00  1.30271E+00
  -1.40676E+01 -3.10914E+00 -6.84481E+00  8.85575E-01 -1.80738E+01 -2.84658E+00 -1.18977E+01 -5.17457E+00 -1.60063E+01 -2.46011E+01
  -1.25596E+01 -1.12808E+01 -5.62411E-01 -4.36669E+00 -7.06030E+00 -1.33592E+01 -7.14840E+00 -1.17861E+01 -8.05038E+00 -1.10477E+01
  -4.95136E+00 -1.19945E+01 -7.79769E+00 -7.12760E+00 -1.34507E+01 -8.37023E+00 -7.56743E+00 -1.01205E+01 -1.03592E+01 -1.69743E+01
  -1.98420E+01 -1.07693E+01 -7.22752E+00 -1.08426E+01 -5.88538E+00 -6.54738E+00 -4.28267E+00 -6.65446E+00 -2.23714E+00 -1.70644E+01
  -6.25040E+00 -1.18392E+01 -1.99716E+01 -8.15392E+00 -7.29078E+00 -2.61264E+01 -1.94745E+01 -5.12832E+00 -1.34188E+01 -1.18597E+01
   9.31576E+00 -2.27779E+01 -1.13876E+01 -7.15654E+00 -1.24871E+01 -1.13462E+01 -1.27665E+01 -7.71374E+00 -8.47781E+00 -7.60187E+00
   2.11019E+00 -3.76374E+00 -1.43156E+00 -4.05327E+00  1.56889E+00  3.07441E+00 -1.62961E+01 -6.68059E+00 -9.35692E+00 -5.61093E+00
  -3.56391E+00 -8.13486E+00 -1.56185E+01  9.57502E-01 -6.94945E+00 -1.31099E+01 -5.11268E+00 -1.43986E+01 -3.67384E+00 -8.67912E-01
  -1.53252E+01 -7.90121E+00 -8.39322E+00 -1.34076E+01 -1.27198E+01  1.79330E-01 -1.04586E+01 -8.52518E+00 -1.30587E+01 -6.96623E+00
   4.63112E+00 -1.32482E+01 -1.38195E+01 -1.58158E+01 -1.10872E+01 -1.40513E+01 -1.32819E+01 -5.79853E+00 -4.42379E+00 -9.33832E+00
  -2.62604E+00 -1.06314E+01 -6.05581E+00  1.34300E+00 -6.20599E+00  1.58882E+00 -1.20626E+01 -1.69970E+01 -2.27812E+00 -1.41810E+01
  -1.20619E+01 -1.09186E+01 -1.10096E+01 -1.62100E+01 -4.82205E+00 -1.29503E+01 -1.93114E+01 -1.39035E+01 -7.24262E+00 -9.76544E+00
  -1.28729E+01 -7.59818E+00 -5.60741E+00 -1.29429E+01 -6.50160E+00 -3.70146E+00 -9.82410E+00 -2.80688E+00 -1.51068E+01 -1.43716E+01
  -1.61354E+01 -7.38188E+00 -2.00565E+01 -6.04949E+00 -4.45218E+00 -1.99880E+01 -1.18907E+01 -6.86781E+00 -1.38396E+01 -1.56307E+01
  -1.29503E+01 -1.11449E+01 -1.44766E+01 -7.56575E+00 -3.19866E+00 -7.91923E+00 -1.51370E+01 -1.25730E+01 -1.81577E+01 -2.33082E+00
  -9.18934E+00 -4.76532E+00 -1.48245E+01 -1.39243E+01 -1.17740E+01 -8.75714E+00 -1.52613E+01 -8.37593E+00
 NY points of the fit to the data follow
  -1.52933E+02 -1.52565E+02 -1.52249E+02 -1.52421E+02 -1.51155E+02 -1.48898E+02 -1.46972E+02 -1.45316E+02 -1.43199E+02 -1.40647E+02
  -1.38604E+02 -1.37553E+02 -1.36724E+02 -1.36017E+02 -1.35922E+02 -1.35855E+02 -1.35439E+02 -1.35449E+02 -1.35686E+02 -1.35129E+02
  -1.34227E+02 -1.33349E+02 -1.32802E+02 -1.32650E+02 -1.31660E+02 -1.29933E+02 -1.28141E+02 -1.26046E+02 -1.23422E+02 -1.20564E+02
  -1.18172E+02 -1.16585E+02 -1.15529E+02 -1.14893E+02 -1.14830E+02 -1.15145E+02 -1.15520E+02 -1.15978E+02 -1.16480E+02 -1.16755E+02
  -1.16859E+02 -1.16007E+02 -1.13838E+02 -1.11317E+02 -1.09147E+02 -1.07067E+02 -1.04807E+02 -1.02903E+02 -1.01941E+02 -1.01793E+02
  -1.01960E+02 -1.02293E+02 -1.02886E+02 -1.03361E+02 -1.03451E+02 -1.03281E+02 -1.02669E+02 -1.01508E+02 -1.00005E+02 -9.84900E+01
  -9.73089E+01 -9.64202E+01 -9.57934E+01 -9.53142E+01 -9.49290E+01 -9.45769E+01 -9.40052E+01 -9.32646E+01 -9.25769E+01 -9.18116E+01
  -9.06315E+01 -8.92196E+01 -8.79973E+01 -8.70499E+01 -8.62353E+01 -8.55436E+01 -8.50927E+01 -8.48254E+01 -8.45629E+01 -8.45234E+01
  -8.39053E+01 -8.24365E+01 -8.11989E+01 -8.05177E+01 -7.96744E+01 -7.84855E+01 -7.76214E+01 -7.74594E+01 -7.75224E+01 -7.74690E+01
  -7.74348E+01 -7.73880E+01 -7.71816E+01 -7.68959E+01 -7.67404E+01 -7.68721E+01 -7.73055E+01 -7.42642E+01 -6.82711E+01 -6.33927E+01
  -5.96020E+01 -5.45908E+01 -4.86904E+01 -4.50193E+01 -4.50366E+01 -4.65669E+01 -4.83101E+01 -5.13339E+01 -5.49311E+01 -5.79980E+01
  -6.15000E+01 -6.51610E+01 -6.66652E+01 -6.65997E+01 -6.62035E+01 -6.57622E+01 -6.52944E+01 -6.47961E+01 -6.43492E+01 -6.40936E+01
  -6.45431E+01 -6.35308E+01 -5.96298E+01 -5.57369E+01 -5.29497E+01 -4.96941E+01 -4.55346E+01 -4.21094E+01 -4.09315E+01 -4.14554E+01
  -4.23166E+01 -4.38938E+01 -4.64247E+01 -4.88235E+01 -5.13310E+01 -5.44189E+01 -5.62743E+01 -5.65137E+01 -5.63472E+01 -5.59129E+01
  -5.52823E+01 -5.46761E+01 -5.41026E+01 -5.34817E+01 -5.29174E+01 -5.24691E+01 -5.21863E+01 -5.20632E+01 -5.19968E+01 -5.19650E+01
  -5.19255E+01 -5.17755E+01 -5.15572E+01 -5.13072E+01 -5.10140E+01 -5.07681E+01 -5.06152E+01 -5.04654E+01 -5.02961E+01 -5.00446E+01
  -4.97793E+01 -4.95442E+01 -4.92174E+01 -4.87882E+01 -4.83658E+01 -4.79965E+01 -4.76898E+01 -4.73952E+01 -4.70522E+01 -4.67092E+01
  -4.65190E+01 -4.65237E+01 -4.64863E+01 -4.63101E+01 -4.60403E+01 -4.58787E+01 -4.57774E+01 -4.55053E+01 -4.50688E+01 -4.46916E+01
  -4.44137E+01 -4.42106E+01 -4.40220E+01 -4.36873E+01 -4.32176E+01 -4.27108E+01 -4.21036E+01 -4.12956E+01 -4.04202E+01 -3.94990E+01
  -3.87131E+01 -3.81983E+01 -3.81468E+01 -3.83856E+01 -3.86299E+01 -3.87911E+01 -3.88618E+01 -3.87020E+01 -3.81555E+01 -3.71097E+01
  -3.56513E+01 -3.41044E+01 -3.26689E+01 -3.14966E+01 -3.13982E+01 -3.22171E+01 -3.29804E+01 -3.38724E+01 -3.52137E+01 -3.65805E+01
  -3.69415E+01 -3.61557E+01 -3.51372E+01 -3.41224E+01 -3.25527E+01 -3.07626E+01 -2.95654E+01 -2.88254E+01 -2.81953E+01 -2.79769E+01
  -2.81315E+01 -2.82745E+01 -2.82296E+01 -2.79342E+01 -2.74299E+01 -2.68839E+01 -2.65105E+01 -2.61545E+01 -2.56720E+01 -2.52113E+01
  -2.52837E+01 -2.55911E+01 -2.53654E+01 -2.48136E+01 -2.44687E+01 -2.39286E+01 -2.27159E+01 -2.15774E+01 -2.09728E+01 -2.05157E+01
  -1.99887E+01 -1.98923E+01 -2.03048E+01 -2.06019E+01 -2.05875E+01 -2.06472E+01 -2.06190E+01 -2.01804E+01 -1.95661E+01 -1.89030E+01
  -1.80079E+01 -1.70710E+01 -1.66837E+01 -1.77603E+01 -1.75942E+01 -1.26213E+01 -7.12018E+00 -3.78610E+00 -2.06638E-01  5.04002E+00
   9.49806E+00  1.00444E+01  7.48765E+00  4.69994E+00  1.25059E+00 -3.74116E+00 -8.38164E+00 -1.26228E+01 -1.77512E+01 -2.16196E+01
  -2.27606E+01 -2.31289E+01 -2.33438E+01 -2.34755E+01 -2.35565E+01 -2.36350E+01 -2.37129E+01 -2.37929E+01 -2.38959E+01 -2.40196E+01
  -2.41412E+01 -2.42629E+01 -2.43761E+01 -2.44627E+01 -2.45163E+01 -2.45321E+01 -2.45173E+01 -2.44838E+01 -2.44334E+01 -2.43700E+01
  -2.43069E+01 -2.42434E+01 -2.41750E+01 -2.41070E+01 -2.40394E+01 -2.39623E+01 -2.38743E+01 -2.37802E+01 -2.36772E+01 -2.35625E+01
  -2.34385E+01 -2.33055E+01 -2.31614E+01 -2.30074E+01 -2.28426E+01 -2.26657E+01 -2.24752E+01 -2.22696E+01 -2.20469E+01 -2.18047E+01
  -2.15406E+01 -2.12523E+01 -2.09370E+01 -2.05924E+01 -2.02159E+01 -1.98051E+01 -1.93581E+01 -1.88738E+01 -1.83517E+01 -1.77924E+01
  -1.71971E+01 -1.65684E+01 -1.59103E+01 -1.52281E+01 -1.45285E+01 -1.38193E+01 -1.31091E+01 -1.24075E+01 -1.17246E+01 -1.10709E+01
  -1.04561E+01 -9.88951E+00 -9.37893E+00 -8.93075E+00 -8.54933E+00 -8.23702E+00 -7.99365E+00 -7.81709E+00 -7.70500E+00 -7.66424E+00
  -7.65705E+00 -7.32646E+00 -6.87903E+00 -6.82420E+00 -7.00627E+00 -7.12904E+00 -7.32035E+00 -7.94571E+00 -9.15689E+00 -1.01194E+01
  -1.04507E+01 -1.06959E+01 -1.09332E+01 -1.08034E+01 -1.03321E+01 -9.76796E+00 -9.22632E+00 -8.82014E+00 -8.56831E+00 -8.57083E+00
  -8.80751E+00 -9.09418E+00 -9.50663E+00 -1.01198E+01 -1.06404E+01 -1.10019E+01 -1.12864E+01 -1.15249E+01 -1.17299E+01 -1.19080E+01
  -1.20628E+01 -1.21960E+01 -1.23079E+01 -1.23982E+01 -1.24656E+01 -1.25089E+01 -1.25264E+01 -1.25166E+01 -1.24777E+01 -1.24085E+01
  -1.23074E+01 -1.21732E+01 -1.20047E+01 -1.18009E+01 -1.15610E+01 -1.12846E+01 -1.09717E+01 -1.06225E+01 -1.02382E+01 -9.82053E+00
  -9.37237E+00 -8.89756E+00 -8.40095E+00 -7.88865E+00 -7.36791E+00 -6.84719E+00 -6.33581E+00 -5.84381E+00 -5.38148E+00 -4.95924E+00
  -4.58702E+00 -4.27403E+00 -4.02807E+00 -3.85530E+00 -3.75974E+00 -3.74335E+00 -3.80564E+00 -3.94395E+00 -4.15323E+00 -4.42657E+00
  -4.75536E+00 -5.12993E+00 -5.53982E+00 -5.97438E+00 -6.42299E+00 -6.87569E+00 -7.32335E+00 -7.75811E+00 -8.17338E+00 -8.56401E+00
  -8.92610E+00 -9.25715E+00 -9.55581E+00 -9.82191E+00 -1.00560E+01 -1.02595E+01 -1.04340E+01 -1.05817E+01 -1.07049E+01 -1.08061E+01
  -1.08877E+01 -1.09518E+01 -1.10008E+01 -1.10365E+01 -1.10608E+01 -1.10753E+01 -1.10816E+01 -1.10807E+01 -1.10739E+01 -1.10620E+01
  -1.10459E+01 -1.10264E+01 -1.10040E+01 -1.09793E+01 -1.09527E+01 -1.09246E+01 -1.08954E+01 -1.08654E+01 -1.08348E+01 -1.08038E+01
  -1.07726E+01 -1.07415E+01 -1.07105E+01 -1.06799E+01 -1.06496E+01 -1.06197E+01 -1.05902E+01 -1.05613E+01 -1.05330E+01 -1.05052E+01
  -1.04779E+01 -1.04512E+01 -1.04250E+01 -1.03994E+01 -1.03745E+01 -1.03501E+01 -1.03262E+01 -1.03028E+01 -1.02799E+01 -1.02576E+01
  -1.02358E+01 -1.02144E+01 -1.01934E+01 -1.01729E+01 -1.01527E+01 -1.01329E+01 -1.01135E+01 -1.00943E+01 -1.00753E+01 -1.00566E+01
  -1.00381E+01 -1.00198E+01 -1.00017E+01 -9.98356E+00 -9.96548E+00 -9.94747E+00 -9.92947E+00 -9.91144E+00 -9.89327E+00 -9.87495E+00
  -9.85644E+00 -9.83777E+00 -9.81885E+00 -9.79964E+00 -9.78002E+00 -9.75998E+00 -9.73950E+00 -9.71857E+00
 NY background values follow
    -1.571E+02   -1.561E+02   -1.552E+02   -1.542E+02   -1.532E+02   -1.522E+02   -1.512E+02   -1.503E+02   -1.493E+02   -1.483E+02
    -1.473E+02   -1.464E+02   -1.454E+02   -1.444E+02   -1.434E+02   -1.425E+02   -1.415E+02   -1.405E+02   -1.396E+02   -1.386E+02
    -1.376E+02   -1.367E+02   -1.357E+02   -1.348E+02   -1.338E+02   -1.329E+02   -1.319E+02   -1.310E+02   -1.300E+02   -1.291E+02
    -1.282E+02   -1.272E+02   -1.263E+02   -1.254E+02   -1.245E+02   -1.235E+02   -1.226E+02   -1.217E+02   -1.208E+02   -1.199E+02
    -1.190E+02   -1.181E+02   -1.172E+02   -1.164E+02   -1.155E+02   -1.146E+02   -1.138E+02   -1.129E+02   -1.120E+02   -1.112E+02
    -1.103E+02   -1.095E+02   -1.087E+02   -1.078E+02   -1.070E+02   -1.062E+02   -1.054E+02   -1.046E+02   -1.038E+02   -1.030E+02
    -1.022E+02   -1.014E+02   -1.007E+02   -9.989E+01   -9.912E+01   -9.836E+01   -9.761E+01   -9.686E+01   -9.612E+01   -9.538E+01
    -9.465E+01   -9.392E+01   -9.321E+01   -9.249E+01   -9.178E+01   -9.108E+01   -9.039E+01   -8.970E+01   -8.902E+01   -8.834E+01
    -8.767E+01   -8.700E+01   -8.634E+01   -8.569E+01   -8.504E+01   -8.440E+01   -8.377E+01   -8.314E+01   -8.252E+01   -8.190E+01
    -8.129E+01   -8.069E+01   -8.009E+01   -7.950E+01   -7.891E+01   -7.833E+01   -7.776E+01   -7.719E+01   -7.663E+01   -7.607E+01
    -7.552E+01   -7.497E+01   -7.443E+01   -7.390E+01   -7.337E+01   -7.284E+01   -7.232E+01   -7.181E+01   -7.130E+01   -7.079E+01
    -7.029E+01   -6.980E+01   -6.931E+01   -6.882E+01   -6.834E+01   -6.786E+01   -6.739E+01   -6.692E+01   -6.645E+01   -6.599E+01
    -6.553E+01   -6.508E+01   -6.463E+01   -6.418E+01   -6.374E+01   -6.330E+01   -6.287E+01   -6.244E+01   -6.201E+01   -6.158E+01
    -6.116E+01   -6.074E+01   -6.032E+01   -5.991E+01   -5.950E+01   -5.909E+01   -5.868E+01   -5.828E+01   -5.788E+01   -5.748E+01
    -5.708E+01   -5.669E+01   -5.630E+01   -5.591E+01   -5.553E+01   -5.514E+01   -5.476E+01   -5.438E+01   -5.401E+01   -5.363E+01
    -5.326E+01   -5.289E+01   -5.253E+01   -5.217E+01   -5.180E+01   -5.145E+01   -5.109E+01   -5.073E+01   -5.038E+01   -5.003E+01
    -4.969E+01   -4.934E+01   -4.900E+01   -4.866E+01   -4.832E+01   -4.799E+01   -4.765E+01   -4.732E+01   -4.700E+01   -4.667E+01
    -4.635E+01   -4.602E+01   -4.570E+01   -4.539E+01   -4.507E+01   -4.476E+01   -4.445E+01   -4.414E+01   -4.384E+01   -4.353E+01
    -4.323E+01   -4.293E+01   -4.263E+01   -4.234E+01   -4.205E+01   -4.175E+01   -4.147E+01   -4.118E+01   -4.090E+01   -4.062E+01
    -4.034E+01   -4.006E+01   -3.979E+01   -3.952E+01   -3.925E+01   -3.898E+01   -3.872E+01   -3.846E+01   -3.820E+01   -3.794E+01
    -3.769E+01   -3.744E+01   -3.719E+01   -3.695E+01   -3.671E+01   -3.647E+01   -3.623E+01   -3.600E+01   -3.577E+01   -3.554E+01
    -3.532E+01   -3.510E+01   -3.488E+01   -3.467E+01   -3.446E+01   -3.425E+01   -3.404E+01   -3.384E+01   -3.364E+01   -3.345E+01
    -3.326E+01   -3.307E+01   -3.288E+01   -3.270E+01   -3.253E+01   -3.235E+01   -3.218E+01   -3.201E+01   -3.185E+01   -3.169E+01
    -3.153E+01   -3.138E+01   -3.123E+01   -3.108E+01   -3.094E+01   -3.080E+01   -3.066E+01   -3.052E+01   -3.039E+01   -3.026E+01
    -3.014E+01   -3.001E+01   -2.989E+01   -2.977E+01   -2.965E+01   -2.954E+01   -2.942E+01   -2.931E+01   -2.921E+01   -2.910E+01
    -2.900E+01   -2.889E+01   -2.879E+01   -2.869E+01   -2.860E+01   -2.850E+01   -2.841E+01   -2.831E+01   -2.822E+01   -2.813E+01
    -2.804E+01   -2.795E+01   -2.787E+01   -2.778E+01   -2.770E+01   -2.761E+01   -2.753E+01   -2.745E+01   -2.737E+01   -2.728E+01
    -2.720E+01   -2.712E+01   -2.704E+01   -2.697E+01   -2.689E+01   -2.681E+01   -2.673E+01   -2.665E+01   -2.657E+01   -2.649E+01
    -2.642E+01   -2.634E+01   -2.626E+01   -2.618E+01   -2.610E+01   -2.602E+01   -2.595E+01   -2.587E+01   -2.579E+01   -2.571E+01
    -2.563E+01   -2.555E+01   -2.547E+01   -2.539E+01   -2.531E+01   -2.523E+01   -2.514E+01   -2.506E+01   -2.498E+01   -2.489E+01
    -2.481E+01   -2.472E+01   -2.464E+01   -2.455E+01   -2.446E+01   -2.437E+01   -2.428E+01   -2.419E+01   -2.410E+01   -2.401E+01
    -2.392E+01   -2.382E+01   -2.373E+01   -2.363E+01   -2.353E+01   -2.343E+01   -2.333E+01   -2.323E+01   -2.312E+01   -2.302E+01
    -2.291E+01   -2.281E+01   -2.270E+01   -2.259E+01   -2.248E+01   -2.237E+01   -2.226E+01   -2.214E+01   -2.203E+01   -2.191E+01
    -2.180E+01   -2.168E+01   -2.156E+01   -2.145E+01   -2.133E+01   -2.121E+01   -2.109E+01   -2.097E+01   -2.085E+01   -2.073E+01
    -2.061E+01   -2.049E+01   -2.036E+01   -2.024E+01   -2.012E+01   -2.000E+01   -1.988E+01   -1.975E+01   -1.963E+01   -1.951E+01
    -1.939E+01   -1.926E+01   -1.914E+01   -1.902E+01   -1.890E+01   -1.878E+01   -1.866E+01   -1.854E+01   -1.842E+01   -1.830E+01
    -1.818E+01   -1.806E+01   -1.794E+01   -1.783E+01   -1.771E+01   -1.759E+01   -1.748E+01   -1.736E+01   -1.725E+01   -1.714E+01
    -1.702E+01   -1.691E+01   -1.680E+01   -1.669E+01   -1.658E+01   -1.647E+01   -1.636E+01   -1.625E+01   -1.615E+01   -1.604E+01
    -1.593E+01   -1.583E+01   -1.572E+01   -1.562E+01   -1.551E+01   -1.541E+01   -1.531E+01   -1.521E+01   -1.511E+01   -1.500E+01
    -1.491E+01   -1.481E+01   -1.471E+01   -1.461E+01   -1.451E+01   -1.442E+01   -1.432E+01   -1.423E+01   -1.413E+01   -1.404E+01
    -1.395E+01   -1.385E+01   -1.376E+01   -1.367E+01   -1.358E+01   -1.349E+01   -1.340E+01   -1.331E+01   -1.323E+01   -1.314E+01
    -1.305E+01   -1.297E+01   -1.288E+01   -1.280E+01   -1.272E+01   -1.263E+01   -1.255E+01   -1.247E+01   -1.239E+01   -1.231E+01
    -1.224E+01   -1.216E+01   -1.208E+01   -1.201E+01   -1.193E+01   -1.186E+01   -1.179E+01   -1.172E+01   -1.165E+01   -1.158E+01
    -1.151E+01   -1.144E+01   -1.137E+01   -1.131E+01   -1.125E+01   -1.118E+01   -1.112E+01   -1.106E+01   -1.100E+01   -1.094E+01
    -1.088E+01   -1.083E+01   -1.077E+01   -1.072E+01   -1.067E+01   -1.062E+01   -1.057E+01   -1.052E+01   -1.047E+01   -1.043E+01
    -1.038E+01   -1.034E+01   -1.030E+01   -1.026E+01   -1.022E+01   -1.018E+01   -1.014E+01   -1.011E+01   -1.008E+01   -1.004E+01
    -1.001E+01   -9.980E+00   -9.950E+00   -9.922E+00   -9.894E+00   -9.867E+00   -9.841E+00   -9.816E+00   -9.792E+00   -9.769E+00
    -9.746E+00   -9.724E+00   -9.702E+00   -9.682E+00   -9.661E+00   -9.642E+00   -9.622E+00   -9.604E+00   -9.585E+00   -9.567E+00
    -9.550E+00   -9.532E+00   -9.515E+00   -9.498E+00   -9.482E+00   -9.465E+00   -9.449E+00   -9.433E+00   -9.416E+00   -9.400E+00
    -9.384E+00   -9.367E+00   -9.351E+00   -9.334E+00   -9.317E+00   -9.300E+00   -9.283E+00   -9.265E+00
 Asp      Conc. = 1.33E+02
