 LCModel (Version 6.3-1L) Copyright: S.W. Provencher.          Ref.: Magn. Reson. Med. 30:672-679 (1993).                
 Slice#2 Row#11 Col#2  PD_24_press_2_raw_act
 36 lines in following concentration table = NCONC+1
    Conc.  %SD /Cr+PCr  Metabolite                                         
 1.04E+04  22%   0.000 Ala                                                 
    0.000 999%   0.000 Asp                                                 
    0.000 999%   0.000 Cr                                                  
    0.000 999%   0.000 PCr                                                 
   26.217 522%   0.000 GABA                                                
  135.020 101%   0.000 Glc                                                 
 1.26E+04  14%   0.000 Gln                                                 
    0.000 999%   0.000 Glu                                                 
  350.281  20%   0.000 GPC                                                 
    0.000 999%   0.000 PCh                                                 
    0.000 999%   0.000 GSH                                                 
 4.31E+03  17%   0.000 Ins                                                 
 1.42E+04  19%   0.000 Lac                                                 
    0.000 999%   0.000 NAA                                                 
    0.000 999%   0.000 NAAG                                                
  156.055  26%   0.000+Scyllo                                              
  450.340  48%   0.000 Tau                                                 
  404.285  88%   0.000 -CrCH2                                              
  350.281  20%   0.000 GPC+PCh                                             
    0.000 999%   0.000 NAA+NAAG                                            
    0.000 999%   0.000 Cr+PCr                                              
 1.26E+04  14%   0.000 Glu+Gln                                             
    0.000 999%   0.000 Lip13a                                              
    0.000 999%   0.000 Lip13b                                              
    0.000 999%   0.000 Lip09                                               
 1.63E+04  10%   0.000 MM09                                                
 5.04E+03  23%   0.000+Lip20                                               
 2.40E+04  10%   0.000 MM20                                                
 4.64E+03  13%   0.000 MM12                                                
 1.77E+04   9%   0.000+MM14                                                
 1.41E+04   6%   0.000+MM17                                                
    0.000 999%   0.000 Lip13a+Lip13b                                       
 2.24E+04   9%   0.000 MM14+Lip13a+Lip13b+MM12                             
 1.63E+04  10%   0.000 MM09+Lip09                                          
 2.90E+04   9%   0.000 MM20+Lip20                                          
   6 lines in following misc. output table
  FWHM = 0.168 ppm    S/N =  21                                            
  Data shift = 0.122 ppm                                                   
  Ph:  15 deg      99.1 deg/ppm                                            
  alphaB,S = 3.0E+00,   4.1E+02                                            
    7 spline knots.   Ns = 9(2)                                            
  (13) 6 infls.   ( 5) 1 extrs.                                            
  498 points on ppm-axis = NY
      4.000000     3.992357     3.984714     3.977070     3.969427     3.961784     3.954141     3.946497     3.938854     3.931211
      3.923568     3.915925     3.908281     3.900638     3.892995     3.885352     3.877708     3.870065     3.862422     3.854779
      3.847136     3.839492     3.831849     3.824206     3.816563     3.808919     3.801276     3.793633     3.785990     3.778347
      3.770703     3.763060     3.755417     3.747774     3.740130     3.732487     3.724844     3.717201     3.709558     3.701914
      3.694271     3.686628     3.678985     3.671341     3.663698     3.656055     3.648412     3.640769     3.633125     3.625482
      3.617839     3.610196     3.602552     3.594909     3.587266     3.579623     3.571980     3.564336     3.556693     3.549050
      3.541407     3.533763     3.526120     3.518477     3.510834     3.503191     3.495547     3.487904     3.480261     3.472618
      3.464974     3.457331     3.449688     3.442045     3.434402     3.426758     3.419115     3.411472     3.403829     3.396185
      3.388542     3.380899     3.373256     3.365613     3.357969     3.350326     3.342683     3.335040     3.327396     3.319753
      3.312110     3.304467     3.296824     3.289180     3.281537     3.273894     3.266251     3.258607     3.250964     3.243321
      3.235678     3.228034     3.220391     3.212748     3.205105     3.197462     3.189818     3.182175     3.174532     3.166889
      3.159245     3.151602     3.143959     3.136316     3.128673     3.121029     3.113386     3.105743     3.098100     3.090456
      3.082813     3.075170     3.067527     3.059884     3.052240     3.044597     3.036954     3.029311     3.021667     3.014024
      3.006381     2.998738     2.991095     2.983451     2.975808     2.968165     2.960522     2.952878     2.945235     2.937592
      2.929949     2.922306     2.914662     2.907019     2.899376     2.891733     2.884089     2.876446     2.868803     2.861160
      2.853517     2.845873     2.838230     2.830587     2.822944     2.815300     2.807657     2.800014     2.792371     2.784728
      2.777084     2.769441     2.761798     2.754155     2.746511     2.738868     2.731225     2.723582     2.715939     2.708295
      2.700652     2.693009     2.685366     2.677722     2.670079     2.662436     2.654793     2.647150     2.639506     2.631863
      2.624220     2.616577     2.608933     2.601290     2.593647     2.586004     2.578361     2.570717     2.563074     2.555431
      2.547788     2.540144     2.532501     2.524858     2.517215     2.509572     2.501928     2.494285     2.486642     2.478999
      2.471355     2.463712     2.456069     2.448426     2.440783     2.433139     2.425496     2.417853     2.410210     2.402566
      2.394923     2.387280     2.379637     2.371994     2.364350     2.356707     2.349064     2.341421     2.333777     2.326134
      2.318491     2.310848     2.303205     2.295561     2.287918     2.280275     2.272632     2.264988     2.257345     2.249702
      2.242059     2.234416     2.226772     2.219129     2.211486     2.203843     2.196199     2.188556     2.180913     2.173270
      2.165627     2.157983     2.150340     2.142697     2.135054     2.127410     2.119767     2.112124     2.104481     2.096838
      2.089194     2.081551     2.073908     2.066265     2.058621     2.050978     2.043335     2.035692     2.028049     2.020405
      2.012762     2.005119     1.997476     1.989833     1.982190     1.974546     1.966903     1.959260     1.951617     1.943974
      1.936331     1.928688     1.921045     1.913402     1.905759     1.898115     1.890472     1.882829     1.875186     1.867543
      1.859900     1.852257     1.844614     1.836971     1.829327     1.821684     1.814041     1.806398     1.798755     1.791112
      1.783469     1.775826     1.768183     1.760540     1.752896     1.745253     1.737610     1.729967     1.722324     1.714681
      1.707038     1.699395     1.691752     1.684108     1.676465     1.668822     1.661179     1.653536     1.645893     1.638250
      1.630607     1.622964     1.615321     1.607677     1.600034     1.592391     1.584748     1.577105     1.569462     1.561819
      1.554176     1.546533     1.538890     1.531246     1.523603     1.515960     1.508317     1.500674     1.493031     1.485388
      1.477745     1.470102     1.462458     1.454815     1.447172     1.439529     1.431886     1.424243     1.416600     1.408957
      1.401314     1.393671     1.386027     1.378384     1.370741     1.363098     1.355455     1.347812     1.340169     1.332526
      1.324883     1.317240     1.309596     1.301953     1.294310     1.286667     1.279024     1.271381     1.263738     1.256095
      1.248452     1.240808     1.233165     1.225522     1.217879     1.210236     1.202593     1.194950     1.187307     1.179664
      1.172021     1.164377     1.156734     1.149091     1.141448     1.133805     1.126162     1.118519     1.110876     1.103233
      1.095590     1.087946     1.080303     1.072660     1.065017     1.057374     1.049731     1.042088     1.034445     1.026802
      1.019158     1.011515     1.003872     0.996229     0.988586     0.980943     0.973300     0.965657     0.958014     0.950371
      0.942727     0.935084     0.927441     0.919798     0.912155     0.904512     0.896869     0.889226     0.881583     0.873940
      0.866296     0.858653     0.851010     0.843367     0.835724     0.828081     0.820438     0.812795     0.805152     0.797508
      0.789865     0.782222     0.774579     0.766936     0.759293     0.751650     0.744007     0.736364     0.728721     0.721077
      0.713434     0.705791     0.698148     0.690505     0.682862     0.675219     0.667576     0.659933     0.652290     0.644646
      0.637003     0.629360     0.621717     0.614074     0.606431     0.598788     0.591145     0.583502     0.575858     0.568215
      0.560572     0.552929     0.545286     0.537643     0.530000     0.522357     0.514714     0.507071     0.499427     0.491784
      0.484141     0.476498     0.468855     0.461212     0.453569     0.445925     0.438282     0.430639     0.422996     0.415353
      0.407710     0.400067     0.392424     0.384780     0.377137     0.369494     0.361851     0.354208     0.346565     0.338922
      0.331278     0.323635     0.315992     0.308349     0.300706     0.293063     0.285420     0.277777     0.270133     0.262490
      0.254847     0.247204     0.239561     0.231918     0.224275     0.216631     0.208988     0.201345
 NY phased data points follow
  -9.60664E+01 -9.47750E+01 -9.67550E+01 -9.18444E+01 -9.19248E+01 -8.81572E+01 -9.06909E+01 -9.01448E+01 -9.03707E+01 -8.82182E+01
  -8.80825E+01 -8.33415E+01 -8.73283E+01 -8.32990E+01 -8.60240E+01 -8.50047E+01 -8.18757E+01 -7.88951E+01 -8.02180E+01 -8.06900E+01
  -7.68981E+01 -7.48622E+01 -7.56617E+01 -7.65524E+01 -7.55919E+01 -7.50464E+01 -7.32978E+01 -7.00789E+01 -7.02109E+01 -6.66133E+01
  -6.97707E+01 -6.85827E+01 -6.73003E+01 -6.55626E+01 -6.39177E+01 -6.37305E+01 -6.39825E+01 -6.57048E+01 -6.42925E+01 -5.94036E+01
  -6.41084E+01 -6.17571E+01 -6.25298E+01 -5.61975E+01 -5.52678E+01 -5.36629E+01 -5.69829E+01 -5.49947E+01 -5.22946E+01 -4.96357E+01
  -5.18782E+01 -4.56988E+01 -4.82336E+01 -4.67910E+01 -5.02277E+01 -4.43424E+01 -4.54144E+01 -4.56345E+01 -4.55245E+01 -4.43132E+01
  -4.23142E+01 -3.99347E+01 -4.38828E+01 -3.71469E+01 -3.87124E+01 -3.73951E+01 -3.76039E+01 -3.52401E+01 -3.37063E+01 -3.64375E+01
  -3.61527E+01 -3.21577E+01 -3.23416E+01 -2.99282E+01 -3.11435E+01 -3.06564E+01 -2.79425E+01 -2.77595E+01 -2.70906E+01 -2.22963E+01
  -2.68167E+01 -2.52573E+01 -2.47421E+01 -2.22096E+01 -2.46794E+01 -2.64359E+01 -2.52579E+01 -2.44611E+01 -2.64121E+01 -2.51298E+01
  -2.11840E+01 -2.27426E+01 -2.20092E+01 -2.06270E+01 -2.15223E+01 -2.09681E+01 -1.92352E+01 -1.65244E+01 -1.89861E+01 -1.96186E+01
  -1.76572E+01 -1.82479E+01 -1.96134E+01 -1.83121E+01 -1.82231E+01 -2.04984E+01 -2.04955E+01 -2.31903E+01 -2.26206E+01 -2.50821E+01
  -2.53594E+01 -2.51523E+01 -2.37357E+01 -2.49970E+01 -2.53185E+01 -2.18880E+01 -2.12352E+01 -2.32791E+01 -2.09797E+01 -2.20205E+01
  -2.21994E+01 -1.93951E+01 -2.09349E+01 -2.09826E+01 -1.55941E+01 -1.72859E+01 -1.57272E+01 -1.38898E+01 -1.47227E+01 -1.22955E+01
  -1.30997E+01 -1.34670E+01 -1.30480E+01 -9.79045E+00 -1.07898E+01 -7.89248E+00 -7.56998E+00 -6.98993E+00 -7.95318E+00 -5.48723E+00
  -5.76402E+00 -6.56506E+00 -5.68961E+00 -4.20546E+00 -1.66807E+00 -2.65919E+00 -5.01916E+00 -4.24146E+00 -7.52385E+00 -6.30041E+00
  -4.96459E+00 -2.99545E+00 -5.41233E+00 -4.45255E+00 -2.56212E+00 -7.95937E+00 -5.47099E+00 -3.74022E+00 -7.91226E+00 -7.29891E+00
  -6.97093E+00 -7.24305E+00 -1.05215E+01 -1.00028E+01 -1.18016E+01 -1.15370E+01 -1.28810E+01 -9.35643E+00 -1.35288E+01 -1.49026E+01
  -1.50279E+01 -1.53752E+01 -1.75768E+01 -1.39723E+01 -1.78504E+01 -1.98491E+01 -2.14765E+01 -2.04127E+01 -2.34518E+01 -2.11316E+01
  -2.27946E+01 -2.35001E+01 -2.04267E+01 -2.13931E+01 -1.96392E+01 -1.83096E+01 -1.82844E+01 -1.66988E+01 -1.99219E+01 -2.06273E+01
  -1.85461E+01 -2.03740E+01 -2.12204E+01 -2.03390E+01 -2.04465E+01 -1.99046E+01 -1.71705E+01 -1.93850E+01 -2.15767E+01 -1.61909E+01
  -1.72269E+01 -1.25348E+01 -1.36273E+01 -1.41784E+01 -1.18197E+01 -1.20087E+01 -8.90582E+00 -6.75271E+00 -6.02396E+00 -5.09248E+00
  -1.54472E+00 -2.59572E+00  3.02492E+00  4.13409E+00  6.44358E+00  1.07032E+01  1.18688E+01  1.45868E+01  1.41416E+01  1.91690E+01
   2.10370E+01  2.39565E+01  2.23114E+01  2.58098E+01  2.67230E+01  2.99612E+01  2.92932E+01  2.93513E+01  3.33558E+01  3.37554E+01
   3.29014E+01  3.84561E+01  3.52651E+01  3.85346E+01  3.67446E+01  3.57659E+01  3.73335E+01  3.29324E+01  3.69898E+01  3.47008E+01
   3.41261E+01  3.47612E+01  3.22939E+01  3.55339E+01  3.77829E+01  3.71343E+01  3.75711E+01  3.47759E+01  3.37451E+01  3.35251E+01
   3.18147E+01  3.06540E+01  3.14470E+01  2.79816E+01  2.81978E+01  2.57670E+01  2.77369E+01  2.28000E+01  2.22921E+01  2.15258E+01
   2.13580E+01  2.19025E+01  1.67748E+01  1.96235E+01  1.41489E+01  1.47653E+01  1.57584E+01  1.06017E+01  8.61795E+00  1.16152E+01
   7.85158E+00  5.49175E+00  4.70823E+00  1.97063E+00 -6.47680E-03 -1.42421E+00 -4.58813E+00 -6.24987E+00 -7.07843E+00 -1.01661E+01
  -6.71038E+00 -8.96415E+00 -1.02113E+01 -1.34132E+01 -1.20878E+01 -1.30381E+01 -1.10292E+01 -9.26130E+00 -9.27909E+00 -5.71230E+00
  -2.25978E+00  1.07037E+00  6.42163E+00  1.45371E+01  2.49049E+01  3.51074E+01  4.53094E+01  6.23978E+01  7.75691E+01  9.15434E+01
   1.07259E+02  1.20392E+02  1.34255E+02  1.47821E+02  1.57255E+02  1.67745E+02  1.73068E+02  1.80277E+02  1.82845E+02  1.82442E+02
   1.81535E+02  1.77600E+02  1.73190E+02  1.65442E+02  1.58224E+02  1.47618E+02  1.39911E+02  1.30622E+02  1.20891E+02  1.13792E+02
   1.07187E+02  9.60025E+01  8.75238E+01  8.09982E+01  7.45418E+01  6.43184E+01  5.94661E+01  5.67280E+01  4.93180E+01  4.48154E+01
   4.00259E+01  3.81604E+01  3.46587E+01  3.07219E+01  2.67468E+01  2.44802E+01  2.52048E+01  1.99625E+01  1.78843E+01  1.76761E+01
   1.22370E+01  1.31475E+01  1.03760E+01  6.74427E+00  5.25630E+00  6.48168E+00  7.06360E+00  5.35580E+00  5.94472E+00  2.64951E+00
   1.81879E+00  5.07412E+00  5.78714E+00  2.90325E+00  2.62655E+00  5.04122E+00  7.09646E+00  5.21604E+00  4.89709E+00  3.65757E+00
   2.70509E+00  2.77524E+00  3.96941E+00  4.33820E+00  2.44151E+00  5.14377E+00  1.68254E+00  4.45941E-01  2.00989E+00  3.83820E-01
   3.31075E+00  2.98341E-01 -3.37743E+00  2.09333E+00 -1.32070E-01  1.81459E+00 -2.56158E+00 -3.91879E+00 -5.03033E+00 -2.31828E+00
  -6.09509E+00 -7.32047E+00 -5.66428E+00 -5.87393E+00 -9.71915E+00 -1.08730E+01 -8.43450E+00 -8.75297E+00 -1.04884E+01 -1.10189E+01
  -1.21897E+01 -1.20552E+01 -1.31633E+01 -1.13355E+01 -1.39383E+01 -1.64680E+01 -1.44849E+01 -1.53815E+01 -1.53816E+01 -1.73914E+01
  -1.53131E+01 -1.59731E+01 -1.83136E+01 -1.93248E+01 -1.82106E+01 -1.97530E+01 -1.98845E+01 -1.90156E+01 -1.98218E+01 -2.06288E+01
  -2.20397E+01 -1.93682E+01 -1.89817E+01 -1.90763E+01 -2.36587E+01 -2.23927E+01 -2.10443E+01 -1.85741E+01 -2.03274E+01 -2.22680E+01
  -2.38267E+01 -2.23828E+01 -2.34098E+01 -2.42307E+01 -2.33557E+01 -2.69955E+01 -2.49449E+01 -2.46353E+01 -2.51074E+01 -2.25202E+01
  -2.45338E+01 -2.38839E+01 -2.43964E+01 -2.64865E+01 -2.43567E+01 -2.39669E+01 -2.85907E+01 -2.48669E+01 -2.62278E+01 -2.33769E+01
  -2.39829E+01 -2.64872E+01 -2.63141E+01 -2.75704E+01 -2.61538E+01 -2.39986E+01 -2.67183E+01 -2.54326E+01 -2.20523E+01 -2.51848E+01
  -2.84728E+01 -2.51114E+01 -2.63802E+01 -2.46970E+01 -2.67915E+01 -2.53649E+01 -2.31242E+01 -2.63641E+01 -2.36538E+01 -2.50462E+01
  -2.79207E+01 -2.69541E+01 -2.51097E+01 -2.40321E+01 -2.64720E+01 -2.38276E+01 -2.32711E+01 -2.60527E+01 -2.78846E+01 -2.41889E+01
  -2.50263E+01 -2.52093E+01 -2.43610E+01 -2.16560E+01 -2.40185E+01 -2.28303E+01 -2.46814E+01 -2.37234E+01 -2.68481E+01 -2.39865E+01
  -2.59641E+01 -2.28807E+01 -2.44135E+01 -2.28204E+01 -2.31209E+01 -2.35258E+01 -2.54551E+01 -2.21006E+01 -2.31595E+01 -2.51381E+01
  -2.45871E+01 -2.16960E+01 -2.23095E+01 -2.37975E+01 -2.28867E+01 -2.27903E+01 -2.18221E+01 -2.20856E+01
 NY points of the fit to the data follow
  -9.42326E+01 -9.20126E+01 -9.33678E+01 -9.13888E+01 -9.16187E+01 -8.93367E+01 -8.89064E+01 -8.64832E+01 -8.72502E+01 -8.61906E+01
  -8.74321E+01 -8.72884E+01 -8.84015E+01 -8.73458E+01 -8.69123E+01 -8.46818E+01 -8.39706E+01 -8.19108E+01 -8.12377E+01 -7.99076E+01
  -7.94837E+01 -7.74599E+01 -7.69923E+01 -7.49678E+01 -7.46031E+01 -7.30413E+01 -7.28928E+01 -7.16090E+01 -7.10636E+01 -6.94665E+01
  -6.86371E+01 -6.69601E+01 -6.55522E+01 -6.33489E+01 -6.21475E+01 -6.05471E+01 -5.98715E+01 -5.86821E+01 -5.80197E+01 -5.68491E+01
  -5.61431E+01 -5.50097E+01 -5.42783E+01 -5.33632E+01 -5.26150E+01 -5.15147E+01 -5.03646E+01 -4.87477E+01 -4.82811E+01 -4.72473E+01
  -4.73437E+01 -4.67983E+01 -4.74308E+01 -4.70462E+01 -4.72463E+01 -4.62646E+01 -4.63294E+01 -4.50273E+01 -4.51005E+01 -4.39246E+01
  -4.41791E+01 -4.27708E+01 -4.31909E+01 -4.17315E+01 -4.21974E+01 -4.07643E+01 -4.11531E+01 -3.94794E+01 -3.98063E+01 -3.82351E+01
  -3.85433E+01 -3.70873E+01 -3.72822E+01 -3.57124E+01 -3.59158E+01 -3.46667E+01 -3.50078E+01 -3.40578E+01 -3.44158E+01 -3.35573E+01
  -3.37045E+01 -3.25103E+01 -3.15015E+01 -3.06080E+01 -2.94761E+01 -2.89626E+01 -2.77481E+01 -2.75214E+01 -2.60811E+01 -2.61187E+01
  -2.44713E+01 -2.47498E+01 -2.29864E+01 -2.34261E+01 -2.15851E+01 -2.21505E+01 -2.02931E+01 -2.09060E+01 -1.91438E+01 -1.99206E+01
  -1.84366E+01 -1.94121E+01 -1.84075E+01 -1.93645E+01 -1.85598E+01 -1.93570E+01 -1.86295E+01 -1.90694E+01 -1.83568E+01 -1.86254E+01
  -1.79964E+01 -1.81532E+01 -1.77345E+01 -1.78030E+01 -1.74979E+01 -1.74443E+01 -1.71868E+01 -1.70354E+01 -1.68624E+01 -1.65964E+01
  -1.64536E+01 -1.58838E+01 -1.52907E+01 -1.47095E+01 -1.41881E+01 -1.37117E+01 -1.32636E+01 -1.28683E+01 -1.25000E+01 -1.21770E+01
  -1.18592E+01 -1.15769E+01 -1.13033E+01 -1.10577E+01 -1.08182E+01 -1.05981E+01 -1.03834E+01 -1.01806E+01 -9.98361E+00 -9.79248E+00
  -9.61019E+00 -9.43376E+00 -9.26816E+00 -9.11114E+00 -8.96872E+00 -8.83563E+00 -8.72288E+00 -8.62258E+00 -8.54938E+00 -8.49282E+00
  -8.46925E+00 -8.46392E+00 -8.50055E+00 -8.55863E+00 -8.65826E+00 -8.77962E+00 -8.94625E+00 -9.13180E+00 -9.36302E+00 -9.61072E+00
  -9.90360E+00 -1.02045E+01 -1.05379E+01 -1.08735E+01 -1.12300E+01 -1.15818E+01 -1.19397E+01 -1.22864E+01 -1.26368E+01 -1.29525E+01
  -1.32685E+01 -1.35703E+01 -1.38487E+01 -1.41185E+01 -1.43588E+01 -1.46766E+01 -1.52049E+01 -1.56053E+01 -1.65814E+01 -1.72178E+01
  -1.82099E+01 -1.88349E+01 -1.96034E+01 -1.94903E+01 -1.93842E+01 -1.87636E+01 -1.84790E+01 -1.72910E+01 -1.70634E+01 -1.60342E+01
  -1.63258E+01 -1.63835E+01 -1.87367E+01 -1.83514E+01 -1.98135E+01 -1.87426E+01 -1.95551E+01 -1.81607E+01 -1.88291E+01 -1.71588E+01
  -1.76285E+01 -1.56455E+01 -1.57788E+01 -1.37217E+01 -1.37118E+01 -1.16426E+01 -1.13416E+01 -9.22265E+00 -8.33341E+00 -5.83681E+00
  -4.14600E+00 -1.12645E+00  1.54897E+00  4.57473E+00  7.28519E+00  9.99593E+00  1.24529E+01  1.42392E+01  1.50793E+01  1.66780E+01
   1.76598E+01  1.97399E+01  2.14841E+01  2.45201E+01  2.61992E+01  2.80761E+01  2.92930E+01  3.03594E+01  3.12772E+01  3.17168E+01
   3.24894E+01  3.17249E+01  3.16867E+01  3.09198E+01  3.17533E+01  3.10030E+01  3.24681E+01  3.17428E+01  3.38184E+01  3.27216E+01
   3.50715E+01  3.33171E+01  3.57589E+01  3.34831E+01  3.59945E+01  3.37564E+01  3.63415E+01  3.42633E+01  3.69419E+01  3.48824E+01
   3.72595E+01  3.49472E+01  3.67229E+01  3.39452E+01  3.50737E+01  3.20313E+01  3.26230E+01  2.91513E+01  2.86669E+01  2.51753E+01
   2.43604E+01  2.12316E+01  2.03290E+01  1.78769E+01  1.66485E+01  1.39988E+01  1.24943E+01  9.73787E+00  7.93456E+00  5.24422E+00
   3.38167E+00  8.69952E-01 -8.62048E-01 -2.85475E+00 -4.30055E+00 -5.84856E+00 -7.02590E+00 -8.15589E+00 -9.12068E+00 -9.88937E+00
  -1.05286E+01 -1.09350E+01 -1.10767E+01 -1.08813E+01 -1.03112E+01 -9.28252E+00 -7.73079E+00 -5.55420E+00 -2.68468E+00  9.88658E-01
   5.53147E+00  1.10384E+01  1.75477E+01  2.51132E+01  3.37127E+01  4.33273E+01  5.38502E+01  6.51712E+01  7.70932E+01  8.94134E+01
   1.01857E+02  1.14164E+02  1.26032E+02  1.37200E+02  1.47410E+02  1.56490E+02  1.64339E+02  1.71068E+02  1.77156E+02  1.82478E+02
   1.82396E+02  1.82190E+02  1.76784E+02  1.72199E+02  1.62860E+02  1.54985E+02  1.42124E+02  1.35586E+02  1.23601E+02  1.16785E+02
   1.04961E+02  9.75090E+01  8.59986E+01  7.90532E+01  6.88290E+01  6.28517E+01  5.48080E+01  5.02866E+01  4.60201E+01  4.55561E+01
   4.12293E+01  3.82116E+01  3.43765E+01  2.97381E+01  2.69204E+01  2.11332E+01  1.85442E+01  1.69917E+01  1.60643E+01  1.45861E+01
   1.37932E+01  1.16039E+01  1.05129E+01  9.15413E+00  8.08406E+00  7.29829E+00  6.45853E+00  5.56617E+00  5.13979E+00  4.60039E+00
   3.90416E+00  4.12119E+00  3.93186E+00  4.96119E+00  5.01423E+00  6.10747E+00  5.49933E+00  6.31693E+00  5.91306E+00  5.78204E+00
   5.43603E+00  5.02123E+00  4.73710E+00  4.43501E+00  4.17214E+00  3.62524E+00  3.54067E+00  2.68145E+00  3.62422E+00  4.61547E+00
   4.49340E+00  3.95275E+00  3.14853E+00  1.36877E+00 -1.25038E-01 -3.57875E+00 -5.61241E+00 -6.81247E+00 -7.63355E+00 -8.21844E+00
  -8.66473E+00 -8.99779E+00 -9.26552E+00 -9.46799E+00 -9.63916E+00 -9.77121E+00 -9.89339E+00 -9.99454E+00 -1.01011E+01 -1.01998E+01
  -1.03153E+01 -1.04331E+01 -1.05771E+01 -1.07316E+01 -1.09188E+01 -1.11215E+01 -1.13610E+01 -1.16190E+01 -1.19160E+01 -1.22325E+01
  -1.25874E+01 -1.29603E+01 -1.33695E+01 -1.37939E+01 -1.42511E+01 -1.47193E+01 -1.52156E+01 -1.57175E+01 -1.62422E+01 -1.67673E+01
  -1.73096E+01 -1.78467E+01 -1.83953E+01 -1.89331E+01 -1.94776E+01 -2.00066E+01 -2.05377E+01 -2.10489E+01 -2.15581E+01 -2.20441E+01
  -2.25250E+01 -2.29800E+01 -2.34275E+01 -2.38469E+01 -2.42572E+01 -2.46379E+01 -2.50086E+01 -2.53491E+01 -2.56790E+01 -2.59782E+01
  -2.62667E+01 -2.65249E+01 -2.67728E+01 -2.69908E+01 -2.71990E+01 -2.73779E+01 -2.75479E+01 -2.76896E+01 -2.78234E+01 -2.79298E+01
  -2.80292E+01 -2.81024E+01 -2.81698E+01 -2.82120E+01 -2.82496E+01 -2.82631E+01 -2.82729E+01 -2.82598E+01 -2.82443E+01 -2.82068E+01
  -2.81680E+01 -2.81082E+01 -2.80480E+01 -2.79678E+01 -2.78882E+01 -2.77897E+01 -2.76926E+01 -2.75773E+01 -2.74643E+01 -2.73340E+01
  -2.72069E+01 -2.70631E+01 -2.69233E+01 -2.67675E+01 -2.66164E+01 -2.64501E+01 -2.62891E+01 -2.61136E+01 -2.59438E+01 -2.57601E+01
  -2.55828E+01 -2.53922E+01 -2.52086E+01 -2.50120E+01 -2.48229E+01 -2.46214E+01 -2.44279E+01 -2.42225E+01 -2.40254E+01 -2.38167E+01
  -2.36169E+01 -2.34059E+01 -2.32041E+01 -2.29915E+01 -2.27885E+01 -2.25748E+01 -2.23711E+01 -2.21571E+01 -2.19532E+01 -2.17393E+01
  -2.15358E+01 -2.13223E+01 -2.11193E+01 -2.09064E+01 -2.07041E+01 -2.04916E+01 -2.02893E+01 -2.00764E+01
 NY background values follow
    -1.102E+02   -1.093E+02   -1.085E+02   -1.077E+02   -1.069E+02   -1.060E+02   -1.052E+02   -1.044E+02   -1.036E+02   -1.028E+02
    -1.019E+02   -1.011E+02   -1.003E+02   -9.950E+01   -9.869E+01   -9.788E+01   -9.708E+01   -9.628E+01   -9.547E+01   -9.468E+01
    -9.388E+01   -9.308E+01   -9.229E+01   -9.150E+01   -9.071E+01   -8.993E+01   -8.914E+01   -8.836E+01   -8.759E+01   -8.681E+01
    -8.604E+01   -8.527E+01   -8.450E+01   -8.374E+01   -8.298E+01   -8.222E+01   -8.146E+01   -8.071E+01   -7.996E+01   -7.922E+01
    -7.847E+01   -7.774E+01   -7.700E+01   -7.627E+01   -7.554E+01   -7.481E+01   -7.409E+01   -7.337E+01   -7.266E+01   -7.195E+01
    -7.124E+01   -7.054E+01   -6.984E+01   -6.915E+01   -6.846E+01   -6.777E+01   -6.709E+01   -6.641E+01   -6.574E+01   -6.507E+01
    -6.440E+01   -6.374E+01   -6.308E+01   -6.243E+01   -6.178E+01   -6.114E+01   -6.050E+01   -5.987E+01   -5.924E+01   -5.862E+01
    -5.800E+01   -5.739E+01   -5.678E+01   -5.618E+01   -5.558E+01   -5.499E+01   -5.440E+01   -5.382E+01   -5.324E+01   -5.267E+01
    -5.210E+01   -5.154E+01   -5.099E+01   -5.044E+01   -4.989E+01   -4.936E+01   -4.882E+01   -4.830E+01   -4.778E+01   -4.727E+01
    -4.676E+01   -4.626E+01   -4.576E+01   -4.527E+01   -4.479E+01   -4.431E+01   -4.384E+01   -4.338E+01   -4.292E+01   -4.247E+01
    -4.203E+01   -4.159E+01   -4.116E+01   -4.073E+01   -4.032E+01   -3.991E+01   -3.950E+01   -3.911E+01   -3.872E+01   -3.834E+01
    -3.796E+01   -3.760E+01   -3.724E+01   -3.688E+01   -3.654E+01   -3.620E+01   -3.587E+01   -3.555E+01   -3.523E+01   -3.492E+01
    -3.462E+01   -3.433E+01   -3.405E+01   -3.377E+01   -3.350E+01   -3.324E+01   -3.299E+01   -3.275E+01   -3.251E+01   -3.228E+01
    -3.206E+01   -3.185E+01   -3.164E+01   -3.144E+01   -3.125E+01   -3.107E+01   -3.089E+01   -3.073E+01   -3.056E+01   -3.041E+01
    -3.026E+01   -3.012E+01   -2.999E+01   -2.987E+01   -2.975E+01   -2.963E+01   -2.953E+01   -2.943E+01   -2.934E+01   -2.925E+01
    -2.917E+01   -2.910E+01   -2.903E+01   -2.897E+01   -2.892E+01   -2.887E+01   -2.883E+01   -2.879E+01   -2.876E+01   -2.874E+01
    -2.872E+01   -2.871E+01   -2.870E+01   -2.870E+01   -2.871E+01   -2.872E+01   -2.873E+01   -2.875E+01   -2.878E+01   -2.881E+01
    -2.885E+01   -2.889E+01   -2.894E+01   -2.899E+01   -2.905E+01   -2.911E+01   -2.918E+01   -2.925E+01   -2.933E+01   -2.941E+01
    -2.949E+01   -2.958E+01   -2.968E+01   -2.978E+01   -2.988E+01   -2.999E+01   -3.010E+01   -3.022E+01   -3.034E+01   -3.046E+01
    -3.059E+01   -3.072E+01   -3.086E+01   -3.100E+01   -3.114E+01   -3.129E+01   -3.144E+01   -3.159E+01   -3.175E+01   -3.191E+01
    -3.208E+01   -3.224E+01   -3.241E+01   -3.259E+01   -3.276E+01   -3.294E+01   -3.313E+01   -3.331E+01   -3.350E+01   -3.369E+01
    -3.389E+01   -3.408E+01   -3.428E+01   -3.448E+01   -3.469E+01   -3.489E+01   -3.510E+01   -3.531E+01   -3.553E+01   -3.574E+01
    -3.596E+01   -3.618E+01   -3.640E+01   -3.662E+01   -3.685E+01   -3.707E+01   -3.730E+01   -3.753E+01   -3.776E+01   -3.800E+01
    -3.823E+01   -3.847E+01   -3.870E+01   -3.894E+01   -3.918E+01   -3.942E+01   -3.966E+01   -3.991E+01   -4.015E+01   -4.039E+01
    -4.064E+01   -4.088E+01   -4.113E+01   -4.138E+01   -4.162E+01   -4.187E+01   -4.212E+01   -4.237E+01   -4.262E+01   -4.287E+01
    -4.312E+01   -4.337E+01   -4.362E+01   -4.387E+01   -4.412E+01   -4.436E+01   -4.461E+01   -4.486E+01   -4.511E+01   -4.536E+01
    -4.561E+01   -4.586E+01   -4.610E+01   -4.635E+01   -4.660E+01   -4.684E+01   -4.709E+01   -4.733E+01   -4.758E+01   -4.782E+01
    -4.806E+01   -4.830E+01   -4.854E+01   -4.878E+01   -4.902E+01   -4.926E+01   -4.949E+01   -4.973E+01   -4.996E+01   -5.019E+01
    -5.042E+01   -5.065E+01   -5.088E+01   -5.111E+01   -5.133E+01   -5.156E+01   -5.178E+01   -5.200E+01   -5.222E+01   -5.243E+01
    -5.265E+01   -5.286E+01   -5.307E+01   -5.328E+01   -5.349E+01   -5.369E+01   -5.389E+01   -5.409E+01   -5.429E+01   -5.449E+01
    -5.468E+01   -5.487E+01   -5.506E+01   -5.525E+01   -5.543E+01   -5.561E+01   -5.579E+01   -5.597E+01   -5.614E+01   -5.631E+01
    -5.648E+01   -5.664E+01   -5.680E+01   -5.696E+01   -5.712E+01   -5.727E+01   -5.742E+01   -5.756E+01   -5.771E+01   -5.785E+01
    -5.798E+01   -5.811E+01   -5.824E+01   -5.837E+01   -5.849E+01   -5.861E+01   -5.873E+01   -5.884E+01   -5.894E+01   -5.905E+01
    -5.915E+01   -5.924E+01   -5.934E+01   -5.942E+01   -5.951E+01   -5.959E+01   -5.966E+01   -5.974E+01   -5.980E+01   -5.987E+01
    -5.992E+01   -5.998E+01   -6.003E+01   -6.007E+01   -6.011E+01   -6.015E+01   -6.018E+01   -6.021E+01   -6.023E+01   -6.025E+01
    -6.026E+01   -6.027E+01   -6.027E+01   -6.027E+01   -6.026E+01   -6.025E+01   -6.023E+01   -6.021E+01   -6.018E+01   -6.015E+01
    -6.011E+01   -6.006E+01   -6.001E+01   -5.996E+01   -5.990E+01   -5.983E+01   -5.976E+01   -5.968E+01   -5.960E+01   -5.951E+01
    -5.941E+01   -5.931E+01   -5.921E+01   -5.909E+01   -5.897E+01   -5.885E+01   -5.872E+01   -5.858E+01   -5.844E+01   -5.829E+01
    -5.814E+01   -5.798E+01   -5.782E+01   -5.765E+01   -5.747E+01   -5.729E+01   -5.711E+01   -5.692E+01   -5.672E+01   -5.652E+01
    -5.632E+01   -5.611E+01   -5.589E+01   -5.568E+01   -5.545E+01   -5.523E+01   -5.499E+01   -5.476E+01   -5.452E+01   -5.428E+01
    -5.403E+01   -5.378E+01   -5.352E+01   -5.326E+01   -5.300E+01   -5.273E+01   -5.246E+01   -5.219E+01   -5.191E+01   -5.163E+01
    -5.135E+01   -5.106E+01   -5.077E+01   -5.048E+01   -5.019E+01   -4.989E+01   -4.959E+01   -4.928E+01   -4.898E+01   -4.867E+01
    -4.836E+01   -4.805E+01   -4.773E+01   -4.741E+01   -4.710E+01   -4.677E+01   -4.645E+01   -4.613E+01   -4.580E+01   -4.547E+01
    -4.514E+01   -4.481E+01   -4.447E+01   -4.414E+01   -4.380E+01   -4.347E+01   -4.313E+01   -4.279E+01   -4.245E+01   -4.211E+01
    -4.177E+01   -4.142E+01   -4.108E+01   -4.074E+01   -4.039E+01   -4.005E+01   -3.970E+01   -3.936E+01   -3.901E+01   -3.867E+01
    -3.832E+01   -3.798E+01   -3.763E+01   -3.729E+01   -3.694E+01   -3.660E+01   -3.625E+01   -3.591E+01   -3.557E+01   -3.522E+01
    -3.488E+01   -3.454E+01   -3.420E+01   -3.386E+01   -3.352E+01   -3.319E+01   -3.285E+01   -3.252E+01   -3.219E+01   -3.186E+01
    -3.153E+01   -3.120E+01   -3.087E+01   -3.055E+01   -3.023E+01   -2.991E+01   -2.959E+01   -2.927E+01   -2.896E+01   -2.864E+01
    -2.834E+01   -2.803E+01   -2.772E+01   -2.742E+01   -2.712E+01   -2.683E+01   -2.653E+01   -2.624E+01   -2.595E+01   -2.567E+01
    -2.539E+01   -2.511E+01   -2.483E+01   -2.456E+01   -2.429E+01   -2.403E+01   -2.377E+01   -2.351E+01
 Ala      Conc. = 1.04E+04
