 LCModel (Version 6.3-1L) Copyright: S.W. Provencher.          Ref.: Magn. Reson. Med. 30:672-679 (1993).                
 Slice#2 Row#8 Col#11  PD_24_press_2_raw_act
 36 lines in following concentration table = NCONC+1
    Conc.  %SD /Cr+PCr  Metabolite                                         
    0.000 999%   0.000 Ala                                                 
    0.000 999%   0.000 Asp                                                 
  272.205  67%   0.404 Cr                                                  
  402.032  47%   0.596 PCr                                                 
    0.000 999%   0.000 GABA                                                
   46.046 245% 6.8E-02 Glc                                                 
    0.000 999%   0.000 Gln                                                 
 1.01E+03  20%   1.493 Glu                                                 
    0.000 999%   0.000 GPC                                                 
   99.207  17%   0.147 PCh                                                 
   11.404 503% 1.7E-02 GSH                                                 
  233.462  81%   0.346 Ins                                                 
   31.020 297% 4.6E-02 Lac                                                 
  174.033  57%   0.258 NAA                                                 
 1.45E+03   9%   2.155 NAAG                                                
    0.000 999%   0.000 Scyllo                                              
    0.000 999%   0.000 Tau                                                 
  418.734  22%   0.621 -CrCH2                                              
   99.207  17%   0.147 GPC+PCh                                             
 1.63E+03   9%   2.413 NAA+NAAG                                            
  674.237   9%   1.000 Cr+PCr                                              
 1.01E+03  20%   1.493 Glu+Gln                                             
 4.67E+03  22%   6.925 Lip13a                                              
    0.000 999%   0.000 Lip13b                                              
    0.000 999%   0.000 Lip09                                               
 1.96E+03  16%   2.909 MM09                                                
 5.35E+03  11%   7.929+Lip20                                               
 3.12E+03  20%   4.634 MM20                                                
  654.093  43%   0.970 MM12                                                
 4.34E+03   8%   6.436 MM14                                                
    0.000 999%   0.000 MM17                                                
 4.67E+03  22%   6.925 Lip13a+Lip13b                                       
 9.66E+03   8%  14.331 MM14+Lip13a+Lip13b+MM12                             
 1.96E+03  16%   2.909 MM09+Lip09                                          
 8.47E+03   5%  12.563 MM20+Lip20                                          
   6 lines in following misc. output table
  FWHM = 0.061 ppm    S/N =  13                                            
  Data shift = 0.000 ppm                                                   
  Ph:-167 deg      76.2 deg/ppm                                            
  alphaB,S = 4.9E-01,   4.8E+01                                            
   14 spline knots.   Ns = 8(1)                                            
  (12) 2 infls.   (10) 2 extrs.                                            
  498 points on ppm-axis = NY
      4.000000     3.992357     3.984714     3.977070     3.969427     3.961784     3.954141     3.946497     3.938854     3.931211
      3.923568     3.915925     3.908281     3.900638     3.892995     3.885352     3.877708     3.870065     3.862422     3.854779
      3.847136     3.839492     3.831849     3.824206     3.816563     3.808919     3.801276     3.793633     3.785990     3.778347
      3.770703     3.763060     3.755417     3.747774     3.740130     3.732487     3.724844     3.717201     3.709558     3.701914
      3.694271     3.686628     3.678985     3.671341     3.663698     3.656055     3.648412     3.640769     3.633125     3.625482
      3.617839     3.610196     3.602552     3.594909     3.587266     3.579623     3.571980     3.564336     3.556693     3.549050
      3.541407     3.533763     3.526120     3.518477     3.510834     3.503191     3.495547     3.487904     3.480261     3.472618
      3.464974     3.457331     3.449688     3.442045     3.434402     3.426758     3.419115     3.411472     3.403829     3.396185
      3.388542     3.380899     3.373256     3.365613     3.357969     3.350326     3.342683     3.335040     3.327396     3.319753
      3.312110     3.304467     3.296824     3.289180     3.281537     3.273894     3.266251     3.258607     3.250964     3.243321
      3.235678     3.228034     3.220391     3.212748     3.205105     3.197462     3.189818     3.182175     3.174532     3.166889
      3.159245     3.151602     3.143959     3.136316     3.128673     3.121029     3.113386     3.105743     3.098100     3.090456
      3.082813     3.075170     3.067527     3.059884     3.052240     3.044597     3.036954     3.029311     3.021667     3.014024
      3.006381     2.998738     2.991095     2.983451     2.975808     2.968165     2.960522     2.952878     2.945235     2.937592
      2.929949     2.922306     2.914662     2.907019     2.899376     2.891733     2.884089     2.876446     2.868803     2.861160
      2.853517     2.845873     2.838230     2.830587     2.822944     2.815300     2.807657     2.800014     2.792371     2.784728
      2.777084     2.769441     2.761798     2.754155     2.746511     2.738868     2.731225     2.723582     2.715939     2.708295
      2.700652     2.693009     2.685366     2.677722     2.670079     2.662436     2.654793     2.647150     2.639506     2.631863
      2.624220     2.616577     2.608933     2.601290     2.593647     2.586004     2.578361     2.570717     2.563074     2.555431
      2.547788     2.540144     2.532501     2.524858     2.517215     2.509572     2.501928     2.494285     2.486642     2.478999
      2.471355     2.463712     2.456069     2.448426     2.440783     2.433139     2.425496     2.417853     2.410210     2.402566
      2.394923     2.387280     2.379637     2.371994     2.364350     2.356707     2.349064     2.341421     2.333777     2.326134
      2.318491     2.310848     2.303205     2.295561     2.287918     2.280275     2.272632     2.264988     2.257345     2.249702
      2.242059     2.234416     2.226772     2.219129     2.211486     2.203843     2.196199     2.188556     2.180913     2.173270
      2.165627     2.157983     2.150340     2.142697     2.135054     2.127410     2.119767     2.112124     2.104481     2.096838
      2.089194     2.081551     2.073908     2.066265     2.058621     2.050978     2.043335     2.035692     2.028049     2.020405
      2.012762     2.005119     1.997476     1.989833     1.982190     1.974546     1.966903     1.959260     1.951617     1.943974
      1.936331     1.928688     1.921045     1.913402     1.905759     1.898115     1.890472     1.882829     1.875186     1.867543
      1.859900     1.852257     1.844614     1.836971     1.829327     1.821684     1.814041     1.806398     1.798755     1.791112
      1.783469     1.775826     1.768183     1.760540     1.752896     1.745253     1.737610     1.729967     1.722324     1.714681
      1.707038     1.699395     1.691752     1.684108     1.676465     1.668822     1.661179     1.653536     1.645893     1.638250
      1.630607     1.622964     1.615321     1.607677     1.600034     1.592391     1.584748     1.577105     1.569462     1.561819
      1.554176     1.546533     1.538890     1.531246     1.523603     1.515960     1.508317     1.500674     1.493031     1.485388
      1.477745     1.470102     1.462458     1.454815     1.447172     1.439529     1.431886     1.424243     1.416600     1.408957
      1.401314     1.393671     1.386027     1.378384     1.370741     1.363098     1.355455     1.347812     1.340169     1.332526
      1.324883     1.317240     1.309596     1.301953     1.294310     1.286667     1.279024     1.271381     1.263738     1.256095
      1.248452     1.240808     1.233165     1.225522     1.217879     1.210236     1.202593     1.194950     1.187307     1.179664
      1.172021     1.164377     1.156734     1.149091     1.141448     1.133805     1.126162     1.118519     1.110876     1.103233
      1.095590     1.087946     1.080303     1.072660     1.065017     1.057374     1.049731     1.042088     1.034445     1.026802
      1.019158     1.011515     1.003872     0.996229     0.988586     0.980943     0.973300     0.965657     0.958014     0.950371
      0.942727     0.935084     0.927441     0.919798     0.912155     0.904512     0.896869     0.889226     0.881583     0.873940
      0.866296     0.858653     0.851010     0.843367     0.835724     0.828081     0.820438     0.812795     0.805152     0.797508
      0.789865     0.782222     0.774579     0.766936     0.759293     0.751650     0.744007     0.736364     0.728721     0.721077
      0.713434     0.705791     0.698148     0.690505     0.682862     0.675219     0.667576     0.659933     0.652290     0.644646
      0.637003     0.629360     0.621717     0.614074     0.606431     0.598788     0.591145     0.583502     0.575858     0.568215
      0.560572     0.552929     0.545286     0.537643     0.530000     0.522357     0.514714     0.507071     0.499427     0.491784
      0.484141     0.476498     0.468855     0.461212     0.453569     0.445925     0.438282     0.430639     0.422996     0.415353
      0.407710     0.400067     0.392424     0.384780     0.377137     0.369494     0.361851     0.354208     0.346565     0.338922
      0.331278     0.323635     0.315992     0.308349     0.300706     0.293063     0.285420     0.277777     0.270133     0.262490
      0.254847     0.247204     0.239561     0.231918     0.224275     0.216631     0.208988     0.201345
 NY phased data points follow
  -4.47979E+00 -2.27461E+00 -5.11612E+00 -3.65766E+00 -6.57934E+00 -3.43385E+00 -3.20869E+00 -5.90015E+00 -4.34767E+00 -6.06307E+00
  -1.13522E+01 -3.42811E+00 -1.97928E+00 -2.02167E+00 -6.10253E+00  2.78987E+00 -1.33285E-01 -4.62091E+00 -4.93430E+00 -3.04177E+00
  -5.23967E+00 -7.68931E+00 -6.05194E+00 -1.13055E+01 -9.37848E+00 -9.19369E+00 -8.45773E+00 -3.92356E+00 -9.01929E+00 -8.30672E+00
  -8.35255E+00 -8.54162E+00 -9.88500E+00 -4.92580E+00 -9.08674E+00 -9.32551E+00 -5.93593E+00 -5.42852E+00 -4.56188E+00 -9.29982E+00
  -7.37506E+00 -9.56818E+00 -6.53545E+00 -4.42229E+00 -8.08398E+00 -5.15079E+00 -8.22163E+00 -8.70698E+00 -9.39426E+00 -7.57875E+00
  -8.68160E+00 -4.64836E+00 -6.86199E+00 -3.01271E+00 -7.80125E+00 -3.83537E+00 -7.97039E+00 -2.46232E+00 -6.91611E+00 -4.37540E+00
  -7.83153E+00 -3.31191E+00 -3.38002E+00 -5.96038E+00 -4.03678E+00 -6.28281E+00 -7.10347E+00 -6.18710E+00 -5.24613E+00 -7.10234E+00
  -9.17504E+00 -4.94369E+00 -5.50533E+00 -7.53333E+00 -7.53947E+00 -4.01278E+00 -5.96885E+00 -7.29917E+00 -9.57324E+00 -9.22436E+00
  -6.59906E+00 -8.15070E+00 -1.10540E+01 -9.67454E+00 -1.08617E+01 -7.30012E+00 -9.96077E+00 -7.61027E+00 -1.14635E+01 -1.11003E+01
  -8.48648E+00 -8.36185E+00 -9.58027E+00 -1.05040E+01 -1.07361E+01 -1.05711E+01 -1.11964E+01 -1.16593E+01 -1.81571E+01 -1.35886E+01
  -1.40064E+01 -4.25855E+00 -6.62877E+00 -4.22879E+00 -1.18218E+00  3.82458E+00  2.84108E+00  4.58497E+00 -1.16340E+00  5.62791E-01
   8.86922E-01  1.65889E+00 -1.74466E+00 -3.00363E-01 -6.68698E+00 -6.43940E+00 -1.13015E+01 -6.42429E+00 -1.03058E+01 -9.41492E+00
  -5.73050E+00 -1.44405E+01 -9.44313E+00 -7.08559E+00 -1.02176E+01 -4.39101E+00  4.19436E+00  8.80275E+00  1.38531E+01  2.07572E+01
   1.89172E+01  2.74828E+01  1.62284E+01  1.41606E+01  1.12168E+01  9.89573E+00  4.59974E+00  6.29590E+00  7.11774E+00  7.36476E+00
   6.40504E+00  4.38130E+00  8.55988E+00  5.44015E+00  8.93934E+00  7.15512E+00  7.49553E+00  1.49613E+00  5.16887E+00  6.34755E+00
   2.31890E+00  5.07346E-01  4.51164E-02  4.15902E+00  1.61338E+00  2.12177E+00  3.32842E+00  6.41261E+00  2.09938E+00  1.16760E+00
   5.61102E+00  3.53261E+00  2.17233E+00  3.04699E+00  2.99966E+00  3.56163E+00  3.41251E+00  3.85735E+00 -2.87178E+00  1.12043E+00
   6.62943E-01 -1.33453E+00 -8.42414E+00 -4.20077E+00 -6.16976E+00 -9.36984E+00 -1.03974E+01 -8.81226E+00 -1.10545E+01 -7.87438E+00
  -1.07659E+01 -8.93152E+00 -9.03992E+00 -1.05961E+01 -1.12312E+01 -1.18693E+01 -7.72430E+00 -1.31041E+01 -8.87962E+00 -1.17663E+01
  -1.33532E+01 -8.17487E+00 -7.32715E+00 -8.07694E+00 -1.26402E+01 -6.48995E+00 -6.40315E+00 -5.82550E+00 -1.27678E+01 -1.24903E+01
  -1.54896E+01 -9.65419E+00 -7.65993E+00 -5.81494E+00 -6.28485E+00 -4.22717E+00 -4.01521E+00 -4.14314E+00 -9.54922E+00 -6.23279E+00
  -3.59543E+00 -5.09640E+00 -2.89698E+00  3.15697E+00  2.48095E+00  5.90210E+00  3.14933E+00  6.05275E+00  7.02167E+00  2.73488E+00
  -8.75892E-01 -2.52735E+00 -3.60450E+00 -4.45761E+00 -7.77965E-01  2.61468E+00 -6.96055E-01  2.68717E+00  3.83892E+00  4.60780E+00
   6.89034E+00  6.08208E+00  5.51648E+00  5.03799E+00  5.01505E+00  5.07812E+00  8.02250E+00  1.11797E+01  6.68625E+00  6.04696E+00
   7.84987E+00  8.50425E+00  7.91982E+00  6.00041E+00  4.69683E+00  6.84363E+00  9.43261E+00  1.24651E+01  1.14100E+01  1.55291E+01
   2.05020E+01  2.22775E+01  2.50547E+01  2.93997E+01  3.68482E+01  4.15607E+01  5.24100E+01  6.30577E+01  7.11801E+01  7.46426E+01
   7.88607E+01  7.37199E+01  6.98470E+01  5.56576E+01  3.87870E+01  2.35181E+01  1.50092E+01  1.13164E+01  4.31373E+00  2.13344E+00
   4.44447E-01 -8.69272E+00 -4.55147E+00 -4.42567E+00 -8.45378E+00 -5.91318E+00 -7.58278E+00 -1.23034E+01 -1.01931E+01 -1.38601E+01
  -1.13303E+01 -1.28512E+01 -1.40985E+01 -1.44296E+01 -1.58640E+01 -1.08292E+01 -1.11617E+01 -1.74348E+01 -1.80356E+01 -1.47422E+01
  -1.37530E+01 -1.31018E+01 -1.38380E+01 -1.39146E+01 -1.73503E+01 -1.35538E+01 -1.68285E+01 -1.80337E+01 -1.71315E+01 -1.80023E+01
  -1.48002E+01 -1.95964E+01 -1.65869E+01 -1.62580E+01 -1.88644E+01 -1.58207E+01 -2.12044E+01 -1.97537E+01 -2.25649E+01 -1.78769E+01
  -1.97029E+01 -1.93553E+01 -1.94372E+01 -1.75341E+01 -2.06387E+01 -1.55181E+01 -1.67663E+01 -1.86177E+01 -1.70090E+01 -1.46369E+01
  -1.05071E+01 -1.37752E+01 -1.19054E+01 -1.11508E+01 -9.97685E+00 -6.47401E+00 -3.03154E+00 -4.76415E+00 -2.06423E+00  1.85982E+00
   1.96600E+00  8.26280E+00  3.20654E+00  1.17493E+01  1.51380E+01  1.61058E+01  2.40790E+01  2.28165E+01  1.89691E+01  2.41454E+01
   2.06966E+01  2.53401E+01  2.74614E+01  2.98512E+01  2.55390E+01  2.64993E+01  2.56385E+01  2.80678E+01  2.46241E+01  2.32303E+01
   2.11108E+01  2.29389E+01  1.85801E+01  1.87196E+01  1.64465E+01  1.61366E+01  1.71930E+01  1.88434E+01  1.35799E+01  9.97510E+00
   1.31046E+01  1.03833E+01  1.09262E+01  1.13761E+01  1.12023E+01  1.09981E+01  9.41656E+00  6.17552E+00  1.19124E+01  3.62725E+00
   7.48059E+00  4.44507E+00  5.82957E+00  4.43368E+00  6.36458E+00  3.47034E+00  4.79815E+00  1.89128E+00  2.32624E+00  3.22389E+00
   1.72819E+00  4.26013E+00  3.80812E+00  1.64297E+00  3.41485E+00  5.75650E+00  3.58425E+00  5.56416E+00  5.61726E+00  5.76871E+00
   5.22020E+00  7.02483E+00  8.64795E+00  8.57899E+00  4.83929E+00  4.28873E+00  5.87782E+00  7.26433E+00  7.06602E+00  8.12480E+00
   3.42803E+00  3.74437E+00  4.94359E+00  2.24495E+00  2.73793E+00  1.53931E+00  9.59434E-02 -4.96568E+00 -4.87518E+00 -1.46692E+00
  -6.28941E+00 -6.33054E+00 -5.50525E+00 -1.85197E+00 -5.07622E+00 -2.17361E+00 -4.70490E+00 -7.50108E+00 -3.59404E+00 -1.05096E+01
  -3.75570E+00 -7.68510E+00 -5.75081E+00 -6.80637E+00 -4.60570E+00 -5.32500E+00 -3.69815E+00 -3.13068E+00 -2.63306E+00 -4.24460E+00
  -4.13574E+00 -3.54486E+00 -2.51867E+00 -3.77795E+00 -6.99794E+00 -3.91257E+00 -2.49367E+00 -3.35541E+00 -7.34030E+00 -8.78720E-01
  -2.42329E+00 -1.05880E+00 -8.49371E-01 -2.51653E+00 -1.11340E+00 -4.09550E+00 -3.28027E+00 -3.76151E+00 -1.47257E+00 -4.67911E+00
  -1.36277E+00 -2.28978E+00 -3.85892E-01 -1.30517E+00 -1.49406E+00 -3.21208E+00 -2.12452E+00 -1.05697E+00  4.85492E-01 -3.48097E+00
  -1.43167E+00 -1.25724E+00 -3.26314E+00 -3.32354E+00  9.87077E-01 -3.10764E+00 -5.16193E+00 -7.76374E-01 -1.96506E+00 -4.15652E+00
  -1.39288E+00 -2.91314E+00  4.29251E-01 -1.81002E-01 -2.52441E+00 -2.68534E+00 -7.36803E+00 -3.54669E+00 -6.50631E+00 -7.04780E+00
  -4.51609E+00 -2.45626E+00 -3.99520E+00 -3.69304E+00 -8.53022E-01 -4.54290E+00  2.53615E+00 -2.77042E+00  2.41949E+00 -5.29324E+00
  -2.71847E+00 -3.14083E+00 -3.53847E+00 -5.74935E+00 -3.66710E+00 -1.20499E+00 -3.56442E+00 -3.84912E+00
 NY points of the fit to the data follow
  -5.64380E+00 -5.97675E+00 -6.26974E+00 -6.70228E+00 -7.35237E+00 -7.70275E+00 -7.59842E+00 -7.27661E+00 -6.82010E+00 -6.20456E+00
  -5.37506E+00 -4.33802E+00 -3.16742E+00 -2.13683E+00 -1.45181E+00 -1.22555E+00 -1.43510E+00 -2.04635E+00 -2.86261E+00 -4.01023E+00
  -5.38140E+00 -6.36490E+00 -6.62584E+00 -6.71160E+00 -6.85549E+00 -7.03672E+00 -7.17033E+00 -7.26984E+00 -7.33428E+00 -7.27694E+00
  -7.12532E+00 -6.89885E+00 -6.52759E+00 -6.04410E+00 -5.52902E+00 -5.08742E+00 -5.00047E+00 -5.40269E+00 -6.12713E+00 -7.01943E+00
  -7.88095E+00 -8.35683E+00 -8.27256E+00 -7.73693E+00 -7.08186E+00 -6.51401E+00 -6.16036E+00 -6.04320E+00 -5.97924E+00 -5.84974E+00
  -5.76945E+00 -5.81520E+00 -6.00769E+00 -6.31631E+00 -6.70799E+00 -7.15100E+00 -7.58310E+00 -7.83447E+00 -7.79878E+00 -7.58242E+00
  -7.33671E+00 -7.14146E+00 -7.02300E+00 -6.96974E+00 -7.00168E+00 -7.09676E+00 -7.22029E+00 -7.36669E+00 -7.53074E+00 -7.65406E+00
  -7.67938E+00 -7.60902E+00 -7.46532E+00 -7.29578E+00 -7.14387E+00 -7.03672E+00 -6.98233E+00 -6.96688E+00 -6.97522E+00 -6.98989E+00
  -7.01818E+00 -7.06562E+00 -7.12008E+00 -7.18987E+00 -7.28416E+00 -7.40212E+00 -7.54665E+00 -7.71355E+00 -7.89465E+00 -8.06531E+00
  -8.18487E+00 -8.24082E+00 -8.23741E+00 -8.18396E+00 -8.10362E+00 -8.16964E+00 -8.72790E+00 -9.10090E+00 -8.87628E+00 -8.31274E+00
  -7.56706E+00 -6.53559E+00 -5.11416E+00 -3.28651E+00 -1.14372E+00  9.58603E-01  2.57704E+00  3.48416E+00  3.59141E+00  2.91310E+00
   1.53075E+00 -5.78378E-01 -3.17692E+00 -5.37778E+00 -6.21800E+00 -6.27044E+00 -6.19286E+00 -6.14620E+00 -6.40720E+00 -7.65327E+00
  -9.02906E+00 -9.07074E+00 -7.97280E+00 -6.24567E+00 -3.87652E+00 -6.46869E-01  3.49958E+00  8.41255E+00  1.34514E+01  1.76069E+01
   2.02002E+01  2.10149E+01  2.00528E+01  1.74692E+01  1.32740E+01  7.75500E+00  2.46465E+00 -3.25034E-01 -7.53549E-01 -4.90602E-01
  -5.71666E-02  4.53046E-01  1.01217E+00  1.60774E+00  2.22473E+00  2.85216E+00  3.53033E+00  4.20720E+00  4.74941E+00  5.14522E+00
   5.40054E+00  5.51338E+00  5.60255E+00  5.65095E+00  5.56358E+00  5.33718E+00  5.05290E+00  4.76384E+00  4.49106E+00  4.21352E+00
   3.86341E+00  3.43059E+00  2.96551E+00  2.27207E+00  1.15911E+00 -2.30182E-01 -1.67578E+00 -2.99946E+00 -4.07357E+00 -4.98233E+00
  -5.88303E+00 -6.71990E+00 -7.38876E+00 -7.88113E+00 -8.21786E+00 -8.47976E+00 -8.88893E+00 -9.34666E+00 -9.74946E+00 -1.02189E+01
  -1.08770E+01 -1.15011E+01 -1.18549E+01 -1.19038E+01 -1.17197E+01 -1.13953E+01 -1.09512E+01 -1.03559E+01 -9.64094E+00 -8.84178E+00
  -8.00163E+00 -7.34840E+00 -7.14103E+00 -7.28484E+00 -7.49925E+00 -7.77288E+00 -8.14895E+00 -8.56452E+00 -8.87004E+00 -9.06675E+00
  -9.03696E+00 -8.62282E+00 -7.98970E+00 -7.41532E+00 -7.09900E+00 -7.09963E+00 -7.52392E+00 -8.42242E+00 -9.29296E+00 -9.87232E+00
  -1.00104E+01 -9.65156E+00 -8.61377E+00 -6.75246E+00 -4.38010E+00 -2.04102E+00 -2.10960E-03  1.64300E+00  2.47237E+00  2.20558E+00
   1.12582E+00 -4.55207E-01 -2.13164E+00 -3.22882E+00 -3.17397E+00 -1.79427E+00  2.51998E-01  2.49516E+00  4.76377E+00  6.89475E+00
   8.38024E+00  8.73196E+00  8.22936E+00  7.58415E+00  7.15967E+00  6.83991E+00  6.58764E+00  6.50802E+00  6.61189E+00  6.83464E+00
   7.17386E+00  7.65533E+00  8.29449E+00  9.11007E+00  1.02600E+01  1.19875E+01  1.41429E+01  1.55447E+01  1.42538E+01  1.35936E+01
   1.56172E+01  1.89781E+01  2.24902E+01  2.69826E+01  3.36293E+01  4.24547E+01  5.29552E+01  6.34381E+01  7.15774E+01  7.60739E+01
   7.65444E+01  7.29990E+01  6.56232E+01  5.39744E+01  3.89202E+01  2.47333E+01  1.63108E+01  1.11849E+01  6.57049E+00  2.39221E+00
  -7.97318E-01 -2.93619E+00 -4.46365E+00 -5.57252E+00 -6.48655E+00 -7.30936E+00 -8.05339E+00 -8.76835E+00 -9.53674E+00 -1.03746E+01
  -1.12711E+01 -1.21338E+01 -1.28173E+01 -1.32751E+01 -1.35401E+01 -1.36192E+01 -1.36090E+01 -1.36582E+01 -1.37982E+01 -1.40106E+01
  -1.42769E+01 -1.45625E+01 -1.48306E+01 -1.50149E+01 -1.50936E+01 -1.51157E+01 -1.51011E+01 -1.50822E+01 -1.50836E+01 -1.51404E+01
  -1.52904E+01 -1.55116E+01 -1.57108E+01 -1.58563E+01 -1.59500E+01 -1.59948E+01 -1.59862E+01 -1.59270E+01 -1.58476E+01 -1.57897E+01
  -1.57408E+01 -1.56792E+01 -1.55936E+01 -1.54716E+01 -1.53031E+01 -1.50778E+01 -1.47838E+01 -1.44076E+01 -1.39345E+01 -1.33485E+01
  -1.26337E+01 -1.17740E+01 -1.07540E+01 -9.56052E+00 -8.18508E+00 -6.62275E+00 -4.87378E+00 -2.94463E+00 -8.48680E-01  1.39361E+00
   3.75441E+00  6.19896E+00  8.68613E+00  1.11700E+01  1.36015E+01  1.59308E+01  1.81088E+01  2.00893E+01  2.18290E+01  2.32890E+01
   2.44758E+01  2.54057E+01  2.60525E+01  2.64086E+01  2.64945E+01  2.63407E+01  2.59719E+01  2.53819E+01  2.45936E+01  2.36608E+01
   2.26250E+01  2.15223E+01  2.03919E+01  1.92751E+01  1.82044E+01  1.72155E+01  1.63504E+01  1.56238E+01  1.49750E+01  1.43291E+01
   1.36659E+01  1.29750E+01  1.22362E+01  1.14248E+01  1.05483E+01  9.67168E+00  8.82629E+00  8.00151E+00  7.19734E+00  6.42042E+00
   5.68016E+00  4.98725E+00  4.35277E+00  3.78770E+00  3.30227E+00  2.90552E+00  2.60460E+00  2.40459E+00  2.30811E+00  2.31524E+00
   2.42312E+00  2.62591E+00  2.91450E+00  3.27684E+00  3.69806E+00  4.16100E+00  4.64655E+00  5.13427E+00  5.60307E+00  6.03221E+00
   6.40218E+00  6.69557E+00  6.89778E+00  6.99759E+00  6.98767E+00  6.86496E+00  6.63067E+00  6.29013E+00  5.85213E+00  5.32849E+00
   4.73323E+00  4.08199E+00  3.39108E+00  2.67676E+00  1.95439E+00  1.23795E+00  5.39649E-01 -1.30228E-01 -7.63584E-01 -1.35447E+00
  -1.89909E+00 -2.39544E+00 -2.84312E+00 -3.24286E+00 -3.59650E+00 -3.90658E+00 -4.17623E+00 -4.40880E+00 -4.60770E+00 -4.77620E+00
  -4.91753E+00 -5.03473E+00 -5.13063E+00 -5.20776E+00 -5.26832E+00 -5.31423E+00 -5.34726E+00 -5.36894E+00 -5.38068E+00 -5.38360E+00
  -5.37867E+00 -5.36670E+00 -5.34850E+00 -5.32477E+00 -5.29612E+00 -5.26302E+00 -5.22588E+00 -5.18507E+00 -5.14101E+00 -5.09403E+00
  -5.04444E+00 -4.99242E+00 -4.93819E+00 -4.88194E+00 -4.82393E+00 -4.76434E+00 -4.70333E+00 -4.64097E+00 -4.57741E+00 -4.51277E+00
  -4.44726E+00 -4.38095E+00 -4.31392E+00 -4.24620E+00 -4.17787E+00 -4.10901E+00 -4.03972E+00 -3.97000E+00 -3.89985E+00 -3.82928E+00
  -3.75835E+00 -3.68712E+00 -3.61565E+00 -3.54391E+00 -3.47189E+00 -3.39960E+00 -3.32711E+00 -3.25444E+00 -3.18162E+00 -3.10861E+00
  -3.03540E+00 -2.96199E+00 -2.88847E+00 -2.81483E+00 -2.74107E+00 -2.66714E+00 -2.59305E+00 -2.51881E+00 -2.44449E+00 -2.37006E+00
  -2.29551E+00 -2.22079E+00 -2.14593E+00 -2.07096E+00 -1.99590E+00 -1.92072E+00 -1.84540E+00 -1.76991E+00 -1.69428E+00 -1.61853E+00
  -1.54269E+00 -1.46669E+00 -1.39053E+00 -1.31419E+00 -1.23771E+00 -1.16110E+00 -1.08436E+00 -1.00744E+00
 NY background values follow
    -8.685E+00   -8.696E+00   -8.706E+00   -8.717E+00   -8.727E+00   -8.738E+00   -8.748E+00   -8.758E+00   -8.768E+00   -8.778E+00
    -8.788E+00   -8.798E+00   -8.807E+00   -8.817E+00   -8.826E+00   -8.836E+00   -8.845E+00   -8.854E+00   -8.863E+00   -8.872E+00
    -8.881E+00   -8.890E+00   -8.898E+00   -8.907E+00   -8.915E+00   -8.924E+00   -8.932E+00   -8.940E+00   -8.948E+00   -8.956E+00
    -8.963E+00   -8.971E+00   -8.978E+00   -8.986E+00   -8.993E+00   -9.000E+00   -9.007E+00   -9.014E+00   -9.021E+00   -9.027E+00
    -9.034E+00   -9.040E+00   -9.046E+00   -9.052E+00   -9.058E+00   -9.064E+00   -9.070E+00   -9.075E+00   -9.081E+00   -9.086E+00
    -9.091E+00   -9.096E+00   -9.101E+00   -9.105E+00   -9.110E+00   -9.114E+00   -9.118E+00   -9.122E+00   -9.126E+00   -9.130E+00
    -9.133E+00   -9.136E+00   -9.139E+00   -9.142E+00   -9.145E+00   -9.147E+00   -9.150E+00   -9.152E+00   -9.154E+00   -9.155E+00
    -9.157E+00   -9.158E+00   -9.159E+00   -9.160E+00   -9.160E+00   -9.161E+00   -9.161E+00   -9.161E+00   -9.160E+00   -9.159E+00
    -9.159E+00   -9.157E+00   -9.156E+00   -9.154E+00   -9.152E+00   -9.150E+00   -9.148E+00   -9.145E+00   -9.142E+00   -9.139E+00
    -9.135E+00   -9.131E+00   -9.127E+00   -9.123E+00   -9.118E+00   -9.113E+00   -9.108E+00   -9.103E+00   -9.098E+00   -9.092E+00
    -9.087E+00   -9.081E+00   -9.075E+00   -9.070E+00   -9.064E+00   -9.058E+00   -9.053E+00   -9.047E+00   -9.042E+00   -9.036E+00
    -9.031E+00   -9.026E+00   -9.021E+00   -9.016E+00   -9.012E+00   -9.007E+00   -9.003E+00   -8.999E+00   -8.996E+00   -8.993E+00
    -8.990E+00   -8.988E+00   -8.986E+00   -8.984E+00   -8.983E+00   -8.982E+00   -8.982E+00   -8.982E+00   -8.983E+00   -8.984E+00
    -8.986E+00   -8.989E+00   -8.992E+00   -8.996E+00   -9.000E+00   -9.005E+00   -9.011E+00   -9.018E+00   -9.025E+00   -9.033E+00
    -9.042E+00   -9.051E+00   -9.062E+00   -9.073E+00   -9.085E+00   -9.097E+00   -9.111E+00   -9.125E+00   -9.140E+00   -9.156E+00
    -9.173E+00   -9.190E+00   -9.209E+00   -9.228E+00   -9.248E+00   -9.270E+00   -9.291E+00   -9.314E+00   -9.338E+00   -9.363E+00
    -9.388E+00   -9.415E+00   -9.442E+00   -9.471E+00   -9.500E+00   -9.531E+00   -9.562E+00   -9.594E+00   -9.628E+00   -9.662E+00
    -9.697E+00   -9.734E+00   -9.771E+00   -9.810E+00   -9.849E+00   -9.890E+00   -9.931E+00   -9.974E+00   -1.002E+01   -1.006E+01
    -1.011E+01   -1.016E+01   -1.020E+01   -1.025E+01   -1.030E+01   -1.035E+01   -1.041E+01   -1.046E+01   -1.052E+01   -1.057E+01
    -1.063E+01   -1.068E+01   -1.074E+01   -1.080E+01   -1.086E+01   -1.092E+01   -1.099E+01   -1.105E+01   -1.111E+01   -1.118E+01
    -1.124E+01   -1.131E+01   -1.137E+01   -1.144E+01   -1.151E+01   -1.158E+01   -1.165E+01   -1.172E+01   -1.179E+01   -1.186E+01
    -1.193E+01   -1.201E+01   -1.208E+01   -1.215E+01   -1.223E+01   -1.230E+01   -1.238E+01   -1.246E+01   -1.253E+01   -1.261E+01
    -1.269E+01   -1.277E+01   -1.284E+01   -1.292E+01   -1.300E+01   -1.308E+01   -1.316E+01   -1.324E+01   -1.332E+01   -1.341E+01
    -1.349E+01   -1.357E+01   -1.365E+01   -1.373E+01   -1.381E+01   -1.390E+01   -1.398E+01   -1.406E+01   -1.414E+01   -1.422E+01
    -1.430E+01   -1.439E+01   -1.447E+01   -1.455E+01   -1.463E+01   -1.471E+01   -1.479E+01   -1.487E+01   -1.495E+01   -1.503E+01
    -1.511E+01   -1.519E+01   -1.527E+01   -1.534E+01   -1.542E+01   -1.550E+01   -1.557E+01   -1.565E+01   -1.572E+01   -1.579E+01
    -1.587E+01   -1.594E+01   -1.601E+01   -1.608E+01   -1.615E+01   -1.622E+01   -1.628E+01   -1.635E+01   -1.641E+01   -1.648E+01
    -1.654E+01   -1.660E+01   -1.666E+01   -1.672E+01   -1.678E+01   -1.684E+01   -1.689E+01   -1.695E+01   -1.700E+01   -1.705E+01
    -1.710E+01   -1.715E+01   -1.720E+01   -1.725E+01   -1.729E+01   -1.734E+01   -1.738E+01   -1.742E+01   -1.746E+01   -1.750E+01
    -1.753E+01   -1.757E+01   -1.760E+01   -1.763E+01   -1.766E+01   -1.769E+01   -1.772E+01   -1.775E+01   -1.777E+01   -1.779E+01
    -1.781E+01   -1.783E+01   -1.785E+01   -1.787E+01   -1.788E+01   -1.789E+01   -1.790E+01   -1.791E+01   -1.792E+01   -1.793E+01
    -1.793E+01   -1.793E+01   -1.793E+01   -1.793E+01   -1.793E+01   -1.792E+01   -1.792E+01   -1.791E+01   -1.790E+01   -1.788E+01
    -1.787E+01   -1.785E+01   -1.783E+01   -1.781E+01   -1.779E+01   -1.777E+01   -1.774E+01   -1.772E+01   -1.769E+01   -1.766E+01
    -1.763E+01   -1.759E+01   -1.756E+01   -1.752E+01   -1.748E+01   -1.744E+01   -1.740E+01   -1.736E+01   -1.731E+01   -1.727E+01
    -1.722E+01   -1.717E+01   -1.712E+01   -1.707E+01   -1.702E+01   -1.696E+01   -1.691E+01   -1.685E+01   -1.679E+01   -1.673E+01
    -1.667E+01   -1.661E+01   -1.654E+01   -1.648E+01   -1.641E+01   -1.635E+01   -1.628E+01   -1.621E+01   -1.614E+01   -1.607E+01
    -1.600E+01   -1.592E+01   -1.585E+01   -1.577E+01   -1.570E+01   -1.562E+01   -1.554E+01   -1.546E+01   -1.538E+01   -1.530E+01
    -1.522E+01   -1.514E+01   -1.505E+01   -1.497E+01   -1.488E+01   -1.479E+01   -1.471E+01   -1.462E+01   -1.453E+01   -1.444E+01
    -1.435E+01   -1.426E+01   -1.417E+01   -1.408E+01   -1.398E+01   -1.389E+01   -1.379E+01   -1.370E+01   -1.360E+01   -1.351E+01
    -1.341E+01   -1.331E+01   -1.321E+01   -1.311E+01   -1.301E+01   -1.291E+01   -1.281E+01   -1.271E+01   -1.261E+01   -1.251E+01
    -1.241E+01   -1.230E+01   -1.220E+01   -1.210E+01   -1.199E+01   -1.189E+01   -1.178E+01   -1.168E+01   -1.157E+01   -1.147E+01
    -1.136E+01   -1.125E+01   -1.115E+01   -1.104E+01   -1.093E+01   -1.083E+01   -1.072E+01   -1.061E+01   -1.050E+01   -1.040E+01
    -1.029E+01   -1.018E+01   -1.007E+01   -9.963E+00   -9.855E+00   -9.747E+00   -9.638E+00   -9.530E+00   -9.422E+00   -9.314E+00
    -9.206E+00   -9.098E+00   -8.991E+00   -8.883E+00   -8.776E+00   -8.669E+00   -8.562E+00   -8.455E+00   -8.349E+00   -8.242E+00
    -8.137E+00   -8.031E+00   -7.926E+00   -7.821E+00   -7.717E+00   -7.613E+00   -7.509E+00   -7.406E+00   -7.303E+00   -7.201E+00
    -7.099E+00   -6.998E+00   -6.897E+00   -6.797E+00   -6.697E+00   -6.598E+00   -6.499E+00   -6.401E+00   -6.304E+00   -6.207E+00
    -6.110E+00   -6.014E+00   -5.918E+00   -5.823E+00   -5.728E+00   -5.633E+00   -5.539E+00   -5.445E+00   -5.351E+00   -5.258E+00
    -5.165E+00   -5.073E+00   -4.981E+00   -4.889E+00   -4.797E+00   -4.705E+00   -4.614E+00   -4.523E+00   -4.433E+00   -4.342E+00
    -4.252E+00   -4.162E+00   -4.072E+00   -3.982E+00   -3.892E+00   -3.803E+00   -3.713E+00   -3.624E+00   -3.534E+00   -3.445E+00
    -3.356E+00   -3.267E+00   -3.178E+00   -3.089E+00   -3.000E+00   -2.911E+00   -2.822E+00   -2.733E+00
 Cr       Conc. = 2.72E+02
