 LCModel (Version 6.3-1L) Copyright: S.W. Provencher.          Ref.: Magn. Reson. Med. 30:672-679 (1993).                
 Slice#2 Row#9 Col#7  PD_24_press_2_raw_act
 36 lines in following concentration table = NCONC+1
    Conc.  %SD /Cr+PCr  Metabolite                                         
   25.975 604% 9.4E-03 Ala                                                 
    0.000 999%   0.000 Asp                                                 
  981.455  33%   0.354 Cr                                                  
 1.79E+03  19%   0.646 PCr                                                 
    0.000 999%   0.000 GABA                                                
    0.000 999%   0.000 Glc                                                 
 1.28E+03  24%   0.462 Gln                                                 
 2.13E+03  16%   0.768 Glu                                                 
  705.269   4%   0.254 GPC                                                 
    0.000 999%   0.000 PCh                                                 
  618.074  16%   0.223 GSH                                                 
 2.07E+03  18%   0.746 Ins                                                 
    0.000 999%   0.000 Lac                                                 
 4.08E+03   3%   1.472 NAA                                                 
    0.000 999%   0.000 NAAG                                                
  172.777  22% 6.2E-02 Scyllo                                              
    0.000 999%   0.000 Tau                                                 
  255.335  65% 9.2E-02 -CrCH2                                              
  705.269   4%   0.254 GPC+PCh                                             
 4.08E+03   3%   1.472 NAA+NAAG                                            
 2.77E+03   3%   1.000 Cr+PCr                                              
 3.41E+03  14%   1.229 Glu+Gln                                             
 1.87E+03  55%   0.676 Lip13a                                              
   42.165 749% 1.5E-02 Lip13b                                              
  156.750 250% 5.7E-02 Lip09                                               
 2.52E+03  18%   0.910 MM09                                                
  381.967  67%   0.138 Lip20                                               
 5.46E+03  12%   1.970 MM20                                                
  827.108  39%   0.298 MM12                                                
 2.40E+03  27%   0.864 MM14                                                
 2.26E+03  20%   0.814 MM17                                                
 1.92E+03  45%   0.691 Lip13a+Lip13b                                       
 5.14E+03  15%   1.854 MM14+Lip13a+Lip13b+MM12                             
 2.68E+03  14%   0.966 MM09+Lip09                                          
 5.84E+03  11%   2.108 MM20+Lip20                                          
   6 lines in following misc. output table
  FWHM = 0.054 ppm    S/N =  16                                            
  Data shift = 0.015 ppm                                                   
  Ph: -18 deg      -3.5 deg/ppm                                            
  alphaB,S = 6.7E-01,   1.7E+02                                            
   14 spline knots.   Ns = 7(1)                                            
  ( 5) 4 infls.   ( 1) 1 extrs.                                            
  498 points on ppm-axis = NY
      4.000000     3.992357     3.984714     3.977070     3.969427     3.961784     3.954141     3.946497     3.938854     3.931211
      3.923568     3.915925     3.908281     3.900638     3.892995     3.885352     3.877708     3.870065     3.862422     3.854779
      3.847136     3.839492     3.831849     3.824206     3.816563     3.808919     3.801276     3.793633     3.785990     3.778347
      3.770703     3.763060     3.755417     3.747774     3.740130     3.732487     3.724844     3.717201     3.709558     3.701914
      3.694271     3.686628     3.678985     3.671341     3.663698     3.656055     3.648412     3.640769     3.633125     3.625482
      3.617839     3.610196     3.602552     3.594909     3.587266     3.579623     3.571980     3.564336     3.556693     3.549050
      3.541407     3.533763     3.526120     3.518477     3.510834     3.503191     3.495547     3.487904     3.480261     3.472618
      3.464974     3.457331     3.449688     3.442045     3.434402     3.426758     3.419115     3.411472     3.403829     3.396185
      3.388542     3.380899     3.373256     3.365613     3.357969     3.350326     3.342683     3.335040     3.327396     3.319753
      3.312110     3.304467     3.296824     3.289180     3.281537     3.273894     3.266251     3.258607     3.250964     3.243321
      3.235678     3.228034     3.220391     3.212748     3.205105     3.197462     3.189818     3.182175     3.174532     3.166889
      3.159245     3.151602     3.143959     3.136316     3.128673     3.121029     3.113386     3.105743     3.098100     3.090456
      3.082813     3.075170     3.067527     3.059884     3.052240     3.044597     3.036954     3.029311     3.021667     3.014024
      3.006381     2.998738     2.991095     2.983451     2.975808     2.968165     2.960522     2.952878     2.945235     2.937592
      2.929949     2.922306     2.914662     2.907019     2.899376     2.891733     2.884089     2.876446     2.868803     2.861160
      2.853517     2.845873     2.838230     2.830587     2.822944     2.815300     2.807657     2.800014     2.792371     2.784728
      2.777084     2.769441     2.761798     2.754155     2.746511     2.738868     2.731225     2.723582     2.715939     2.708295
      2.700652     2.693009     2.685366     2.677722     2.670079     2.662436     2.654793     2.647150     2.639506     2.631863
      2.624220     2.616577     2.608933     2.601290     2.593647     2.586004     2.578361     2.570717     2.563074     2.555431
      2.547788     2.540144     2.532501     2.524858     2.517215     2.509572     2.501928     2.494285     2.486642     2.478999
      2.471355     2.463712     2.456069     2.448426     2.440783     2.433139     2.425496     2.417853     2.410210     2.402566
      2.394923     2.387280     2.379637     2.371994     2.364350     2.356707     2.349064     2.341421     2.333777     2.326134
      2.318491     2.310848     2.303205     2.295561     2.287918     2.280275     2.272632     2.264988     2.257345     2.249702
      2.242059     2.234416     2.226772     2.219129     2.211486     2.203843     2.196199     2.188556     2.180913     2.173270
      2.165627     2.157983     2.150340     2.142697     2.135054     2.127410     2.119767     2.112124     2.104481     2.096838
      2.089194     2.081551     2.073908     2.066265     2.058621     2.050978     2.043335     2.035692     2.028049     2.020405
      2.012762     2.005119     1.997476     1.989833     1.982190     1.974546     1.966903     1.959260     1.951617     1.943974
      1.936331     1.928688     1.921045     1.913402     1.905759     1.898115     1.890472     1.882829     1.875186     1.867543
      1.859900     1.852257     1.844614     1.836971     1.829327     1.821684     1.814041     1.806398     1.798755     1.791112
      1.783469     1.775826     1.768183     1.760540     1.752896     1.745253     1.737610     1.729967     1.722324     1.714681
      1.707038     1.699395     1.691752     1.684108     1.676465     1.668822     1.661179     1.653536     1.645893     1.638250
      1.630607     1.622964     1.615321     1.607677     1.600034     1.592391     1.584748     1.577105     1.569462     1.561819
      1.554176     1.546533     1.538890     1.531246     1.523603     1.515960     1.508317     1.500674     1.493031     1.485388
      1.477745     1.470102     1.462458     1.454815     1.447172     1.439529     1.431886     1.424243     1.416600     1.408957
      1.401314     1.393671     1.386027     1.378384     1.370741     1.363098     1.355455     1.347812     1.340169     1.332526
      1.324883     1.317240     1.309596     1.301953     1.294310     1.286667     1.279024     1.271381     1.263738     1.256095
      1.248452     1.240808     1.233165     1.225522     1.217879     1.210236     1.202593     1.194950     1.187307     1.179664
      1.172021     1.164377     1.156734     1.149091     1.141448     1.133805     1.126162     1.118519     1.110876     1.103233
      1.095590     1.087946     1.080303     1.072660     1.065017     1.057374     1.049731     1.042088     1.034445     1.026802
      1.019158     1.011515     1.003872     0.996229     0.988586     0.980943     0.973300     0.965657     0.958014     0.950371
      0.942727     0.935084     0.927441     0.919798     0.912155     0.904512     0.896869     0.889226     0.881583     0.873940
      0.866296     0.858653     0.851010     0.843367     0.835724     0.828081     0.820438     0.812795     0.805152     0.797508
      0.789865     0.782222     0.774579     0.766936     0.759293     0.751650     0.744007     0.736364     0.728721     0.721077
      0.713434     0.705791     0.698148     0.690505     0.682862     0.675219     0.667576     0.659933     0.652290     0.644646
      0.637003     0.629360     0.621717     0.614074     0.606431     0.598788     0.591145     0.583502     0.575858     0.568215
      0.560572     0.552929     0.545286     0.537643     0.530000     0.522357     0.514714     0.507071     0.499427     0.491784
      0.484141     0.476498     0.468855     0.461212     0.453569     0.445925     0.438282     0.430639     0.422996     0.415353
      0.407710     0.400067     0.392424     0.384780     0.377137     0.369494     0.361851     0.354208     0.346565     0.338922
      0.331278     0.323635     0.315992     0.308349     0.300706     0.293063     0.285420     0.277777     0.270133     0.262490
      0.254847     0.247204     0.239561     0.231918     0.224275     0.216631     0.208988     0.201345
 NY phased data points follow
  -1.34231E+01 -2.16902E+01 -6.34107E+00 -1.46333E+01  1.75882E+00 -2.90868E+00  1.19752E+01  1.44604E+01  2.69529E+01  2.69517E+01
   4.23142E+01  3.54921E+01  3.54408E+01  2.85959E+01  2.58489E+01  9.03795E+00  4.77005E+00 -9.14322E+00 -6.15811E+00 -1.39632E+01
  -1.32989E+01 -1.27826E+01 -7.15087E+00 -1.84748E+01 -1.03113E+01 -7.53307E+00 -1.83508E+00 -1.14273E+01  4.44093E+00  1.22514E+00
   5.45477E+00 -8.54646E-02 -4.21160E+00 -4.28956E+00  4.19221E-01 -6.14564E+00 -3.06804E+00 -8.84178E+00 -4.03053E+00 -8.74357E+00
  -3.53408E+00 -8.06029E+00  4.18261E+00 -8.84937E-01  2.60141E+00  8.05507E-02  9.64385E+00  4.54164E+00  9.81799E+00 -2.07217E+00
   7.00582E-01 -2.64700E+00 -3.08982E+00 -1.32709E+01  1.08259E+00 -1.08357E+01  4.01014E+00 -1.31072E+01 -2.86203E+00 -7.33992E+00
  -5.84204E+00 -9.69725E+00 -1.21594E+01 -1.73200E+01 -8.07160E+00 -1.54345E+01 -1.29687E+01 -1.91034E+01 -1.56738E+01 -1.92986E+01
  -1.18144E+01 -1.15372E+01 -6.92844E+00 -1.21616E+01 -4.19678E+00 -1.73073E+01 -3.92432E+00 -1.12628E+01 -7.88058E+00 -1.80610E+01
  -1.68038E+01 -1.44671E+01 -8.19031E+00 -1.51033E+01 -5.17780E+00 -7.22670E+00  7.97621E-01 -1.25338E+01 -1.92505E+00 -1.01153E+01
  -1.00803E+01 -1.01699E+01 -3.53734E+00 -4.83517E+00 -2.01948E+00 -5.83877E+00 -6.22117E+00 -1.99506E+00  8.65005E+00  7.84741E+00
   2.40568E+01  3.57475E+01  4.61478E+01  4.77544E+01  4.80322E+01  3.71729E+01  3.37874E+01  1.70869E+01  1.53950E+01  7.12911E+00
   4.62697E+00  8.13760E-01 -2.24547E+00 -1.15891E+01 -2.97030E+00 -7.90186E+00 -3.71885E+00 -8.71467E+00 -6.24946E+00 -6.93551E+00
  -2.47031E+00 -4.40588E-01  1.14086E+01  2.20212E+01  3.47091E+01  5.40230E+01  7.30993E+01  7.98401E+01  8.32432E+01  6.95980E+01
   5.85903E+01  3.65281E+01  2.33738E+01  2.01924E+01  1.32804E+01  5.04289E+00  4.67568E-01 -2.81657E+00 -4.96772E+00 -5.70989E+00
  -9.05507E-01 -5.01098E+00 -1.14293E+01 -1.23191E+01 -1.09939E+01 -1.32049E+01 -6.85290E+00 -1.38050E+01 -9.87636E-01 -8.12143E+00
  -5.76477E+00 -7.24024E+00 -7.46281E+00 -1.12615E+01 -6.21888E+00 -1.50359E+01 -9.37858E+00 -1.36231E+01 -9.65169E+00 -1.10740E+01
  -7.35576E+00 -1.65755E+01 -1.27298E+01 -1.21810E+01 -1.20230E+01 -1.42820E+01 -1.00303E+01 -1.46549E+01 -1.29357E+01 -2.01041E+01
  -1.96196E+01 -2.19161E+01 -2.45805E+01 -2.44889E+01 -2.79601E+01 -2.95097E+01 -3.32487E+01 -3.36686E+01 -1.73632E+01 -2.14578E+01
  -2.94708E+01 -2.77890E+01 -3.00897E+01 -2.34965E+01 -2.50614E+01 -3.13298E+01 -2.14264E+01 -2.04435E+01 -1.74486E+01 -1.28787E+01
  -8.26751E+00 -9.72464E+00 -1.06918E+01 -3.12057E+00 -5.52825E+00 -1.19104E+01 -4.16354E+00 -7.15768E+00 -1.29596E+01 -1.12974E+01
  -8.95605E+00 -1.23636E+01 -7.03752E+00 -1.66257E+00  2.96115E+00 -7.81903E+00 -8.93548E+00 -5.07794E+00 -1.15110E+01 -1.16793E+01
  -8.63354E+00 -1.14578E+01 -5.45186E+00  1.66207E+00  2.50131E+00  8.21857E+00  1.22448E+01  1.05987E+01  1.07555E+01 -2.95810E-01
   5.02619E-01 -6.74057E+00 -7.64406E+00 -1.26773E+01 -6.33473E+00 -9.52560E-01  1.99827E+00  6.39669E+00  9.07199E+00  5.68774E+00
   8.88312E+00  5.53386E+00  8.63754E+00  3.63704E+00  7.01143E+00  3.07384E+00  5.17431E+00 -3.20410E+00  5.33569E+00  9.39516E+00
   9.29588E+00  1.88188E+00 -1.21276E+00  3.88453E+00  4.27318E+00  3.11624E+00  6.47742E+00  1.23908E+01  1.48718E+01  1.22031E+01
   1.85759E+01  9.31121E+00  2.01268E+01  2.34943E+01  3.91881E+01  3.76848E+01  5.39709E+01  7.18298E+01  9.71294E+01  1.19344E+02
   1.37396E+02  1.42252E+02  1.36498E+02  1.08521E+02  8.45974E+01  5.84216E+01  4.16419E+01  3.38911E+01  2.76414E+01  1.23741E+01
   1.24113E+01  7.64540E+00  1.03001E+01  4.47683E+00  1.99163E+00  4.37703E+00  3.31330E+00  1.63014E+00 -6.88915E-01 -5.10228E+00
  -3.53077E+00 -4.25320E+00  3.55871E-01 -3.80778E+00 -1.59114E+00 -3.54635E+00 -3.23164E+00 -5.20330E+00 -7.80616E-01 -2.43726E+00
   1.42942E+00 -4.52887E+00 -1.04555E+00 -1.43475E-01 -4.28031E-01 -1.70925E+00 -3.38553E+00 -1.51544E-01  3.44030E+00 -1.59280E+00
  -1.85988E+00  3.68608E+00  1.01426E+01  5.94613E-01  2.43352E+00  1.33068E+00  1.03843E+01  1.16256E+01  1.25527E+01  1.50886E+01
   1.63613E+01  2.09426E+01  1.87039E+01  1.81057E+01  1.57166E+01  1.59336E+01  1.72492E+01  2.03068E+01  1.73945E+01  1.55954E+01
   1.31097E+01  1.35276E+01  1.48545E+01  9.32972E+00  1.87177E+01  1.41060E+01  9.66326E+00  9.72669E+00  1.52033E+01  8.56249E+00
   1.23014E+01  9.31192E+00  7.69946E+00  1.32147E+01  5.80076E+00  8.37953E+00  1.17548E+01  1.09855E+01  1.07170E+01  9.97112E+00
   1.43153E+01  1.16670E+01  9.64073E+00  4.94542E+00  7.01788E+00  1.57637E+01  1.39681E+01  1.52562E+01  2.07844E+01  1.01481E+01
   1.01456E+01  1.05267E+01  1.36981E+01  1.19311E+01  1.32760E+01  1.84374E+01  1.31398E+01  1.19387E+01  6.88682E+00  1.30246E+01
   5.46350E+00  1.05744E+01  1.02486E+01  7.84655E+00  1.37176E+01  8.26673E+00  4.45154E+00  4.91225E+00  8.95287E+00  8.62023E+00
   8.07474E+00  6.86981E+00  8.15994E+00  8.10020E+00  1.12763E+01  4.95513E+00  4.10790E+00  9.38611E+00  5.93124E+00  6.27582E+00
   6.37293E+00  4.63212E+00  4.00246E+00  3.41242E+00  9.67403E-01  5.72102E+00  8.14625E-01  1.75871E+00  5.07828E+00  9.51415E+00
   5.81111E+00  9.71944E+00  5.23289E+00  8.08267E+00  1.31730E+01  4.69755E+00  1.05882E+01  9.34932E+00  1.47173E+01  1.03671E+01
   1.53921E+01  1.43833E+01  2.04438E+01  1.22398E+01  1.67579E+01  2.16576E+01  1.98202E+01  1.93322E+01  2.10211E+01  1.53481E+01
   1.59965E+01  1.85254E+01  1.92504E+01  1.60550E+01  1.42762E+01  1.46136E+01  1.38937E+01  9.60285E+00  7.87670E+00  4.19337E+00
   9.06648E+00  9.84527E+00  4.71799E+00  5.19754E+00  3.52413E+00  5.71999E+00  7.63056E+00  2.66139E+00  6.33712E+00  3.36198E+00
   4.07634E+00  4.99307E+00  9.47723E+00  4.33727E+00  3.71910E+00 -9.41219E-01  5.68623E+00 -2.63581E+00  5.06667E+00  5.83615E-01
  -5.14266E-01 -7.49428E-01 -9.14462E-01  6.33618E+00  8.03439E+00  2.96436E+00 -7.57248E-01 -1.17575E-01  3.88428E+00 -9.28395E-01
   6.68652E-01  2.09568E+00  3.16964E+00  3.90319E+00  4.40669E+00  2.31710E+00  1.84828E+00  2.64709E-02  2.16251E-01 -2.65953E+00
   2.06318E+00 -3.20383E+00  3.39211E+00  3.73527E+00 -2.24102E+00  2.07035E-01  5.10669E+00  6.97548E-01  4.43345E+00 -7.83613E-01
   5.96982E+00  3.52003E+00 -1.76533E+00  1.58429E+00  6.60161E-01  8.36323E-02  2.76409E+00  4.32327E+00  2.28158E+00  4.11918E+00
   4.80041E+00  3.10670E+00  3.42164E+00  2.73643E+00  6.99678E+00  2.25765E-01 -1.59451E+00 -9.17187E-01  4.26635E+00  5.55806E-01
   4.42850E+00 -3.14230E-02  3.08069E+00  4.32734E+00  1.30680E+00 -3.85546E+00  5.92735E+00  5.67041E+00
 NY points of the fit to the data follow
  -1.36113E+01 -1.38800E+01 -1.28531E+01 -1.01851E+01 -6.03536E+00 -7.61286E-02  7.51639E+00  1.64548E+01  2.57840E+01  3.37570E+01
   3.84235E+01  3.84834E+01  3.40629E+01  2.66952E+01  1.85021E+01  1.11383E+01  5.02263E+00 -1.84791E-01 -4.26398E+00 -6.98563E+00
  -8.80390E+00 -9.73694E+00 -1.02661E+01 -1.03141E+01 -1.00529E+01 -9.34799E+00 -7.88574E+00 -5.48724E+00 -2.36367E+00  7.98361E-01
   3.28253E+00  4.49824E+00  4.11087E+00  2.35922E+00 -1.98768E-01 -3.03234E+00 -5.69912E+00 -8.18702E+00 -1.01126E+01 -1.07027E+01
  -9.99046E+00 -8.33673E+00 -6.22150E+00 -3.73047E+00 -9.00412E-01  1.79670E+00  3.76801E+00  4.39390E+00  3.28782E+00  7.32848E-01
  -2.57200E+00 -5.70983E+00 -7.89242E+00 -9.13200E+00 -9.86199E+00 -1.01316E+01 -9.67311E+00 -8.67364E+00 -7.67427E+00 -7.03241E+00
  -6.92892E+00 -7.45133E+00 -8.47453E+00 -9.70308E+00 -1.06738E+01 -1.11034E+01 -1.10802E+01 -1.07495E+01 -1.01751E+01 -9.50013E+00
  -8.85830E+00 -8.40193E+00 -8.23435E+00 -8.36220E+00 -8.72564E+00 -9.19648E+00 -9.61938E+00 -9.93028E+00 -1.01269E+01 -1.02073E+01
  -9.93122E+00 -9.45741E+00 -8.89539E+00 -8.16201E+00 -7.26757E+00 -6.43183E+00 -5.97999E+00 -6.13608E+00 -6.89763E+00 -7.97706E+00
  -9.00156E+00 -9.67016E+00 -9.91414E+00 -9.94582E+00 -9.99387E+00 -9.53460E+00 -6.73011E+00 -1.89437E+00  4.24999E+00  1.23788E+01
   2.29234E+01  3.46781E+01  4.48238E+01  5.02892E+01  4.92810E+01  4.22226E+01  3.15674E+01  2.05935E+01  1.16505E+01  4.97323E+00
  -7.61321E-01 -5.93191E+00 -8.72894E+00 -9.49125E+00 -9.68693E+00 -9.69657E+00 -9.60110E+00 -9.38903E+00 -8.95831E+00 -7.82253E+00
  -3.96033E+00  3.24968E+00  1.23241E+01  2.37040E+01  3.81684E+01  5.46635E+01  6.97748E+01  7.91873E+01  7.98532E+01  7.16050E+01
   5.73936E+01  4.17250E+01  2.82442E+01  1.78134E+01  8.77139E+00  4.38191E-02 -5.81928E+00 -7.74249E+00 -8.07278E+00 -7.71956E+00
  -7.18389E+00 -6.79603E+00 -6.62813E+00 -6.70610E+00 -7.04494E+00 -7.52135E+00 -8.03715E+00 -8.57591E+00 -9.09727E+00 -9.59608E+00
  -1.00179E+01 -1.03433E+01 -1.05945E+01 -1.07773E+01 -1.09910E+01 -1.12802E+01 -1.16032E+01 -1.19818E+01 -1.24135E+01 -1.29433E+01
  -1.35231E+01 -1.39014E+01 -1.38940E+01 -1.35609E+01 -1.31893E+01 -1.31079E+01 -1.35139E+01 -1.43471E+01 -1.53183E+01 -1.61972E+01
  -1.70427E+01 -1.78242E+01 -1.85856E+01 -1.93808E+01 -2.00705E+01 -2.05147E+01 -2.05855E+01 -2.02820E+01 -1.98213E+01 -1.94578E+01
  -1.93896E+01 -1.95367E+01 -1.95621E+01 -1.92743E+01 -1.86557E+01 -1.78270E+01 -1.68126E+01 -1.53008E+01 -1.32371E+01 -1.09730E+01
  -9.11110E+00 -8.15779E+00 -8.08589E+00 -8.59524E+00 -9.23710E+00 -9.67363E+00 -9.83587E+00 -9.48411E+00 -8.43041E+00 -6.84484E+00
  -4.94675E+00 -3.06390E+00 -1.65598E+00 -1.17918E+00 -1.72248E+00 -3.39669E+00 -6.16212E+00 -9.56108E+00 -1.26490E+01 -1.44544E+01
  -1.44617E+01 -1.29650E+01 -1.02887E+01 -6.66409E+00 -2.72893E+00  5.45689E-01  2.29353E+00  2.10628E+00  2.39915E-02 -3.56128E+00
  -7.41855E+00 -1.03754E+01 -1.18455E+01 -1.16183E+01 -9.80995E+00 -6.76436E+00 -3.14342E+00 -8.33902E-02  1.84004E+00  2.77818E+00
   3.32945E+00  3.69874E+00  3.81812E+00  4.04435E+00  4.79440E+00  5.91550E+00  7.07344E+00  8.03654E+00  8.62045E+00  8.63161E+00
   7.93041E+00  6.82003E+00  6.00010E+00  5.94736E+00  6.60475E+00  7.77512E+00  9.36965E+00  1.10224E+01  1.23780E+01  1.34577E+01
   1.44613E+01  1.54569E+01  1.67854E+01  2.08106E+01  3.00613E+01  4.21225E+01  5.68151E+01  7.57331E+01  9.85748E+01  1.21165E+02
   1.37078E+02  1.40947E+02  1.31122E+02  1.10731E+02  8.63192E+01  6.42690E+01  4.74625E+01  3.41108E+01  2.14078E+01  1.13779E+01
   7.29809E+00  5.57817E+00  4.49412E+00  3.77313E+00  3.28459E+00  2.83819E+00  2.37576E+00  1.87101E+00  1.32077E+00  7.61134E-01
   2.31489E-01 -2.66210E-01 -7.25646E-01 -1.11592E+00 -1.42693E+00 -1.67901E+00 -1.88987E+00 -2.06290E+00 -2.19066E+00 -2.26875E+00
  -2.30221E+00 -2.28177E+00 -2.19417E+00 -2.03074E+00 -1.78337E+00 -1.44299E+00 -9.98944E-01 -4.42089E-01  2.33274E-01  1.03225E+00
   1.95684E+00  3.00367E+00  4.16491E+00  5.42649E+00  6.76722E+00  8.15934E+00  9.57050E+00  1.09650E+01  1.23054E+01  1.35534E+01
   1.46717E+01  1.56265E+01  1.63906E+01  1.69458E+01  1.72827E+01  1.74015E+01  1.73125E+01  1.70352E+01  1.65984E+01  1.60383E+01
   1.53970E+01  1.47052E+01  1.39915E+01  1.32915E+01  1.26311E+01  1.20209E+01  1.14618E+01  1.09557E+01  1.05216E+01  1.01862E+01
   9.96352E+00  9.86214E+00  9.88086E+00  1.00023E+01  1.01960E+01  1.04318E+01  1.06851E+01  1.09184E+01  1.11049E+01  1.12485E+01
   1.13650E+01  1.14682E+01  1.15596E+01  1.16331E+01  1.16987E+01  1.17713E+01  1.18488E+01  1.19295E+01  1.20125E+01  1.20952E+01
   1.21736E+01  1.22416E+01  1.22920E+01  1.23163E+01  1.23059E+01  1.22527E+01  1.21506E+01  1.19960E+01  1.17886E+01  1.15305E+01
   1.12259E+01  1.08805E+01  1.05010E+01  1.00942E+01  9.66680E+00  9.22483E+00  8.77369E+00  8.31824E+00  7.86344E+00  7.41417E+00
   6.97547E+00  6.55204E+00  6.14867E+00  5.76992E+00  5.42062E+00  5.10526E+00  4.82820E+00  4.59318E+00  4.40389E+00  4.26375E+00
   4.17637E+00  4.14507E+00  4.17315E+00  4.26351E+00  4.41920E+00  4.64309E+00  4.93805E+00  5.30629E+00  5.74939E+00  6.26777E+00
   6.86093E+00  7.52678E+00  8.26159E+00  9.05912E+00  9.91081E+00  1.08053E+01  1.17292E+01  1.26661E+01  1.35981E+01  1.45048E+01
   1.53652E+01  1.61575E+01  1.68610E+01  1.74564E+01  1.79266E+01  1.82576E+01  1.84394E+01  1.84665E+01  1.83382E+01  1.80587E+01
   1.76363E+01  1.70835E+01  1.64161E+01  1.56526E+01  1.48134E+01  1.39191E+01  1.29906E+01  1.20471E+01  1.11068E+01  1.01856E+01
   9.29686E+00  8.45121E+00  7.65657E+00  6.91821E+00  6.23934E+00  5.62106E+00  5.06287E+00  4.56267E+00  4.11748E+00  3.72352E+00
   3.37692E+00  3.07346E+00  2.80900E+00  2.57924E+00  2.38030E+00  2.20853E+00  2.06086E+00  1.93435E+00  1.82642E+00  1.73460E+00
   1.65691E+00  1.59159E+00  1.53732E+00  1.49272E+00  1.45665E+00  1.42795E+00  1.40585E+00  1.38962E+00  1.37878E+00  1.37265E+00
   1.37072E+00  1.37243E+00  1.37753E+00  1.38571E+00  1.39681E+00  1.41041E+00  1.42628E+00  1.44413E+00  1.46396E+00  1.48559E+00
   1.50896E+00  1.53376E+00  1.55989E+00  1.58722E+00  1.61582E+00  1.64556E+00  1.67641E+00  1.70809E+00  1.74063E+00  1.77394E+00
   1.80814E+00  1.84310E+00  1.87879E+00  1.91499E+00  1.95179E+00  1.98916E+00  2.02721E+00  2.06577E+00  2.10482E+00  2.14420E+00
   2.18405E+00  2.22435E+00  2.26517E+00  2.30635E+00  2.34786E+00  2.38964E+00  2.43183E+00  2.47442E+00  2.51743E+00  2.56068E+00
   2.60421E+00  2.64800E+00  2.69221E+00  2.73677E+00  2.78170E+00  2.82684E+00  2.87230E+00  2.91806E+00
 NY background values follow
    -1.925E+01   -1.919E+01   -1.912E+01   -1.905E+01   -1.898E+01   -1.891E+01   -1.884E+01   -1.877E+01   -1.870E+01   -1.863E+01
    -1.857E+01   -1.850E+01   -1.843E+01   -1.836E+01   -1.829E+01   -1.822E+01   -1.815E+01   -1.808E+01   -1.801E+01   -1.795E+01
    -1.788E+01   -1.781E+01   -1.774E+01   -1.767E+01   -1.761E+01   -1.754E+01   -1.747E+01   -1.741E+01   -1.734E+01   -1.727E+01
    -1.721E+01   -1.714E+01   -1.708E+01   -1.701E+01   -1.695E+01   -1.688E+01   -1.682E+01   -1.676E+01   -1.669E+01   -1.663E+01
    -1.657E+01   -1.651E+01   -1.645E+01   -1.639E+01   -1.633E+01   -1.627E+01   -1.621E+01   -1.615E+01   -1.609E+01   -1.604E+01
    -1.598E+01   -1.593E+01   -1.587E+01   -1.582E+01   -1.576E+01   -1.571E+01   -1.565E+01   -1.560E+01   -1.555E+01   -1.550E+01
    -1.545E+01   -1.540E+01   -1.535E+01   -1.530E+01   -1.525E+01   -1.521E+01   -1.516E+01   -1.511E+01   -1.507E+01   -1.502E+01
    -1.498E+01   -1.493E+01   -1.489E+01   -1.485E+01   -1.481E+01   -1.477E+01   -1.473E+01   -1.469E+01   -1.465E+01   -1.461E+01
    -1.457E+01   -1.453E+01   -1.450E+01   -1.446E+01   -1.443E+01   -1.439E+01   -1.436E+01   -1.433E+01   -1.429E+01   -1.426E+01
    -1.423E+01   -1.420E+01   -1.417E+01   -1.414E+01   -1.412E+01   -1.409E+01   -1.406E+01   -1.404E+01   -1.401E+01   -1.399E+01
    -1.396E+01   -1.394E+01   -1.392E+01   -1.390E+01   -1.388E+01   -1.386E+01   -1.384E+01   -1.382E+01   -1.380E+01   -1.378E+01
    -1.377E+01   -1.375E+01   -1.373E+01   -1.372E+01   -1.371E+01   -1.369E+01   -1.368E+01   -1.367E+01   -1.366E+01   -1.365E+01
    -1.364E+01   -1.363E+01   -1.362E+01   -1.361E+01   -1.361E+01   -1.360E+01   -1.359E+01   -1.359E+01   -1.358E+01   -1.358E+01
    -1.358E+01   -1.358E+01   -1.358E+01   -1.357E+01   -1.357E+01   -1.357E+01   -1.358E+01   -1.358E+01   -1.358E+01   -1.358E+01
    -1.359E+01   -1.359E+01   -1.359E+01   -1.360E+01   -1.360E+01   -1.361E+01   -1.361E+01   -1.362E+01   -1.362E+01   -1.362E+01
    -1.363E+01   -1.363E+01   -1.363E+01   -1.364E+01   -1.364E+01   -1.364E+01   -1.364E+01   -1.364E+01   -1.364E+01   -1.364E+01
    -1.363E+01   -1.363E+01   -1.362E+01   -1.362E+01   -1.361E+01   -1.360E+01   -1.359E+01   -1.358E+01   -1.357E+01   -1.355E+01
    -1.353E+01   -1.351E+01   -1.349E+01   -1.347E+01   -1.345E+01   -1.342E+01   -1.339E+01   -1.336E+01   -1.333E+01   -1.329E+01
    -1.325E+01   -1.321E+01   -1.317E+01   -1.312E+01   -1.308E+01   -1.303E+01   -1.297E+01   -1.292E+01   -1.286E+01   -1.281E+01
    -1.275E+01   -1.268E+01   -1.262E+01   -1.256E+01   -1.249E+01   -1.242E+01   -1.235E+01   -1.228E+01   -1.221E+01   -1.214E+01
    -1.207E+01   -1.199E+01   -1.192E+01   -1.184E+01   -1.176E+01   -1.169E+01   -1.161E+01   -1.153E+01   -1.146E+01   -1.138E+01
    -1.130E+01   -1.122E+01   -1.115E+01   -1.107E+01   -1.099E+01   -1.091E+01   -1.084E+01   -1.076E+01   -1.069E+01   -1.061E+01
    -1.054E+01   -1.047E+01   -1.040E+01   -1.033E+01   -1.026E+01   -1.019E+01   -1.012E+01   -1.006E+01   -9.997E+00   -9.935E+00
    -9.874E+00   -9.815E+00   -9.757E+00   -9.700E+00   -9.644E+00   -9.590E+00   -9.536E+00   -9.484E+00   -9.433E+00   -9.383E+00
    -9.334E+00   -9.285E+00   -9.238E+00   -9.192E+00   -9.146E+00   -9.101E+00   -9.057E+00   -9.014E+00   -8.971E+00   -8.929E+00
    -8.887E+00   -8.846E+00   -8.806E+00   -8.766E+00   -8.727E+00   -8.688E+00   -8.649E+00   -8.611E+00   -8.573E+00   -8.535E+00
    -8.498E+00   -8.461E+00   -8.423E+00   -8.387E+00   -8.350E+00   -8.313E+00   -8.276E+00   -8.239E+00   -8.202E+00   -8.165E+00
    -8.128E+00   -8.091E+00   -8.053E+00   -8.016E+00   -7.978E+00   -7.940E+00   -7.901E+00   -7.863E+00   -7.824E+00   -7.786E+00
    -7.746E+00   -7.707E+00   -7.668E+00   -7.629E+00   -7.589E+00   -7.549E+00   -7.509E+00   -7.469E+00   -7.429E+00   -7.389E+00
    -7.348E+00   -7.308E+00   -7.267E+00   -7.226E+00   -7.185E+00   -7.144E+00   -7.103E+00   -7.062E+00   -7.021E+00   -6.980E+00
    -6.938E+00   -6.897E+00   -6.855E+00   -6.814E+00   -6.772E+00   -6.730E+00   -6.689E+00   -6.647E+00   -6.605E+00   -6.563E+00
    -6.522E+00   -6.480E+00   -6.438E+00   -6.396E+00   -6.354E+00   -6.313E+00   -6.271E+00   -6.229E+00   -6.187E+00   -6.146E+00
    -6.104E+00   -6.062E+00   -6.020E+00   -5.979E+00   -5.937E+00   -5.895E+00   -5.854E+00   -5.812E+00   -5.770E+00   -5.729E+00
    -5.687E+00   -5.646E+00   -5.604E+00   -5.562E+00   -5.521E+00   -5.479E+00   -5.438E+00   -5.396E+00   -5.355E+00   -5.313E+00
    -5.272E+00   -5.230E+00   -5.189E+00   -5.147E+00   -5.106E+00   -5.064E+00   -5.023E+00   -4.981E+00   -4.940E+00   -4.899E+00
    -4.857E+00   -4.816E+00   -4.774E+00   -4.733E+00   -4.691E+00   -4.650E+00   -4.608E+00   -4.567E+00   -4.526E+00   -4.484E+00
    -4.443E+00   -4.401E+00   -4.360E+00   -4.318E+00   -4.277E+00   -4.235E+00   -4.194E+00   -4.152E+00   -4.111E+00   -4.069E+00
    -4.027E+00   -3.986E+00   -3.944E+00   -3.902E+00   -3.860E+00   -3.818E+00   -3.775E+00   -3.733E+00   -3.690E+00   -3.648E+00
    -3.605E+00   -3.562E+00   -3.519E+00   -3.476E+00   -3.432E+00   -3.389E+00   -3.345E+00   -3.301E+00   -3.256E+00   -3.212E+00
    -3.167E+00   -3.122E+00   -3.077E+00   -3.032E+00   -2.986E+00   -2.940E+00   -2.894E+00   -2.847E+00   -2.800E+00   -2.753E+00
    -2.706E+00   -2.658E+00   -2.610E+00   -2.562E+00   -2.513E+00   -2.464E+00   -2.414E+00   -2.365E+00   -2.314E+00   -2.264E+00
    -2.213E+00   -2.162E+00   -2.110E+00   -2.058E+00   -2.006E+00   -1.954E+00   -1.901E+00   -1.848E+00   -1.795E+00   -1.741E+00
    -1.688E+00   -1.634E+00   -1.580E+00   -1.525E+00   -1.471E+00   -1.416E+00   -1.361E+00   -1.306E+00   -1.251E+00   -1.196E+00
    -1.140E+00   -1.085E+00   -1.029E+00   -9.732E-01   -9.173E-01   -8.615E-01   -8.055E-01   -7.496E-01   -6.936E-01   -6.375E-01
    -5.815E-01   -5.254E-01   -4.694E-01   -4.134E-01   -3.575E-01   -3.015E-01   -2.457E-01   -1.899E-01   -1.341E-01   -7.851E-02
    -2.298E-02    3.243E-02    8.773E-02    1.429E-01    1.979E-01    2.528E-01    3.076E-01    3.623E-01    4.168E-01    4.713E-01
     5.256E-01    5.798E-01    6.339E-01    6.880E-01    7.419E-01    7.957E-01    8.495E-01    9.031E-01    9.567E-01    1.010E+00
     1.064E+00    1.117E+00    1.170E+00    1.223E+00    1.277E+00    1.330E+00    1.383E+00    1.436E+00    1.489E+00    1.542E+00
     1.594E+00    1.647E+00    1.700E+00    1.753E+00    1.805E+00    1.858E+00    1.911E+00    1.963E+00    2.016E+00    2.069E+00
     2.121E+00    2.174E+00    2.226E+00    2.279E+00    2.332E+00    2.384E+00    2.437E+00    2.489E+00
 Ala      Conc. = 2.60E+01
