 LCModel (Version 6.3-1L) Copyright: S.W. Provencher.          Ref.: Magn. Reson. Med. 30:672-679 (1993).                
 Slice#1 Row#9 Col#8  PD_24_press_2_raw_act
 36 lines in following concentration table = NCONC+1
    Conc.  %SD /Cr+PCr  Metabolite                                         
  259.773  56%   0.132 Ala                                                 
    0.000 999%   0.000 Asp                                                 
  268.000 120%   0.136 Cr                                                  
 1.70E+03  20%   0.864 PCr                                                 
    0.000 999%   0.000 GABA                                                
   38.555 533% 2.0E-02 Glc                                                 
  892.434  34%   0.453 Gln                                                 
 1.58E+03  21%   0.803 Glu                                                 
  591.814   5%   0.300 GPC                                                 
    0.000 999%   0.000 PCh                                                 
  404.542  24%   0.205 GSH                                                 
 1.81E+03  18%   0.919 Ins                                                 
    0.000 999%   0.000 Lac                                                 
 3.65E+03   5%   1.851 NAA                                                 
    5.774 999% 2.9E-03 NAAG                                                
  205.391  17%   0.104 Scyllo                                              
   37.591 707% 1.9E-02 Tau                                                 
  557.197  25%   0.283 -CrCH2                                              
  591.814   5%   0.300 GPC+PCh                                             
 3.65E+03   3%   1.854 NAA+NAAG                                            
 1.97E+03   4%   1.000 Cr+PCr                                              
 2.48E+03  20%   1.256 Glu+Gln                                             
 2.38E+03  38%   1.206 Lip13a                                              
    0.000 999%   0.000 Lip13b                                              
  502.287  82%   0.255 Lip09                                               
 2.63E+03  18%   1.336 MM09                                                
  371.277  71%   0.188 Lip20                                               
 5.34E+03  11%   2.708 MM20                                                
  914.352  43%   0.464 MM12                                                
 3.27E+03  21%   1.661 MM14                                                
 1.43E+03  27%   0.726 MM17                                                
 2.38E+03  38%   1.206 Lip13a+Lip13b                                       
 6.56E+03  10%   3.331 MM14+Lip13a+Lip13b+MM12                             
 3.14E+03  10%   1.591 MM09+Lip09                                          
 5.71E+03  10%   2.897 MM20+Lip20                                          
   6 lines in following misc. output table
  FWHM = 0.061 ppm    S/N =  16                                            
  Data shift = 0.000 ppm                                                   
  Ph: -36 deg      -8.3 deg/ppm                                            
  alphaB,S = 1.0E+00,   1.9E+02                                            
   14 spline knots.   Ns = 8(1)                                            
  (16) 3 infls.   (11) 1 extrs.                                            
  498 points on ppm-axis = NY
      4.000000     3.992357     3.984714     3.977070     3.969427     3.961784     3.954141     3.946497     3.938854     3.931211
      3.923568     3.915925     3.908281     3.900638     3.892995     3.885352     3.877708     3.870065     3.862422     3.854779
      3.847136     3.839492     3.831849     3.824206     3.816563     3.808919     3.801276     3.793633     3.785990     3.778347
      3.770703     3.763060     3.755417     3.747774     3.740130     3.732487     3.724844     3.717201     3.709558     3.701914
      3.694271     3.686628     3.678985     3.671341     3.663698     3.656055     3.648412     3.640769     3.633125     3.625482
      3.617839     3.610196     3.602552     3.594909     3.587266     3.579623     3.571980     3.564336     3.556693     3.549050
      3.541407     3.533763     3.526120     3.518477     3.510834     3.503191     3.495547     3.487904     3.480261     3.472618
      3.464974     3.457331     3.449688     3.442045     3.434402     3.426758     3.419115     3.411472     3.403829     3.396185
      3.388542     3.380899     3.373256     3.365613     3.357969     3.350326     3.342683     3.335040     3.327396     3.319753
      3.312110     3.304467     3.296824     3.289180     3.281537     3.273894     3.266251     3.258607     3.250964     3.243321
      3.235678     3.228034     3.220391     3.212748     3.205105     3.197462     3.189818     3.182175     3.174532     3.166889
      3.159245     3.151602     3.143959     3.136316     3.128673     3.121029     3.113386     3.105743     3.098100     3.090456
      3.082813     3.075170     3.067527     3.059884     3.052240     3.044597     3.036954     3.029311     3.021667     3.014024
      3.006381     2.998738     2.991095     2.983451     2.975808     2.968165     2.960522     2.952878     2.945235     2.937592
      2.929949     2.922306     2.914662     2.907019     2.899376     2.891733     2.884089     2.876446     2.868803     2.861160
      2.853517     2.845873     2.838230     2.830587     2.822944     2.815300     2.807657     2.800014     2.792371     2.784728
      2.777084     2.769441     2.761798     2.754155     2.746511     2.738868     2.731225     2.723582     2.715939     2.708295
      2.700652     2.693009     2.685366     2.677722     2.670079     2.662436     2.654793     2.647150     2.639506     2.631863
      2.624220     2.616577     2.608933     2.601290     2.593647     2.586004     2.578361     2.570717     2.563074     2.555431
      2.547788     2.540144     2.532501     2.524858     2.517215     2.509572     2.501928     2.494285     2.486642     2.478999
      2.471355     2.463712     2.456069     2.448426     2.440783     2.433139     2.425496     2.417853     2.410210     2.402566
      2.394923     2.387280     2.379637     2.371994     2.364350     2.356707     2.349064     2.341421     2.333777     2.326134
      2.318491     2.310848     2.303205     2.295561     2.287918     2.280275     2.272632     2.264988     2.257345     2.249702
      2.242059     2.234416     2.226772     2.219129     2.211486     2.203843     2.196199     2.188556     2.180913     2.173270
      2.165627     2.157983     2.150340     2.142697     2.135054     2.127410     2.119767     2.112124     2.104481     2.096838
      2.089194     2.081551     2.073908     2.066265     2.058621     2.050978     2.043335     2.035692     2.028049     2.020405
      2.012762     2.005119     1.997476     1.989833     1.982190     1.974546     1.966903     1.959260     1.951617     1.943974
      1.936331     1.928688     1.921045     1.913402     1.905759     1.898115     1.890472     1.882829     1.875186     1.867543
      1.859900     1.852257     1.844614     1.836971     1.829327     1.821684     1.814041     1.806398     1.798755     1.791112
      1.783469     1.775826     1.768183     1.760540     1.752896     1.745253     1.737610     1.729967     1.722324     1.714681
      1.707038     1.699395     1.691752     1.684108     1.676465     1.668822     1.661179     1.653536     1.645893     1.638250
      1.630607     1.622964     1.615321     1.607677     1.600034     1.592391     1.584748     1.577105     1.569462     1.561819
      1.554176     1.546533     1.538890     1.531246     1.523603     1.515960     1.508317     1.500674     1.493031     1.485388
      1.477745     1.470102     1.462458     1.454815     1.447172     1.439529     1.431886     1.424243     1.416600     1.408957
      1.401314     1.393671     1.386027     1.378384     1.370741     1.363098     1.355455     1.347812     1.340169     1.332526
      1.324883     1.317240     1.309596     1.301953     1.294310     1.286667     1.279024     1.271381     1.263738     1.256095
      1.248452     1.240808     1.233165     1.225522     1.217879     1.210236     1.202593     1.194950     1.187307     1.179664
      1.172021     1.164377     1.156734     1.149091     1.141448     1.133805     1.126162     1.118519     1.110876     1.103233
      1.095590     1.087946     1.080303     1.072660     1.065017     1.057374     1.049731     1.042088     1.034445     1.026802
      1.019158     1.011515     1.003872     0.996229     0.988586     0.980943     0.973300     0.965657     0.958014     0.950371
      0.942727     0.935084     0.927441     0.919798     0.912155     0.904512     0.896869     0.889226     0.881583     0.873940
      0.866296     0.858653     0.851010     0.843367     0.835724     0.828081     0.820438     0.812795     0.805152     0.797508
      0.789865     0.782222     0.774579     0.766936     0.759293     0.751650     0.744007     0.736364     0.728721     0.721077
      0.713434     0.705791     0.698148     0.690505     0.682862     0.675219     0.667576     0.659933     0.652290     0.644646
      0.637003     0.629360     0.621717     0.614074     0.606431     0.598788     0.591145     0.583502     0.575858     0.568215
      0.560572     0.552929     0.545286     0.537643     0.530000     0.522357     0.514714     0.507071     0.499427     0.491784
      0.484141     0.476498     0.468855     0.461212     0.453569     0.445925     0.438282     0.430639     0.422996     0.415353
      0.407710     0.400067     0.392424     0.384780     0.377137     0.369494     0.361851     0.354208     0.346565     0.338922
      0.331278     0.323635     0.315992     0.308349     0.300706     0.293063     0.285420     0.277777     0.270133     0.262490
      0.254847     0.247204     0.239561     0.231918     0.224275     0.216631     0.208988     0.201345
 NY phased data points follow
  -9.20904E+00 -1.22803E+01 -3.43345E+00 -8.52081E+00 -7.51578E-01 -4.56424E-02  9.65120E+00  7.56314E+00  1.41146E+01  1.66301E+01
   2.17994E+01  1.69430E+01  2.00251E+01  1.59694E+01  1.37649E+01  1.74638E+00  9.27002E+00 -1.44092E+00 -6.60163E-01 -6.57710E+00
  -5.13871E+00 -9.66179E+00 -2.65180E+00 -6.20796E+00 -5.48301E+00 -7.10683E+00 -3.90769E-01  3.89687E-01  5.46344E-01 -2.66587E+00
   9.94352E-01 -3.45275E+00  3.30127E-01 -5.41920E+00 -1.19737E+00 -1.33714E+00 -3.88167E+00  1.08871E+00 -7.88849E-01 -4.25810E+00
  -4.36961E+00 -1.52287E+00 -2.46107E+00  4.90476E-01  2.93456E+00  3.98925E+00  3.28719E+00  5.90148E+00  9.94541E+00  6.41637E+00
   3.87709E+00 -3.91258E+00  2.69388E+00 -8.23469E-01 -2.97354E+00 -1.16015E+00  1.37176E+00 -8.49769E-01  1.27023E+00 -5.76457E+00
  -2.68269E+00 -1.06521E+01 -2.34093E+00 -1.10019E+01 -9.04322E+00 -1.51332E+01 -5.67446E+00 -1.00586E+01 -8.42521E+00 -9.44794E+00
  -4.33108E+00 -7.64772E+00 -5.66542E+00 -6.76167E+00 -6.79188E+00 -9.21368E+00 -2.36853E+00 -5.75734E+00 -4.03237E+00 -4.01175E+00
  -2.93909E+00 -7.92368E+00 -4.29287E+00 -6.02372E-01  1.21990E+00  6.15246E-02 -4.26344E+00 -3.75997E+00  5.82556E-01 -5.12696E+00
   2.00776E+00 -1.02162E+00 -4.72303E-01 -4.26571E+00  3.16083E-01  4.44766E+00  1.81311E+00  2.78969E+00  8.78673E+00  1.06508E+01
   1.84793E+01  2.72680E+01  3.46792E+01  4.18292E+01  4.38955E+01  3.35309E+01  2.71684E+01  1.56832E+01  1.30235E+01  3.13189E+00
   4.17041E+00  4.98344E+00  5.92895E-01 -2.41244E+00 -3.79034E+00 -3.98943E+00  2.24310E+00 -1.69443E+00  1.59705E+00 -1.09401E+00
   1.49919E-01  4.93819E+00  1.20136E+01  1.53077E+01  2.38210E+01  3.29451E+01  4.36439E+01  5.16242E+01  5.88486E+01  5.66936E+01
   4.16080E+01  2.98185E+01  1.86721E+01  8.41423E+00  8.53293E+00  4.55145E+00  1.05326E+01  4.36783E+00 -3.81490E-01 -2.19137E+00
   1.47177E+00 -5.86296E+00  9.60563E-01 -3.26436E+00  1.85856E-01 -4.67656E-01 -3.02124E+00 -6.71176E+00 -5.88966E+00 -3.59896E+00
  -3.20418E+00 -8.84475E+00 -7.12934E+00 -5.86722E+00 -4.70409E-01 -4.40320E+00 -3.78538E+00 -1.00455E+01 -8.29077E+00 -5.63978E+00
  -4.26007E+00 -2.38966E+00 -4.15891E+00 -1.19462E+01 -9.13758E+00 -1.00985E+01 -1.34339E+01 -1.49559E+01 -1.18831E+01 -1.55102E+01
  -1.74820E+01 -2.79960E+01 -2.32214E+01 -2.57040E+01 -2.42453E+01 -2.07751E+01 -2.26089E+01 -2.27437E+01 -2.15575E+01 -2.08738E+01
  -1.34768E+01 -1.62352E+01 -1.56606E+01 -1.65775E+01 -1.40884E+01 -1.51890E+01 -1.28395E+01 -9.12205E+00 -1.18905E+01 -1.17084E+01
  -1.17637E+01 -8.44491E+00 -1.02242E+01 -1.39076E+01 -1.08742E+01 -9.72731E+00 -1.10783E+01 -1.11236E+01 -5.23990E+00 -7.76683E+00
  -7.15347E+00 -1.16192E+01 -2.85187E+00 -3.92276E+00  1.26343E+00  1.85452E+00 -2.56854E+00 -6.76760E+00 -3.58164E+00 -5.10504E+00
  -3.06895E+00 -9.59309E-01 -2.03732E-01 -1.89250E+00  4.01184E+00  4.77036E+00  7.51239E+00  3.99777E+00  5.32744E+00  1.62629E+00
  -1.58925E+00 -4.73289E+00 -1.64609E+00 -9.72501E+00 -4.33402E+00  2.15017E+00  4.51044E+00  4.81475E+00  5.98568E+00  8.84045E+00
   4.63770E+00  1.45548E+00  9.22904E+00  9.97714E+00  6.22445E+00  8.17783E+00  1.01574E+01  7.64448E+00  6.82147E+00  7.40045E+00
   6.51782E+00  4.93139E+00  2.76548E+00  5.26538E+00  7.39682E+00  6.56225E+00  1.02833E+01  9.21933E+00  1.54944E+01  1.14785E+01
   1.40182E+01  1.66179E+01  1.94981E+01  2.69958E+01  3.59172E+01  4.33724E+01  6.24581E+01  7.43838E+01  8.64152E+01  1.03699E+02
   1.12842E+02  1.19693E+02  1.12712E+02  9.94786E+01  7.66675E+01  5.29448E+01  3.92772E+01  3.03730E+01  2.64976E+01  1.51897E+01
   1.40916E+01  6.76513E+00  5.35406E+00  8.81867E+00  8.55739E+00 -9.20573E-02  1.82801E+00  7.44346E-01 -1.19215E+00 -1.50268E+00
   1.30183E+00 -4.85375E+00 -2.26688E+00 -1.13272E+00  8.75777E-01 -1.55305E+00 -5.66292E-01  1.09895E+00  2.07849E+00  5.38844E+00
   3.81477E+00  2.63349E+00  8.00409E+00  4.23103E+00  6.91646E+00  1.79297E+00  4.00489E+00  3.85757E+00  5.74610E+00  4.57167E+00
   7.10008E+00  1.20363E+00  1.12389E+00  7.24555E+00  7.56900E+00  9.13374E+00  3.32026E+00  2.80932E+00  4.96931E+00  8.08955E+00
   9.28633E+00  5.89151E+00  9.02783E+00  9.53447E+00  9.39334E+00  1.49523E+01  8.48822E+00  8.22118E+00  9.61394E+00  1.29042E+01
   1.51298E+01  7.32492E+00  1.11702E+01  1.17158E+01  1.31553E+01  1.08749E+01  1.44437E+01  1.37683E+01  1.15241E+01  1.22653E+01
   1.77715E+01  1.22138E+01  1.39244E+01  1.26255E+01  1.17325E+01  1.73664E+01  1.59494E+01  1.67824E+01  1.69623E+01  1.58671E+01
   1.76300E+01  1.58800E+01  2.54912E+01  2.42809E+01  2.26752E+01  2.14217E+01  1.95383E+01  1.75125E+01  1.90032E+01  1.98584E+01
   1.91176E+01  2.08622E+01  2.32081E+01  1.66763E+01  1.18481E+01  1.42511E+01  1.51177E+01  1.59651E+01  9.33631E+00  1.46113E+01
   1.80558E+01  1.23449E+01  1.50644E+01  1.82016E+01  1.58785E+01  2.03073E+01  1.67536E+01  1.50282E+01  1.24056E+01  1.27352E+01
   1.31437E+01  9.87601E+00  1.50045E+01  1.31623E+01  1.06649E+01  9.31329E+00  1.09296E+01  4.70920E+00  8.58470E+00  6.45486E+00
   1.03352E+01  6.25707E+00  9.49805E+00  4.40355E+00  9.67631E+00  8.15428E+00  6.39852E+00  1.23200E+01  8.04909E+00  1.43911E+01
   1.15494E+01  1.19957E+01  1.37922E+01  1.66498E+01  1.48060E+01  1.71272E+01  2.22180E+01  1.41712E+01  1.96680E+01  1.80944E+01
   1.84123E+01  1.59179E+01  2.26244E+01  2.11951E+01  2.15972E+01  2.35120E+01  2.62295E+01  2.51143E+01  2.29035E+01  1.97444E+01
   2.18142E+01  1.43579E+01  2.06608E+01  1.59560E+01  1.80198E+01  1.55020E+01  1.56486E+01  1.13636E+01  1.49930E+01  1.35952E+01
   1.70200E+01  1.10455E+01  1.08470E+01  9.18120E+00  9.36960E+00  9.19984E+00  1.00694E+01  9.58209E+00  8.19822E+00  9.14923E+00
   6.53102E+00  5.81151E+00  6.36170E+00  7.28308E+00  1.25396E+01  2.84737E+00  9.77546E+00  4.16657E+00  5.10757E+00  5.48069E+00
   8.40539E+00  2.87749E+00  6.77595E+00  4.17729E+00  5.25655E+00  4.87418E+00  3.66417E+00  2.82288E+00  7.47201E+00  3.40167E+00
   8.10655E+00  5.23159E+00  5.89465E+00  3.71183E+00  4.85111E+00  3.92802E+00  4.89859E+00  8.01843E+00  1.10778E+00 -5.64358E-01
   4.25829E+00  5.79720E+00  1.42692E+00  1.34157E+00  6.30713E+00  5.17977E+00  4.87163E+00  2.16785E+00  4.71165E+00  3.22678E+00
   7.78151E+00  3.10977E+00  8.31705E+00 -6.42217E-01  4.40406E+00  8.80296E-01  4.80823E+00  6.65606E-01  3.96547E+00  5.28834E+00
   2.92730E+00  3.48581E+00  1.04088E+00  2.71590E+00  4.19653E+00  5.93794E+00  7.17395E+00 -1.22482E+00  4.70241E+00  2.02716E-01
   1.79077E+00  1.93721E+00  1.78463E+00  3.02792E+00  5.13018E+00  3.36788E+00  3.57529E-01  5.23128E+00
 NY points of the fit to the data follow
  -6.88300E+00 -7.30208E+00 -6.47574E+00 -4.56822E+00 -1.99684E+00  1.16946E+00  4.91652E+00  9.10618E+00  1.35299E+01  1.76610E+01
   2.05811E+01  2.12938E+01  1.93766E+01  1.53306E+01  1.04174E+01  6.03728E+00  2.96175E+00  9.28623E-01 -9.86205E-01 -3.02651E+00
  -4.28566E+00 -4.89173E+00 -4.98392E+00 -4.85482E+00 -4.56266E+00 -4.08199E+00 -3.35075E+00 -2.29556E+00 -9.80941E-01  4.58450E-01
   1.76678E+00  2.57274E+00  2.66864E+00  1.99784E+00  7.57233E-01 -6.77693E-01 -2.11547E+00 -3.48307E+00 -4.63194E+00 -5.02807E+00
  -4.50638E+00 -3.47986E+00 -2.11400E+00 -5.19026E-01  1.22491E+00  2.96453E+00  4.39970E+00  5.20291E+00  5.01999E+00  3.63147E+00
   1.32166E+00 -1.25216E+00 -3.35767E+00 -4.53006E+00 -4.91607E+00 -5.02146E+00 -5.03552E+00 -4.77947E+00 -4.26762E+00 -3.78049E+00
  -3.56204E+00 -3.72253E+00 -4.28939E+00 -5.12048E+00 -5.93079E+00 -6.45230E+00 -6.54544E+00 -6.29977E+00 -5.90136E+00 -5.44880E+00
  -5.03177E+00 -4.70589E+00 -4.51413E+00 -4.50955E+00 -4.68423E+00 -4.99580E+00 -5.36309E+00 -5.66682E+00 -5.79122E+00 -5.52978E+00
  -5.06645E+00 -4.51534E+00 -3.79902E+00 -2.94318E+00 -2.00756E+00 -1.07055E+00 -3.17436E-01 -4.97735E-02 -4.87051E-01 -1.61891E+00
  -3.12980E+00 -4.53110E+00 -5.43754E+00 -5.76017E+00 -5.44131E+00 -3.73380E+00 -7.06703E-01  3.38051E+00  8.43996E+00  1.44079E+01
   2.12235E+01  2.85476E+01  3.53435E+01  3.98579E+01  4.03018E+01  3.60061E+01  2.81277E+01  1.90717E+01  1.13167E+01  6.07569E+00
   2.69850E+00 -3.68972E-01 -3.55179E+00 -5.35567E+00 -5.84141E+00 -5.96467E+00 -5.94003E+00 -5.78124E+00 -5.30876E+00 -3.54298E+00
   3.72337E-01  5.54804E+00  1.16763E+01  1.88349E+01  2.69316E+01  3.56870E+01  4.42709E+01  5.09739E+01  5.36761E+01  5.09210E+01
   4.31109E+01  3.25588E+01  2.22959E+01  1.45138E+01  9.33310E+00  5.17471E+00  8.00356E-01 -2.62487E+00 -3.71524E+00 -3.78848E+00
  -3.60401E+00 -3.47928E+00 -3.53998E+00 -3.74698E+00 -4.05996E+00 -4.43751E+00 -4.80853E+00 -5.15244E+00 -5.48110E+00 -5.78766E+00
  -6.08242E+00 -6.31670E+00 -6.50098E+00 -6.72658E+00 -7.01017E+00 -7.30544E+00 -7.59933E+00 -7.85607E+00 -8.12982E+00 -8.49756E+00
  -8.91927E+00 -9.28410E+00 -9.46405E+00 -9.39937E+00 -9.19194E+00 -9.07901E+00 -9.30759E+00 -9.97792E+00 -1.09711E+01 -1.19904E+01
  -1.27169E+01 -1.32339E+01 -1.37222E+01 -1.43006E+01 -1.49280E+01 -1.53405E+01 -1.54658E+01 -1.53474E+01 -1.50336E+01 -1.47319E+01
  -1.45834E+01 -1.45389E+01 -1.44849E+01 -1.42242E+01 -1.36154E+01 -1.27203E+01 -1.17382E+01 -1.07220E+01 -9.47783E+00 -7.98383E+00
  -6.52599E+00 -5.54748E+00 -5.24238E+00 -5.41143E+00 -5.74775E+00 -5.93065E+00 -5.73576E+00 -5.27515E+00 -4.63693E+00 -3.79005E+00
  -2.84607E+00 -1.95662E+00 -1.34106E+00 -1.09305E+00 -1.37621E+00 -2.40191E+00 -4.10920E+00 -6.09781E+00 -7.87291E+00 -8.99104E+00
  -9.20141E+00 -8.38225E+00 -6.74199E+00 -4.67267E+00 -2.54038E+00 -8.18628E-01  1.53759E-01  2.02046E-01 -7.74503E-01 -2.59273E+00
  -4.76689E+00 -6.42249E+00 -7.02209E+00 -6.60100E+00 -5.32191E+00 -3.37498E+00 -1.04864E+00  1.09993E+00  2.54259E+00  3.35204E+00
   3.83086E+00  4.27718E+00  4.76757E+00  5.24446E+00  5.76210E+00  6.38161E+00  7.03815E+00  7.66832E+00  8.18987E+00  8.51904E+00
   8.63181E+00  8.53597E+00  8.40518E+00  8.53596E+00  9.08980E+00  9.98991E+00  1.10685E+01  1.22128E+01  1.32079E+01  1.39846E+01
   1.47005E+01  1.58412E+01  1.93170E+01  2.66660E+01  3.60775E+01  4.70014E+01  5.95816E+01  7.36192E+01  8.86682E+01  1.03428E+02
   1.14851E+02  1.18881E+02  1.12689E+02  9.70550E+01  7.63630E+01  5.64802E+01  4.16564E+01  3.21391E+01  2.47101E+01  1.66883E+01
   1.01041E+01  7.48775E+00  6.30152E+00  5.50136E+00  4.92127E+00  4.46729E+00  4.02354E+00  3.57169E+00  3.11254E+00  2.66612E+00
   2.26354E+00  1.92264E+00  1.63522E+00  1.40227E+00  1.23674E+00  1.13801E+00  1.09283E+00  1.09374E+00  1.14255E+00  1.24504E+00
   1.40058E+00  1.60165E+00  1.84866E+00  2.14143E+00  2.47560E+00  2.84563E+00  3.24561E+00  3.66956E+00  4.10968E+00  4.55727E+00
   5.00409E+00  5.44160E+00  5.86097E+00  6.25512E+00  6.61761E+00  6.94317E+00  7.22798E+00  7.47108E+00  7.67410E+00  7.84161E+00
   7.97981E+00  8.09648E+00  8.20052E+00  8.30315E+00  8.41695E+00  8.55557E+00  8.73348E+00  8.96802E+00  9.28489E+00  9.73088E+00
   1.02911E+01  1.08686E+01  1.14480E+01  1.20203E+01  1.25480E+01  1.29749E+01  1.32153E+01  1.32190E+01  1.30533E+01  1.27814E+01
   1.25605E+01  1.26025E+01  1.30484E+01  1.39066E+01  1.50581E+01  1.63174E+01  1.75272E+01  1.85977E+01  1.93876E+01  1.97411E+01
   1.97556E+01  1.96288E+01  1.95095E+01  1.94074E+01  1.92277E+01  1.89668E+01  1.87607E+01  1.86040E+01  1.84677E+01  1.83409E+01
   1.82175E+01  1.80932E+01  1.79638E+01  1.78252E+01  1.76733E+01  1.75037E+01  1.73122E+01  1.70948E+01  1.68484E+01  1.65710E+01
   1.62612E+01  1.59187E+01  1.55441E+01  1.51396E+01  1.47080E+01  1.42538E+01  1.37817E+01  1.32973E+01  1.28066E+01  1.23163E+01
   1.18331E+01  1.13641E+01  1.09157E+01  1.04944E+01  1.01064E+01  9.75763E+00  9.45355E+00  9.19939E+00  8.99955E+00  8.85830E+00
   8.77935E+00  8.76646E+00  8.82274E+00  8.95105E+00  9.15346E+00  9.43181E+00  9.78713E+00  1.02200E+01  1.07295E+01  1.13137E+01
   1.19689E+01  1.26899E+01  1.34693E+01  1.42980E+01  1.51644E+01  1.60549E+01  1.69535E+01  1.78430E+01  1.87048E+01  1.95197E+01
   2.02679E+01  2.09308E+01  2.14906E+01  2.19324E+01  2.22438E+01  2.24158E+01  2.24431E+01  2.23247E+01  2.20634E+01  2.16663E+01
   2.11439E+01  2.05098E+01  1.97797E+01  1.89710E+01  1.81022E+01  1.71918E+01  1.62578E+01  1.53169E+01  1.43839E+01  1.34722E+01
   1.25925E+01  1.17539E+01  1.09624E+01  1.02226E+01  9.53676E+00  8.90588E+00  8.32940E+00  7.80591E+00  7.33279E+00  6.90710E+00
   6.52535E+00  6.18424E+00  5.88013E+00  5.60967E+00  5.36929E+00  5.15595E+00  4.96665E+00  4.79897E+00  4.65044E+00  4.51903E+00
   4.40260E+00  4.29959E+00  4.20844E+00  4.12806E+00  4.05717E+00  3.99482E+00  3.93991E+00  3.89181E+00  3.84977E+00  3.81338E+00
   3.78193E+00  3.75500E+00  3.73199E+00  3.71271E+00  3.69679E+00  3.68409E+00  3.67413E+00  3.66676E+00  3.66163E+00  3.65875E+00
   3.65789E+00  3.65900E+00  3.66172E+00  3.66604E+00  3.67173E+00  3.67891E+00  3.68737E+00  3.69711E+00  3.70784E+00  3.71962E+00
   3.73230E+00  3.74605E+00  3.76064E+00  3.77611E+00  3.79220E+00  3.80906E+00  3.82658E+00  3.84490E+00  3.86380E+00  3.88331E+00
   3.90326E+00  3.92382E+00  3.94488E+00  3.96659E+00  3.98869E+00  4.01128E+00  4.03420E+00  4.05767E+00  4.08157E+00  4.10600E+00
   4.13074E+00  4.15589E+00  4.18137E+00  4.20738E+00  4.23378E+00  4.26067E+00  4.28785E+00  4.31548E+00
 NY background values follow
    -1.169E+01   -1.166E+01   -1.164E+01   -1.162E+01   -1.159E+01   -1.157E+01   -1.154E+01   -1.152E+01   -1.149E+01   -1.147E+01
    -1.145E+01   -1.142E+01   -1.140E+01   -1.137E+01   -1.135E+01   -1.133E+01   -1.130E+01   -1.128E+01   -1.125E+01   -1.123E+01
    -1.121E+01   -1.118E+01   -1.116E+01   -1.114E+01   -1.111E+01   -1.109E+01   -1.106E+01   -1.104E+01   -1.102E+01   -1.099E+01
    -1.097E+01   -1.095E+01   -1.093E+01   -1.090E+01   -1.088E+01   -1.086E+01   -1.083E+01   -1.081E+01   -1.079E+01   -1.077E+01
    -1.074E+01   -1.072E+01   -1.070E+01   -1.068E+01   -1.066E+01   -1.063E+01   -1.061E+01   -1.059E+01   -1.057E+01   -1.055E+01
    -1.053E+01   -1.051E+01   -1.049E+01   -1.047E+01   -1.045E+01   -1.043E+01   -1.041E+01   -1.039E+01   -1.037E+01   -1.035E+01
    -1.033E+01   -1.031E+01   -1.029E+01   -1.027E+01   -1.025E+01   -1.023E+01   -1.022E+01   -1.020E+01   -1.018E+01   -1.016E+01
    -1.015E+01   -1.013E+01   -1.011E+01   -1.010E+01   -1.008E+01   -1.006E+01   -1.005E+01   -1.003E+01   -1.002E+01   -1.000E+01
    -9.986E+00   -9.971E+00   -9.957E+00   -9.943E+00   -9.929E+00   -9.915E+00   -9.902E+00   -9.889E+00   -9.876E+00   -9.863E+00
    -9.851E+00   -9.839E+00   -9.827E+00   -9.816E+00   -9.805E+00   -9.794E+00   -9.783E+00   -9.773E+00   -9.763E+00   -9.753E+00
    -9.744E+00   -9.734E+00   -9.725E+00   -9.717E+00   -9.708E+00   -9.700E+00   -9.692E+00   -9.684E+00   -9.677E+00   -9.669E+00
    -9.662E+00   -9.655E+00   -9.649E+00   -9.642E+00   -9.636E+00   -9.630E+00   -9.625E+00   -9.619E+00   -9.614E+00   -9.609E+00
    -9.604E+00   -9.599E+00   -9.595E+00   -9.590E+00   -9.586E+00   -9.582E+00   -9.578E+00   -9.575E+00   -9.572E+00   -9.568E+00
    -9.565E+00   -9.562E+00   -9.560E+00   -9.557E+00   -9.555E+00   -9.553E+00   -9.551E+00   -9.549E+00   -9.547E+00   -9.545E+00
    -9.544E+00   -9.542E+00   -9.541E+00   -9.539E+00   -9.538E+00   -9.536E+00   -9.535E+00   -9.534E+00   -9.532E+00   -9.531E+00
    -9.529E+00   -9.527E+00   -9.525E+00   -9.523E+00   -9.521E+00   -9.519E+00   -9.516E+00   -9.513E+00   -9.510E+00   -9.507E+00
    -9.503E+00   -9.499E+00   -9.495E+00   -9.491E+00   -9.486E+00   -9.481E+00   -9.475E+00   -9.469E+00   -9.463E+00   -9.456E+00
    -9.448E+00   -9.441E+00   -9.432E+00   -9.424E+00   -9.414E+00   -9.404E+00   -9.394E+00   -9.383E+00   -9.371E+00   -9.359E+00
    -9.346E+00   -9.333E+00   -9.319E+00   -9.304E+00   -9.288E+00   -9.272E+00   -9.256E+00   -9.238E+00   -9.220E+00   -9.202E+00
    -9.183E+00   -9.163E+00   -9.143E+00   -9.123E+00   -9.101E+00   -9.080E+00   -9.058E+00   -9.035E+00   -9.012E+00   -8.988E+00
    -8.964E+00   -8.940E+00   -8.915E+00   -8.890E+00   -8.864E+00   -8.839E+00   -8.812E+00   -8.786E+00   -8.759E+00   -8.731E+00
    -8.704E+00   -8.676E+00   -8.648E+00   -8.619E+00   -8.590E+00   -8.562E+00   -8.532E+00   -8.503E+00   -8.473E+00   -8.444E+00
    -8.414E+00   -8.383E+00   -8.353E+00   -8.323E+00   -8.292E+00   -8.261E+00   -8.231E+00   -8.200E+00   -8.169E+00   -8.138E+00
    -8.106E+00   -8.075E+00   -8.044E+00   -8.012E+00   -7.980E+00   -7.949E+00   -7.917E+00   -7.885E+00   -7.852E+00   -7.820E+00
    -7.788E+00   -7.755E+00   -7.722E+00   -7.689E+00   -7.656E+00   -7.622E+00   -7.589E+00   -7.555E+00   -7.521E+00   -7.487E+00
    -7.453E+00   -7.418E+00   -7.383E+00   -7.348E+00   -7.313E+00   -7.278E+00   -7.242E+00   -7.206E+00   -7.170E+00   -7.133E+00
    -7.097E+00   -7.060E+00   -7.022E+00   -6.985E+00   -6.947E+00   -6.909E+00   -6.871E+00   -6.832E+00   -6.793E+00   -6.754E+00
    -6.715E+00   -6.675E+00   -6.635E+00   -6.594E+00   -6.554E+00   -6.513E+00   -6.471E+00   -6.430E+00   -6.388E+00   -6.346E+00
    -6.303E+00   -6.260E+00   -6.217E+00   -6.174E+00   -6.131E+00   -6.087E+00   -6.043E+00   -5.999E+00   -5.954E+00   -5.909E+00
    -5.864E+00   -5.819E+00   -5.774E+00   -5.728E+00   -5.682E+00   -5.636E+00   -5.590E+00   -5.543E+00   -5.497E+00   -5.450E+00
    -5.403E+00   -5.356E+00   -5.308E+00   -5.261E+00   -5.213E+00   -5.165E+00   -5.117E+00   -5.069E+00   -5.020E+00   -4.972E+00
    -4.923E+00   -4.874E+00   -4.825E+00   -4.776E+00   -4.727E+00   -4.678E+00   -4.629E+00   -4.579E+00   -4.529E+00   -4.480E+00
    -4.430E+00   -4.380E+00   -4.330E+00   -4.280E+00   -4.230E+00   -4.179E+00   -4.129E+00   -4.079E+00   -4.028E+00   -3.977E+00
    -3.927E+00   -3.876E+00   -3.825E+00   -3.774E+00   -3.723E+00   -3.672E+00   -3.621E+00   -3.570E+00   -3.518E+00   -3.467E+00
    -3.416E+00   -3.364E+00   -3.313E+00   -3.261E+00   -3.210E+00   -3.158E+00   -3.106E+00   -3.055E+00   -3.003E+00   -2.951E+00
    -2.899E+00   -2.848E+00   -2.796E+00   -2.744E+00   -2.692E+00   -2.640E+00   -2.588E+00   -2.536E+00   -2.484E+00   -2.432E+00
    -2.380E+00   -2.328E+00   -2.276E+00   -2.224E+00   -2.172E+00   -2.120E+00   -2.068E+00   -2.016E+00   -1.964E+00   -1.912E+00
    -1.860E+00   -1.808E+00   -1.756E+00   -1.704E+00   -1.652E+00   -1.600E+00   -1.548E+00   -1.496E+00   -1.444E+00   -1.393E+00
    -1.341E+00   -1.289E+00   -1.238E+00   -1.186E+00   -1.135E+00   -1.083E+00   -1.032E+00   -9.805E-01   -9.292E-01   -8.781E-01
    -8.269E-01   -7.759E-01   -7.249E-01   -6.740E-01   -6.232E-01   -5.725E-01   -5.219E-01   -4.713E-01   -4.209E-01   -3.705E-01
    -3.203E-01   -2.701E-01   -2.201E-01   -1.702E-01   -1.203E-01   -7.061E-02   -2.101E-02    2.848E-02    7.784E-02    1.271E-01
     1.762E-01    2.252E-01    2.740E-01    3.227E-01    3.713E-01    4.198E-01    4.681E-01    5.162E-01    5.642E-01    6.121E-01
     6.598E-01    7.073E-01    7.547E-01    8.020E-01    8.490E-01    8.959E-01    9.427E-01    9.892E-01    1.036E+00    1.082E+00
     1.128E+00    1.174E+00    1.219E+00    1.265E+00    1.310E+00    1.355E+00    1.400E+00    1.445E+00    1.490E+00    1.534E+00
     1.578E+00    1.622E+00    1.666E+00    1.709E+00    1.752E+00    1.795E+00    1.838E+00    1.881E+00    1.923E+00    1.965E+00
     2.007E+00    2.049E+00    2.091E+00    2.132E+00    2.173E+00    2.214E+00    2.254E+00    2.295E+00    2.335E+00    2.375E+00
     2.414E+00    2.454E+00    2.493E+00    2.533E+00    2.572E+00    2.611E+00    2.649E+00    2.688E+00    2.726E+00    2.765E+00
     2.803E+00    2.841E+00    2.879E+00    2.917E+00    2.954E+00    2.992E+00    3.029E+00    3.067E+00    3.104E+00    3.141E+00
     3.179E+00    3.216E+00    3.253E+00    3.290E+00    3.327E+00    3.364E+00    3.401E+00    3.438E+00    3.475E+00    3.511E+00
     3.548E+00    3.585E+00    3.622E+00    3.659E+00    3.696E+00    3.732E+00    3.769E+00    3.806E+00
 Ala      Conc. = 2.60E+02
