 LCModel (Version 6.3-1L) Copyright: S.W. Provencher.          Ref.: Magn. Reson. Med. 30:672-679 (1993).                
 Slice#3 Row#1 Col#1  PD_24_press_2_raw_act
 36 lines in following concentration table = NCONC+1
    Conc.  %SD /Cr+PCr  Metabolite                                         
  196.274  84%   0.000 Ala                                                 
   21.293  69%   0.000 Asp                                                 
    0.000 999%   0.000 Cr                                                  
    0.000 999%   0.000 PCr                                                 
   13.119  67%   0.000 GABA                                                
   12.759  69%   0.000 Glc                                                 
 1.04E+03  37%   0.000 Gln                                                 
  999.238  43%   0.000 Glu                                                 
   59.170  39%   0.000 GPC                                                 
    0.000 999%   0.000 PCh                                                 
   28.547 350%   0.000 GSH                                                 
  758.924  37%   0.000 Ins                                                 
    0.000 999%   0.000 Lac                                                 
  239.190  30%   0.000 NAA                                                 
    0.000 999%   0.000 NAAG                                                
    4.507  65%   0.000 Scyllo                                              
   21.818  67%   0.000 Tau                                                 
    0.000 999%   0.000 -CrCH2                                              
   59.170  39%   0.000 GPC+PCh                                             
  239.190  30%   0.000 NAA+NAAG                                            
    0.000 999%   0.000 Cr+PCr                                              
 2.03E+03  33%   0.000 Glu+Gln                                             
  800.180  32%   0.000 Lip13a                                              
    0.000 999%   0.000 Lip13b                                              
    0.000 999%   0.000 Lip09                                               
 1.16E+03  14%   0.000 MM09                                                
  124.768  71%   0.000 Lip20                                               
 1.75E+03  14%   0.000 MM20                                                
  348.977  14%   0.000 MM12                                                
  872.505  14%   0.000 MM14                                                
  436.214  14%   0.000 MM17                                                
  800.180  32%   0.000 Lip13a+Lip13b                                       
 2.02E+03  13%   0.000 MM14+Lip13a+Lip13b+MM12                             
 1.16E+03  14%   0.000 MM09+Lip09                                          
 1.87E+03  14%   0.000 MM20+Lip20                                          
   6 lines in following misc. output table
  FWHM = 0.076 ppm    S/N =   1                                            
  Data shift =-0.015 ppm                                                   
  Ph:  34 deg      35.4 deg/ppm                                            
  alphaB,S = 8.5E+01,   8.0E+01                                            
   14 spline knots.   Ns = 6(1)                                            
   4 inflections.     1 extrema                                            
  498 points on ppm-axis = NY
      4.000000     3.992357     3.984714     3.977070     3.969427     3.961784     3.954141     3.946497     3.938854     3.931211
      3.923568     3.915925     3.908281     3.900638     3.892995     3.885352     3.877708     3.870065     3.862422     3.854779
      3.847136     3.839492     3.831849     3.824206     3.816563     3.808919     3.801276     3.793633     3.785990     3.778347
      3.770703     3.763060     3.755417     3.747774     3.740130     3.732487     3.724844     3.717201     3.709558     3.701914
      3.694271     3.686628     3.678985     3.671341     3.663698     3.656055     3.648412     3.640769     3.633125     3.625482
      3.617839     3.610196     3.602552     3.594909     3.587266     3.579623     3.571980     3.564336     3.556693     3.549050
      3.541407     3.533763     3.526120     3.518477     3.510834     3.503191     3.495547     3.487904     3.480261     3.472618
      3.464974     3.457331     3.449688     3.442045     3.434402     3.426758     3.419115     3.411472     3.403829     3.396185
      3.388542     3.380899     3.373256     3.365613     3.357969     3.350326     3.342683     3.335040     3.327396     3.319753
      3.312110     3.304467     3.296824     3.289180     3.281537     3.273894     3.266251     3.258607     3.250964     3.243321
      3.235678     3.228034     3.220391     3.212748     3.205105     3.197462     3.189818     3.182175     3.174532     3.166889
      3.159245     3.151602     3.143959     3.136316     3.128673     3.121029     3.113386     3.105743     3.098100     3.090456
      3.082813     3.075170     3.067527     3.059884     3.052240     3.044597     3.036954     3.029311     3.021667     3.014024
      3.006381     2.998738     2.991095     2.983451     2.975808     2.968165     2.960522     2.952878     2.945235     2.937592
      2.929949     2.922306     2.914662     2.907019     2.899376     2.891733     2.884089     2.876446     2.868803     2.861160
      2.853517     2.845873     2.838230     2.830587     2.822944     2.815300     2.807657     2.800014     2.792371     2.784728
      2.777084     2.769441     2.761798     2.754155     2.746511     2.738868     2.731225     2.723582     2.715939     2.708295
      2.700652     2.693009     2.685366     2.677722     2.670079     2.662436     2.654793     2.647150     2.639506     2.631863
      2.624220     2.616577     2.608933     2.601290     2.593647     2.586004     2.578361     2.570717     2.563074     2.555431
      2.547788     2.540144     2.532501     2.524858     2.517215     2.509572     2.501928     2.494285     2.486642     2.478999
      2.471355     2.463712     2.456069     2.448426     2.440783     2.433139     2.425496     2.417853     2.410210     2.402566
      2.394923     2.387280     2.379637     2.371994     2.364350     2.356707     2.349064     2.341421     2.333777     2.326134
      2.318491     2.310848     2.303205     2.295561     2.287918     2.280275     2.272632     2.264988     2.257345     2.249702
      2.242059     2.234416     2.226772     2.219129     2.211486     2.203843     2.196199     2.188556     2.180913     2.173270
      2.165627     2.157983     2.150340     2.142697     2.135054     2.127410     2.119767     2.112124     2.104481     2.096838
      2.089194     2.081551     2.073908     2.066265     2.058621     2.050978     2.043335     2.035692     2.028049     2.020405
      2.012762     2.005119     1.997476     1.989833     1.982190     1.974546     1.966903     1.959260     1.951617     1.943974
      1.936331     1.928688     1.921045     1.913402     1.905759     1.898115     1.890472     1.882829     1.875186     1.867543
      1.859900     1.852257     1.844614     1.836971     1.829327     1.821684     1.814041     1.806398     1.798755     1.791112
      1.783469     1.775826     1.768183     1.760540     1.752896     1.745253     1.737610     1.729967     1.722324     1.714681
      1.707038     1.699395     1.691752     1.684108     1.676465     1.668822     1.661179     1.653536     1.645893     1.638250
      1.630607     1.622964     1.615321     1.607677     1.600034     1.592391     1.584748     1.577105     1.569462     1.561819
      1.554176     1.546533     1.538890     1.531246     1.523603     1.515960     1.508317     1.500674     1.493031     1.485388
      1.477745     1.470102     1.462458     1.454815     1.447172     1.439529     1.431886     1.424243     1.416600     1.408957
      1.401314     1.393671     1.386027     1.378384     1.370741     1.363098     1.355455     1.347812     1.340169     1.332526
      1.324883     1.317240     1.309596     1.301953     1.294310     1.286667     1.279024     1.271381     1.263738     1.256095
      1.248452     1.240808     1.233165     1.225522     1.217879     1.210236     1.202593     1.194950     1.187307     1.179664
      1.172021     1.164377     1.156734     1.149091     1.141448     1.133805     1.126162     1.118519     1.110876     1.103233
      1.095590     1.087946     1.080303     1.072660     1.065017     1.057374     1.049731     1.042088     1.034445     1.026802
      1.019158     1.011515     1.003872     0.996229     0.988586     0.980943     0.973300     0.965657     0.958014     0.950371
      0.942727     0.935084     0.927441     0.919798     0.912155     0.904512     0.896869     0.889226     0.881583     0.873940
      0.866296     0.858653     0.851010     0.843367     0.835724     0.828081     0.820438     0.812795     0.805152     0.797508
      0.789865     0.782222     0.774579     0.766936     0.759293     0.751650     0.744007     0.736364     0.728721     0.721077
      0.713434     0.705791     0.698148     0.690505     0.682862     0.675219     0.667576     0.659933     0.652290     0.644646
      0.637003     0.629360     0.621717     0.614074     0.606431     0.598788     0.591145     0.583502     0.575858     0.568215
      0.560572     0.552929     0.545286     0.537643     0.530000     0.522357     0.514714     0.507071     0.499427     0.491784
      0.484141     0.476498     0.468855     0.461212     0.453569     0.445925     0.438282     0.430639     0.422996     0.415353
      0.407710     0.400067     0.392424     0.384780     0.377137     0.369494     0.361851     0.354208     0.346565     0.338922
      0.331278     0.323635     0.315992     0.308349     0.300706     0.293063     0.285420     0.277777     0.270133     0.262490
      0.254847     0.247204     0.239561     0.231918     0.224275     0.216631     0.208988     0.201345
 NY phased data points follow
  -7.04460E+00 -4.19101E-01 -9.20393E+00  1.63259E+00 -3.47890E-01 -9.89886E-02 -6.65868E+00  9.14845E-01 -3.54039E+00 -5.26158E+00
  -7.80499E+00 -4.68536E-01 -6.71266E-01  7.29343E-01 -9.17295E-01  3.88721E-01 -3.29306E+00 -2.44818E+00  7.69091E+00  1.51126E+00
  -2.71702E+00  3.50150E+00 -3.88399E+00  4.30803E+00 -2.56998E+00 -6.14649E+00  3.60722E+00 -2.66927E+00 -5.14639E+00  2.55139E+00
  -2.59485E-02  2.58224E+00 -4.26335E+00  6.87995E-01 -1.58521E+00 -4.80545E+00  8.54569E-01 -2.02811E+00 -7.68615E+00  1.93232E+00
   3.37152E+00  1.58368E+00 -2.81267E+00  1.41756E+00 -1.91697E+00  1.17746E+00 -3.50842E+00 -1.16791E+00 -2.80587E+00  4.42413E+00
  -8.23463E+00 -1.79527E+00 -1.14145E+00  3.03968E+00  7.95111E-03  1.34995E+00 -6.97864E-01 -3.07556E+00 -1.00065E+00  4.20456E+00
   3.09590E+00  4.88201E+00 -1.18199E+00 -1.79545E+00 -8.60202E+00 -9.30269E-01 -9.47598E-01  2.03700E+00 -3.26902E+00 -1.08298E+00
  -5.48258E+00  5.44504E-01 -3.49353E+00  5.38683E+00 -1.32856E+00 -5.46518E-01  2.91923E+00 -2.01734E+00 -2.76388E+00 -4.57688E+00
   1.25081E+00  4.29019E+00 -6.43554E+00 -1.15904E+00 -8.33908E+00 -5.31069E+00  1.27759E+00 -1.90120E+00 -3.79005E+00  3.49126E+00
  -1.86395E+00  5.12008E+00 -2.17390E+00  2.61667E+00 -6.76021E+00 -4.05905E+00  1.10046E-01 -8.21353E-01 -4.18697E+00  2.72573E+00
   4.27714E+00 -5.16133E+00 -4.83978E+00  3.57686E+00 -4.31613E+00  1.68773E+00  5.39123E+00 -1.67206E+00 -1.87697E+00 -3.70743E+00
  -5.37400E+00  2.67563E+00  5.08313E+00 -1.41031E+00 -1.08579E+01 -3.98061E+00 -2.86283E+00 -6.40612E+00 -7.89387E+00 -2.78696E+00
  -5.04580E+00 -3.64440E+00 -6.20950E+00 -8.22833E+00 -9.14875E+00 -3.00429E+00 -1.00767E+01 -2.24334E-01 -8.33601E+00  6.41388E-01
  -2.09044E+00  7.49688E-01  6.06325E+00  3.03772E+00 -6.57502E+00  1.13149E+00  5.33863E+00 -4.60721E+00 -8.87219E+00 -4.40316E+00
  -5.48073E+00 -2.32126E+00 -7.39244E+00 -4.33687E+00 -3.94932E+00 -5.11067E+00 -1.98136E+00 -5.81574E+00 -8.59660E+00 -7.70665E-01
  -2.47211E+00 -4.87323E+00 -1.92867E+00  1.21660E+00 -4.04502E+00 -6.09081E+00 -5.78356E+00 -4.10413E+00 -5.97457E+00 -5.76867E+00
  -7.88554E+00 -9.54971E+00 -1.25616E+01 -2.04974E+00 -4.92286E+00 -5.25619E+00 -4.68145E+00 -7.30840E+00 -1.08186E+01 -9.24741E+00
  -7.96681E+00 -4.88734E+00 -7.71982E+00 -6.60555E+00 -5.25039E+00 -6.73372E+00 -8.68005E+00 -7.57682E+00 -7.87622E+00 -5.40366E+00
  -2.49615E+00 -1.05800E+01 -1.28418E+01 -1.58883E+01 -1.11111E+01 -1.01781E+01 -9.74559E+00 -1.62935E+00 -9.00369E+00 -6.10897E+00
  -9.33927E+00 -1.06429E+01 -9.24642E+00 -7.62217E+00 -9.53645E+00 -1.03840E+01 -9.16399E+00 -1.06631E+00 -7.11837E+00 -3.41948E-01
  -8.82951E+00 -5.50081E+00 -1.21943E+01 -1.13096E+00 -1.80364E+00 -6.96834E+00 -6.85788E+00 -1.16043E+01 -1.40799E+01 -2.77738E-01
  -3.46494E+00 -3.18617E+00  5.11358E+00 -1.20525E+00 -3.56695E+00  3.56614E+00 -7.34084E+00  7.92467E-01 -1.49756E+00  2.47920E+00
  -7.78063E+00 -4.34664E-01  5.31531E+00  5.63620E-01  6.35645E+00 -3.45584E+00 -7.58283E-01  9.22774E+00 -4.57836E+00  2.81228E+00
   4.43916E+00  4.83892E+00  6.32155E+00  9.72431E+00  5.83191E+00  6.77333E+00  4.61548E+00  7.78914E+00  7.44275E+00  1.38457E+01
   8.49326E+00  1.00055E+01  1.03707E+01  4.57048E+00  2.77986E+00  8.88120E+00  1.14277E+01  1.32664E+01  6.57845E+00  9.19623E+00
   1.02672E+01  6.95950E+00  7.67693E+00  3.96499E+00  1.96667E+00  1.19644E+00  5.50838E+00  5.79496E+00  1.20481E+01  4.90838E+00
   1.77608E+01  1.35575E+01  1.21258E+01  5.55046E+00  7.88792E+00  7.50902E+00  8.40749E+00  8.99468E+00  3.30536E+00  5.99726E+00
  -1.02366E+00  5.79257E+00  5.23941E+00  1.29683E-01  3.03936E+00  5.83007E+00 -3.00973E+00  5.86216E+00 -4.17459E+00  5.45121E+00
   4.79097E+00 -8.08378E-01 -1.48946E+00  1.80406E+00 -3.76380E-01 -7.53304E+00  1.29522E+00  2.22939E+00  8.35147E-01 -2.19346E+00
   1.66984E-01 -3.60131E+00  1.44784E+00 -2.05586E+00 -6.11252E+00 -2.86465E-01  3.33584E+00  3.87769E+00 -2.65408E+00 -1.99071E+00
  -1.97815E-01 -1.97709E+00 -7.93256E+00  1.68127E+00  1.44162E+00 -5.65251E+00  6.16677E+00  1.12486E+01  3.46721E+00 -2.84232E+00
  -6.74227E-01  4.42404E+00  1.83261E+00  3.58475E+00  3.66455E+00  6.24491E+00  5.45613E+00  4.22690E+00  1.82716E+00 -1.35338E+00
   5.83373E+00  6.14915E+00  2.48856E+00  6.11163E+00  1.42414E+01  3.06122E+00  5.12198E+00  8.13921E+00 -2.99221E+00  3.48769E+00
   7.68688E+00  1.93897E+00  7.46782E+00  4.62227E+00 -2.27994E+00  4.67458E+00  8.10667E+00  3.14529E+00  3.48432E+00  2.25583E+00
   5.46644E+00  8.07646E+00  1.61960E+00  3.31720E+00  5.09084E+00  5.63119E+00  5.65486E+00  4.12730E+00  1.02560E+01  8.26455E+00
   1.60947E+01  7.47846E+00  3.11523E+00  2.65279E+00  8.69611E+00  2.81776E+00  5.93661E-02  7.75047E+00  4.19090E+00  1.37143E+00
   4.15041E+00  9.89787E+00  1.20565E+01  8.29282E+00  4.12043E+00  9.03738E+00  3.89730E+00  7.89096E+00  8.77969E+00  3.69594E+00
   2.37034E+00  8.11090E+00  2.87895E+00  2.53220E+00  9.54351E+00  3.67047E+00  9.07190E+00  7.06672E+00 -9.29146E-01  4.99018E-01
   5.43463E+00  4.56785E-01  1.66046E+00  7.12026E+00  6.94766E+00  6.14546E+00  1.76423E+00  2.64407E+00  5.60648E+00 -1.58382E-01
  -8.20275E-01  2.64347E-01 -3.11359E+00  8.67445E+00 -1.11062E+00 -2.18344E+00 -7.10821E+00  6.43936E-01  2.90412E+00  2.63719E+00
   6.02653E+00  6.09591E-01  8.76434E-01  6.72100E+00  2.09816E+00  8.39689E+00 -8.65675E-01  2.79792E+00  3.95767E+00  2.54771E+00
   5.13168E+00 -5.41614E-01  5.12475E-01 -1.92906E+00  1.18576E+00  2.13952E+00 -8.91978E-01  5.50823E+00  4.42535E+00  3.35804E+00
   1.30396E+00  1.72427E+00  3.16945E+00  7.08786E-01  6.66460E+00  2.80536E+00 -2.99326E+00 -4.21408E-01  2.16103E-01  1.58721E+00
   4.15600E+00  1.23752E+00  9.23399E+00  2.77522E+00  6.01554E+00  1.08379E+00  2.87262E+00  3.58270E+00  9.73377E+00 -3.70025E+00
   1.93491E+00 -5.09851E+00  2.18380E+00 -3.31033E+00  3.47090E+00 -3.71605E+00  6.31259E+00  1.08488E+00  1.26969E-01 -2.67768E+00
   2.41015E+00  6.06754E-01 -1.79790E+00 -3.36955E+00 -2.06054E+00  4.68490E+00  1.28856E+00 -1.49241E+00 -3.55059E+00  2.91242E+00
   6.68997E+00 -1.10485E+00  2.33611E+00 -4.22662E+00  1.21912E+00  1.11569E-01 -3.78465E+00  7.42109E+00 -4.81454E+00  4.54118E+00
   1.30819E+00  2.35632E+00  5.68795E+00 -9.21791E-01 -3.39168E-01 -8.62325E-01  8.97232E+00  5.39990E-01  2.78972E+00  1.27547E+00
  -1.63089E+00  4.11235E+00  4.56966E-01  2.23535E+00 -9.30400E-01  3.44533E+00  2.11713E-01  3.42881E+00  3.09374E+00 -9.77109E-01
  -7.19290E+00  2.91005E-01  2.26760E+00 -1.00491E+00 -2.42815E+00 -2.90457E-01  5.76356E-01 -6.13541E+00
 NY points of the fit to the data follow
  -2.46911E+00 -2.75044E+00 -2.99498E+00 -3.19706E+00 -3.28507E+00 -3.30943E+00 -3.30329E+00 -3.27778E+00 -3.24301E+00 -3.20084E+00
  -3.14908E+00 -3.09310E+00 -3.05787E+00 -3.03940E+00 -3.00731E+00 -2.93053E+00 -2.78590E+00 -2.56165E+00 -2.23588E+00 -1.75652E+00
  -1.28471E+00 -1.19271E+00 -1.67159E+00 -2.55775E+00 -3.49861E+00 -4.13029E+00 -3.98318E+00 -2.94202E+00 -1.41559E+00 -6.26659E-02
   5.95880E-01  4.50179E-01 -2.17336E-01 -8.18209E-01 -1.02502E+00 -1.00355E+00 -9.80265E-01 -1.15051E+00 -1.68337E+00 -2.47425E+00
  -2.93040E+00 -2.57107E+00 -1.36297E+00  2.33075E-01  1.59289E+00  2.27933E+00  2.17608E+00  1.58364E+00  8.64877E-01  1.82125E-01
  -3.43782E-01 -7.52196E-01 -1.23600E+00 -1.85374E+00 -2.41498E+00 -2.58217E+00 -2.26493E+00 -1.79645E+00 -1.48470E+00 -1.41063E+00
  -1.52514E+00 -1.71622E+00 -1.88581E+00 -1.97116E+00 -1.99465E+00 -2.03158E+00 -2.08146E+00 -2.08132E+00 -2.00563E+00 -1.87293E+00
  -1.70312E+00 -1.56122E+00 -1.48275E+00 -1.48504E+00 -1.55935E+00 -1.66358E+00 -1.78390E+00 -1.91758E+00 -2.08127E+00 -2.24145E+00
  -2.35087E+00 -2.51529E+00 -2.81755E+00 -3.24180E+00 -3.68677E+00 -4.05420E+00 -4.28392E+00 -4.35810E+00 -4.29510E+00 -4.15063E+00
  -3.95884E+00 -3.76492E+00 -3.60530E+00 -3.46028E+00 -3.31563E+00 -3.19079E+00 -2.93034E+00 -2.17769E+00 -1.11492E+00 -1.26868E-01
   5.21905E-01  7.35507E-01  6.13440E-01  3.14373E-01  1.53194E-02 -1.94319E-01 -3.56129E-01 -6.10913E-01 -1.11149E+00 -1.85877E+00
  -2.53922E+00 -2.76540E+00 -2.77187E+00 -2.74237E+00 -2.70029E+00 -2.65703E+00 -2.60846E+00 -2.55757E+00 -2.50410E+00 -2.44536E+00
  -2.37916E+00 -2.30514E+00 -2.22481E+00 -2.14260E+00 -2.05984E+00 -1.97606E+00 -1.89371E+00 -1.81256E+00 -1.73606E+00 -1.67912E+00
  -1.65416E+00 -1.66738E+00 -1.71421E+00 -1.77523E+00 -1.83024E+00 -1.86884E+00 -1.88989E+00 -1.90766E+00 -1.93391E+00 -1.97324E+00
  -2.01973E+00 -2.06017E+00 -2.08982E+00 -2.11984E+00 -2.15741E+00 -2.20773E+00 -2.27417E+00 -2.34881E+00 -2.42185E+00 -2.48891E+00
  -2.54631E+00 -2.59782E+00 -2.64342E+00 -2.68283E+00 -2.71916E+00 -2.76948E+00 -2.84128E+00 -2.91661E+00 -2.97584E+00 -2.99851E+00
  -2.98914E+00 -2.97330E+00 -2.96902E+00 -2.98462E+00 -3.01637E+00 -3.05338E+00 -3.08199E+00 -3.09288E+00 -3.09328E+00 -3.11033E+00
  -3.16472E+00 -3.25015E+00 -3.32658E+00 -3.35983E+00 -3.35597E+00 -3.34829E+00 -3.35275E+00 -3.35934E+00 -3.35604E+00 -3.33946E+00
  -3.31492E+00 -3.29050E+00 -3.26027E+00 -3.20932E+00 -3.14416E+00 -3.06562E+00 -2.95511E+00 -2.83853E+00 -2.80313E+00 -2.89046E+00
  -3.12512E+00 -3.48144E+00 -3.85909E+00 -4.17117E+00 -4.35167E+00 -4.28140E+00 -3.82876E+00 -3.01899E+00 -2.03995E+00 -9.86680E-01
   2.30745E-02  7.35414E-01  9.76750E-01  5.80074E-01 -7.87702E-01 -2.79658E+00 -4.63120E+00 -5.83367E+00 -6.21338E+00 -5.67038E+00
  -4.18731E+00 -2.38897E+00 -8.93701E-01  1.49557E-01  8.15259E-01  1.14591E+00  1.08726E+00  4.93371E-01 -6.03758E-01 -1.61189E+00
  -2.13806E+00 -2.32690E+00 -2.31516E+00 -1.99656E+00 -1.25824E+00 -4.84921E-01  2.24930E-01  1.00642E+00  1.89861E+00  2.60070E+00
   2.57122E+00  1.95644E+00  1.39298E+00  1.20931E+00  1.42914E+00  2.09972E+00  3.01821E+00  3.69386E+00  3.98435E+00  3.91208E+00
   3.61580E+00  3.36352E+00  3.36148E+00  3.47067E+00  3.35332E+00  3.09344E+00  2.92822E+00  2.99496E+00  3.39014E+00  4.18999E+00
   5.13351E+00  5.76483E+00  6.09917E+00  6.24908E+00  6.61915E+00  7.76514E+00  9.37168E+00  1.08055E+01  1.16124E+01  1.16667E+01
   1.11392E+01  1.03193E+01  9.46669E+00  8.76630E+00  8.16623E+00  7.37244E+00  6.10617E+00  4.46579E+00  3.08653E+00  2.43440E+00
   2.09992E+00  1.88288E+00  1.74384E+00  1.59870E+00  1.42628E+00  1.25512E+00  1.09580E+00  9.53842E-01  8.21951E-01  6.78022E-01
   5.12439E-01  3.52487E-01  2.19836E-01  1.10685E-01  2.36573E-02 -3.77281E-02 -7.22351E-02 -8.33702E-02 -8.24012E-02 -7.34210E-02
  -5.21461E-02 -1.76204E-02  3.04572E-02  9.33412E-02  1.72177E-01  2.65991E-01  3.72002E-01  4.90193E-01  6.20783E-01  7.60907E-01
   9.07914E-01  1.06006E+00  1.21442E+00  1.36827E+00  1.51918E+00  1.66495E+00  1.80370E+00  1.93375E+00  2.05379E+00  2.16312E+00
   2.26206E+00  2.35221E+00  2.43528E+00  2.51364E+00  2.59097E+00  2.67175E+00  2.76163E+00  2.86821E+00  3.00271E+00  3.18495E+00
   3.46101E+00  3.91577E+00  4.40807E+00  4.65460E+00  4.56913E+00  4.20242E+00  3.67759E+00  3.10362E+00  2.52823E+00  2.12423E+00
   2.12157E+00  2.43245E+00  2.85999E+00  3.27344E+00  3.70024E+00  4.25391E+00  4.80692E+00  5.20939E+00  5.54617E+00  5.86945E+00
   6.12696E+00  6.19451E+00  5.99506E+00  5.71039E+00  5.56918E+00  5.51850E+00  5.51160E+00  5.53044E+00  5.56571E+00  5.61118E+00
   5.66177E+00  5.71290E+00  5.76019E+00  5.79945E+00  5.82679E+00  5.83863E+00  5.83192E+00  5.80417E+00  5.75362E+00  5.67927E+00
   5.58096E+00  5.45934E+00  5.31580E+00  5.15242E+00  4.97186E+00  4.77724E+00  4.57203E+00  4.35988E+00  4.14454E+00  3.92969E+00
   3.71887E+00  3.51543E+00  3.32244E+00  3.14264E+00  2.97846E+00  2.83195E+00  2.70485E+00  2.59860E+00  2.51435E+00  2.45298E+00
   2.41514E+00  2.40127E+00  2.41162E+00  2.44626E+00  2.50510E+00  2.58784E+00  2.69397E+00  2.82274E+00  2.97314E+00  3.14383E+00
   3.33314E+00  3.53898E+00  3.75883E+00  3.98975E+00  4.22834E+00  4.47080E+00  4.71295E+00  4.95030E+00  5.17814E+00  5.39173E+00
   5.58636E+00  5.75753E+00  5.90113E+00  6.01354E+00  6.09184E+00  6.13386E+00  6.13833E+00  6.10487E+00  6.03403E+00  5.92726E+00
   5.78683E+00  5.61576E+00  5.41763E+00  5.19647E+00  4.95662E+00  4.70249E+00  4.43851E+00  4.16890E+00  3.89762E+00  3.62824E+00
   3.36388E+00  3.10717E+00  2.86026E+00  2.62479E+00  2.40196E+00  2.19251E+00  1.99683E+00  1.81499E+00  1.64679E+00  1.49183E+00
   1.34955E+00  1.21925E+00  1.10020E+00  9.91611E-01  8.92698E-01  8.02678E-01  7.20794E-01  6.46328E-01  5.78609E-01  5.17016E-01
   4.60980E-01  4.09978E-01  3.63531E-01  3.21209E-01  2.82623E-01  2.47430E-01  2.15318E-01  1.86005E-01  1.59235E-01  1.34784E-01
   1.12452E-01  9.20645E-02  7.34583E-02  5.64824E-02  4.10006E-02  2.68956E-02  1.40630E-02  2.40652E-03 -8.16258E-03 -1.77252E-02
  -2.63536E-02 -3.41114E-02 -4.10570E-02 -4.72479E-02 -5.27386E-02 -5.75761E-02 -6.18018E-02 -6.54516E-02 -6.85599E-02 -7.11605E-02
  -7.32868E-02 -7.49697E-02 -7.62331E-02 -7.70972E-02 -7.75834E-02 -7.77151E-02 -7.75143E-02 -7.69996E-02 -7.61847E-02 -7.50817E-02
  -7.37063E-02 -7.20758E-02 -7.02046E-02 -6.81026E-02 -6.57766E-02 -6.32351E-02 -6.04897E-02 -5.75529E-02 -5.44332E-02 -5.11345E-02
  -4.76596E-02 -4.40150E-02 -4.02104E-02 -3.62538E-02 -3.21473E-02 -2.78892E-02 -2.34794E-02 -1.89221E-02
 NY background values follow
    -4.399E+00   -4.391E+00   -4.383E+00   -4.374E+00   -4.366E+00   -4.358E+00   -4.349E+00   -4.341E+00   -4.333E+00   -4.324E+00
    -4.316E+00   -4.308E+00   -4.299E+00   -4.291E+00   -4.282E+00   -4.274E+00   -4.266E+00   -4.257E+00   -4.249E+00   -4.241E+00
    -4.232E+00   -4.224E+00   -4.216E+00   -4.207E+00   -4.199E+00   -4.191E+00   -4.182E+00   -4.174E+00   -4.165E+00   -4.157E+00
    -4.149E+00   -4.140E+00   -4.132E+00   -4.124E+00   -4.115E+00   -4.107E+00   -4.099E+00   -4.090E+00   -4.082E+00   -4.074E+00
    -4.065E+00   -4.057E+00   -4.048E+00   -4.040E+00   -4.032E+00   -4.023E+00   -4.015E+00   -4.007E+00   -3.998E+00   -3.990E+00
    -3.982E+00   -3.973E+00   -3.965E+00   -3.956E+00   -3.948E+00   -3.940E+00   -3.931E+00   -3.923E+00   -3.915E+00   -3.906E+00
    -3.898E+00   -3.890E+00   -3.881E+00   -3.873E+00   -3.865E+00   -3.856E+00   -3.848E+00   -3.839E+00   -3.831E+00   -3.823E+00
    -3.814E+00   -3.806E+00   -3.798E+00   -3.789E+00   -3.781E+00   -3.773E+00   -3.764E+00   -3.756E+00   -3.748E+00   -3.739E+00
    -3.731E+00   -3.722E+00   -3.714E+00   -3.706E+00   -3.697E+00   -3.689E+00   -3.681E+00   -3.672E+00   -3.664E+00   -3.656E+00
    -3.647E+00   -3.639E+00   -3.631E+00   -3.622E+00   -3.614E+00   -3.605E+00   -3.597E+00   -3.589E+00   -3.580E+00   -3.572E+00
    -3.564E+00   -3.555E+00   -3.547E+00   -3.539E+00   -3.530E+00   -3.522E+00   -3.513E+00   -3.505E+00   -3.497E+00   -3.488E+00
    -3.480E+00   -3.472E+00   -3.463E+00   -3.455E+00   -3.447E+00   -3.438E+00   -3.430E+00   -3.422E+00   -3.413E+00   -3.405E+00
    -3.396E+00   -3.388E+00   -3.380E+00   -3.371E+00   -3.363E+00   -3.355E+00   -3.346E+00   -3.338E+00   -3.330E+00   -3.321E+00
    -3.313E+00   -3.305E+00   -3.296E+00   -3.288E+00   -3.279E+00   -3.271E+00   -3.263E+00   -3.254E+00   -3.246E+00   -3.238E+00
    -3.229E+00   -3.221E+00   -3.213E+00   -3.204E+00   -3.196E+00   -3.187E+00   -3.179E+00   -3.171E+00   -3.162E+00   -3.154E+00
    -3.146E+00   -3.137E+00   -3.129E+00   -3.121E+00   -3.112E+00   -3.104E+00   -3.096E+00   -3.087E+00   -3.079E+00   -3.070E+00
    -3.062E+00   -3.054E+00   -3.045E+00   -3.037E+00   -3.029E+00   -3.020E+00   -3.012E+00   -3.004E+00   -2.995E+00   -2.987E+00
    -2.978E+00   -2.970E+00   -2.962E+00   -2.953E+00   -2.945E+00   -2.937E+00   -2.928E+00   -2.920E+00   -2.912E+00   -2.903E+00
    -2.895E+00   -2.887E+00   -2.878E+00   -2.870E+00   -2.861E+00   -2.853E+00   -2.845E+00   -2.836E+00   -2.828E+00   -2.820E+00
    -2.811E+00   -2.803E+00   -2.795E+00   -2.786E+00   -2.778E+00   -2.769E+00   -2.761E+00   -2.753E+00   -2.744E+00   -2.736E+00
    -2.728E+00   -2.719E+00   -2.711E+00   -2.703E+00   -2.694E+00   -2.686E+00   -2.678E+00   -2.669E+00   -2.661E+00   -2.652E+00
    -2.644E+00   -2.636E+00   -2.627E+00   -2.619E+00   -2.611E+00   -2.602E+00   -2.594E+00   -2.586E+00   -2.577E+00   -2.569E+00
    -2.560E+00   -2.552E+00   -2.544E+00   -2.535E+00   -2.527E+00   -2.519E+00   -2.510E+00   -2.502E+00   -2.494E+00   -2.485E+00
    -2.477E+00   -2.469E+00   -2.460E+00   -2.452E+00   -2.443E+00   -2.435E+00   -2.427E+00   -2.418E+00   -2.410E+00   -2.402E+00
    -2.393E+00   -2.385E+00   -2.377E+00   -2.368E+00   -2.360E+00   -2.351E+00   -2.343E+00   -2.335E+00   -2.326E+00   -2.318E+00
    -2.310E+00   -2.301E+00   -2.293E+00   -2.285E+00   -2.276E+00   -2.268E+00   -2.259E+00   -2.251E+00   -2.243E+00   -2.234E+00
    -2.226E+00   -2.218E+00   -2.209E+00   -2.201E+00   -2.193E+00   -2.184E+00   -2.176E+00   -2.168E+00   -2.159E+00   -2.151E+00
    -2.142E+00   -2.134E+00   -2.126E+00   -2.117E+00   -2.109E+00   -2.101E+00   -2.092E+00   -2.084E+00   -2.076E+00   -2.067E+00
    -2.059E+00   -2.050E+00   -2.042E+00   -2.034E+00   -2.025E+00   -2.017E+00   -2.009E+00   -2.000E+00   -1.992E+00   -1.984E+00
    -1.975E+00   -1.967E+00   -1.958E+00   -1.950E+00   -1.942E+00   -1.933E+00   -1.925E+00   -1.917E+00   -1.908E+00   -1.900E+00
    -1.892E+00   -1.883E+00   -1.875E+00   -1.867E+00   -1.858E+00   -1.850E+00   -1.841E+00   -1.833E+00   -1.825E+00   -1.816E+00
    -1.808E+00   -1.800E+00   -1.791E+00   -1.783E+00   -1.775E+00   -1.766E+00   -1.758E+00   -1.749E+00   -1.741E+00   -1.733E+00
    -1.724E+00   -1.716E+00   -1.708E+00   -1.699E+00   -1.691E+00   -1.683E+00   -1.674E+00   -1.666E+00   -1.657E+00   -1.649E+00
    -1.641E+00   -1.632E+00   -1.624E+00   -1.616E+00   -1.607E+00   -1.599E+00   -1.591E+00   -1.582E+00   -1.574E+00   -1.565E+00
    -1.557E+00   -1.549E+00   -1.540E+00   -1.532E+00   -1.524E+00   -1.515E+00   -1.507E+00   -1.499E+00   -1.490E+00   -1.482E+00
    -1.474E+00   -1.465E+00   -1.457E+00   -1.448E+00   -1.440E+00   -1.432E+00   -1.423E+00   -1.415E+00   -1.407E+00   -1.398E+00
    -1.390E+00   -1.382E+00   -1.373E+00   -1.365E+00   -1.356E+00   -1.348E+00   -1.340E+00   -1.331E+00   -1.323E+00   -1.315E+00
    -1.306E+00   -1.298E+00   -1.290E+00   -1.281E+00   -1.273E+00   -1.264E+00   -1.256E+00   -1.248E+00   -1.239E+00   -1.231E+00
    -1.223E+00   -1.214E+00   -1.206E+00   -1.198E+00   -1.189E+00   -1.181E+00   -1.172E+00   -1.164E+00   -1.156E+00   -1.147E+00
    -1.139E+00   -1.131E+00   -1.122E+00   -1.114E+00   -1.106E+00   -1.097E+00   -1.089E+00   -1.081E+00   -1.072E+00   -1.064E+00
    -1.055E+00   -1.047E+00   -1.039E+00   -1.030E+00   -1.022E+00   -1.014E+00   -1.005E+00   -9.969E-01   -9.885E-01   -9.802E-01
    -9.718E-01   -9.634E-01   -9.551E-01   -9.467E-01   -9.384E-01   -9.300E-01   -9.216E-01   -9.133E-01   -9.049E-01   -8.965E-01
    -8.882E-01   -8.798E-01   -8.715E-01   -8.631E-01   -8.547E-01   -8.464E-01   -8.380E-01   -8.297E-01   -8.213E-01   -8.129E-01
    -8.046E-01   -7.962E-01   -7.878E-01   -7.795E-01   -7.711E-01   -7.628E-01   -7.544E-01   -7.460E-01   -7.377E-01   -7.293E-01
    -7.209E-01   -7.126E-01   -7.042E-01   -6.959E-01   -6.875E-01   -6.791E-01   -6.708E-01   -6.624E-01   -6.541E-01   -6.457E-01
    -6.373E-01   -6.290E-01   -6.206E-01   -6.122E-01   -6.039E-01   -5.955E-01   -5.872E-01   -5.788E-01   -5.704E-01   -5.621E-01
    -5.537E-01   -5.453E-01   -5.370E-01   -5.286E-01   -5.203E-01   -5.119E-01   -5.035E-01   -4.952E-01   -4.868E-01   -4.785E-01
    -4.701E-01   -4.617E-01   -4.534E-01   -4.450E-01   -4.366E-01   -4.283E-01   -4.199E-01   -4.116E-01   -4.032E-01   -3.948E-01
    -3.865E-01   -3.781E-01   -3.697E-01   -3.614E-01   -3.530E-01   -3.447E-01   -3.363E-01   -3.279E-01   -3.196E-01   -3.112E-01
    -3.029E-01   -2.945E-01   -2.861E-01   -2.778E-01   -2.694E-01   -2.610E-01   -2.527E-01   -2.443E-01
 Ala      Conc. = 1.96E+02
