 LCModel (Version 6.3-1L) Copyright: S.W. Provencher.          Ref.: Magn. Reson. Med. 30:672-679 (1993).                
 Slice#1 Row#3 Col#10  PD_24_press_2_raw_act
 36 lines in following concentration table = NCONC+1
    Conc.  %SD /Cr+PCr  Metabolite                                         
   20.303 541%   0.125 Ala                                                 
   10.880 786% 6.7E-02 Asp                                                 
    0.000 999%   0.000 Cr                                                  
  162.031  45%   1.000 PCr                                                 
   17.170 296%   0.106 GABA                                                
   11.694 443% 7.2E-02 Glc                                                 
  231.719  97%   1.430 Gln                                                 
    0.000 999%   0.000 Glu                                                 
    0.000 999%   0.000 GPC                                                 
  109.108  30%   0.673 PCh                                                 
    0.000 999%   0.000 GSH                                                 
    0.000 999%   0.000 Ins                                                 
    0.000 999%   0.000 Lac                                                 
    0.000 999%   0.000 NAA                                                 
  229.610  40%   1.417 NAAG                                                
    0.000 999%   0.000 Scyllo                                              
   26.177 322%   0.162 Tau                                                 
  155.894  55%   0.962 -CrCH2                                              
  109.108  30%   0.673 GPC+PCh                                             
  229.610  40%   1.417 NAA+NAAG                                            
  162.031  45%   1.000 Cr+PCr                                              
  231.719  97%   1.430 Glu+Gln                                             
 3.80E+03  34%  23.463 Lip13a                                              
  118.771 386%   0.733 Lip13b                                              
    0.000 999%   0.000 Lip09                                               
 2.50E+03  16%  15.430 MM09                                                
  801.986  54%   4.950 Lip20                                               
 5.54E+03  11%  34.202 MM20                                                
  814.411  36%   5.026 MM12                                                
 6.47E+03   6%  39.943+MM14                                                
    0.000 999%   0.000 MM17                                                
 3.92E+03  27%  24.196 Lip13a+Lip13b                                       
 1.12E+04   8%  69.166 MM14+Lip13a+Lip13b+MM12                             
 2.50E+03  16%  15.430 MM09+Lip09                                          
 6.34E+03  10%  39.152 MM20+Lip20                                          
   6 lines in following misc. output table
  FWHM = 0.031 ppm    S/N =   3                                            
  Data shift =-0.061 ppm                                                   
  Ph: 173 deg     104.4 deg/ppm                                            
  alphaB,S = 3.9E-01,   1.1E+01                                            
   14 spline knots.   Ns = 6(1)                                            
  ( 9) 2 infls.   ( 6) 2 extrs.                                            
  498 points on ppm-axis = NY
      4.000000     3.992357     3.984714     3.977070     3.969427     3.961784     3.954141     3.946497     3.938854     3.931211
      3.923568     3.915925     3.908281     3.900638     3.892995     3.885352     3.877708     3.870065     3.862422     3.854779
      3.847136     3.839492     3.831849     3.824206     3.816563     3.808919     3.801276     3.793633     3.785990     3.778347
      3.770703     3.763060     3.755417     3.747774     3.740130     3.732487     3.724844     3.717201     3.709558     3.701914
      3.694271     3.686628     3.678985     3.671341     3.663698     3.656055     3.648412     3.640769     3.633125     3.625482
      3.617839     3.610196     3.602552     3.594909     3.587266     3.579623     3.571980     3.564336     3.556693     3.549050
      3.541407     3.533763     3.526120     3.518477     3.510834     3.503191     3.495547     3.487904     3.480261     3.472618
      3.464974     3.457331     3.449688     3.442045     3.434402     3.426758     3.419115     3.411472     3.403829     3.396185
      3.388542     3.380899     3.373256     3.365613     3.357969     3.350326     3.342683     3.335040     3.327396     3.319753
      3.312110     3.304467     3.296824     3.289180     3.281537     3.273894     3.266251     3.258607     3.250964     3.243321
      3.235678     3.228034     3.220391     3.212748     3.205105     3.197462     3.189818     3.182175     3.174532     3.166889
      3.159245     3.151602     3.143959     3.136316     3.128673     3.121029     3.113386     3.105743     3.098100     3.090456
      3.082813     3.075170     3.067527     3.059884     3.052240     3.044597     3.036954     3.029311     3.021667     3.014024
      3.006381     2.998738     2.991095     2.983451     2.975808     2.968165     2.960522     2.952878     2.945235     2.937592
      2.929949     2.922306     2.914662     2.907019     2.899376     2.891733     2.884089     2.876446     2.868803     2.861160
      2.853517     2.845873     2.838230     2.830587     2.822944     2.815300     2.807657     2.800014     2.792371     2.784728
      2.777084     2.769441     2.761798     2.754155     2.746511     2.738868     2.731225     2.723582     2.715939     2.708295
      2.700652     2.693009     2.685366     2.677722     2.670079     2.662436     2.654793     2.647150     2.639506     2.631863
      2.624220     2.616577     2.608933     2.601290     2.593647     2.586004     2.578361     2.570717     2.563074     2.555431
      2.547788     2.540144     2.532501     2.524858     2.517215     2.509572     2.501928     2.494285     2.486642     2.478999
      2.471355     2.463712     2.456069     2.448426     2.440783     2.433139     2.425496     2.417853     2.410210     2.402566
      2.394923     2.387280     2.379637     2.371994     2.364350     2.356707     2.349064     2.341421     2.333777     2.326134
      2.318491     2.310848     2.303205     2.295561     2.287918     2.280275     2.272632     2.264988     2.257345     2.249702
      2.242059     2.234416     2.226772     2.219129     2.211486     2.203843     2.196199     2.188556     2.180913     2.173270
      2.165627     2.157983     2.150340     2.142697     2.135054     2.127410     2.119767     2.112124     2.104481     2.096838
      2.089194     2.081551     2.073908     2.066265     2.058621     2.050978     2.043335     2.035692     2.028049     2.020405
      2.012762     2.005119     1.997476     1.989833     1.982190     1.974546     1.966903     1.959260     1.951617     1.943974
      1.936331     1.928688     1.921045     1.913402     1.905759     1.898115     1.890472     1.882829     1.875186     1.867543
      1.859900     1.852257     1.844614     1.836971     1.829327     1.821684     1.814041     1.806398     1.798755     1.791112
      1.783469     1.775826     1.768183     1.760540     1.752896     1.745253     1.737610     1.729967     1.722324     1.714681
      1.707038     1.699395     1.691752     1.684108     1.676465     1.668822     1.661179     1.653536     1.645893     1.638250
      1.630607     1.622964     1.615321     1.607677     1.600034     1.592391     1.584748     1.577105     1.569462     1.561819
      1.554176     1.546533     1.538890     1.531246     1.523603     1.515960     1.508317     1.500674     1.493031     1.485388
      1.477745     1.470102     1.462458     1.454815     1.447172     1.439529     1.431886     1.424243     1.416600     1.408957
      1.401314     1.393671     1.386027     1.378384     1.370741     1.363098     1.355455     1.347812     1.340169     1.332526
      1.324883     1.317240     1.309596     1.301953     1.294310     1.286667     1.279024     1.271381     1.263738     1.256095
      1.248452     1.240808     1.233165     1.225522     1.217879     1.210236     1.202593     1.194950     1.187307     1.179664
      1.172021     1.164377     1.156734     1.149091     1.141448     1.133805     1.126162     1.118519     1.110876     1.103233
      1.095590     1.087946     1.080303     1.072660     1.065017     1.057374     1.049731     1.042088     1.034445     1.026802
      1.019158     1.011515     1.003872     0.996229     0.988586     0.980943     0.973300     0.965657     0.958014     0.950371
      0.942727     0.935084     0.927441     0.919798     0.912155     0.904512     0.896869     0.889226     0.881583     0.873940
      0.866296     0.858653     0.851010     0.843367     0.835724     0.828081     0.820438     0.812795     0.805152     0.797508
      0.789865     0.782222     0.774579     0.766936     0.759293     0.751650     0.744007     0.736364     0.728721     0.721077
      0.713434     0.705791     0.698148     0.690505     0.682862     0.675219     0.667576     0.659933     0.652290     0.644646
      0.637003     0.629360     0.621717     0.614074     0.606431     0.598788     0.591145     0.583502     0.575858     0.568215
      0.560572     0.552929     0.545286     0.537643     0.530000     0.522357     0.514714     0.507071     0.499427     0.491784
      0.484141     0.476498     0.468855     0.461212     0.453569     0.445925     0.438282     0.430639     0.422996     0.415353
      0.407710     0.400067     0.392424     0.384780     0.377137     0.369494     0.361851     0.354208     0.346565     0.338922
      0.331278     0.323635     0.315992     0.308349     0.300706     0.293063     0.285420     0.277777     0.270133     0.262490
      0.254847     0.247204     0.239561     0.231918     0.224275     0.216631     0.208988     0.201345
 NY phased data points follow
   8.31869E+00 -8.88444E-02 -8.22537E+00  1.62671E+00  6.77965E-01  2.83071E+00  9.84541E-01 -3.43094E+00 -1.77568E+01 -5.30517E+00
   1.66337E+00 -5.24138E-01 -5.30725E+00 -4.42078E+00 -1.13378E+01 -1.07083E+01 -5.72888E+00  4.26381E+00  5.23154E-01  4.49462E+00
  -1.13557E+01  2.68529E+00 -2.87052E+00  7.82928E+00 -3.92103E+00 -1.40604E+00 -6.15349E+00  3.44887E+00 -5.20943E+00 -4.15630E+00
   4.19289E-01 -2.75747E+00 -1.16701E+01 -2.18889E+00  3.64882E+00 -2.35901E+00  1.92688E+00 -7.36313E+00 -4.61100E+00 -1.00597E+01
  -1.40312E+00  7.84669E-01  3.90513E+00 -9.19353E-01  2.95927E+00  2.92776E+00 -1.38078E+01 -1.65366E+00 -6.58431E+00 -1.36101E+00
   5.23867E+00 -5.54179E-01  1.17754E+00  1.27744E+01  1.42167E+01 -1.69053E+00  3.41328E+00 -3.13756E+00  8.61780E+00  1.00421E+00
   7.38727E-01  3.52348E+00  1.22109E+01  1.14576E+01  2.00588E+00  1.09181E+01 -1.06052E+00 -1.33225E+00 -1.04463E+00  4.07392E+00
  -7.10324E+00 -3.09639E+00 -6.04797E-01  2.74035E+00 -9.04192E-01  3.57848E+00 -3.56614E+00  1.30175E+01 -3.27791E+00 -1.24036E+00
  -4.92284E+00 -1.64383E+00 -7.23710E+00  6.31741E+00 -1.08297E+01 -9.05703E-01 -6.12642E+00 -4.80543E+00 -3.85664E+00  3.02635E+00
   5.39038E+00  2.52207E+00  2.41505E+00  6.04492E+00 -1.89072E+00 -1.32656E+00 -2.44799E+00 -5.12140E+00  2.40656E+00  6.80548E-01
  -2.69339E+00  1.15238E+01  1.30963E+01  1.50079E+01  1.33784E+01  2.29222E+01  1.70063E+01  3.07763E+01  1.31008E+01  2.19503E+01
   1.53261E+01  5.65439E+00  1.23628E+01  1.30148E+01  1.61026E+01  6.34196E+00  7.55977E+00  1.89447E+01  1.44079E+01  1.10584E+01
   1.08569E+01  1.44010E+01  6.62930E+00  7.43283E+00  1.36152E+00  1.29667E+01  1.15933E+01  5.12144E+00  1.62701E+01  1.71105E+01
   1.38800E+01  2.10108E+01  1.65463E+01  1.54742E+01  1.14351E+01  1.05851E+01  9.02729E-01  1.52367E+01  1.73717E+01  7.01220E+00
   9.30986E+00  1.46573E+01  6.98602E+00  9.50959E+00  3.33373E+00  2.18730E+00  2.86719E+00  4.98916E+00  8.56156E+00 -1.37748E+00
   4.60483E+00  5.60863E+00  4.45381E+00  8.38468E+00  8.32068E+00  4.04490E+00  8.25996E+00 -4.83787E+00 -4.61753E+00  3.76552E+00
  -1.07947E+00  6.85319E+00  4.59698E+00  5.69852E-01 -2.18730E+00 -3.24188E+00  2.31058E+00 -1.27520E+01  6.30114E+00 -4.42170E+00
  -2.37091E+00  3.51422E+00 -5.06195E+00 -5.50265E+00 -1.38069E+01  1.10646E+00 -7.31167E+00 -2.88529E+00 -1.61364E+01 -4.98732E+00
  -6.95721E+00 -9.45574E+00 -9.93596E+00  3.21978E+00  6.78385E-01  1.23579E+00 -6.98871E-01  1.83430E+00 -4.21386E+00  1.20237E+00
  -6.17888E+00 -1.47909E+00 -6.91271E+00 -6.07834E+00 -3.37922E+00 -3.41423E+00 -2.96637E+00 -4.42141E+00 -7.41329E-01 -2.96264E+00
  -2.10187E+00 -1.08757E+01 -8.24443E+00 -1.74335E+00 -1.89745E-01 -3.69156E+00  3.44479E+00  4.11550E+00  3.62052E+00 -1.66568E-02
  -2.30397E-02 -8.28802E+00 -1.19396E+00 -7.46020E+00 -4.81937E+00  5.25735E+00  2.61516E+00  4.95164E+00 -9.15890E+00 -4.86206E-01
  -1.93355E+00 -1.06446E+01 -2.17270E+00 -4.23268E-02 -1.41582E+01 -3.01961E+00  5.61584E-01 -5.55327E+00  5.34308E+00 -2.36247E+00
  -3.36146E+00 -4.36791E+00  1.69999E+00 -2.87298E-02  3.66489E+00 -1.75587E+00 -1.89901E+00  3.70898E+00  1.26401E+00  4.97066E-01
   2.34317E+00  1.88534E+01  1.30171E+01  1.37076E+01  1.72187E+01  1.64001E+01  2.97422E+00  9.51840E+00  8.91706E+00  1.20185E+01
   7.87905E+00  2.24063E+01  2.55686E+01  1.91457E+01  1.56165E+01  2.27087E+01  1.21413E+01  2.67461E+01  2.00324E+01  2.06252E+01
   2.80056E+01  2.60141E+01  1.68153E+01  4.99804E+00 -3.11636E+00 -1.25855E+01 -2.27428E+01 -1.89449E+01 -1.54761E+01 -3.46983E+00
  -4.25575E+00 -2.20393E+00 -1.27057E+00 -3.62092E+00 -1.27270E+01 -8.25885E+00 -1.65213E+01 -2.28787E+01 -1.02844E+01 -2.69329E+01
  -1.49035E+01 -1.20146E+01 -7.97969E+00 -2.11025E+01 -1.99148E+01 -9.13504E+00 -1.82212E+01 -1.95813E+01 -1.41666E+01 -2.10073E+01
  -1.71075E+01 -1.68644E+01 -1.25661E+01 -1.82780E+01 -2.19298E+01 -2.78067E+01 -2.53019E+01 -1.68007E+01 -2.12687E+01 -2.24528E+01
  -1.65288E+01 -2.19501E+01 -2.38997E+01 -1.34675E+01 -2.76551E+01 -2.82242E+01 -2.61824E+01 -3.52776E+01 -2.94228E+01 -3.02184E+01
  -2.94354E+01 -2.89047E+01 -1.89192E+01 -2.94056E+01 -2.05641E+01 -2.89564E+01 -2.28913E+01 -2.87457E+01 -2.86863E+01 -2.44021E+01
  -2.83554E+01 -1.64141E+01 -3.18578E+01 -2.01266E+01 -1.16089E+01 -9.48254E+00 -1.10346E+01 -2.97875E+00 -3.40127E+00  8.86452E+00
   3.38635E+00  7.58905E+00  1.23819E+01  1.62800E+01  1.66356E+01  1.93484E+01  2.69952E+01  2.47299E+01  2.40181E+01  2.61879E+01
   2.85742E+01  2.34602E+01  3.17142E+01  2.49434E+01  1.60146E+01  2.14480E+01  2.48029E+01  2.12034E+01  2.88232E+01  1.41999E+01
   4.65509E+00  1.67083E+01  1.71852E+01  1.90726E+01  1.02147E+01  9.61985E+00  1.07842E+01  1.04707E+01  1.88148E+01  1.37450E+01
   7.49721E+00 -2.52669E+00  1.46440E+01  7.73131E+00  4.81032E+00  1.39576E+00  2.05057E+00  1.11071E+01 -8.88069E+00  6.84512E+00
   9.45873E-01  1.15294E+00 -3.29451E+00  3.53336E+00  1.95213E+00 -3.38714E+00 -1.58619E+00  6.00076E+00  1.18024E+01  2.38448E+00
   5.25211E+00 -1.90811E-01 -2.97535E+00  3.61442E+00  1.00066E+00  1.21784E+00  4.66347E+00  7.71682E+00 -6.06631E+00  1.28019E+01
   9.56859E+00  7.93175E+00  1.11976E+01  1.07144E+01 -1.05372E+00  6.95042E+00 -7.35786E+00  3.15282E-01 -3.77793E-01  1.68829E+00
   5.80508E+00  8.15861E+00 -7.14467E+00  7.22589E+00  8.69979E+00 -8.11127E+00 -7.30359E+00 -4.86943E+00 -6.38769E+00 -4.84789E+00
  -4.61193E+00 -4.23045E+00 -1.29088E+01 -1.24294E+01 -2.09237E+00 -3.42476E+00 -6.50032E+00 -4.76254E+00 -1.01780E+01 -1.97904E-01
  -4.06599E+00 -3.16801E+00  4.69695E+00  2.90452E+00 -1.86467E+00 -8.21194E+00 -2.78261E-01 -3.38024E+00 -7.56820E+00  4.54163E+00
  -8.03515E+00  1.24582E+00 -7.42111E+00 -5.37618E-02  3.26440E+00 -3.10879E+00 -1.67035E+01 -4.10843E-01  3.15221E+00 -5.09143E+00
  -5.18855E-01 -5.44433E+00 -1.07140E+00 -2.06942E+00 -1.66102E+00 -5.31914E+00 -3.71978E+00 -2.48180E+00  1.36465E+00 -5.36891E+00
  -1.07391E+01 -1.72913E+00 -5.69829E+00 -8.77000E-01 -5.59960E+00 -2.19127E+00  3.77445E+00 -2.00753E+00  1.27170E-01 -8.74898E-01
  -2.90135E+00  4.18208E+00  5.24561E-01  1.92914E+00 -4.19966E+00 -5.14434E+00 -4.86633E+00  8.12515E+00 -1.44327E+00 -1.06798E+01
   3.75785E+00 -3.49010E+00 -3.95447E+00  2.72287E-01 -3.21752E+00 -5.06495E+00 -4.55755E-01  1.36464E+00 -9.39135E+00 -3.73603E+00
  -2.24742E+00 -8.75265E+00 -2.16289E+00 -7.29162E+00 -1.54219E+01 -1.74498E+00  1.11243E+00  2.15925E-01 -5.13988E+00 -6.00936E+00
  -1.20321E+01  6.52934E+00 -4.13708E+00 -4.46846E-01 -2.53825E+00  1.77058E+00  2.80152E+00 -5.55313E+00
 NY points of the fit to the data follow
   4.66973E-01  4.72365E-01  4.63881E-01  4.88643E-01  5.68160E-01  6.41966E-01  7.04788E-01  7.36374E-01  7.55756E-01  7.93327E-01
   8.00187E-01  7.20208E-01  5.64712E-01  3.79540E-01  2.64382E-01  3.00212E-01  4.89230E-01  6.41871E-01  6.58176E-01  6.91375E-01
   7.91204E-01  9.00197E-01  9.89683E-01  1.03801E+00  1.02885E+00  9.44490E-01  7.77445E-01  5.94763E-01  4.36125E-01  3.77331E-01
   4.90232E-01  8.20771E-01  1.34656E+00  1.87027E+00  2.11726E+00  2.03476E+00  1.63607E+00  1.03625E+00  4.73505E-01  2.93496E-01
   5.56007E-01  9.56164E-01  1.34834E+00  1.61323E+00  1.64094E+00  1.46638E+00  1.24894E+00  1.12165E+00  1.10292E+00  1.17948E+00
   1.29877E+00  1.38862E+00  1.44574E+00  1.47950E+00  1.52923E+00  1.63312E+00  1.75275E+00  1.83133E+00  1.85261E+00  1.80649E+00
   1.75008E+00  1.74481E+00  1.77366E+00  1.81857E+00  1.87569E+00  1.93187E+00  1.98190E+00  2.03058E+00  2.07436E+00  2.10321E+00
   2.12424E+00  2.14879E+00  2.18585E+00  2.24657E+00  2.33007E+00  2.42185E+00  2.51811E+00  2.61543E+00  2.68010E+00  2.69907E+00
   2.67326E+00  2.61779E+00  2.58246E+00  2.62763E+00  2.74125E+00  2.86939E+00  2.98282E+00  3.07128E+00  3.13645E+00  3.19819E+00
   3.27383E+00  3.35619E+00  3.43325E+00  3.50621E+00  3.57614E+00  3.61643E+00  3.55738E+00  3.12883E+00  2.44839E+00  2.63217E+00
   3.82798E+00  5.91622E+00  8.40556E+00  1.08938E+01  1.37952E+01  1.72481E+01  2.01036E+01  2.08685E+01  1.83364E+01  1.28791E+01
   6.72496E+00  3.03950E+00  2.73730E+00  3.29905E+00  3.81897E+00  4.26831E+00  4.67072E+00  5.02853E+00  5.33657E+00  5.57203E+00
   5.61273E+00  5.37391E+00  5.38866E+00  5.84434E+00  6.74787E+00  7.93814E+00  9.16898E+00  1.05743E+01  1.23300E+01  1.39673E+01
   1.47287E+01  1.38816E+01  1.13333E+01  7.94792E+00  5.31695E+00  4.39945E+00  4.16356E+00  3.96839E+00  3.76949E+00  3.57231E+00
   3.37296E+00  3.16974E+00  2.96178E+00  2.75111E+00  2.54285E+00  2.32968E+00  2.11837E+00  1.92785E+00  1.76836E+00  1.61763E+00
   1.44820E+00  1.25513E+00  1.04189E+00  8.32241E-01  6.55066E-01  4.84024E-01  3.10072E-01  1.47120E-01  2.58637E-02 -1.57375E-02
   8.30940E-03  7.72842E-03 -1.13813E-01 -3.51330E-01 -6.29544E-01 -9.08906E-01 -1.13400E+00 -1.29963E+00 -1.46194E+00 -1.60234E+00
  -1.73259E+00 -1.88420E+00 -2.03135E+00 -2.13552E+00 -2.16337E+00 -2.13427E+00 -2.14001E+00 -2.28172E+00 -2.58425E+00 -2.89041E+00
  -3.09331E+00 -3.18946E+00 -3.23564E+00 -3.33477E+00 -3.48658E+00 -3.59493E+00 -3.61762E+00 -3.52161E+00 -3.34385E+00 -3.20493E+00
  -3.18866E+00 -3.30372E+00 -3.44453E+00 -3.59779E+00 -3.82169E+00 -4.15871E+00 -4.60866E+00 -5.11316E+00 -5.54582E+00 -5.78729E+00
  -5.71741E+00 -5.36750E+00 -4.79309E+00 -4.01309E+00 -3.24566E+00 -2.81640E+00 -2.85876E+00 -3.33117E+00 -4.05747E+00 -4.84597E+00
  -5.66820E+00 -6.54926E+00 -7.24999E+00 -7.38456E+00 -6.79073E+00 -5.59835E+00 -4.24538E+00 -3.31507E+00 -3.02785E+00 -2.98720E+00
  -2.92413E+00 -2.84067E+00 -2.73211E+00 -2.59065E+00 -2.41509E+00 -2.19853E+00 -1.96224E+00 -1.72547E+00 -1.51566E+00 -1.33497E+00
  -1.12403E+00 -9.00679E-01 -6.71466E-01 -4.41443E-01 -1.76730E-01  2.02140E-01  7.87529E-01  1.59038E+00  2.53486E+00  3.58363E+00
   4.79911E+00  6.26434E+00  7.95122E+00  9.54867E+00  1.06638E+01  1.12708E+01  1.14887E+01  1.15626E+01  1.17573E+01  1.19934E+01
   1.16663E+01  1.12074E+01  1.11388E+01  1.16447E+01  1.26134E+01  1.36665E+01  1.48471E+01  1.66129E+01  1.88044E+01  2.06394E+01
   2.08377E+01  1.84640E+01  1.38139E+01  8.83113E+00  5.75893E+00  4.03005E+00  2.66661E+00  1.40811E+00  2.08443E-01 -9.44310E-01
  -2.04873E+00 -3.10832E+00 -4.12204E+00 -5.07801E+00 -5.96481E+00 -6.79282E+00 -7.58901E+00 -8.39243E+00 -9.23809E+00 -1.01137E+01
  -1.09892E+01 -1.18313E+01 -1.26004E+01 -1.32680E+01 -1.38442E+01 -1.43718E+01 -1.48778E+01 -1.53674E+01 -1.58536E+01 -1.63503E+01
  -1.68546E+01 -1.73488E+01 -1.78236E+01 -1.82755E+01 -1.86914E+01 -1.90714E+01 -1.94300E+01 -1.97919E+01 -2.01842E+01 -2.06180E+01
  -2.10732E+01 -2.15391E+01 -2.20126E+01 -2.24840E+01 -2.29408E+01 -2.33757E+01 -2.37950E+01 -2.42128E+01 -2.46234E+01 -2.50129E+01
  -2.53681E+01 -2.56726E+01 -2.59080E+01 -2.60531E+01 -2.60838E+01 -2.59739E+01 -2.56954E+01 -2.52199E+01 -2.45193E+01 -2.35676E+01
  -2.23441E+01 -2.08391E+01 -1.90245E+01 -1.68705E+01 -1.43856E+01 -1.15943E+01 -8.54350E+00 -5.27881E+00 -1.83508E+00  1.69945E+00
   5.18487E+00  8.51370E+00  1.16013E+01  1.44257E+01  1.70092E+01  1.93666E+01  2.14421E+01  2.31642E+01  2.45253E+01  2.55177E+01
   2.60989E+01  2.62120E+01  2.58366E+01  2.50643E+01  2.40488E+01  2.28608E+01  2.15563E+01  2.01953E+01  1.88350E+01  1.75256E+01
   1.63063E+01  1.52034E+01  1.42287E+01  1.33799E+01  1.26428E+01  1.19942E+01  1.14066E+01  1.08523E+01  1.03074E+01  9.75441E+00
   9.18317E+00  8.59019E+00  7.97700E+00  7.34823E+00  6.70972E+00  6.06727E+00  5.42585E+00  4.78960E+00  4.16221E+00  3.54755E+00
   2.95010E+00  2.37533E+00  1.82958E+00  1.31999E+00  8.54160E-01  4.39970E-01  8.50337E-02 -2.03601E-01 -4.19976E-01 -5.59434E-01
  -6.18949E-01 -5.97230E-01 -4.95000E-01 -3.15111E-01 -6.26383E-02  2.55233E-01  6.29340E-01  1.04883E+00  1.50137E+00  1.97352E+00
   2.45118E+00  2.92016E+00  3.36664E+00  3.77776E+00  4.14193E+00  4.44927E+00  4.69190E+00  4.86424E+00  4.96307E+00  4.98751E+00
   4.93879E+00  4.82013E+00  4.63644E+00  4.39401E+00  4.10017E+00  3.76284E+00  3.39016E+00  2.99026E+00  2.57091E+00  2.13946E+00
   1.70253E+00  1.26593E+00  8.34573E-01  4.12571E-01  3.20372E-03 -3.90960E-01 -7.68076E-01 -1.12692E+00 -1.46684E+00 -1.78752E+00
  -2.08902E+00 -2.37160E+00 -2.63578E+00 -2.88222E+00 -3.11171E+00 -3.32502E+00 -3.52295E+00 -3.70628E+00 -3.87584E+00 -4.03243E+00
  -4.17681E+00 -4.30965E+00 -4.43158E+00 -4.54321E+00 -4.64514E+00 -4.73793E+00 -4.82207E+00 -4.89798E+00 -4.96607E+00 -5.02673E+00
  -5.08038E+00 -5.12733E+00 -5.16791E+00 -5.20235E+00 -5.23092E+00 -5.25390E+00 -5.27154E+00 -5.28405E+00 -5.29161E+00 -5.29438E+00
  -5.29255E+00 -5.28631E+00 -5.27583E+00 -5.26123E+00 -5.24262E+00 -5.22011E+00 -5.19385E+00 -5.16397E+00 -5.13057E+00 -5.09372E+00
  -5.05351E+00 -5.01002E+00 -4.96336E+00 -4.91363E+00 -4.86089E+00 -4.80518E+00 -4.74656E+00 -4.68511E+00 -4.62092E+00 -4.55403E+00
  -4.48450E+00 -4.41234E+00 -4.33763E+00 -4.26042E+00 -4.18078E+00 -4.09875E+00 -4.01433E+00 -3.92756E+00 -3.83851E+00 -3.74722E+00
  -3.65374E+00 -3.55808E+00 -3.46026E+00 -3.36030E+00 -3.25828E+00 -3.15423E+00 -3.04817E+00 -2.94010E+00 -2.83006E+00 -2.71807E+00
  -2.60419E+00 -2.48845E+00 -2.37085E+00 -2.25141E+00 -2.13015E+00 -2.00711E+00 -1.88234E+00 -1.75585E+00
 NY background values follow
    -4.723E+00   -4.722E+00   -4.720E+00   -4.717E+00   -4.714E+00   -4.710E+00   -4.705E+00   -4.700E+00   -4.694E+00   -4.687E+00
    -4.680E+00   -4.672E+00   -4.663E+00   -4.654E+00   -4.644E+00   -4.634E+00   -4.623E+00   -4.611E+00   -4.599E+00   -4.586E+00
    -4.573E+00   -4.559E+00   -4.544E+00   -4.529E+00   -4.513E+00   -4.497E+00   -4.480E+00   -4.463E+00   -4.445E+00   -4.427E+00
    -4.408E+00   -4.389E+00   -4.369E+00   -4.349E+00   -4.328E+00   -4.306E+00   -4.285E+00   -4.263E+00   -4.240E+00   -4.217E+00
    -4.194E+00   -4.170E+00   -4.145E+00   -4.121E+00   -4.096E+00   -4.070E+00   -4.044E+00   -4.018E+00   -3.992E+00   -3.965E+00
    -3.938E+00   -3.910E+00   -3.883E+00   -3.855E+00   -3.827E+00   -3.798E+00   -3.770E+00   -3.741E+00   -3.712E+00   -3.683E+00
    -3.653E+00   -3.624E+00   -3.595E+00   -3.565E+00   -3.535E+00   -3.506E+00   -3.476E+00   -3.446E+00   -3.416E+00   -3.387E+00
    -3.357E+00   -3.328E+00   -3.298E+00   -3.269E+00   -3.239E+00   -3.210E+00   -3.181E+00   -3.152E+00   -3.124E+00   -3.096E+00
    -3.067E+00   -3.040E+00   -3.012E+00   -2.985E+00   -2.958E+00   -2.931E+00   -2.905E+00   -2.879E+00   -2.854E+00   -2.829E+00
    -2.804E+00   -2.780E+00   -2.756E+00   -2.733E+00   -2.711E+00   -2.689E+00   -2.667E+00   -2.646E+00   -2.626E+00   -2.607E+00
    -2.588E+00   -2.570E+00   -2.552E+00   -2.536E+00   -2.520E+00   -2.504E+00   -2.490E+00   -2.477E+00   -2.464E+00   -2.452E+00
    -2.441E+00   -2.431E+00   -2.422E+00   -2.414E+00   -2.407E+00   -2.401E+00   -2.396E+00   -2.392E+00   -2.389E+00   -2.387E+00
    -2.387E+00   -2.387E+00   -2.389E+00   -2.392E+00   -2.396E+00   -2.401E+00   -2.408E+00   -2.416E+00   -2.425E+00   -2.435E+00
    -2.447E+00   -2.461E+00   -2.475E+00   -2.491E+00   -2.509E+00   -2.528E+00   -2.548E+00   -2.570E+00   -2.594E+00   -2.619E+00
    -2.645E+00   -2.673E+00   -2.702E+00   -2.733E+00   -2.766E+00   -2.799E+00   -2.835E+00   -2.871E+00   -2.910E+00   -2.949E+00
    -2.991E+00   -3.033E+00   -3.077E+00   -3.123E+00   -3.170E+00   -3.218E+00   -3.268E+00   -3.319E+00   -3.371E+00   -3.425E+00
    -3.481E+00   -3.538E+00   -3.596E+00   -3.655E+00   -3.716E+00   -3.778E+00   -3.842E+00   -3.907E+00   -3.973E+00   -4.041E+00
    -4.110E+00   -4.180E+00   -4.251E+00   -4.324E+00   -4.398E+00   -4.474E+00   -4.550E+00   -4.628E+00   -4.707E+00   -4.787E+00
    -4.869E+00   -4.951E+00   -5.035E+00   -5.120E+00   -5.207E+00   -5.294E+00   -5.382E+00   -5.472E+00   -5.563E+00   -5.654E+00
    -5.747E+00   -5.841E+00   -5.936E+00   -6.032E+00   -6.129E+00   -6.228E+00   -6.327E+00   -6.427E+00   -6.528E+00   -6.630E+00
    -6.733E+00   -6.837E+00   -6.941E+00   -7.047E+00   -7.154E+00   -7.261E+00   -7.369E+00   -7.478E+00   -7.588E+00   -7.699E+00
    -7.810E+00   -7.923E+00   -8.035E+00   -8.149E+00   -8.264E+00   -8.379E+00   -8.494E+00   -8.611E+00   -8.728E+00   -8.846E+00
    -8.964E+00   -9.083E+00   -9.202E+00   -9.322E+00   -9.443E+00   -9.564E+00   -9.686E+00   -9.808E+00   -9.930E+00   -1.005E+01
    -1.018E+01   -1.030E+01   -1.042E+01   -1.055E+01   -1.067E+01   -1.080E+01   -1.092E+01   -1.105E+01   -1.117E+01   -1.130E+01
    -1.143E+01   -1.155E+01   -1.168E+01   -1.180E+01   -1.193E+01   -1.205E+01   -1.218E+01   -1.230E+01   -1.243E+01   -1.256E+01
    -1.268E+01   -1.280E+01   -1.293E+01   -1.305E+01   -1.318E+01   -1.330E+01   -1.342E+01   -1.355E+01   -1.367E+01   -1.379E+01
    -1.391E+01   -1.403E+01   -1.415E+01   -1.427E+01   -1.439E+01   -1.451E+01   -1.463E+01   -1.475E+01   -1.486E+01   -1.498E+01
    -1.509E+01   -1.521E+01   -1.532E+01   -1.543E+01   -1.554E+01   -1.565E+01   -1.576E+01   -1.587E+01   -1.598E+01   -1.609E+01
    -1.619E+01   -1.630E+01   -1.640E+01   -1.651E+01   -1.661E+01   -1.671E+01   -1.681E+01   -1.691E+01   -1.701E+01   -1.710E+01
    -1.720E+01   -1.729E+01   -1.739E+01   -1.748E+01   -1.757E+01   -1.766E+01   -1.775E+01   -1.784E+01   -1.793E+01   -1.801E+01
    -1.810E+01   -1.818E+01   -1.826E+01   -1.835E+01   -1.843E+01   -1.850E+01   -1.858E+01   -1.866E+01   -1.873E+01   -1.881E+01
    -1.888E+01   -1.895E+01   -1.902E+01   -1.909E+01   -1.916E+01   -1.922E+01   -1.929E+01   -1.935E+01   -1.941E+01   -1.947E+01
    -1.953E+01   -1.959E+01   -1.965E+01   -1.970E+01   -1.976E+01   -1.981E+01   -1.986E+01   -1.991E+01   -1.996E+01   -2.001E+01
    -2.005E+01   -2.010E+01   -2.014E+01   -2.018E+01   -2.022E+01   -2.026E+01   -2.030E+01   -2.033E+01   -2.037E+01   -2.040E+01
    -2.043E+01   -2.046E+01   -2.049E+01   -2.052E+01   -2.055E+01   -2.057E+01   -2.060E+01   -2.062E+01   -2.064E+01   -2.066E+01
    -2.068E+01   -2.069E+01   -2.071E+01   -2.072E+01   -2.073E+01   -2.075E+01   -2.076E+01   -2.076E+01   -2.077E+01   -2.078E+01
    -2.078E+01   -2.078E+01   -2.078E+01   -2.078E+01   -2.078E+01   -2.078E+01   -2.077E+01   -2.077E+01   -2.076E+01   -2.075E+01
    -2.074E+01   -2.073E+01   -2.072E+01   -2.070E+01   -2.069E+01   -2.067E+01   -2.065E+01   -2.063E+01   -2.061E+01   -2.059E+01
    -2.056E+01   -2.054E+01   -2.051E+01   -2.048E+01   -2.045E+01   -2.042E+01   -2.039E+01   -2.035E+01   -2.032E+01   -2.028E+01
    -2.024E+01   -2.020E+01   -2.016E+01   -2.011E+01   -2.007E+01   -2.002E+01   -1.998E+01   -1.993E+01   -1.988E+01   -1.982E+01
    -1.977E+01   -1.972E+01   -1.966E+01   -1.960E+01   -1.954E+01   -1.948E+01   -1.942E+01   -1.936E+01   -1.929E+01   -1.923E+01
    -1.916E+01   -1.909E+01   -1.902E+01   -1.895E+01   -1.887E+01   -1.880E+01   -1.872E+01   -1.864E+01   -1.856E+01   -1.848E+01
    -1.840E+01   -1.832E+01   -1.823E+01   -1.815E+01   -1.806E+01   -1.797E+01   -1.788E+01   -1.779E+01   -1.770E+01   -1.760E+01
    -1.751E+01   -1.741E+01   -1.731E+01   -1.721E+01   -1.711E+01   -1.701E+01   -1.690E+01   -1.680E+01   -1.669E+01   -1.659E+01
    -1.648E+01   -1.637E+01   -1.625E+01   -1.614E+01   -1.603E+01   -1.591E+01   -1.580E+01   -1.568E+01   -1.556E+01   -1.544E+01
    -1.532E+01   -1.519E+01   -1.507E+01   -1.494E+01   -1.482E+01   -1.469E+01   -1.456E+01   -1.443E+01   -1.429E+01   -1.416E+01
    -1.403E+01   -1.389E+01   -1.375E+01   -1.362E+01   -1.348E+01   -1.334E+01   -1.319E+01   -1.305E+01   -1.291E+01   -1.276E+01
    -1.261E+01   -1.247E+01   -1.232E+01   -1.217E+01   -1.201E+01   -1.186E+01   -1.171E+01   -1.155E+01   -1.139E+01   -1.124E+01
    -1.108E+01   -1.092E+01   -1.075E+01   -1.059E+01   -1.043E+01   -1.026E+01   -1.010E+01   -9.928E+00   -9.759E+00   -9.589E+00
    -9.418E+00   -9.246E+00   -9.072E+00   -8.898E+00   -8.722E+00   -8.545E+00   -8.366E+00   -8.187E+00
 Ala      Conc. = 2.03E+01
