 LCModel (Version 6.3-1L) Copyright: S.W. Provencher.          Ref.: Magn. Reson. Med. 30:672-679 (1993).                
 Slice#3 Row#1 Col#8  PD_24_press_2_raw_act
 36 lines in following concentration table = NCONC+1
    Conc.  %SD /Cr+PCr  Metabolite                                         
    0.000 999%   0.000 Ala                                                 
   12.568 144%   0.914 Asp                                                 
    0.000 999%   0.000 Cr                                                  
   13.748  75%   1.000 PCr                                                 
    4.279 223%   0.311 GABA                                                
    0.000 999%   0.000 Glc                                                 
    0.000 999%   0.000 Gln                                                 
   35.738  76%   2.600 Glu                                                 
    0.000 999%   0.000 GPC                                                 
    7.921  67%   0.576 PCh                                                 
    0.000 999%   0.000 GSH                                                 
    0.000 999%   0.000 Ins                                                 
    0.000 999%   0.000 Lac                                                 
   15.526  75%   1.129 NAA                                                 
   13.783  76%   1.003 NAAG                                                
    3.112  91%   0.226 Scyllo                                              
   17.788  89%   1.294 Tau                                                 
   20.127  78%   1.464 -CrCH2                                              
    7.921  67%   0.576 GPC+PCh                                             
   29.309  71%   2.132 NAA+NAAG                                            
   13.748  75%   1.000 Cr+PCr                                              
   35.738  76%   2.600 Glu+Gln                                             
 1.36E+03  56%  98.706 Lip13a                                              
    0.000 999%   0.000 Lip13b                                              
  341.185  70%  24.817 Lip09                                               
 1.87E+03  20% 135.939 MM09                                                
  212.430  68%  15.452 Lip20                                               
 2.56E+03  20% 185.943 MM20                                                
  670.360  42%  48.761 MM12                                                
 1.67E+03  33% 121.500 MM14                                                
 1.16E+03  34%  84.708 MM17                                                
 1.36E+03  56%  98.706 Lip13a+Lip13b                                       
 3.70E+03  17% 268.967 MM14+Lip13a+Lip13b+MM12                             
 2.21E+03  15% 160.756 MM09+Lip09                                          
 2.77E+03  18% 201.395 MM20+Lip20                                          
   6 lines in following misc. output table
  FWHM = 0.023 ppm    S/N =   1                                            
  Data shift = 0.015 ppm                                                   
  Ph: 168 deg      34.8 deg/ppm                                            
  alphaB,S = 8.5E+01,   4.0E-01                                            
   14 spline knots.   Ns = 5(1)                                            
   2 inflections.     2 extrema                                            
  498 points on ppm-axis = NY
      4.000000     3.992357     3.984714     3.977070     3.969427     3.961784     3.954141     3.946497     3.938854     3.931211
      3.923568     3.915925     3.908281     3.900638     3.892995     3.885352     3.877708     3.870065     3.862422     3.854779
      3.847136     3.839492     3.831849     3.824206     3.816563     3.808919     3.801276     3.793633     3.785990     3.778347
      3.770703     3.763060     3.755417     3.747774     3.740130     3.732487     3.724844     3.717201     3.709558     3.701914
      3.694271     3.686628     3.678985     3.671341     3.663698     3.656055     3.648412     3.640769     3.633125     3.625482
      3.617839     3.610196     3.602552     3.594909     3.587266     3.579623     3.571980     3.564336     3.556693     3.549050
      3.541407     3.533763     3.526120     3.518477     3.510834     3.503191     3.495547     3.487904     3.480261     3.472618
      3.464974     3.457331     3.449688     3.442045     3.434402     3.426758     3.419115     3.411472     3.403829     3.396185
      3.388542     3.380899     3.373256     3.365613     3.357969     3.350326     3.342683     3.335040     3.327396     3.319753
      3.312110     3.304467     3.296824     3.289180     3.281537     3.273894     3.266251     3.258607     3.250964     3.243321
      3.235678     3.228034     3.220391     3.212748     3.205105     3.197462     3.189818     3.182175     3.174532     3.166889
      3.159245     3.151602     3.143959     3.136316     3.128673     3.121029     3.113386     3.105743     3.098100     3.090456
      3.082813     3.075170     3.067527     3.059884     3.052240     3.044597     3.036954     3.029311     3.021667     3.014024
      3.006381     2.998738     2.991095     2.983451     2.975808     2.968165     2.960522     2.952878     2.945235     2.937592
      2.929949     2.922306     2.914662     2.907019     2.899376     2.891733     2.884089     2.876446     2.868803     2.861160
      2.853517     2.845873     2.838230     2.830587     2.822944     2.815300     2.807657     2.800014     2.792371     2.784728
      2.777084     2.769441     2.761798     2.754155     2.746511     2.738868     2.731225     2.723582     2.715939     2.708295
      2.700652     2.693009     2.685366     2.677722     2.670079     2.662436     2.654793     2.647150     2.639506     2.631863
      2.624220     2.616577     2.608933     2.601290     2.593647     2.586004     2.578361     2.570717     2.563074     2.555431
      2.547788     2.540144     2.532501     2.524858     2.517215     2.509572     2.501928     2.494285     2.486642     2.478999
      2.471355     2.463712     2.456069     2.448426     2.440783     2.433139     2.425496     2.417853     2.410210     2.402566
      2.394923     2.387280     2.379637     2.371994     2.364350     2.356707     2.349064     2.341421     2.333777     2.326134
      2.318491     2.310848     2.303205     2.295561     2.287918     2.280275     2.272632     2.264988     2.257345     2.249702
      2.242059     2.234416     2.226772     2.219129     2.211486     2.203843     2.196199     2.188556     2.180913     2.173270
      2.165627     2.157983     2.150340     2.142697     2.135054     2.127410     2.119767     2.112124     2.104481     2.096838
      2.089194     2.081551     2.073908     2.066265     2.058621     2.050978     2.043335     2.035692     2.028049     2.020405
      2.012762     2.005119     1.997476     1.989833     1.982190     1.974546     1.966903     1.959260     1.951617     1.943974
      1.936331     1.928688     1.921045     1.913402     1.905759     1.898115     1.890472     1.882829     1.875186     1.867543
      1.859900     1.852257     1.844614     1.836971     1.829327     1.821684     1.814041     1.806398     1.798755     1.791112
      1.783469     1.775826     1.768183     1.760540     1.752896     1.745253     1.737610     1.729967     1.722324     1.714681
      1.707038     1.699395     1.691752     1.684108     1.676465     1.668822     1.661179     1.653536     1.645893     1.638250
      1.630607     1.622964     1.615321     1.607677     1.600034     1.592391     1.584748     1.577105     1.569462     1.561819
      1.554176     1.546533     1.538890     1.531246     1.523603     1.515960     1.508317     1.500674     1.493031     1.485388
      1.477745     1.470102     1.462458     1.454815     1.447172     1.439529     1.431886     1.424243     1.416600     1.408957
      1.401314     1.393671     1.386027     1.378384     1.370741     1.363098     1.355455     1.347812     1.340169     1.332526
      1.324883     1.317240     1.309596     1.301953     1.294310     1.286667     1.279024     1.271381     1.263738     1.256095
      1.248452     1.240808     1.233165     1.225522     1.217879     1.210236     1.202593     1.194950     1.187307     1.179664
      1.172021     1.164377     1.156734     1.149091     1.141448     1.133805     1.126162     1.118519     1.110876     1.103233
      1.095590     1.087946     1.080303     1.072660     1.065017     1.057374     1.049731     1.042088     1.034445     1.026802
      1.019158     1.011515     1.003872     0.996229     0.988586     0.980943     0.973300     0.965657     0.958014     0.950371
      0.942727     0.935084     0.927441     0.919798     0.912155     0.904512     0.896869     0.889226     0.881583     0.873940
      0.866296     0.858653     0.851010     0.843367     0.835724     0.828081     0.820438     0.812795     0.805152     0.797508
      0.789865     0.782222     0.774579     0.766936     0.759293     0.751650     0.744007     0.736364     0.728721     0.721077
      0.713434     0.705791     0.698148     0.690505     0.682862     0.675219     0.667576     0.659933     0.652290     0.644646
      0.637003     0.629360     0.621717     0.614074     0.606431     0.598788     0.591145     0.583502     0.575858     0.568215
      0.560572     0.552929     0.545286     0.537643     0.530000     0.522357     0.514714     0.507071     0.499427     0.491784
      0.484141     0.476498     0.468855     0.461212     0.453569     0.445925     0.438282     0.430639     0.422996     0.415353
      0.407710     0.400067     0.392424     0.384780     0.377137     0.369494     0.361851     0.354208     0.346565     0.338922
      0.331278     0.323635     0.315992     0.308349     0.300706     0.293063     0.285420     0.277777     0.270133     0.262490
      0.254847     0.247204     0.239561     0.231918     0.224275     0.216631     0.208988     0.201345
 NY phased data points follow
   7.93885E+00  2.41780E+01  1.22509E+01  2.26560E+01  8.96506E+00  2.60813E+01  8.41853E+00  2.59846E+01  2.11712E+00  1.69074E+01
   8.33873E+00  1.56210E+01 -4.55828E-01  1.96361E+01  7.91747E+00  1.97679E+01 -5.37978E+00  2.42747E+01 -2.16781E+00  1.99158E+01
   6.06591E+00  1.37812E+01  8.13252E+00  1.90280E+01  1.11660E+01  3.31477E+01  1.90648E+01  1.08342E+01  2.42621E-02  6.24710E+00
  -1.96242E+00  1.62715E+00  1.05659E+01  1.44116E+01  6.70677E+00  1.28256E+01  3.20056E+00  1.10525E+01 -3.59009E+00  1.35541E+01
   7.35464E+00  1.92304E+01  8.05289E+00  9.00703E+00  2.44180E+01  1.51203E+01  7.91504E+00  1.82891E+01  4.96424E+00  1.85758E+01
   1.15858E+01  1.70285E+01  3.43769E+00  2.34278E+01  2.35689E+00  7.11324E+00  2.26346E+01  1.61741E+01  8.38748E+00  1.47365E+01
   1.20119E+01  5.96997E+00  6.86516E+00  1.11381E+01  1.06442E+01  1.13360E+01  1.07684E+01  1.32347E+01 -8.29892E+00  6.78103E+00
  -1.74457E+00  1.41637E+01  8.43581E+00  1.11111E+01  6.58227E+00  9.85829E+00  1.28266E+01  5.75709E+00  1.40218E+01  1.24060E+01
   2.55874E+00  4.65214E+00 -8.05556E+00  1.00044E+01  1.48654E+00  1.11953E+01  1.19007E+01  1.13986E+01  8.78979E+00  5.61891E+00
   4.45314E+00  1.20934E+01  1.28034E+01  1.10909E+01  1.99132E+00  5.50004E+00  1.78079E+00  2.39203E+00  1.65004E-01  5.42064E-01
   3.74812E+00 -6.66542E-01 -2.03526E+00  1.29096E+01  2.09573E+01  1.80275E+01  2.03971E+01  9.29298E+00  9.95098E+00  1.96207E+01
   6.42100E+00  2.85369E+01  1.20736E+01  1.26223E+01 -3.84133E+00  8.75925E+00  4.83367E+00  5.16338E+00  4.15704E+00  6.43481E+00
   9.28571E+00  3.16309E+00 -1.45769E+00  2.23898E+00 -2.49963E+00  4.82038E+00 -5.03774E-01  1.68169E+01  1.59329E+01  1.29321E+01
   4.05867E+00  1.00175E+01  8.58115E+00  4.38522E+00  7.06717E+00 -1.79373E+00 -1.70411E+00  1.18122E+01  3.22105E+00  1.87290E+01
   3.51265E+00  6.31068E+00  2.31542E+00 -5.52494E+00  8.51755E+00  1.27675E+01  7.54468E+00  1.06108E+01  9.34747E+00  6.10843E+00
   6.89090E+00  6.32687E+00 -7.92635E+00  3.06130E+00  8.85154E+00  3.43602E+00  1.33438E+01  6.46437E+00  5.54276E+00  9.78716E+00
   1.28700E+00  3.44743E+00 -7.44648E+00  3.37061E+00 -4.68449E-01  4.37970E-02  9.08187E-02  1.89374E-03  4.75698E+00  1.11486E+01
   9.63099E+00  1.56872E+01  1.37232E+01  1.26916E+01 -8.39322E+00  1.97819E+00 -5.59138E+00  1.02000E+01  1.79208E+00 -3.40911E+00
   1.24315E+00 -1.09986E+00 -2.33849E+00  5.60265E+00  3.77545E+00 -7.60374E+00 -6.35574E+00 -8.47076E+00 -1.30174E+01  4.90879E+00
  -5.15236E+00 -6.11424E+00  2.68751E+00 -2.71304E-01 -1.26243E+01  4.87907E+00  3.23302E+00 -3.02239E+00 -1.29205E+01  4.15959E+00
  -1.07012E+00 -6.22148E+00 -2.69537E+00 -2.98072E+00  2.69020E+00 -1.24003E+00 -3.12082E+00 -4.09910E+00  8.12157E+00 -3.62679E+00
   2.03917E+00 -9.35621E-01  3.89836E+00 -3.82938E-01  5.77005E+00  4.30969E+00  1.19202E+01  9.51965E+00  9.88759E+00  3.66215E+00
   8.90529E+00  2.41646E+00 -4.35804E+00  1.58875E+01 -1.90865E+00  6.72048E+00 -5.33617E-01  1.23754E+01  9.00361E+00  1.21325E+01
   1.15511E+01 -6.03905E-01  3.85719E+00  6.52125E+00  3.01813E+00  1.41059E+01  1.65656E+01  1.55837E+01  1.51220E+01  1.36141E+01
   3.56170E+00  9.92957E-01  5.88277E+00  4.36605E+00  1.97157E+00  3.59377E+00 -2.41116E+00  9.44465E+00 -2.46903E-01  6.57777E+00
   5.75450E+00  1.24508E+01  9.07744E-01  6.01632E+00 -1.18361E+01  4.88234E+00  1.76225E+00  6.87341E+00  2.34859E+00  1.13026E+00
   1.19043E+01  1.44225E+01  8.48538E+00  1.29224E+01  1.08076E+01  3.43077E+00  4.24439E+00  5.68857E+00  1.00616E+00 -2.68136E+00
  -1.43977E+01  3.33065E+00 -5.33625E+00  2.50026E+00  4.53812E-01  5.05836E+00  8.58404E+00 -6.09566E-01  2.91703E+00  6.70352E-01
  -1.14116E+01 -4.45326E+00 -6.89915E+00 -9.09875E-01  9.78873E-01 -1.72623E+00 -5.40633E+00 -3.91405E+00  1.05895E+00 -3.11709E-01
  -4.89355E+00  2.49358E+00  6.89607E+00  1.39880E+01  2.09450E+00  8.29892E+00 -4.34708E+00 -1.43651E+00 -4.25066E-01 -3.77342E+00
   6.20876E-01  5.11820E+00 -7.89250E-01 -7.72209E+00 -3.76750E-01  1.15669E+00  6.25607E+00  9.06182E+00 -6.19119E+00 -2.80927E+00
  -1.96002E+00 -7.84991E+00 -2.09601E+00  9.14487E+00  9.02323E+00  1.13203E+01 -4.61379E-01 -3.55541E+00 -3.91823E+00  5.00340E+00
   6.68327E+00 -1.45863E-01 -1.20980E+00  3.61593E+00 -5.04085E-02 -9.81952E+00  2.42846E+00 -4.40494E+00  2.13647E+00 -1.68536E+00
  -7.63413E+00 -1.39723E+00 -1.08668E-01 -1.40872E+00  9.59004E+00 -1.53633E+00  7.09056E+00  5.29547E+00  4.33884E+00  5.58321E+00
  -2.88905E-01  1.53467E+01 -1.02615E+00  3.55974E+00 -1.15495E+01  1.47000E+01 -1.51732E+00  2.34975E+00  1.08699E+01  3.93783E+00
  -6.41330E+00  1.32285E+01  1.48336E+00  5.67467E+00  1.14547E+01  6.37964E-01  4.96099E-01 -2.98467E+00  3.47963E+00 -1.20627E+00
  -3.45593E+00  1.30531E+00 -5.95978E+00  2.42844E+00  2.25206E+00  3.83887E+00  9.67704E+00  3.90328E+00  3.16171E+00  2.30871E+00
  -1.98069E+00  2.18658E+00 -3.28379E+00  7.22831E-02  1.22147E+00  5.46793E-01 -1.41647E+00 -5.01409E+00  7.08785E-01  7.06280E+00
   3.49410E+00  8.98242E+00  4.13523E+00  8.43356E+00  5.80809E+00 -1.21071E-01 -2.56700E+00  1.30270E+01  8.36518E+00 -3.11947E+00
   2.45500E+00  1.88201E+01 -5.84476E+00 -2.47906E-01  4.48689E+00  7.79177E-01 -7.39290E+00  1.36926E+01  7.49394E+00  1.63415E+00
   4.28911E+00  1.08849E+01 -1.20161E+00  1.39643E+01  2.14116E+01  1.05386E+01  1.59055E+01  1.46201E+01  1.52757E+01  1.33643E+01
   1.62595E+00  1.91098E+01  6.48960E+00  1.10062E+01  2.89158E+00  4.90660E+00  2.94810E+00  9.97311E+00  6.75343E+00  6.78273E+00
   7.72584E+00  1.19856E+01  5.78541E+00  7.34763E+00  5.53546E+00  1.65341E+00 -1.93658E+00  8.69769E+00 -1.46445E+00  6.53976E+00
   6.42707E+00  2.17199E+00 -5.48599E+00  2.73273E+00 -1.01828E+01 -7.65105E+00 -7.94294E+00  8.84847E-01  5.22389E+00 -1.51315E+00
  -1.09392E+01 -5.03614E-01  2.64987E+00  1.23796E+01  5.91423E-01 -4.67321E+00  2.40892E+00  5.28539E+00  1.09132E+00  7.42918E+00
  -1.19857E+00  1.11469E+01 -8.22908E+00  1.14349E+01 -1.12562E+01 -6.92394E+00  7.12651E+00 -8.26249E-03 -2.33274E+00 -1.56857E+00
  -4.05768E+00 -1.12158E+01 -5.91957E+00  1.09577E+01  4.47121E+00 -1.42658E+01 -4.94900E+00 -1.31045E+01 -6.88945E+00 -5.68733E+00
  -1.49870E+00  6.17722E+00  2.52912E+00 -2.53536E+00  9.66640E+00 -4.17909E+00  6.41420E+00 -3.48091E+00 -5.60592E+00 -2.28235E+00
  -2.89692E+00  9.07099E+00 -8.87126E-01  2.58708E+00 -8.70776E+00  4.97624E+00 -1.06881E+01  7.40252E+00  2.19692E+00 -3.93274E-01
  -2.23649E+00  1.82687E+00 -4.86925E+00  4.87200E+00 -4.79636E+00 -2.05559E+00 -3.54546E-01  1.12403E+01
 NY points of the fit to the data follow
   1.15144E+01  1.15389E+01  1.16557E+01  1.21059E+01  1.29235E+01  1.34795E+01  1.31976E+01  1.16828E+01  9.43989E+00  7.96249E+00
   8.15729E+00  9.28832E+00  1.03004E+01  1.07830E+01  1.10864E+01  1.14970E+01  1.16750E+01  1.13928E+01  1.07680E+01  1.01282E+01
   9.86394E+00  1.00488E+01  1.06200E+01  1.13837E+01  1.20965E+01  1.24607E+01  1.19089E+01  1.03687E+01  8.77356E+00  7.91680E+00
   8.26105E+00  9.68688E+00  1.15924E+01  1.31112E+01  1.33235E+01  1.21576E+01  1.04290E+01  8.91554E+00  8.36209E+00  8.90482E+00
   9.88954E+00  1.05916E+01  1.06999E+01  1.04502E+01  1.01851E+01  9.99332E+00  9.95132E+00  9.98419E+00  9.91334E+00  9.75941E+00
   9.57213E+00  9.45028E+00  9.48206E+00  9.58343E+00  9.62925E+00  9.59224E+00  9.50335E+00  9.41064E+00  9.32053E+00  9.22022E+00
   9.10346E+00  8.94437E+00  8.79143E+00  8.78563E+00  8.87951E+00  9.19783E+00  9.58482E+00  9.71857E+00  9.61129E+00  9.31325E+00
   8.59276E+00  7.74649E+00  7.34378E+00  7.51766E+00  8.52792E+00  1.00943E+01  1.10177E+01  1.05577E+01  9.17012E+00  7.61407E+00
   6.39365E+00  5.44344E+00  5.08991E+00  5.40709E+00  6.65105E+00  9.05686E+00  1.12618E+01  1.16757E+01  1.07028E+01  9.65739E+00
   9.24329E+00  9.32668E+00  9.17911E+00  8.24654E+00  6.65954E+00  5.33733E+00  4.78144E+00  4.94832E+00  4.41577E+00  1.48774E+00
  -1.45914E+00 -1.87427E+00  3.22020E+00  1.27832E+01  1.99294E+01  2.03465E+01  1.66859E+01  1.27989E+01  1.04555E+01  9.19179E+00
   8.31280E+00  7.93796E+00  7.78058E+00  7.70042E+00  7.65447E+00  7.66504E+00  7.68897E+00  7.69266E+00  7.65626E+00  7.52648E+00
   7.24177E+00  6.26177E+00  3.78728E+00  1.44711E+00  6.79007E-01  3.09153E+00  8.85037E+00  1.41385E+01  1.55202E+01  1.38877E+01
   1.15410E+01  9.79544E+00  8.70550E+00  7.86374E+00  7.35281E+00  7.08900E+00  6.91574E+00  6.83410E+00  6.85774E+00  6.90999E+00
   6.83140E+00  6.45338E+00  5.94669E+00  5.65962E+00  5.71372E+00  6.00086E+00  6.21738E+00  6.13389E+00  5.85115E+00  5.58881E+00
   5.43912E+00  5.35172E+00  5.23575E+00  5.01244E+00  4.71669E+00  4.57923E+00  4.67559E+00  4.89568E+00  5.02886E+00  4.84400E+00
   4.35678E+00  3.90046E+00  3.60140E+00  3.45216E+00  3.39496E+00  3.41279E+00  3.50959E+00  3.60027E+00  3.53738E+00  3.28935E+00
   3.06548E+00  3.11549E+00  3.33333E+00  3.45080E+00  3.33232E+00  2.96243E+00  2.62127E+00  2.58857E+00  2.79334E+00  2.84020E+00
   2.48434E+00  1.87726E+00  1.39018E+00  1.33631E+00  1.68222E+00  2.00808E+00  1.99807E+00  1.82264E+00  1.82641E+00  2.00440E+00
   2.16466E+00  2.15183E+00  1.86797E+00  1.48465E+00  1.23225E+00  1.16412E+00  1.23862E+00  1.28939E+00  1.22650E+00  1.10863E+00
   9.58067E-01  7.71415E-01  7.77143E-01  1.04231E+00  1.62611E+00  2.29955E+00  2.67477E+00  2.68720E+00  2.27438E+00  1.28240E+00
  -1.49742E-01 -1.87970E+00 -2.99099E+00 -2.83830E+00 -9.57377E-01  2.28565E+00  5.20664E+00  6.71874E+00  6.95070E+00  6.01086E+00
   3.83570E+00  5.36090E-01 -2.68298E+00 -3.84418E+00 -2.80324E+00 -8.86605E-01  9.30569E-01  2.25419E+00  3.03113E+00  3.22842E+00
   2.74626E+00  1.98754E+00  1.53954E+00  1.58327E+00  2.03712E+00  2.81682E+00  3.63961E+00  4.37610E+00  4.97699E+00  5.18290E+00
   4.93248E+00  4.34729E+00  3.71193E+00  3.57596E+00  4.24625E+00  5.37478E+00  6.55842E+00  7.57284E+00  8.16033E+00  8.07207E+00
   7.06742E+00  4.49968E+00  1.46054E+00 -5.30666E-01 -3.53951E-01  2.37260E+00  5.12268E+00  5.28260E+00  3.37223E+00  3.78778E+00
   8.30760E+00  1.28716E+01  1.38594E+01  1.22264E+01  9.92137E+00  8.01292E+00  6.62791E+00  5.57747E+00  4.81721E+00  4.01406E+00
   3.12020E+00  2.29769E+00  1.71766E+00  1.44756E+00  1.39664E+00  1.39939E+00  1.32437E+00  1.11367E+00  8.01441E-01  4.31541E-01
   4.04520E-02 -3.40195E-01 -6.54397E-01 -8.70407E-01 -1.01494E+00 -1.10216E+00 -1.13303E+00 -1.15454E+00 -1.18903E+00 -1.22364E+00
  -1.24670E+00 -1.21057E+00 -1.08484E+00 -8.94116E-01 -6.69318E-01 -4.26679E-01 -1.73636E-01  8.30003E-02  3.12968E-01  5.13577E-01
   7.09511E-01  9.11503E-01  1.10993E+00  1.28973E+00  1.43454E+00  1.53777E+00  1.59429E+00  1.60377E+00  1.56803E+00  1.49106E+00
   1.37667E+00  1.23152E+00  1.06166E+00  8.74744E-01  6.77206E-01  4.77871E-01  2.84375E-01  1.05528E-01 -5.22747E-02 -1.82137E-01
  -2.79916E-01 -3.41292E-01 -3.64570E-01 -3.47703E-01 -2.91302E-01 -1.95670E-01 -6.39771E-02  1.01027E-01  2.94340E-01  5.11882E-01
   7.47581E-01  9.96450E-01  1.25189E+00  1.50895E+00  1.76156E+00  2.00565E+00  2.23626E+00  2.45059E+00  2.64526E+00  2.81943E+00
   2.97174E+00  3.10315E+00  3.21388E+00  3.30626E+00  3.38171E+00  3.44345E+00  3.49348E+00  3.53518E+00  3.57022E+00  3.60140E+00
   3.62959E+00  3.65655E+00  3.68198E+00  3.70630E+00  3.72784E+00  3.74588E+00  3.75778E+00  3.76201E+00  3.75532E+00  3.73576E+00
   3.69998E+00  3.64625E+00  3.57172E+00  3.47536E+00  3.35518E+00  3.21110E+00  3.04229E+00  2.84995E+00  2.63455E+00  2.39856E+00
   2.14364E+00  1.87342E+00  1.59073E+00  1.30030E+00  1.00595E+00  7.13281E-01  4.26946E-01  1.53341E-01 -1.02119E-01 -3.32332E-01
  -5.31303E-01 -6.91510E-01 -8.06673E-01 -8.69167E-01 -8.72878E-01 -8.10760E-01 -6.77781E-01 -4.68559E-01 -1.80302E-01  1.89511E-01
   6.40173E-01  1.17007E+00  1.77384E+00  2.44489E+00  3.17280E+00  3.94606E+00  4.74978E+00  5.56858E+00  6.38463E+00  7.18087E+00
   7.93911E+00  8.64333E+00  9.27778E+00  9.83011E+00  1.02894E+01  1.06488E+01  1.09037E+01  1.10538E+01  1.11005E+01  1.10493E+01
   1.09068E+01  1.06826E+01  1.03865E+01  1.00304E+01  9.62498E+00  9.18220E+00  8.71217E+00  8.22539E+00  7.73010E+00  7.23451E+00
   6.74439E+00  6.26549E+00  5.80122E+00  5.35511E+00  4.92858E+00  4.52343E+00  4.13959E+00  3.77765E+00  3.43665E+00  3.11650E+00
   2.81568E+00  2.53375E+00  2.26899E+00  2.02084E+00  1.78763E+00  1.56883E+00  1.36282E+00  1.16918E+00  9.86416E-01  8.14253E-01
   6.51361E-01  4.97589E-01  3.51723E-01  2.13719E-01  8.24823E-02 -4.19152E-02 -1.60461E-01 -2.73015E-01 -3.80504E-01 -4.82726E-01
  -5.80521E-01 -6.73622E-01 -7.62821E-01 -8.47827E-01 -9.29400E-01 -1.00720E+00 -1.08194E+00 -1.15323E+00 -1.22177E+00 -1.28718E+00
  -1.35014E+00 -1.41023E+00 -1.46808E+00 -1.52328E+00 -1.57645E+00 -1.62717E+00 -1.67604E+00 -1.72263E+00 -1.76750E+00 -1.81025E+00
  -1.85142E+00 -1.89061E+00 -1.92835E+00 -1.96420E+00 -1.99871E+00 -2.03142E+00 -2.06289E+00 -2.09266E+00 -2.12126E+00 -2.14826E+00
  -2.17415E+00 -2.19850E+00 -2.22181E+00 -2.24366E+00 -2.26453E+00 -2.28399E+00 -2.30252E+00 -2.31967E+00 -2.33595E+00 -2.35091E+00
  -2.36503E+00 -2.37787E+00 -2.38989E+00 -2.40067E+00 -2.41065E+00 -2.41942E+00 -2.42743E+00 -2.43424E+00
 NY background values follow
     9.920E+00    9.896E+00    9.871E+00    9.847E+00    9.822E+00    9.797E+00    9.771E+00    9.746E+00    9.719E+00    9.693E+00
     9.666E+00    9.639E+00    9.612E+00    9.585E+00    9.557E+00    9.529E+00    9.500E+00    9.472E+00    9.443E+00    9.414E+00
     9.384E+00    9.354E+00    9.324E+00    9.294E+00    9.263E+00    9.232E+00    9.201E+00    9.170E+00    9.138E+00    9.106E+00
     9.074E+00    9.042E+00    9.009E+00    8.976E+00    8.943E+00    8.909E+00    8.875E+00    8.841E+00    8.807E+00    8.773E+00
     8.738E+00    8.703E+00    8.668E+00    8.632E+00    8.597E+00    8.561E+00    8.524E+00    8.488E+00    8.451E+00    8.414E+00
     8.377E+00    8.340E+00    8.302E+00    8.264E+00    8.226E+00    8.188E+00    8.150E+00    8.111E+00    8.072E+00    8.033E+00
     7.993E+00    7.954E+00    7.914E+00    7.874E+00    7.834E+00    7.793E+00    7.753E+00    7.712E+00    7.671E+00    7.630E+00
     7.588E+00    7.546E+00    7.505E+00    7.463E+00    7.420E+00    7.378E+00    7.335E+00    7.292E+00    7.249E+00    7.206E+00
     7.163E+00    7.119E+00    7.076E+00    7.032E+00    6.988E+00    6.943E+00    6.899E+00    6.854E+00    6.810E+00    6.765E+00
     6.720E+00    6.674E+00    6.629E+00    6.583E+00    6.537E+00    6.492E+00    6.445E+00    6.399E+00    6.353E+00    6.306E+00
     6.260E+00    6.213E+00    6.166E+00    6.119E+00    6.072E+00    6.024E+00    5.977E+00    5.929E+00    5.881E+00    5.833E+00
     5.785E+00    5.737E+00    5.689E+00    5.640E+00    5.592E+00    5.543E+00    5.494E+00    5.445E+00    5.396E+00    5.347E+00
     5.298E+00    5.248E+00    5.199E+00    5.149E+00    5.099E+00    5.049E+00    5.000E+00    4.949E+00    4.899E+00    4.849E+00
     4.799E+00    4.748E+00    4.698E+00    4.647E+00    4.597E+00    4.546E+00    4.495E+00    4.444E+00    4.393E+00    4.342E+00
     4.291E+00    4.239E+00    4.188E+00    4.137E+00    4.085E+00    4.034E+00    3.982E+00    3.930E+00    3.878E+00    3.827E+00
     3.775E+00    3.723E+00    3.671E+00    3.619E+00    3.567E+00    3.515E+00    3.462E+00    3.410E+00    3.358E+00    3.306E+00
     3.253E+00    3.201E+00    3.148E+00    3.096E+00    3.043E+00    2.991E+00    2.938E+00    2.886E+00    2.833E+00    2.780E+00
     2.728E+00    2.675E+00    2.622E+00    2.570E+00    2.517E+00    2.464E+00    2.411E+00    2.359E+00    2.306E+00    2.253E+00
     2.200E+00    2.147E+00    2.095E+00    2.042E+00    1.989E+00    1.936E+00    1.883E+00    1.831E+00    1.778E+00    1.725E+00
     1.672E+00    1.620E+00    1.567E+00    1.514E+00    1.461E+00    1.409E+00    1.356E+00    1.304E+00    1.251E+00    1.198E+00
     1.146E+00    1.094E+00    1.041E+00    9.887E-01    9.363E-01    8.840E-01    8.317E-01    7.795E-01    7.273E-01    6.752E-01
     6.231E-01    5.711E-01    5.191E-01    4.672E-01    4.154E-01    3.636E-01    3.118E-01    2.601E-01    2.085E-01    1.570E-01
     1.055E-01    5.411E-02    2.775E-03   -4.848E-02   -9.966E-02   -1.508E-01   -2.018E-01   -2.527E-01   -3.036E-01   -3.544E-01
    -4.051E-01   -4.557E-01   -5.062E-01   -5.566E-01   -6.069E-01   -6.571E-01   -7.073E-01   -7.573E-01   -8.072E-01   -8.571E-01
    -9.068E-01   -9.564E-01   -1.006E+00   -1.055E+00   -1.105E+00   -1.154E+00   -1.203E+00   -1.252E+00   -1.301E+00   -1.349E+00
    -1.398E+00   -1.446E+00   -1.495E+00   -1.543E+00   -1.591E+00   -1.639E+00   -1.687E+00   -1.734E+00   -1.782E+00   -1.829E+00
    -1.877E+00   -1.924E+00   -1.971E+00   -2.018E+00   -2.064E+00   -2.111E+00   -2.157E+00   -2.204E+00   -2.250E+00   -2.296E+00
    -2.341E+00   -2.387E+00   -2.432E+00   -2.478E+00   -2.523E+00   -2.568E+00   -2.613E+00   -2.657E+00   -2.702E+00   -2.746E+00
    -2.790E+00   -2.834E+00   -2.878E+00   -2.922E+00   -2.965E+00   -3.008E+00   -3.051E+00   -3.094E+00   -3.137E+00   -3.179E+00
    -3.222E+00   -3.264E+00   -3.306E+00   -3.347E+00   -3.389E+00   -3.430E+00   -3.472E+00   -3.512E+00   -3.553E+00   -3.594E+00
    -3.634E+00   -3.674E+00   -3.714E+00   -3.754E+00   -3.793E+00   -3.833E+00   -3.872E+00   -3.911E+00   -3.949E+00   -3.988E+00
    -4.026E+00   -4.064E+00   -4.102E+00   -4.139E+00   -4.176E+00   -4.213E+00   -4.250E+00   -4.287E+00   -4.323E+00   -4.359E+00
    -4.395E+00   -4.431E+00   -4.467E+00   -4.502E+00   -4.537E+00   -4.571E+00   -4.606E+00   -4.640E+00   -4.674E+00   -4.708E+00
    -4.741E+00   -4.775E+00   -4.808E+00   -4.840E+00   -4.873E+00   -4.905E+00   -4.937E+00   -4.969E+00   -5.000E+00   -5.031E+00
    -5.062E+00   -5.093E+00   -5.123E+00   -5.153E+00   -5.183E+00   -5.213E+00   -5.242E+00   -5.271E+00   -5.300E+00   -5.328E+00
    -5.356E+00   -5.384E+00   -5.412E+00   -5.439E+00   -5.466E+00   -5.493E+00   -5.520E+00   -5.546E+00   -5.572E+00   -5.598E+00
    -5.623E+00   -5.648E+00   -5.673E+00   -5.697E+00   -5.721E+00   -5.745E+00   -5.769E+00   -5.792E+00   -5.815E+00   -5.838E+00
    -5.860E+00   -5.882E+00   -5.904E+00   -5.926E+00   -5.947E+00   -5.968E+00   -5.988E+00   -6.008E+00   -6.028E+00   -6.048E+00
    -6.067E+00   -6.086E+00   -6.105E+00   -6.123E+00   -6.141E+00   -6.159E+00   -6.176E+00   -6.194E+00   -6.210E+00   -6.227E+00
    -6.243E+00   -6.259E+00   -6.274E+00   -6.289E+00   -6.304E+00   -6.318E+00   -6.333E+00   -6.346E+00   -6.360E+00   -6.373E+00
    -6.386E+00   -6.398E+00   -6.410E+00   -6.422E+00   -6.434E+00   -6.445E+00   -6.456E+00   -6.466E+00   -6.476E+00   -6.486E+00
    -6.495E+00   -6.504E+00   -6.513E+00   -6.521E+00   -6.529E+00   -6.537E+00   -6.544E+00   -6.551E+00   -6.558E+00   -6.564E+00
    -6.570E+00   -6.576E+00   -6.581E+00   -6.586E+00   -6.590E+00   -6.594E+00   -6.598E+00   -6.601E+00   -6.604E+00   -6.607E+00
    -6.609E+00   -6.611E+00   -6.613E+00   -6.614E+00   -6.615E+00   -6.616E+00   -6.616E+00   -6.615E+00   -6.615E+00   -6.614E+00
    -6.613E+00   -6.611E+00   -6.609E+00   -6.606E+00   -6.604E+00   -6.600E+00   -6.597E+00   -6.593E+00   -6.589E+00   -6.584E+00
    -6.579E+00   -6.573E+00   -6.568E+00   -6.561E+00   -6.555E+00   -6.548E+00   -6.541E+00   -6.533E+00   -6.525E+00   -6.516E+00
    -6.507E+00   -6.498E+00   -6.489E+00   -6.479E+00   -6.468E+00   -6.457E+00   -6.446E+00   -6.435E+00   -6.423E+00   -6.411E+00
    -6.398E+00   -6.385E+00   -6.371E+00   -6.357E+00   -6.343E+00   -6.329E+00   -6.314E+00   -6.298E+00   -6.282E+00   -6.266E+00
    -6.250E+00   -6.233E+00   -6.215E+00   -6.197E+00   -6.179E+00   -6.161E+00   -6.142E+00   -6.123E+00   -6.103E+00   -6.083E+00
    -6.062E+00   -6.041E+00   -6.020E+00   -5.998E+00   -5.976E+00   -5.954E+00   -5.931E+00   -5.908E+00
 Asp      Conc. = 1.26E+01
