 LCModel (Version 6.3-1L) Copyright: S.W. Provencher.          Ref.: Magn. Reson. Med. 30:672-679 (1993).                
 Slice#3 Row#10 Col#5  PD_24_press_2_raw_act
 36 lines in following concentration table = NCONC+1
    Conc.  %SD /Cr+PCr  Metabolite                                         
  574.951  28%   0.541 Ala                                                 
    0.000 999%   0.000 Asp                                                 
  774.893  36%   0.729 Cr                                                  
  288.094  98%   0.271 PCr                                                 
   84.336 148% 7.9E-02 GABA                                                
   32.745 375% 3.1E-02 Glc                                                 
  785.547  43%   0.739 Gln                                                 
 1.22E+03  31%   1.151 Glu                                                 
  292.789   9%   0.275 GPC                                                 
    0.000 999%   0.000 PCh                                                 
  635.747  16%   0.598 GSH                                                 
 2.17E+03  19%   2.045 Ins                                                 
    0.000 999%   0.000 Lac                                                 
 1.72E+03   5%   1.619 NAA                                                 
    0.000 999%   0.000 NAAG                                                
   71.141  43% 6.7E-02 Scyllo                                              
    0.000 999%   0.000 Tau                                                 
    0.000 999%   0.000 -CrCH2                                              
  292.789   9%   0.275 GPC+PCh                                             
 1.72E+03   5%   1.619 NAA+NAAG                                            
 1.06E+03   7%   1.000 Cr+PCr                                              
 2.01E+03  29%   1.890 Glu+Gln                                             
 4.01E+03  30%   3.777 Lip13a                                              
    0.000 999%   0.000 Lip13b                                              
  375.166 126%   0.353 Lip09                                               
 1.09E+03  34%   1.022 MM09                                                
  824.569  40%   0.776 Lip20                                               
 1.79E+03  31%   1.688 MM20                                                
  315.259  55%   0.297 MM12                                                
 2.53E+03  19%   2.385 MM14                                                
    0.000 999%   0.000 MM17                                                
 4.01E+03  30%   3.777 Lip13a+Lip13b                                       
 6.86E+03  17%   6.458 MM14+Lip13a+Lip13b+MM12                             
 1.46E+03  25%   1.375 MM09+Lip09                                          
 2.62E+03  20%   2.463 MM20+Lip20                                          
   6 lines in following misc. output table
  FWHM = 0.061 ppm    S/N =   7                                            
  Data shift = 0.023 ppm                                                   
  Ph: -25 deg      -8.5 deg/ppm                                            
  alphaB,S = 7.3E-01,   8.1E+01                                            
   14 spline knots.   Ns = 8(1)                                            
  (13) 4 infls.   (17) 1 extrs.                                            
  498 points on ppm-axis = NY
      4.000000     3.992357     3.984714     3.977070     3.969427     3.961784     3.954141     3.946497     3.938854     3.931211
      3.923568     3.915925     3.908281     3.900638     3.892995     3.885352     3.877708     3.870065     3.862422     3.854779
      3.847136     3.839492     3.831849     3.824206     3.816563     3.808919     3.801276     3.793633     3.785990     3.778347
      3.770703     3.763060     3.755417     3.747774     3.740130     3.732487     3.724844     3.717201     3.709558     3.701914
      3.694271     3.686628     3.678985     3.671341     3.663698     3.656055     3.648412     3.640769     3.633125     3.625482
      3.617839     3.610196     3.602552     3.594909     3.587266     3.579623     3.571980     3.564336     3.556693     3.549050
      3.541407     3.533763     3.526120     3.518477     3.510834     3.503191     3.495547     3.487904     3.480261     3.472618
      3.464974     3.457331     3.449688     3.442045     3.434402     3.426758     3.419115     3.411472     3.403829     3.396185
      3.388542     3.380899     3.373256     3.365613     3.357969     3.350326     3.342683     3.335040     3.327396     3.319753
      3.312110     3.304467     3.296824     3.289180     3.281537     3.273894     3.266251     3.258607     3.250964     3.243321
      3.235678     3.228034     3.220391     3.212748     3.205105     3.197462     3.189818     3.182175     3.174532     3.166889
      3.159245     3.151602     3.143959     3.136316     3.128673     3.121029     3.113386     3.105743     3.098100     3.090456
      3.082813     3.075170     3.067527     3.059884     3.052240     3.044597     3.036954     3.029311     3.021667     3.014024
      3.006381     2.998738     2.991095     2.983451     2.975808     2.968165     2.960522     2.952878     2.945235     2.937592
      2.929949     2.922306     2.914662     2.907019     2.899376     2.891733     2.884089     2.876446     2.868803     2.861160
      2.853517     2.845873     2.838230     2.830587     2.822944     2.815300     2.807657     2.800014     2.792371     2.784728
      2.777084     2.769441     2.761798     2.754155     2.746511     2.738868     2.731225     2.723582     2.715939     2.708295
      2.700652     2.693009     2.685366     2.677722     2.670079     2.662436     2.654793     2.647150     2.639506     2.631863
      2.624220     2.616577     2.608933     2.601290     2.593647     2.586004     2.578361     2.570717     2.563074     2.555431
      2.547788     2.540144     2.532501     2.524858     2.517215     2.509572     2.501928     2.494285     2.486642     2.478999
      2.471355     2.463712     2.456069     2.448426     2.440783     2.433139     2.425496     2.417853     2.410210     2.402566
      2.394923     2.387280     2.379637     2.371994     2.364350     2.356707     2.349064     2.341421     2.333777     2.326134
      2.318491     2.310848     2.303205     2.295561     2.287918     2.280275     2.272632     2.264988     2.257345     2.249702
      2.242059     2.234416     2.226772     2.219129     2.211486     2.203843     2.196199     2.188556     2.180913     2.173270
      2.165627     2.157983     2.150340     2.142697     2.135054     2.127410     2.119767     2.112124     2.104481     2.096838
      2.089194     2.081551     2.073908     2.066265     2.058621     2.050978     2.043335     2.035692     2.028049     2.020405
      2.012762     2.005119     1.997476     1.989833     1.982190     1.974546     1.966903     1.959260     1.951617     1.943974
      1.936331     1.928688     1.921045     1.913402     1.905759     1.898115     1.890472     1.882829     1.875186     1.867543
      1.859900     1.852257     1.844614     1.836971     1.829327     1.821684     1.814041     1.806398     1.798755     1.791112
      1.783469     1.775826     1.768183     1.760540     1.752896     1.745253     1.737610     1.729967     1.722324     1.714681
      1.707038     1.699395     1.691752     1.684108     1.676465     1.668822     1.661179     1.653536     1.645893     1.638250
      1.630607     1.622964     1.615321     1.607677     1.600034     1.592391     1.584748     1.577105     1.569462     1.561819
      1.554176     1.546533     1.538890     1.531246     1.523603     1.515960     1.508317     1.500674     1.493031     1.485388
      1.477745     1.470102     1.462458     1.454815     1.447172     1.439529     1.431886     1.424243     1.416600     1.408957
      1.401314     1.393671     1.386027     1.378384     1.370741     1.363098     1.355455     1.347812     1.340169     1.332526
      1.324883     1.317240     1.309596     1.301953     1.294310     1.286667     1.279024     1.271381     1.263738     1.256095
      1.248452     1.240808     1.233165     1.225522     1.217879     1.210236     1.202593     1.194950     1.187307     1.179664
      1.172021     1.164377     1.156734     1.149091     1.141448     1.133805     1.126162     1.118519     1.110876     1.103233
      1.095590     1.087946     1.080303     1.072660     1.065017     1.057374     1.049731     1.042088     1.034445     1.026802
      1.019158     1.011515     1.003872     0.996229     0.988586     0.980943     0.973300     0.965657     0.958014     0.950371
      0.942727     0.935084     0.927441     0.919798     0.912155     0.904512     0.896869     0.889226     0.881583     0.873940
      0.866296     0.858653     0.851010     0.843367     0.835724     0.828081     0.820438     0.812795     0.805152     0.797508
      0.789865     0.782222     0.774579     0.766936     0.759293     0.751650     0.744007     0.736364     0.728721     0.721077
      0.713434     0.705791     0.698148     0.690505     0.682862     0.675219     0.667576     0.659933     0.652290     0.644646
      0.637003     0.629360     0.621717     0.614074     0.606431     0.598788     0.591145     0.583502     0.575858     0.568215
      0.560572     0.552929     0.545286     0.537643     0.530000     0.522357     0.514714     0.507071     0.499427     0.491784
      0.484141     0.476498     0.468855     0.461212     0.453569     0.445925     0.438282     0.430639     0.422996     0.415353
      0.407710     0.400067     0.392424     0.384780     0.377137     0.369494     0.361851     0.354208     0.346565     0.338922
      0.331278     0.323635     0.315992     0.308349     0.300706     0.293063     0.285420     0.277777     0.270133     0.262490
      0.254847     0.247204     0.239561     0.231918     0.224275     0.216631     0.208988     0.201345
 NY phased data points follow
  -2.77004E+02 -2.80298E+02 -2.69084E+02 -2.68851E+02 -2.62253E+02 -2.59972E+02 -2.44678E+02 -2.45073E+02 -2.29870E+02 -2.31570E+02
  -2.22401E+02 -2.26224E+02 -2.17977E+02 -2.23316E+02 -2.15154E+02 -2.22866E+02 -2.18135E+02 -2.27255E+02 -2.18310E+02 -2.26147E+02
  -2.15814E+02 -2.17061E+02 -2.13042E+02 -2.13758E+02 -2.08100E+02 -2.00269E+02 -1.99285E+02 -1.97774E+02 -1.93433E+02 -1.90018E+02
  -1.81776E+02 -1.85804E+02 -1.74481E+02 -1.80140E+02 -1.75755E+02 -1.77378E+02 -1.72043E+02 -1.71076E+02 -1.64039E+02 -1.65773E+02
  -1.62317E+02 -1.62445E+02 -1.56645E+02 -1.55737E+02 -1.53195E+02 -1.51678E+02 -1.47143E+02 -1.52934E+02 -1.46017E+02 -1.48587E+02
  -1.41108E+02 -1.49206E+02 -1.40094E+02 -1.45738E+02 -1.39059E+02 -1.43425E+02 -1.40345E+02 -1.36377E+02 -1.35849E+02 -1.39966E+02
  -1.32951E+02 -1.38220E+02 -1.31579E+02 -1.40882E+02 -1.34643E+02 -1.33783E+02 -1.31709E+02 -1.32859E+02 -1.28639E+02 -1.30104E+02
  -1.20209E+02 -1.22229E+02 -1.19730E+02 -1.20934E+02 -1.15575E+02 -1.21741E+02 -1.19337E+02 -1.16306E+02 -1.15986E+02 -1.17886E+02
  -1.13605E+02 -1.15281E+02 -1.06712E+02 -1.11058E+02 -1.08684E+02 -1.12169E+02 -1.03300E+02 -1.11011E+02 -1.03021E+02 -1.06727E+02
  -1.03169E+02 -1.03387E+02 -1.01723E+02 -1.05674E+02 -9.81701E+01 -1.00275E+02 -9.47046E+01 -9.79840E+01 -8.93608E+01 -8.81671E+01
  -8.14453E+01 -8.00450E+01 -7.35991E+01 -7.46589E+01 -6.96762E+01 -7.57760E+01 -7.89877E+01 -8.33676E+01 -8.04143E+01 -8.39647E+01
  -7.92730E+01 -7.71692E+01 -7.63002E+01 -8.44822E+01 -8.10349E+01 -8.17519E+01 -7.86670E+01 -8.00536E+01 -8.11641E+01 -8.13765E+01
  -8.16607E+01 -8.38659E+01 -7.39547E+01 -6.92160E+01 -5.93264E+01 -5.38187E+01 -4.30649E+01 -4.76678E+01 -4.31930E+01 -4.93557E+01
  -4.67067E+01 -6.09092E+01 -6.20412E+01 -6.53166E+01 -6.76264E+01 -6.77294E+01 -6.50932E+01 -7.06987E+01 -7.14547E+01 -7.22602E+01
  -6.71302E+01 -7.19189E+01 -6.58163E+01 -6.89175E+01 -7.16031E+01 -6.96130E+01 -6.58500E+01 -6.66074E+01 -6.75779E+01 -6.51326E+01
  -6.58617E+01 -6.83404E+01 -6.90772E+01 -6.73914E+01 -6.67978E+01 -6.96828E+01 -6.53713E+01 -5.84277E+01 -6.07401E+01 -6.33656E+01
  -5.84382E+01 -6.28112E+01 -6.22876E+01 -7.00482E+01 -6.44016E+01 -6.31840E+01 -5.81700E+01 -5.98071E+01 -5.69860E+01 -6.23475E+01
  -5.64173E+01 -6.19695E+01 -6.39767E+01 -7.08317E+01 -6.70361E+01 -6.05170E+01 -6.60535E+01 -6.81883E+01 -6.43718E+01 -6.80145E+01
  -6.17982E+01 -6.86616E+01 -6.35950E+01 -6.34084E+01 -6.37209E+01 -6.57998E+01 -6.00911E+01 -6.10251E+01 -5.77256E+01 -5.85492E+01
  -5.24251E+01 -4.65634E+01 -4.94252E+01 -5.06427E+01 -4.83356E+01 -5.22263E+01 -4.61280E+01 -5.27950E+01 -5.11819E+01 -4.95056E+01
  -5.26093E+01 -5.14103E+01 -4.67267E+01 -5.06566E+01 -4.60739E+01 -4.65270E+01 -4.63826E+01 -5.07542E+01 -4.92768E+01 -5.12028E+01
  -5.13761E+01 -5.02574E+01 -4.03847E+01 -4.35985E+01 -3.93323E+01 -3.85623E+01 -3.64820E+01 -3.77939E+01 -4.05882E+01 -4.08683E+01
  -4.26963E+01 -4.28719E+01 -3.82533E+01 -4.09064E+01 -3.99869E+01 -3.58921E+01 -3.21549E+01 -3.48220E+01 -3.14006E+01 -3.46610E+01
  -3.18932E+01 -3.52564E+01 -3.00817E+01 -3.02060E+01 -3.56465E+01 -3.65547E+01 -3.32133E+01 -3.25469E+01 -3.52438E+01 -3.66240E+01
  -3.56543E+01 -3.68828E+01 -3.06994E+01 -3.49062E+01 -3.21154E+01 -2.98961E+01 -2.86654E+01 -3.24392E+01 -3.23770E+01 -2.92812E+01
  -2.92587E+01 -3.29915E+01 -2.89167E+01 -2.35457E+01 -1.67022E+01 -1.63081E+01 -1.11634E+01 -2.86237E+00  9.91727E+00  1.85213E+01
   1.91821E+01  2.11887E+01  1.45388E+01  4.83870E+00 -4.48779E+00 -1.73195E+01 -1.44556E+01 -2.10814E+01 -2.22043E+01 -3.15911E+01
  -2.75831E+01 -3.01457E+01 -3.59568E+01 -3.30825E+01 -3.32896E+01 -3.24455E+01 -3.21047E+01 -3.14119E+01 -2.99514E+01 -3.21033E+01
  -3.20553E+01 -3.25477E+01 -3.09674E+01 -3.40910E+01 -3.07434E+01 -3.91236E+01 -2.94152E+01 -3.26337E+01 -3.74009E+01 -3.93149E+01
  -3.82435E+01 -3.69024E+01 -3.46610E+01 -3.69342E+01 -3.39443E+01 -3.93245E+01 -3.75007E+01 -3.64919E+01 -3.73419E+01 -3.91231E+01
  -3.78717E+01 -4.49783E+01 -3.72055E+01 -3.82385E+01 -3.42782E+01 -3.15649E+01 -3.43290E+01 -3.53462E+01 -3.09850E+01 -3.32903E+01
  -2.70371E+01 -1.95581E+01 -1.70489E+01 -1.57941E+01 -1.34793E+01 -1.58971E+01 -1.34512E+01 -1.78507E+01 -1.26744E+01 -1.41678E+01
  -8.03014E+00 -9.25280E+00 -1.08672E+01 -1.28828E+01 -1.01307E+01 -1.26060E+01 -1.19887E+01 -1.31143E+01 -5.83262E+00 -9.36290E+00
  -1.46880E+01 -1.21427E+01 -8.81332E+00 -1.66524E+01 -1.00978E+01 -1.27262E+01 -6.50976E+00 -5.32622E+00 -8.09046E+00 -7.17459E+00
  -6.17454E+00 -7.04411E+00 -5.78281E+00 -5.16676E+00  1.16723E+00 -3.98044E+00 -2.03223E+00 -7.36980E+00  3.13243E-02 -2.83120E+00
  -3.04901E+00 -9.28757E+00 -2.98026E+00 -6.68197E+00 -8.48464E+00 -1.08335E+01 -7.25114E+00 -9.72361E+00 -7.85639E+00 -9.88527E+00
  -6.88214E+00 -9.40122E+00 -8.76707E+00 -1.28050E+01 -5.24079E+00 -1.10676E+01 -9.95396E+00 -1.11958E+01 -7.40893E+00 -8.65779E+00
  -8.43494E+00 -1.31278E+01 -9.34155E+00 -1.04738E+01 -7.58905E+00 -1.50313E+01 -9.28873E+00 -8.05164E+00 -8.40093E+00 -1.56921E+01
  -1.14351E+01 -8.68548E+00 -1.15409E+01 -8.87236E+00 -1.09228E+01 -7.62062E+00 -1.02529E+01 -1.17374E+01 -8.26616E+00 -1.29520E+01
  -9.30888E+00 -9.95417E+00 -1.00723E+01 -6.64695E+00 -8.76004E+00 -6.56067E+00 -7.96619E+00 -8.32294E+00 -7.17839E+00 -4.60676E+00
  -5.06141E+00 -8.04368E+00 -5.84884E+00 -7.38910E+00 -5.91731E+00 -4.75847E+00 -7.05386E-01 -9.05947E+00 -6.77495E+00 -6.78174E+00
  -4.35418E+00 -7.15558E+00 -8.65758E+00 -6.57302E+00 -9.39310E+00 -9.38095E+00 -9.94636E+00 -1.22720E+01 -1.24686E+01 -1.09526E+01
  -1.32918E+01 -1.52096E+01 -9.27614E+00 -1.08812E+01 -1.03390E+01 -1.27971E+01 -6.62838E+00 -1.07664E+01 -6.49553E+00 -9.94066E+00
  -8.72747E+00 -1.12892E+01 -1.00307E+01 -1.24712E+01 -8.91631E+00 -1.22080E+01 -1.17967E+01 -8.17801E+00 -1.27294E+01 -1.38773E+01
  -1.53667E+01 -1.16431E+01 -1.37987E+01 -1.00566E+01 -1.04548E+01 -1.36950E+01 -9.51619E+00 -9.50476E+00 -8.36520E+00 -1.15940E+01
  -9.58393E+00 -1.19846E+01 -8.63007E+00 -1.14188E+01 -1.02864E+01 -1.14486E+01 -1.04459E+01 -1.35086E+01 -1.50667E+01 -1.08231E+01
  -1.01786E+01 -9.71702E+00 -6.36019E+00 -8.04782E+00 -1.11326E+01 -1.03450E+01 -9.32407E+00 -1.30167E+01 -9.61717E+00 -1.24743E+01
  -1.01769E+01 -1.34479E+01 -7.65268E+00 -1.18301E+01 -8.24898E+00 -1.05871E+01 -8.55265E+00 -1.04356E+01 -1.03112E+01 -1.71346E+01
  -9.42936E+00 -8.94507E+00 -1.23923E+01 -8.83547E+00 -1.14890E+01 -1.09457E+01 -1.43054E+01 -1.19474E+01 -1.09400E+01 -1.01099E+01
  -6.10852E+00 -6.06112E+00 -7.45854E+00 -1.10393E+01 -5.78179E+00 -8.99391E+00 -9.57424E+00 -6.36843E+00
 NY points of the fit to the data follow
  -2.69347E+02 -2.67482E+02 -2.64996E+02 -2.62004E+02 -2.58315E+02 -2.53851E+02 -2.48681E+02 -2.42900E+02 -2.36816E+02 -2.30997E+02
  -2.26143E+02 -2.22773E+02 -2.20966E+02 -2.20500E+02 -2.20859E+02 -2.21290E+02 -2.21102E+02 -2.20101E+02 -2.18699E+02 -2.17381E+02
  -2.16350E+02 -2.15095E+02 -2.12966E+02 -2.10467E+02 -2.07931E+02 -2.05176E+02 -2.01793E+02 -1.97553E+02 -1.92648E+02 -1.87541E+02
  -1.82786E+02 -1.78936E+02 -1.76496E+02 -1.75689E+02 -1.76068E+02 -1.76598E+02 -1.76525E+02 -1.75905E+02 -1.74967E+02 -1.73694E+02
  -1.71577E+02 -1.68383E+02 -1.64553E+02 -1.60313E+02 -1.56044E+02 -1.52354E+02 -1.49743E+02 -1.48356E+02 -1.48288E+02 -1.49198E+02
  -1.50138E+02 -1.50314E+02 -1.49379E+02 -1.47652E+02 -1.45881E+02 -1.44380E+02 -1.42655E+02 -1.40425E+02 -1.38160E+02 -1.36375E+02
  -1.35145E+02 -1.34367E+02 -1.33819E+02 -1.33156E+02 -1.32116E+02 -1.30607E+02 -1.28814E+02 -1.27017E+02 -1.25280E+02 -1.23644E+02
  -1.22147E+02 -1.20763E+02 -1.19532E+02 -1.18466E+02 -1.17556E+02 -1.16735E+02 -1.15876E+02 -1.14970E+02 -1.14054E+02 -1.13223E+02
  -1.12504E+02 -1.11768E+02 -1.11033E+02 -1.10350E+02 -1.09749E+02 -1.09215E+02 -1.08691E+02 -1.08065E+02 -1.07272E+02 -1.06301E+02
  -1.05157E+02 -1.03895E+02 -1.02672E+02 -1.01662E+02 -1.00831E+02 -9.96859E+01 -9.79292E+01 -9.55117E+01 -9.22762E+01 -8.79733E+01
  -8.28431E+01 -7.77499E+01 -7.38014E+01 -7.16731E+01 -7.15824E+01 -7.33568E+01 -7.63661E+01 -7.94303E+01 -8.13903E+01 -8.21109E+01
  -8.24855E+01 -8.35033E+01 -8.50868E+01 -8.57707E+01 -8.54856E+01 -8.49674E+01 -8.43919E+01 -8.37614E+01 -8.29594E+01 -8.14526E+01
  -7.89832E+01 -7.57570E+01 -7.15704E+01 -6.61742E+01 -5.98362E+01 -5.34922E+01 -4.84255E+01 -4.55844E+01 -4.53077E+01 -4.75492E+01
  -5.16851E+01 -5.63035E+01 -5.98698E+01 -6.20452E+01 -6.37799E+01 -6.62547E+01 -6.95034E+01 -7.15535E+01 -7.15831E+01 -7.07291E+01
  -6.95474E+01 -6.84650E+01 -6.77557E+01 -6.73986E+01 -6.71550E+01 -6.69291E+01 -6.67145E+01 -6.64745E+01 -6.62735E+01 -6.61752E+01
  -6.61369E+01 -6.61415E+01 -6.60615E+01 -6.59106E+01 -6.57225E+01 -6.55026E+01 -6.52841E+01 -6.50928E+01 -6.49535E+01 -6.48473E+01
  -6.47022E+01 -6.44704E+01 -6.41452E+01 -6.37643E+01 -6.34064E+01 -6.31664E+01 -6.31067E+01 -6.32098E+01 -6.33840E+01 -6.34829E+01
  -6.34072E+01 -6.32964E+01 -6.32883E+01 -6.33875E+01 -6.34861E+01 -6.33951E+01 -6.31191E+01 -6.27845E+01 -6.24399E+01 -6.21171E+01
  -6.18431E+01 -6.16276E+01 -6.14292E+01 -6.10983E+01 -6.04872E+01 -5.95755E+01 -5.84891E+01 -5.72881E+01 -5.58815E+01 -5.43641E+01
  -5.30374E+01 -5.22338E+01 -5.20459E+01 -5.22978E+01 -5.27051E+01 -5.29860E+01 -5.29197E+01 -5.23987E+01 -5.14088E+01 -5.00337E+01
  -4.84422E+01 -4.68392E+01 -4.55614E+01 -4.48816E+01 -4.48976E+01 -4.55344E+01 -4.65495E+01 -4.76367E+01 -4.85050E+01 -4.88316E+01
  -4.83594E+01 -4.70663E+01 -4.51164E+01 -4.29402E+01 -4.11328E+01 -4.01612E+01 -4.00616E+01 -4.06883E+01 -4.17540E+01 -4.28823E+01
  -4.37826E+01 -4.39849E+01 -4.32727E+01 -4.20472E+01 -4.06736E+01 -3.92640E+01 -3.78699E+01 -3.69362E+01 -3.66153E+01 -3.65451E+01
  -3.62746E+01 -3.57300E+01 -3.51785E+01 -3.46612E+01 -3.39651E+01 -3.31633E+01 -3.25609E+01 -3.23197E+01 -3.24117E+01 -3.27163E+01
  -3.31293E+01 -3.35976E+01 -3.39649E+01 -3.39497E+01 -3.34556E+01 -3.26781E+01 -3.19344E+01 -3.12959E+01 -3.06600E+01 -3.00624E+01
  -2.95024E+01 -2.86764E+01 -2.68569E+01 -2.36350E+01 -1.95110E+01 -1.43389E+01 -7.56748E+00  6.91605E-01  9.25403E+00  1.60903E+01
   1.94372E+01  1.86675E+01  1.37335E+01  5.46928E+00 -3.90210E+00 -1.15467E+01 -1.61796E+01 -1.90979E+01 -2.26062E+01 -2.76295E+01
  -3.19000E+01 -3.33045E+01 -3.37238E+01 -3.39170E+01 -3.39974E+01 -3.40733E+01 -3.42114E+01 -3.43881E+01 -3.45758E+01 -3.47458E+01
  -3.48832E+01 -3.49879E+01 -3.50719E+01 -3.51251E+01 -3.51358E+01 -3.51159E+01 -3.50741E+01 -3.50103E+01 -3.49273E+01 -3.48272E+01
  -3.47129E+01 -3.45880E+01 -3.44485E+01 -3.42940E+01 -3.41257E+01 -3.39395E+01 -3.37298E+01 -3.34950E+01 -3.32356E+01 -3.29485E+01
  -3.26290E+01 -3.22749E+01 -3.18834E+01 -3.14490E+01 -3.09681E+01 -3.04359E+01 -2.98476E+01 -2.91982E+01 -2.84826E+01 -2.76965E+01
  -2.68367E+01 -2.59016E+01 -2.48906E+01 -2.38038E+01 -2.26424E+01 -2.14084E+01 -2.01031E+01 -1.87236E+01 -1.72530E+01 -1.56402E+01
  -1.39103E+01 -1.22273E+01 -1.06328E+01 -9.18187E+00 -8.06195E+00 -7.54747E+00 -7.86078E+00 -8.94964E+00 -1.04333E+01 -1.20279E+01
  -1.33858E+01 -1.40124E+01 -1.35556E+01 -1.21462E+01 -1.03593E+01 -8.75991E+00 -7.50071E+00 -6.41601E+00 -5.63479E+00 -5.57095E+00
  -5.92318E+00 -6.19145E+00 -6.18016E+00 -6.08151E+00 -6.25407E+00 -6.68846E+00 -6.89389E+00 -6.87972E+00 -6.76589E+00 -6.60508E+00
  -6.42742E+00 -6.25433E+00 -6.10231E+00 -5.98426E+00 -5.91003E+00 -5.88667E+00 -5.91871E+00 -6.00825E+00 -6.15505E+00 -6.35679E+00
  -6.60940E+00 -6.90742E+00 -7.24435E+00 -7.61276E+00 -8.00460E+00 -8.41161E+00 -8.82565E+00 -9.23898E+00 -9.64437E+00 -1.00351E+01
  -1.04052E+01 -1.07492E+01 -1.10627E+01 -1.13417E+01 -1.15832E+01 -1.17844E+01 -1.19432E+01 -1.20578E+01 -1.21269E+01 -1.21497E+01
  -1.21254E+01 -1.20536E+01 -1.19343E+01 -1.17676E+01 -1.15544E+01 -1.12960E+01 -1.09943E+01 -1.06519E+01 -1.02723E+01 -9.86016E+00
  -9.42096E+00 -8.96143E+00 -8.48920E+00 -8.01282E+00 -7.54165E+00 -7.08565E+00 -6.65500E+00 -6.25974E+00 -5.90932E+00 -5.61232E+00
  -5.37608E+00 -5.20638E+00 -5.10710E+00 -5.08001E+00 -5.12468E+00 -5.23865E+00 -5.41752E+00 -5.65517E+00 -5.94408E+00 -6.27564E+00
  -6.64059E+00 -7.02949E+00 -7.43301E+00 -7.84231E+00 -8.24923E+00 -8.64652E+00 -9.02805E+00 -9.38894E+00 -9.72548E+00 -1.00351E+01
  -1.03162E+01 -1.05680E+01 -1.07907E+01 -1.09851E+01 -1.11526E+01 -1.12946E+01 -1.14131E+01 -1.15099E+01 -1.15871E+01 -1.16467E+01
  -1.16908E+01 -1.17210E+01 -1.17391E+01 -1.17465E+01 -1.17447E+01 -1.17351E+01 -1.17186E+01 -1.16963E+01 -1.16691E+01 -1.16376E+01
  -1.16027E+01 -1.15649E+01 -1.15248E+01 -1.14827E+01 -1.14391E+01 -1.13943E+01 -1.13487E+01 -1.13026E+01 -1.12563E+01 -1.12098E+01
  -1.11634E+01 -1.11173E+01 -1.10717E+01 -1.10268E+01 -1.09824E+01 -1.09387E+01 -1.08955E+01 -1.08530E+01 -1.08111E+01 -1.07697E+01
  -1.07289E+01 -1.06885E+01 -1.06486E+01 -1.06091E+01 -1.05700E+01 -1.05312E+01 -1.04927E+01 -1.04542E+01 -1.04159E+01 -1.03778E+01
  -1.03396E+01 -1.03013E+01 -1.02629E+01 -1.02242E+01 -1.01853E+01 -1.01461E+01 -1.01064E+01 -1.00661E+01 -1.00253E+01 -9.98376E+00
  -9.94153E+00 -9.89850E+00 -9.85452E+00 -9.80951E+00 -9.76341E+00 -9.71616E+00 -9.66770E+00 -9.61789E+00 -9.56661E+00 -9.51377E+00
  -9.45931E+00 -9.40318E+00 -9.34525E+00 -9.28538E+00 -9.22345E+00 -9.15936E+00 -9.09305E+00 -9.02441E+00
 NY background values follow
    -2.734E+02   -2.708E+02   -2.683E+02   -2.657E+02   -2.632E+02   -2.606E+02   -2.581E+02   -2.555E+02   -2.530E+02   -2.504E+02
    -2.479E+02   -2.454E+02   -2.429E+02   -2.404E+02   -2.378E+02   -2.354E+02   -2.329E+02   -2.304E+02   -2.279E+02   -2.255E+02
    -2.230E+02   -2.206E+02   -2.182E+02   -2.158E+02   -2.134E+02   -2.110E+02   -2.087E+02   -2.063E+02   -2.040E+02   -2.017E+02
    -1.994E+02   -1.972E+02   -1.949E+02   -1.927E+02   -1.905E+02   -1.883E+02   -1.861E+02   -1.840E+02   -1.819E+02   -1.798E+02
    -1.778E+02   -1.757E+02   -1.737E+02   -1.717E+02   -1.698E+02   -1.678E+02   -1.659E+02   -1.641E+02   -1.622E+02   -1.604E+02
    -1.586E+02   -1.569E+02   -1.552E+02   -1.535E+02   -1.518E+02   -1.501E+02   -1.485E+02   -1.469E+02   -1.453E+02   -1.438E+02
    -1.423E+02   -1.408E+02   -1.393E+02   -1.378E+02   -1.364E+02   -1.350E+02   -1.336E+02   -1.322E+02   -1.309E+02   -1.296E+02
    -1.283E+02   -1.270E+02   -1.257E+02   -1.245E+02   -1.233E+02   -1.221E+02   -1.209E+02   -1.197E+02   -1.186E+02   -1.175E+02
    -1.164E+02   -1.153E+02   -1.142E+02   -1.131E+02   -1.121E+02   -1.111E+02   -1.101E+02   -1.091E+02   -1.081E+02   -1.071E+02
    -1.061E+02   -1.052E+02   -1.043E+02   -1.034E+02   -1.025E+02   -1.016E+02   -1.007E+02   -9.983E+01   -9.898E+01   -9.814E+01
    -9.731E+01   -9.650E+01   -9.570E+01   -9.491E+01   -9.413E+01   -9.336E+01   -9.261E+01   -9.187E+01   -9.114E+01   -9.042E+01
    -8.971E+01   -8.901E+01   -8.833E+01   -8.765E+01   -8.699E+01   -8.633E+01   -8.569E+01   -8.506E+01   -8.444E+01   -8.383E+01
    -8.323E+01   -8.264E+01   -8.205E+01   -8.148E+01   -8.092E+01   -8.037E+01   -7.983E+01   -7.930E+01   -7.877E+01   -7.826E+01
    -7.775E+01   -7.726E+01   -7.677E+01   -7.629E+01   -7.582E+01   -7.536E+01   -7.491E+01   -7.447E+01   -7.403E+01   -7.360E+01
    -7.318E+01   -7.277E+01   -7.236E+01   -7.196E+01   -7.157E+01   -7.118E+01   -7.080E+01   -7.042E+01   -7.005E+01   -6.968E+01
    -6.932E+01   -6.896E+01   -6.861E+01   -6.826E+01   -6.791E+01   -6.757E+01   -6.723E+01   -6.689E+01   -6.656E+01   -6.622E+01
    -6.589E+01   -6.556E+01   -6.523E+01   -6.491E+01   -6.458E+01   -6.425E+01   -6.393E+01   -6.360E+01   -6.327E+01   -6.295E+01
    -6.262E+01   -6.229E+01   -6.196E+01   -6.162E+01   -6.129E+01   -6.095E+01   -6.061E+01   -6.027E+01   -5.992E+01   -5.957E+01
    -5.921E+01   -5.886E+01   -5.849E+01   -5.813E+01   -5.776E+01   -5.738E+01   -5.701E+01   -5.663E+01   -5.625E+01   -5.586E+01
    -5.548E+01   -5.509E+01   -5.471E+01   -5.432E+01   -5.393E+01   -5.354E+01   -5.316E+01   -5.277E+01   -5.238E+01   -5.200E+01
    -5.161E+01   -5.123E+01   -5.085E+01   -5.048E+01   -5.010E+01   -4.973E+01   -4.937E+01   -4.900E+01   -4.865E+01   -4.829E+01
    -4.794E+01   -4.760E+01   -4.726E+01   -4.693E+01   -4.660E+01   -4.628E+01   -4.597E+01   -4.566E+01   -4.536E+01   -4.507E+01
    -4.479E+01   -4.451E+01   -4.424E+01   -4.399E+01   -4.374E+01   -4.350E+01   -4.327E+01   -4.306E+01   -4.285E+01   -4.265E+01
    -4.246E+01   -4.228E+01   -4.211E+01   -4.195E+01   -4.180E+01   -4.165E+01   -4.151E+01   -4.138E+01   -4.126E+01   -4.114E+01
    -4.103E+01   -4.092E+01   -4.082E+01   -4.073E+01   -4.064E+01   -4.056E+01   -4.048E+01   -4.041E+01   -4.034E+01   -4.027E+01
    -4.021E+01   -4.015E+01   -4.009E+01   -4.003E+01   -3.998E+01   -3.993E+01   -3.988E+01   -3.983E+01   -3.979E+01   -3.974E+01
    -3.970E+01   -3.965E+01   -3.961E+01   -3.956E+01   -3.952E+01   -3.947E+01   -3.942E+01   -3.937E+01   -3.932E+01   -3.927E+01
    -3.921E+01   -3.915E+01   -3.909E+01   -3.902E+01   -3.895E+01   -3.888E+01   -3.881E+01   -3.873E+01   -3.865E+01   -3.856E+01
    -3.847E+01   -3.838E+01   -3.829E+01   -3.819E+01   -3.809E+01   -3.798E+01   -3.788E+01   -3.777E+01   -3.765E+01   -3.753E+01
    -3.741E+01   -3.729E+01   -3.716E+01   -3.703E+01   -3.689E+01   -3.676E+01   -3.661E+01   -3.647E+01   -3.632E+01   -3.617E+01
    -3.601E+01   -3.585E+01   -3.569E+01   -3.552E+01   -3.535E+01   -3.518E+01   -3.500E+01   -3.482E+01   -3.463E+01   -3.444E+01
    -3.425E+01   -3.405E+01   -3.385E+01   -3.365E+01   -3.344E+01   -3.323E+01   -3.301E+01   -3.279E+01   -3.257E+01   -3.234E+01
    -3.212E+01   -3.188E+01   -3.165E+01   -3.141E+01   -3.117E+01   -3.092E+01   -3.068E+01   -3.043E+01   -3.018E+01   -2.992E+01
    -2.967E+01   -2.941E+01   -2.916E+01   -2.890E+01   -2.864E+01   -2.838E+01   -2.812E+01   -2.786E+01   -2.760E+01   -2.734E+01
    -2.708E+01   -2.682E+01   -2.656E+01   -2.630E+01   -2.604E+01   -2.578E+01   -2.553E+01   -2.527E+01   -2.502E+01   -2.477E+01
    -2.451E+01   -2.427E+01   -2.402E+01   -2.378E+01   -2.354E+01   -2.330E+01   -2.306E+01   -2.283E+01   -2.260E+01   -2.237E+01
    -2.215E+01   -2.193E+01   -2.172E+01   -2.151E+01   -2.130E+01   -2.110E+01   -2.090E+01   -2.070E+01   -2.051E+01   -2.032E+01
    -2.014E+01   -1.996E+01   -1.978E+01   -1.960E+01   -1.943E+01   -1.926E+01   -1.909E+01   -1.893E+01   -1.877E+01   -1.861E+01
    -1.845E+01   -1.830E+01   -1.815E+01   -1.800E+01   -1.786E+01   -1.771E+01   -1.757E+01   -1.743E+01   -1.729E+01   -1.716E+01
    -1.702E+01   -1.689E+01   -1.676E+01   -1.663E+01   -1.651E+01   -1.638E+01   -1.626E+01   -1.613E+01   -1.601E+01   -1.589E+01
    -1.577E+01   -1.565E+01   -1.553E+01   -1.542E+01   -1.530E+01   -1.518E+01   -1.507E+01   -1.495E+01   -1.484E+01   -1.473E+01
    -1.461E+01   -1.450E+01   -1.439E+01   -1.428E+01   -1.417E+01   -1.406E+01   -1.395E+01   -1.384E+01   -1.373E+01   -1.362E+01
    -1.352E+01   -1.341E+01   -1.331E+01   -1.320E+01   -1.310E+01   -1.300E+01   -1.290E+01   -1.280E+01   -1.270E+01   -1.260E+01
    -1.251E+01   -1.241E+01   -1.232E+01   -1.223E+01   -1.214E+01   -1.205E+01   -1.196E+01   -1.187E+01   -1.179E+01   -1.170E+01
    -1.162E+01   -1.154E+01   -1.146E+01   -1.138E+01   -1.130E+01   -1.123E+01   -1.115E+01   -1.108E+01   -1.101E+01   -1.094E+01
    -1.088E+01   -1.081E+01   -1.075E+01   -1.069E+01   -1.063E+01   -1.057E+01   -1.052E+01   -1.046E+01   -1.041E+01   -1.036E+01
    -1.031E+01   -1.026E+01   -1.021E+01   -1.016E+01   -1.012E+01   -1.007E+01   -1.002E+01   -9.980E+00   -9.936E+00   -9.893E+00
    -9.850E+00   -9.807E+00   -9.764E+00   -9.722E+00   -9.679E+00   -9.637E+00   -9.594E+00   -9.551E+00   -9.508E+00   -9.464E+00
    -9.420E+00   -9.375E+00   -9.330E+00   -9.284E+00   -9.237E+00   -9.189E+00   -9.140E+00   -9.090E+00   -9.038E+00   -8.986E+00
    -8.932E+00   -8.876E+00   -8.819E+00   -8.761E+00   -8.701E+00   -8.639E+00   -8.575E+00   -8.509E+00
 Ala      Conc. = 5.75E+02
