 LCModel (Version 6.3-1L) Copyright: S.W. Provencher.          Ref.: Magn. Reson. Med. 30:672-679 (1993).                
 Slice#3 Row#11 Col#2  PD_24_press_2_raw_act
 36 lines in following concentration table = NCONC+1
    Conc.  %SD /Cr+PCr  Metabolite                                         
 4.43E+03  16%   0.000 Ala                                                 
    2.208 240%   0.000 Asp                                                 
    0.000 999%   0.000 Cr                                                  
    0.000 999%   0.000 PCr                                                 
    1.341 237%   0.000 GABA                                                
    1.332 239%   0.000 Glc                                                 
 3.82E+03  17%   0.000 Gln                                                 
    0.000 999%   0.000 Glu                                                 
    0.000 999%   0.000 GPC                                                 
    2.591 864%   0.000 PCh                                                 
    0.000 999%   0.000 GSH                                                 
 1.65E+03  17%   0.000 Ins                                                 
    0.000 999%   0.000 Lac                                                 
   36.991 201%   0.000 NAA                                                 
    0.000 999%   0.000 NAAG                                                
    0.457 232%   0.000 Scyllo                                              
    2.212 240%   0.000 Tau                                                 
    0.000 999%   0.000 -CrCH2                                              
    2.591 864%   0.000 GPC+PCh                                             
   36.991 201%   0.000 NAA+NAAG                                            
    0.000 999%   0.000 Cr+PCr                                              
 3.82E+03  17%   0.000 Glu+Gln                                             
    0.000 999%   0.000 Lip13a                                              
   21.883 638%   0.000 Lip13b                                              
    0.000 999%   0.000 Lip09                                               
 7.85E+03   4%   0.000 MM09                                                
  173.988  68%   0.000 Lip20                                               
 1.22E+04   4%   0.000 MM20                                                
 2.34E+03   5%   0.000 MM12                                                
 6.22E+03   4%   0.000 MM14                                                
 3.11E+03   6%   0.000 MM17                                                
   21.883 638%   0.000 Lip13a+Lip13b                                       
 8.59E+03   4%   0.000 MM14+Lip13a+Lip13b+MM12                             
 7.85E+03   4%   0.000 MM09+Lip09                                          
 1.24E+04   4%   0.000 MM20+Lip20                                          
   6 lines in following misc. output table
  FWHM = 0.122 ppm    S/N =  12                                            
  Data shift =-0.023 ppm                                                   
  Ph:  71 deg      -5.8 deg/ppm                                            
  alphaB,S = 5.3E+00,   2.4E+02                                            
    6 spline knots.   Ns = 9(2)                                            
  ( 8) 2 infls.   ( 2) 2 extrs.                                            
  498 points on ppm-axis = NY
      4.000000     3.992357     3.984714     3.977070     3.969427     3.961784     3.954141     3.946497     3.938854     3.931211
      3.923568     3.915925     3.908281     3.900638     3.892995     3.885352     3.877708     3.870065     3.862422     3.854779
      3.847136     3.839492     3.831849     3.824206     3.816563     3.808919     3.801276     3.793633     3.785990     3.778347
      3.770703     3.763060     3.755417     3.747774     3.740130     3.732487     3.724844     3.717201     3.709558     3.701914
      3.694271     3.686628     3.678985     3.671341     3.663698     3.656055     3.648412     3.640769     3.633125     3.625482
      3.617839     3.610196     3.602552     3.594909     3.587266     3.579623     3.571980     3.564336     3.556693     3.549050
      3.541407     3.533763     3.526120     3.518477     3.510834     3.503191     3.495547     3.487904     3.480261     3.472618
      3.464974     3.457331     3.449688     3.442045     3.434402     3.426758     3.419115     3.411472     3.403829     3.396185
      3.388542     3.380899     3.373256     3.365613     3.357969     3.350326     3.342683     3.335040     3.327396     3.319753
      3.312110     3.304467     3.296824     3.289180     3.281537     3.273894     3.266251     3.258607     3.250964     3.243321
      3.235678     3.228034     3.220391     3.212748     3.205105     3.197462     3.189818     3.182175     3.174532     3.166889
      3.159245     3.151602     3.143959     3.136316     3.128673     3.121029     3.113386     3.105743     3.098100     3.090456
      3.082813     3.075170     3.067527     3.059884     3.052240     3.044597     3.036954     3.029311     3.021667     3.014024
      3.006381     2.998738     2.991095     2.983451     2.975808     2.968165     2.960522     2.952878     2.945235     2.937592
      2.929949     2.922306     2.914662     2.907019     2.899376     2.891733     2.884089     2.876446     2.868803     2.861160
      2.853517     2.845873     2.838230     2.830587     2.822944     2.815300     2.807657     2.800014     2.792371     2.784728
      2.777084     2.769441     2.761798     2.754155     2.746511     2.738868     2.731225     2.723582     2.715939     2.708295
      2.700652     2.693009     2.685366     2.677722     2.670079     2.662436     2.654793     2.647150     2.639506     2.631863
      2.624220     2.616577     2.608933     2.601290     2.593647     2.586004     2.578361     2.570717     2.563074     2.555431
      2.547788     2.540144     2.532501     2.524858     2.517215     2.509572     2.501928     2.494285     2.486642     2.478999
      2.471355     2.463712     2.456069     2.448426     2.440783     2.433139     2.425496     2.417853     2.410210     2.402566
      2.394923     2.387280     2.379637     2.371994     2.364350     2.356707     2.349064     2.341421     2.333777     2.326134
      2.318491     2.310848     2.303205     2.295561     2.287918     2.280275     2.272632     2.264988     2.257345     2.249702
      2.242059     2.234416     2.226772     2.219129     2.211486     2.203843     2.196199     2.188556     2.180913     2.173270
      2.165627     2.157983     2.150340     2.142697     2.135054     2.127410     2.119767     2.112124     2.104481     2.096838
      2.089194     2.081551     2.073908     2.066265     2.058621     2.050978     2.043335     2.035692     2.028049     2.020405
      2.012762     2.005119     1.997476     1.989833     1.982190     1.974546     1.966903     1.959260     1.951617     1.943974
      1.936331     1.928688     1.921045     1.913402     1.905759     1.898115     1.890472     1.882829     1.875186     1.867543
      1.859900     1.852257     1.844614     1.836971     1.829327     1.821684     1.814041     1.806398     1.798755     1.791112
      1.783469     1.775826     1.768183     1.760540     1.752896     1.745253     1.737610     1.729967     1.722324     1.714681
      1.707038     1.699395     1.691752     1.684108     1.676465     1.668822     1.661179     1.653536     1.645893     1.638250
      1.630607     1.622964     1.615321     1.607677     1.600034     1.592391     1.584748     1.577105     1.569462     1.561819
      1.554176     1.546533     1.538890     1.531246     1.523603     1.515960     1.508317     1.500674     1.493031     1.485388
      1.477745     1.470102     1.462458     1.454815     1.447172     1.439529     1.431886     1.424243     1.416600     1.408957
      1.401314     1.393671     1.386027     1.378384     1.370741     1.363098     1.355455     1.347812     1.340169     1.332526
      1.324883     1.317240     1.309596     1.301953     1.294310     1.286667     1.279024     1.271381     1.263738     1.256095
      1.248452     1.240808     1.233165     1.225522     1.217879     1.210236     1.202593     1.194950     1.187307     1.179664
      1.172021     1.164377     1.156734     1.149091     1.141448     1.133805     1.126162     1.118519     1.110876     1.103233
      1.095590     1.087946     1.080303     1.072660     1.065017     1.057374     1.049731     1.042088     1.034445     1.026802
      1.019158     1.011515     1.003872     0.996229     0.988586     0.980943     0.973300     0.965657     0.958014     0.950371
      0.942727     0.935084     0.927441     0.919798     0.912155     0.904512     0.896869     0.889226     0.881583     0.873940
      0.866296     0.858653     0.851010     0.843367     0.835724     0.828081     0.820438     0.812795     0.805152     0.797508
      0.789865     0.782222     0.774579     0.766936     0.759293     0.751650     0.744007     0.736364     0.728721     0.721077
      0.713434     0.705791     0.698148     0.690505     0.682862     0.675219     0.667576     0.659933     0.652290     0.644646
      0.637003     0.629360     0.621717     0.614074     0.606431     0.598788     0.591145     0.583502     0.575858     0.568215
      0.560572     0.552929     0.545286     0.537643     0.530000     0.522357     0.514714     0.507071     0.499427     0.491784
      0.484141     0.476498     0.468855     0.461212     0.453569     0.445925     0.438282     0.430639     0.422996     0.415353
      0.407710     0.400067     0.392424     0.384780     0.377137     0.369494     0.361851     0.354208     0.346565     0.338922
      0.331278     0.323635     0.315992     0.308349     0.300706     0.293063     0.285420     0.277777     0.270133     0.262490
      0.254847     0.247204     0.239561     0.231918     0.224275     0.216631     0.208988     0.201345
 NY phased data points follow
   1.22594E+02  1.14917E+02  1.17045E+02  1.09543E+02  1.12285E+02  1.09056E+02  1.09120E+02  1.04589E+02  1.04029E+02  9.94590E+01
   1.01157E+02  9.49376E+01  9.90837E+01  9.59568E+01  9.38720E+01  9.04898E+01  9.35992E+01  8.81339E+01  8.74581E+01  8.59096E+01
   8.88348E+01  8.39301E+01  8.44279E+01  8.27480E+01  8.35912E+01  8.20392E+01  7.90485E+01  7.78369E+01  7.76202E+01  7.70855E+01
   7.59125E+01  7.59572E+01  7.47491E+01  7.28545E+01  7.43234E+01  7.12612E+01  6.94872E+01  7.09756E+01  6.96208E+01  6.56944E+01
   6.85746E+01  6.57238E+01  6.70365E+01  6.42210E+01  6.79424E+01  6.25383E+01  6.37519E+01  6.31481E+01  6.59608E+01  6.27760E+01
   6.25137E+01  6.28971E+01  6.18935E+01  5.98345E+01  6.07631E+01  5.97567E+01  6.35213E+01  5.93592E+01  5.80233E+01  6.02419E+01
   6.22901E+01  5.75304E+01  5.41877E+01  5.50845E+01  5.58895E+01  5.60610E+01  5.58583E+01  5.22950E+01  5.26908E+01  5.29913E+01
   5.19358E+01  5.14759E+01  4.99841E+01  5.18519E+01  5.14605E+01  5.07819E+01  5.06766E+01  5.01342E+01  5.10149E+01  4.86308E+01
   4.54022E+01  4.92911E+01  4.97327E+01  4.58306E+01  4.79370E+01  4.79417E+01  4.50956E+01  4.30634E+01  4.67445E+01  4.68923E+01
   4.53241E+01  4.34901E+01  4.33326E+01  4.48108E+01  4.48618E+01  4.10937E+01  4.35300E+01  4.02963E+01  4.01929E+01  4.19915E+01
   4.00627E+01  4.01524E+01  4.01302E+01  4.12009E+01  4.43164E+01  3.97054E+01  4.03699E+01  4.18305E+01  4.08462E+01  3.88854E+01
   4.18894E+01  3.79182E+01  4.02225E+01  3.94357E+01  3.96951E+01  3.75680E+01  3.71566E+01  3.69953E+01  3.74019E+01  3.85973E+01
   3.75207E+01  3.72616E+01  3.57818E+01  3.52005E+01  3.65673E+01  3.65234E+01  3.89513E+01  3.73412E+01  3.98152E+01  3.86987E+01
   3.95263E+01  3.76020E+01  3.95336E+01  3.70637E+01  4.04798E+01  3.66012E+01  4.13742E+01  3.92084E+01  3.95539E+01  3.81160E+01
   3.89223E+01  3.81692E+01  4.09314E+01  4.05433E+01  3.96084E+01  3.98866E+01  3.88654E+01  3.70930E+01  3.89495E+01  3.80029E+01
   3.77864E+01  3.98886E+01  3.91232E+01  3.80574E+01  3.77877E+01  3.75033E+01  3.94103E+01  3.76601E+01  3.53367E+01  3.51673E+01
   3.85841E+01  3.61280E+01  3.63616E+01  3.29431E+01  3.65695E+01  3.41843E+01  3.20672E+01  3.60806E+01  3.63918E+01  3.48472E+01
   3.15925E+01  3.21822E+01  3.36573E+01  3.24720E+01  3.29153E+01  3.16839E+01  2.99358E+01  3.08684E+01  3.29397E+01  3.35349E+01
   3.07378E+01  3.57633E+01  3.13661E+01  3.10475E+01  2.97188E+01  3.24886E+01  3.18733E+01  3.00036E+01  3.09702E+01  3.07403E+01
   2.95748E+01  3.06362E+01  3.03821E+01  2.77246E+01  3.20321E+01  3.03679E+01  2.96768E+01  3.20928E+01  3.18712E+01  3.45631E+01
   3.09900E+01  3.42369E+01  2.97762E+01  3.61654E+01  3.55615E+01  3.42156E+01  3.33320E+01  3.04673E+01  3.18389E+01  3.23391E+01
   2.97938E+01  3.40040E+01  3.65364E+01  3.41006E+01  3.45692E+01  3.78643E+01  3.58085E+01  3.68914E+01  4.15652E+01  3.98006E+01
   4.35849E+01  4.07883E+01  4.32022E+01  4.51187E+01  4.71169E+01  4.74380E+01  4.93912E+01  5.03011E+01  5.20124E+01  5.24040E+01
   5.42539E+01  5.45262E+01  5.72590E+01  5.68976E+01  5.72667E+01  5.80629E+01  5.69541E+01  5.71616E+01  5.84876E+01  5.90043E+01
   5.83735E+01  5.40104E+01  5.72672E+01  5.71192E+01  5.98508E+01  5.80034E+01  5.93069E+01  6.02850E+01  5.92048E+01  5.82515E+01
   6.16065E+01  5.83868E+01  6.34118E+01  5.84963E+01  5.97767E+01  5.57941E+01  5.79293E+01  5.67575E+01  5.48356E+01  5.56749E+01
   5.22074E+01  5.40128E+01  5.59678E+01  5.05792E+01  5.10850E+01  4.97395E+01  5.03262E+01  4.87912E+01  5.14220E+01  4.93503E+01
   5.05083E+01  4.73715E+01  4.51271E+01  4.45326E+01  4.42625E+01  4.14730E+01  3.93580E+01  4.02251E+01  4.15931E+01  4.34868E+01
   4.25335E+01  3.75991E+01  4.14596E+01  3.48491E+01  3.89526E+01  3.64826E+01  3.26398E+01  2.98829E+01  3.48779E+01  3.16295E+01
   3.10770E+01  2.99542E+01  2.95508E+01  2.87597E+01  3.09748E+01  2.82795E+01  2.84596E+01  2.95796E+01  2.44015E+01  2.77644E+01
   2.56090E+01  2.38791E+01  2.38367E+01  2.37909E+01  2.23114E+01  2.27349E+01  2.83053E+01  2.36796E+01  2.57979E+01  2.54779E+01
   2.84097E+01  2.88080E+01  3.06960E+01  3.51088E+01  3.82772E+01  4.14741E+01  4.66302E+01  5.13876E+01  5.59976E+01  6.44651E+01
   7.05965E+01  7.51879E+01  7.82015E+01  8.27756E+01  8.55167E+01  9.02282E+01  9.39908E+01  9.61129E+01  9.59650E+01  9.95957E+01
   9.61795E+01  9.67416E+01  9.04399E+01  8.97053E+01  8.53212E+01  8.46902E+01  7.89318E+01  7.55723E+01  7.79360E+01  7.40435E+01
   6.85116E+01  6.63372E+01  6.67529E+01  6.10578E+01  6.16137E+01  5.49549E+01  5.68882E+01  5.28912E+01  5.00212E+01  4.53329E+01
   4.69215E+01  4.38203E+01  4.55256E+01  4.07747E+01  3.75409E+01  3.68047E+01  3.67053E+01  3.46665E+01  3.42001E+01  3.22547E+01
   2.76235E+01  2.70965E+01  2.79744E+01  2.67036E+01  2.76425E+01  2.82672E+01  2.79131E+01  2.91312E+01  2.85597E+01  2.57718E+01
   2.66110E+01  2.85074E+01  2.40900E+01  2.64988E+01  2.57426E+01  2.60223E+01  2.51493E+01  2.57156E+01  2.58941E+01  2.52012E+01
   2.39587E+01  2.38525E+01  2.77839E+01  2.46661E+01  2.37037E+01  2.45893E+01  2.28517E+01  2.29895E+01  2.29538E+01  2.12239E+01
   2.54189E+01  2.16664E+01  2.63539E+01  2.37313E+01  2.35713E+01  2.69653E+01  2.41339E+01  2.63799E+01  2.72944E+01  2.70419E+01
   2.46371E+01  2.51680E+01  2.49741E+01  2.52662E+01  2.26633E+01  2.26542E+01  2.35176E+01  2.43321E+01  2.24981E+01  2.35343E+01
   2.36663E+01  2.19218E+01  2.39321E+01  2.25903E+01  2.14321E+01  2.15234E+01  2.13102E+01  2.37906E+01  1.99715E+01  2.22522E+01
   2.38332E+01  2.06524E+01  2.18836E+01  2.34767E+01  2.15289E+01  2.08353E+01  2.17843E+01  2.20512E+01  2.34863E+01  2.30188E+01
   1.82714E+01  2.17736E+01  2.58043E+01  2.29547E+01  2.15288E+01  2.00967E+01  1.97054E+01  2.16253E+01  2.11499E+01  2.24299E+01
   1.93034E+01  2.34296E+01  2.07177E+01  1.95441E+01  2.07137E+01  1.91157E+01  1.96104E+01  2.08444E+01  2.16231E+01  2.04931E+01
   1.86558E+01  1.73389E+01  2.01327E+01  1.69982E+01  1.89566E+01  2.04902E+01  1.78098E+01  1.68544E+01  1.77925E+01  2.14026E+01
   1.93238E+01  1.82582E+01  1.93210E+01  1.77852E+01  1.64858E+01  1.82923E+01  1.44492E+01  1.91238E+01  2.02098E+01  1.77554E+01
   1.89054E+01  1.76022E+01  1.71872E+01  1.59321E+01  1.61979E+01  1.61538E+01  1.62896E+01  1.38777E+01  2.04058E+01  1.67682E+01
   1.93120E+01  1.43752E+01  1.60428E+01  1.82784E+01  1.80393E+01  1.79619E+01  1.80893E+01  1.66227E+01  1.58993E+01  1.79118E+01
   1.49981E+01  1.50877E+01  1.35874E+01  1.80883E+01  1.63792E+01  1.71159E+01  1.74794E+01  1.51938E+01
 NY points of the fit to the data follow
   1.12506E+02  1.11405E+02  1.10169E+02  1.08793E+02  1.07363E+02  1.05703E+02  1.04011E+02  1.02046E+02  1.00410E+02  9.85539E+01
   9.70549E+01  9.55108E+01  9.42161E+01  9.30959E+01  9.18175E+01  9.08957E+01  8.94551E+01  8.88856E+01  8.71724E+01  8.68416E+01
   8.50775E+01  8.48593E+01  8.31244E+01  8.30790E+01  8.13681E+01  8.13193E+01  7.96183E+01  7.94190E+01  7.77786E+01  7.74095E+01
   7.60010E+01  7.54878E+01  7.43163E+01  7.37241E+01  7.28897E+01  7.22968E+01  7.17420E+01  7.11359E+01  7.07468E+01  7.00821E+01
   6.96818E+01  6.90605E+01  6.87901E+01  6.81410E+01  6.81069E+01  6.76517E+01  6.78837E+01  6.77354E+01  6.74976E+01  6.68891E+01
   6.63516E+01  6.54311E+01  6.47309E+01  6.37338E+01  6.33280E+01  6.26830E+01  6.23493E+01  6.15590E+01  6.10825E+01  6.01541E+01
   5.95496E+01  5.87961E+01  5.81801E+01  5.73091E+01  5.67575E+01  5.58405E+01  5.53797E+01  5.44040E+01  5.40289E+01  5.30949E+01
   5.29459E+01  5.23185E+01  5.25113E+01  5.19420E+01  5.20848E+01  5.14460E+01  5.15011E+01  5.07897E+01  5.07155E+01  4.99175E+01
   4.96971E+01  4.88401E+01  4.85069E+01  4.76982E+01  4.73772E+01  4.65800E+01  4.62639E+01  4.53925E+01  4.50540E+01  4.41233E+01
   4.37890E+01  4.28912E+01  4.26131E+01  4.18221E+01  4.16345E+01  4.09833E+01  4.09306E+01  4.04060E+01  4.04037E+01  3.99864E+01
   3.99984E+01  3.96865E+01  3.96968E+01  3.94828E+01  3.94981E+01  3.93754E+01  3.94159E+01  3.93865E+01  3.94728E+01  3.95153E+01
   3.96226E+01  3.96421E+01  3.97465E+01  3.97552E+01  3.99054E+01  3.99488E+01  4.01490E+01  4.02388E+01  4.04958E+01  4.06148E+01
   4.08912E+01  4.10069E+01  4.12085E+01  4.12876E+01  4.14142E+01  4.14633E+01  4.15139E+01  4.15182E+01  4.14976E+01  4.14650E+01
   4.13980E+01  4.13182E+01  4.12043E+01  4.10764E+01  4.09192E+01  4.07474E+01  4.05532E+01  4.03431E+01  4.01172E+01  3.98745E+01
   3.96204E+01  3.93526E+01  3.90760E+01  3.87910E+01  3.85010E+01  3.82077E+01  3.79138E+01  3.76203E+01  3.73307E+01  3.70444E+01
   3.67655E+01  3.64914E+01  3.62283E+01  3.59710E+01  3.57257E+01  3.54869E+01  3.52608E+01  3.50418E+01  3.48355E+01  3.46365E+01
   3.44495E+01  3.42712E+01  3.41019E+01  3.39438E+01  3.37902E+01  3.36505E+01  3.35103E+01  3.33862E+01  3.32600E+01  3.31487E+01
   3.30350E+01  3.29382E+01  3.28396E+01  3.27579E+01  3.26761E+01  3.26192E+01  3.26000E+01  3.25758E+01  3.26522E+01  3.26920E+01
   3.28132E+01  3.28876E+01  3.29743E+01  3.29637E+01  3.28364E+01  3.26912E+01  3.23734E+01  3.20532E+01  3.16197E+01  3.12739E+01
   3.09221E+01  3.08053E+01  3.08947E+01  3.09950E+01  3.12354E+01  3.14907E+01  3.17654E+01  3.20877E+01  3.22544E+01  3.25969E+01
   3.25907E+01  3.29655E+01  3.27994E+01  3.32202E+01  3.29329E+01  3.33235E+01  3.28696E+01  3.31636E+01  3.25717E+01  3.28025E+01
   3.23261E+01  3.26162E+01  3.25445E+01  3.30302E+01  3.35745E+01  3.42951E+01  3.52980E+01  3.62573E+01  3.77605E+01  3.87248E+01
   4.04745E+01  4.13671E+01  4.31561E+01  4.39773E+01  4.58042E+01  4.67427E+01  4.82504E+01  4.94548E+01  5.06840E+01  5.18732E+01
   5.24884E+01  5.34210E+01  5.31153E+01  5.40004E+01  5.38521E+01  5.46462E+01  5.46559E+01  5.52959E+01  5.56134E+01  5.60589E+01
   5.67665E+01  5.68990E+01  5.79331E+01  5.76236E+01  5.88947E+01  5.81070E+01  5.95187E+01  5.83413E+01  5.98073E+01  5.84060E+01
   5.98788E+01  5.84108E+01  5.98184E+01  5.83744E+01  5.96481E+01  5.81556E+01  5.91061E+01  5.74073E+01  5.76461E+01  5.59471E+01
   5.60383E+01  5.46267E+01  5.46551E+01  5.36020E+01  5.34031E+01  5.20415E+01  5.15567E+01  4.99968E+01  4.91790E+01  4.75470E+01
   4.65767E+01  4.50214E+01  4.40316E+01  4.27886E+01  4.18780E+01  4.08627E+01  3.99818E+01  3.91251E+01  3.82224E+01  3.74142E+01
   3.65549E+01  3.57544E+01  3.50013E+01  3.42863E+01  3.36124E+01  3.29723E+01  3.23752E+01  3.18149E+01  3.12926E+01  3.08052E+01
   3.03531E+01  2.99331E+01  2.95446E+01  2.91861E+01  2.88552E+01  2.85525E+01  2.82743E+01  2.80244E+01  2.78005E+01  2.76082E+01
   2.74457E+01  2.73209E+01  2.72361E+01  2.72001E+01  2.72182E+01  2.72985E+01  2.74421E+01  2.76315E+01  2.77815E+01  2.78744E+01
   2.89268E+01  2.98645E+01  3.21772E+01  3.44099E+01  3.82152E+01  4.21996E+01  4.74328E+01  5.24363E+01  5.77557E+01  6.34798E+01
   6.81626E+01  7.41411E+01  7.76447E+01  8.36101E+01  8.56344E+01  9.13258E+01  9.16130E+01  9.63120E+01  9.48243E+01  9.77734E+01
   9.46771E+01  9.55061E+01  9.15069E+01  9.05783E+01  8.66399E+01  8.42549E+01  8.11427E+01  7.76471E+01  7.57149E+01  7.12894E+01
   7.03933E+01  6.53493E+01  6.52195E+01  5.97833E+01  6.00571E+01  5.45563E+01  5.54310E+01  5.08111E+01  5.23069E+01  4.92290E+01
   4.93547E+01  4.58942E+01  4.51180E+01  4.14596E+01  3.96935E+01  3.62186E+01  3.38579E+01  3.23819E+01  3.13618E+01  3.06231E+01
   3.00730E+01  2.96530E+01  2.93224E+01  2.90509E+01  2.88155E+01  2.85984E+01  2.83862E+01  2.81687E+01  2.79392E+01  2.76936E+01
   2.74301E+01  2.71492E+01  2.68529E+01  2.65448E+01  2.62290E+01  2.59104E+01  2.55940E+01  2.52848E+01  2.49876E+01  2.47066E+01
   2.44456E+01  2.42079E+01  2.39958E+01  2.38113E+01  2.36555E+01  2.35292E+01  2.34323E+01  2.33646E+01  2.33253E+01  2.33133E+01
   2.33272E+01  2.33653E+01  2.34261E+01  2.35074E+01  2.36075E+01  2.37241E+01  2.38553E+01  2.39989E+01  2.41527E+01  2.43146E+01
   2.44824E+01  2.46539E+01  2.48271E+01  2.49996E+01  2.51695E+01  2.53346E+01  2.54928E+01  2.56421E+01  2.57806E+01  2.59064E+01
   2.60177E+01  2.61130E+01  2.61906E+01  2.62492E+01  2.62875E+01  2.63047E+01  2.62997E+01  2.62721E+01  2.62213E+01  2.61471E+01
   2.60496E+01  2.59289E+01  2.57855E+01  2.56200E+01  2.54333E+01  2.52263E+01  2.50001E+01  2.47562E+01  2.44958E+01  2.42205E+01
   2.39319E+01  2.36317E+01  2.33216E+01  2.30033E+01  2.26784E+01  2.23487E+01  2.20158E+01  2.16814E+01  2.13469E+01  2.10138E+01
   2.06834E+01  2.03571E+01  2.00361E+01  1.97214E+01  1.94140E+01  1.91148E+01  1.88247E+01  1.85442E+01  1.82740E+01  1.80147E+01
   1.77667E+01  1.75302E+01  1.73058E+01  1.70935E+01  1.68935E+01  1.67060E+01  1.65311E+01  1.63687E+01  1.62189E+01  1.60816E+01
   1.59569E+01  1.58445E+01  1.57444E+01  1.56564E+01  1.55805E+01  1.55165E+01  1.54642E+01  1.54235E+01  1.53942E+01  1.53762E+01
   1.53692E+01  1.53732E+01  1.53879E+01  1.54132E+01  1.54489E+01  1.54950E+01  1.55511E+01  1.56173E+01  1.56933E+01  1.57789E+01
   1.58742E+01  1.59789E+01  1.60930E+01  1.62163E+01  1.63487E+01  1.64901E+01  1.66404E+01  1.67995E+01  1.69674E+01  1.71439E+01
   1.73291E+01  1.75227E+01  1.77247E+01  1.79351E+01  1.81538E+01  1.83807E+01  1.86158E+01  1.88590E+01
 NY background values follow
     1.044E+02    1.032E+02    1.020E+02    1.008E+02    9.959E+01    9.841E+01    9.724E+01    9.609E+01    9.495E+01    9.383E+01
     9.272E+01    9.162E+01    9.054E+01    8.947E+01    8.841E+01    8.737E+01    8.634E+01    8.533E+01    8.432E+01    8.333E+01
     8.235E+01    8.139E+01    8.044E+01    7.950E+01    7.857E+01    7.766E+01    7.675E+01    7.586E+01    7.498E+01    7.412E+01
     7.326E+01    7.242E+01    7.159E+01    7.077E+01    6.996E+01    6.917E+01    6.838E+01    6.761E+01    6.685E+01    6.610E+01
     6.536E+01    6.463E+01    6.391E+01    6.320E+01    6.251E+01    6.182E+01    6.114E+01    6.048E+01    5.982E+01    5.918E+01
     5.855E+01    5.792E+01    5.731E+01    5.670E+01    5.611E+01    5.552E+01    5.495E+01    5.438E+01    5.383E+01    5.328E+01
     5.274E+01    5.221E+01    5.169E+01    5.118E+01    5.068E+01    5.019E+01    4.971E+01    4.923E+01    4.877E+01    4.831E+01
     4.786E+01    4.742E+01    4.698E+01    4.656E+01    4.614E+01    4.573E+01    4.533E+01    4.494E+01    4.455E+01    4.417E+01
     4.380E+01    4.344E+01    4.308E+01    4.273E+01    4.239E+01    4.206E+01    4.173E+01    4.141E+01    4.109E+01    4.079E+01
     4.049E+01    4.019E+01    3.990E+01    3.962E+01    3.935E+01    3.908E+01    3.881E+01    3.856E+01    3.831E+01    3.806E+01
     3.782E+01    3.759E+01    3.736E+01    3.714E+01    3.692E+01    3.671E+01    3.650E+01    3.630E+01    3.610E+01    3.591E+01
     3.572E+01    3.554E+01    3.536E+01    3.519E+01    3.502E+01    3.485E+01    3.469E+01    3.454E+01    3.438E+01    3.424E+01
     3.409E+01    3.395E+01    3.382E+01    3.368E+01    3.355E+01    3.343E+01    3.331E+01    3.319E+01    3.307E+01    3.296E+01
     3.285E+01    3.274E+01    3.264E+01    3.254E+01    3.244E+01    3.234E+01    3.225E+01    3.216E+01    3.207E+01    3.199E+01
     3.190E+01    3.182E+01    3.174E+01    3.166E+01    3.159E+01    3.151E+01    3.144E+01    3.137E+01    3.130E+01    3.123E+01
     3.116E+01    3.110E+01    3.103E+01    3.097E+01    3.091E+01    3.084E+01    3.078E+01    3.072E+01    3.066E+01    3.060E+01
     3.054E+01    3.048E+01    3.042E+01    3.037E+01    3.031E+01    3.025E+01    3.019E+01    3.013E+01    3.007E+01    3.001E+01
     2.995E+01    2.989E+01    2.983E+01    2.977E+01    2.971E+01    2.965E+01    2.959E+01    2.953E+01    2.947E+01    2.941E+01
     2.934E+01    2.928E+01    2.922E+01    2.916E+01    2.909E+01    2.903E+01    2.897E+01    2.890E+01    2.884E+01    2.878E+01
     2.871E+01    2.865E+01    2.858E+01    2.852E+01    2.845E+01    2.838E+01    2.832E+01    2.825E+01    2.819E+01    2.812E+01
     2.805E+01    2.798E+01    2.792E+01    2.785E+01    2.778E+01    2.771E+01    2.764E+01    2.757E+01    2.750E+01    2.743E+01
     2.736E+01    2.729E+01    2.722E+01    2.715E+01    2.708E+01    2.701E+01    2.693E+01    2.686E+01    2.679E+01    2.672E+01
     2.664E+01    2.657E+01    2.649E+01    2.642E+01    2.634E+01    2.627E+01    2.619E+01    2.612E+01    2.604E+01    2.596E+01
     2.589E+01    2.581E+01    2.573E+01    2.565E+01    2.557E+01    2.550E+01    2.542E+01    2.534E+01    2.526E+01    2.518E+01
     2.509E+01    2.501E+01    2.493E+01    2.485E+01    2.477E+01    2.468E+01    2.460E+01    2.452E+01    2.443E+01    2.435E+01
     2.426E+01    2.418E+01    2.409E+01    2.401E+01    2.392E+01    2.383E+01    2.375E+01    2.366E+01    2.357E+01    2.348E+01
     2.339E+01    2.330E+01    2.321E+01    2.312E+01    2.303E+01    2.294E+01    2.285E+01    2.275E+01    2.266E+01    2.257E+01
     2.247E+01    2.238E+01    2.228E+01    2.219E+01    2.209E+01    2.200E+01    2.190E+01    2.180E+01    2.171E+01    2.161E+01
     2.151E+01    2.141E+01    2.131E+01    2.121E+01    2.111E+01    2.101E+01    2.091E+01    2.080E+01    2.070E+01    2.060E+01
     2.050E+01    2.039E+01    2.029E+01    2.018E+01    2.008E+01    1.997E+01    1.986E+01    1.975E+01    1.965E+01    1.954E+01
     1.943E+01    1.932E+01    1.921E+01    1.910E+01    1.899E+01    1.888E+01    1.876E+01    1.865E+01    1.854E+01    1.842E+01
     1.831E+01    1.819E+01    1.808E+01    1.796E+01    1.785E+01    1.773E+01    1.761E+01    1.749E+01    1.737E+01    1.725E+01
     1.713E+01    1.701E+01    1.689E+01    1.677E+01    1.665E+01    1.652E+01    1.640E+01    1.627E+01    1.615E+01    1.602E+01
     1.590E+01    1.577E+01    1.564E+01    1.551E+01    1.538E+01    1.525E+01    1.513E+01    1.499E+01    1.486E+01    1.473E+01
     1.460E+01    1.447E+01    1.434E+01    1.421E+01    1.407E+01    1.394E+01    1.381E+01    1.368E+01    1.354E+01    1.341E+01
     1.328E+01    1.315E+01    1.302E+01    1.288E+01    1.275E+01    1.262E+01    1.249E+01    1.236E+01    1.223E+01    1.210E+01
     1.197E+01    1.184E+01    1.171E+01    1.159E+01    1.146E+01    1.133E+01    1.121E+01    1.108E+01    1.096E+01    1.083E+01
     1.071E+01    1.059E+01    1.047E+01    1.035E+01    1.023E+01    1.011E+01    9.997E+00    9.882E+00    9.768E+00    9.655E+00
     9.544E+00    9.434E+00    9.325E+00    9.217E+00    9.111E+00    9.007E+00    8.904E+00    8.802E+00    8.702E+00    8.604E+00
     8.507E+00    8.412E+00    8.319E+00    8.228E+00    8.138E+00    8.051E+00    7.965E+00    7.881E+00    7.799E+00    7.719E+00
     7.641E+00    7.566E+00    7.492E+00    7.421E+00    7.352E+00    7.285E+00    7.220E+00    7.158E+00    7.098E+00    7.041E+00
     6.986E+00    6.933E+00    6.883E+00    6.836E+00    6.791E+00    6.749E+00    6.710E+00    6.673E+00    6.639E+00    6.608E+00
     6.580E+00    6.555E+00    6.532E+00    6.513E+00    6.497E+00    6.483E+00    6.473E+00    6.466E+00    6.462E+00    6.461E+00
     6.464E+00    6.470E+00    6.479E+00    6.491E+00    6.507E+00    6.527E+00    6.550E+00    6.576E+00    6.606E+00    6.640E+00
     6.677E+00    6.718E+00    6.762E+00    6.811E+00    6.863E+00    6.919E+00    6.979E+00    7.043E+00    7.111E+00    7.183E+00
     7.259E+00    7.339E+00    7.423E+00    7.511E+00    7.604E+00    7.700E+00    7.801E+00    7.907E+00    8.016E+00    8.130E+00
     8.249E+00    8.372E+00    8.500E+00    8.632E+00    8.768E+00    8.910E+00    9.056E+00    9.207E+00    9.362E+00    9.522E+00
     9.688E+00    9.858E+00    1.003E+01    1.021E+01    1.040E+01    1.059E+01    1.078E+01    1.098E+01    1.119E+01    1.140E+01
     1.161E+01    1.183E+01    1.206E+01    1.229E+01    1.253E+01    1.277E+01    1.302E+01    1.327E+01    1.353E+01    1.380E+01
     1.407E+01    1.434E+01    1.462E+01    1.491E+01    1.521E+01    1.550E+01    1.581E+01    1.612E+01
 Ala      Conc. = 4.43E+03
