 LCModel (Version 6.3-1L) Copyright: S.W. Provencher.          Ref.: Magn. Reson. Med. 30:672-679 (1993).                
 Slice#2 Row#5 Col#6  PD_24_press_2_raw_act
 36 lines in following concentration table = NCONC+1
    Conc.  %SD /Cr+PCr  Metabolite                                         
  329.403  80%   0.363 Ala                                                 
  182.481 140%   0.201 Asp                                                 
    0.000 999%   0.000 Cr                                                  
  907.658  15%   1.000 PCr                                                 
  170.441  91%   0.188 GABA                                                
  177.117  88%   0.195 Glc                                                 
  566.909  95%   0.625 Gln                                                 
 1.46E+03  41%   1.607 Glu                                                 
  496.494  11%   0.547 GPC                                                 
    0.000 999%   0.000 PCh                                                 
  579.197  32%   0.638 GSH                                                 
 1.67E+03  38%   1.839 Ins                                                 
  202.311 143%   0.223 Lac                                                 
 2.11E+03  10%   2.324 NAA                                                 
  118.187 196%   0.130 NAAG                                                
  119.917  37%   0.132 Scyllo                                              
  481.610  52%   0.531 Tau                                                 
  458.731  46%   0.505 -CrCH2                                              
  496.494  11%   0.547 GPC+PCh                                             
 2.23E+03   8%   2.454 NAA+NAAG                                            
  907.658  15%   1.000 Cr+PCr                                              
 2.03E+03  41%   2.231 Glu+Gln                                             
 2.41E+03  36%   2.653 Lip13a                                              
    0.000 999%   0.000 Lip13b                                              
  841.134  43%   0.927 Lip09                                               
  176.946 214%   0.195 MM09                                                
  370.933  68%   0.409 Lip20                                               
  441.607 182%   0.487 MM20                                                
    0.000 999%   0.000 MM12                                                
    0.000 999%   0.000 MM14                                                
  694.057  70%   0.765 MM17                                                
 2.41E+03  36%   2.653 Lip13a+Lip13b                                       
 2.41E+03  36%   2.653 MM14+Lip13a+Lip13b+MM12                             
 1.02E+03  43%   1.122 MM09+Lip09                                          
  812.540 101%   0.895 MM20+Lip20                                          
   6 lines in following misc. output table
  FWHM = 0.046 ppm    S/N =   4                                            
  Data shift = 0.008 ppm                                                   
  Ph: -61 deg     -14.2 deg/ppm                                            
  alphaB,S = 6.0E-01,   4.8E+01                                            
   14 spline knots.   Ns = 6(1)                                            
  (11) 2 infls.   ( 9) 1 extrs.                                            
  498 points on ppm-axis = NY
      4.000000     3.992357     3.984714     3.977070     3.969427     3.961784     3.954141     3.946497     3.938854     3.931211
      3.923568     3.915925     3.908281     3.900638     3.892995     3.885352     3.877708     3.870065     3.862422     3.854779
      3.847136     3.839492     3.831849     3.824206     3.816563     3.808919     3.801276     3.793633     3.785990     3.778347
      3.770703     3.763060     3.755417     3.747774     3.740130     3.732487     3.724844     3.717201     3.709558     3.701914
      3.694271     3.686628     3.678985     3.671341     3.663698     3.656055     3.648412     3.640769     3.633125     3.625482
      3.617839     3.610196     3.602552     3.594909     3.587266     3.579623     3.571980     3.564336     3.556693     3.549050
      3.541407     3.533763     3.526120     3.518477     3.510834     3.503191     3.495547     3.487904     3.480261     3.472618
      3.464974     3.457331     3.449688     3.442045     3.434402     3.426758     3.419115     3.411472     3.403829     3.396185
      3.388542     3.380899     3.373256     3.365613     3.357969     3.350326     3.342683     3.335040     3.327396     3.319753
      3.312110     3.304467     3.296824     3.289180     3.281537     3.273894     3.266251     3.258607     3.250964     3.243321
      3.235678     3.228034     3.220391     3.212748     3.205105     3.197462     3.189818     3.182175     3.174532     3.166889
      3.159245     3.151602     3.143959     3.136316     3.128673     3.121029     3.113386     3.105743     3.098100     3.090456
      3.082813     3.075170     3.067527     3.059884     3.052240     3.044597     3.036954     3.029311     3.021667     3.014024
      3.006381     2.998738     2.991095     2.983451     2.975808     2.968165     2.960522     2.952878     2.945235     2.937592
      2.929949     2.922306     2.914662     2.907019     2.899376     2.891733     2.884089     2.876446     2.868803     2.861160
      2.853517     2.845873     2.838230     2.830587     2.822944     2.815300     2.807657     2.800014     2.792371     2.784728
      2.777084     2.769441     2.761798     2.754155     2.746511     2.738868     2.731225     2.723582     2.715939     2.708295
      2.700652     2.693009     2.685366     2.677722     2.670079     2.662436     2.654793     2.647150     2.639506     2.631863
      2.624220     2.616577     2.608933     2.601290     2.593647     2.586004     2.578361     2.570717     2.563074     2.555431
      2.547788     2.540144     2.532501     2.524858     2.517215     2.509572     2.501928     2.494285     2.486642     2.478999
      2.471355     2.463712     2.456069     2.448426     2.440783     2.433139     2.425496     2.417853     2.410210     2.402566
      2.394923     2.387280     2.379637     2.371994     2.364350     2.356707     2.349064     2.341421     2.333777     2.326134
      2.318491     2.310848     2.303205     2.295561     2.287918     2.280275     2.272632     2.264988     2.257345     2.249702
      2.242059     2.234416     2.226772     2.219129     2.211486     2.203843     2.196199     2.188556     2.180913     2.173270
      2.165627     2.157983     2.150340     2.142697     2.135054     2.127410     2.119767     2.112124     2.104481     2.096838
      2.089194     2.081551     2.073908     2.066265     2.058621     2.050978     2.043335     2.035692     2.028049     2.020405
      2.012762     2.005119     1.997476     1.989833     1.982190     1.974546     1.966903     1.959260     1.951617     1.943974
      1.936331     1.928688     1.921045     1.913402     1.905759     1.898115     1.890472     1.882829     1.875186     1.867543
      1.859900     1.852257     1.844614     1.836971     1.829327     1.821684     1.814041     1.806398     1.798755     1.791112
      1.783469     1.775826     1.768183     1.760540     1.752896     1.745253     1.737610     1.729967     1.722324     1.714681
      1.707038     1.699395     1.691752     1.684108     1.676465     1.668822     1.661179     1.653536     1.645893     1.638250
      1.630607     1.622964     1.615321     1.607677     1.600034     1.592391     1.584748     1.577105     1.569462     1.561819
      1.554176     1.546533     1.538890     1.531246     1.523603     1.515960     1.508317     1.500674     1.493031     1.485388
      1.477745     1.470102     1.462458     1.454815     1.447172     1.439529     1.431886     1.424243     1.416600     1.408957
      1.401314     1.393671     1.386027     1.378384     1.370741     1.363098     1.355455     1.347812     1.340169     1.332526
      1.324883     1.317240     1.309596     1.301953     1.294310     1.286667     1.279024     1.271381     1.263738     1.256095
      1.248452     1.240808     1.233165     1.225522     1.217879     1.210236     1.202593     1.194950     1.187307     1.179664
      1.172021     1.164377     1.156734     1.149091     1.141448     1.133805     1.126162     1.118519     1.110876     1.103233
      1.095590     1.087946     1.080303     1.072660     1.065017     1.057374     1.049731     1.042088     1.034445     1.026802
      1.019158     1.011515     1.003872     0.996229     0.988586     0.980943     0.973300     0.965657     0.958014     0.950371
      0.942727     0.935084     0.927441     0.919798     0.912155     0.904512     0.896869     0.889226     0.881583     0.873940
      0.866296     0.858653     0.851010     0.843367     0.835724     0.828081     0.820438     0.812795     0.805152     0.797508
      0.789865     0.782222     0.774579     0.766936     0.759293     0.751650     0.744007     0.736364     0.728721     0.721077
      0.713434     0.705791     0.698148     0.690505     0.682862     0.675219     0.667576     0.659933     0.652290     0.644646
      0.637003     0.629360     0.621717     0.614074     0.606431     0.598788     0.591145     0.583502     0.575858     0.568215
      0.560572     0.552929     0.545286     0.537643     0.530000     0.522357     0.514714     0.507071     0.499427     0.491784
      0.484141     0.476498     0.468855     0.461212     0.453569     0.445925     0.438282     0.430639     0.422996     0.415353
      0.407710     0.400067     0.392424     0.384780     0.377137     0.369494     0.361851     0.354208     0.346565     0.338922
      0.331278     0.323635     0.315992     0.308349     0.300706     0.293063     0.285420     0.277777     0.270133     0.262490
      0.254847     0.247204     0.239561     0.231918     0.224275     0.216631     0.208988     0.201345
 NY phased data points follow
  -3.04072E+02 -2.96689E+02 -2.70549E+02 -2.88799E+02 -2.72523E+02 -2.47597E+02 -2.64928E+02 -2.57888E+02 -2.49352E+02 -2.24157E+02
  -2.19689E+02 -2.20304E+02 -2.19321E+02 -2.31989E+02 -2.27297E+02 -2.43176E+02 -2.32778E+02 -2.39007E+02 -2.15002E+02 -1.99665E+02
  -2.19839E+02 -2.23423E+02 -2.02737E+02 -2.07003E+02 -1.91587E+02 -1.99230E+02 -2.00403E+02 -1.82273E+02 -2.00705E+02 -1.91201E+02
  -2.03132E+02 -1.97763E+02 -1.84993E+02 -1.98400E+02 -1.75382E+02 -1.87817E+02 -1.88753E+02 -1.76875E+02 -1.87906E+02 -1.70174E+02
  -1.83341E+02 -1.81466E+02 -1.56113E+02 -1.59232E+02 -1.61667E+02 -1.71606E+02 -1.63676E+02 -1.67730E+02 -1.48978E+02 -1.67220E+02
  -1.48804E+02 -1.55448E+02 -1.51268E+02 -1.53505E+02 -1.64471E+02 -1.54256E+02 -1.48785E+02 -1.62356E+02 -1.63332E+02 -1.38241E+02
  -1.45631E+02 -1.48123E+02 -1.42724E+02 -1.52100E+02 -1.57055E+02 -1.52925E+02 -1.32604E+02 -1.27752E+02 -1.53441E+02 -1.57356E+02
  -1.31941E+02 -1.38792E+02 -1.36482E+02 -1.22172E+02 -1.28544E+02 -1.17086E+02 -1.14782E+02 -1.21872E+02 -1.25967E+02 -1.28669E+02
  -1.21559E+02 -1.24323E+02 -1.15868E+02 -1.27136E+02 -1.21737E+02 -9.87840E+01 -1.09118E+02 -1.12714E+02 -1.15615E+02 -1.04207E+02
  -1.14450E+02 -1.07785E+02 -1.17481E+02 -1.11276E+02 -1.02486E+02 -9.84765E+01 -9.69979E+01 -1.04611E+02 -8.40920E+01 -9.56293E+01
  -9.25721E+01 -6.29113E+01 -6.74038E+01 -6.81218E+01 -5.10530E+01 -6.16245E+01 -8.45628E+01 -7.24960E+01 -7.24362E+01 -9.74221E+01
  -9.39635E+01 -9.32795E+01 -1.02788E+02 -1.17318E+02 -8.69103E+01 -9.53491E+01 -1.01021E+02 -1.06436E+02 -1.00430E+02 -9.55932E+01
  -1.11995E+02 -1.05342E+02 -9.93744E+01 -9.61111E+01 -8.89900E+01 -7.36802E+01 -6.36467E+01 -5.01777E+01 -5.78508E+01 -5.82572E+01
  -5.66153E+01 -6.55361E+01 -7.73427E+01 -7.42133E+01 -7.81530E+01 -7.28146E+01 -8.40547E+01 -8.40481E+01 -7.97096E+01 -7.69480E+01
  -9.06322E+01 -9.24571E+01 -8.05541E+01 -6.93010E+01 -8.27984E+01 -8.31393E+01 -7.97561E+01 -8.19566E+01 -8.95656E+01 -8.02568E+01
  -7.86297E+01 -7.56201E+01 -8.32559E+01 -6.41255E+01 -7.38587E+01 -8.27056E+01 -6.72184E+01 -7.34245E+01 -7.55557E+01 -7.74376E+01
  -7.91436E+01 -7.84469E+01 -7.84879E+01 -7.61802E+01 -8.74819E+01 -7.11635E+01 -6.77799E+01 -6.18522E+01 -5.51969E+01 -7.27537E+01
  -8.09377E+01 -6.90273E+01 -7.23349E+01 -8.06538E+01 -7.92394E+01 -7.50193E+01 -7.13399E+01 -7.44294E+01 -7.77916E+01 -7.47061E+01
  -6.55119E+01 -6.29474E+01 -7.55587E+01 -6.30567E+01 -6.48718E+01 -8.08549E+01 -6.41344E+01 -7.42409E+01 -6.85271E+01 -5.45933E+01
  -5.18603E+01 -5.63693E+01 -5.73458E+01 -5.11366E+01 -6.48180E+01 -6.65503E+01 -5.85098E+01 -6.35997E+01 -6.38250E+01 -7.18260E+01
  -5.02657E+01 -5.44721E+01 -5.64028E+01 -3.38740E+01 -5.25739E+01 -5.60711E+01 -5.10050E+01 -5.73873E+01 -4.66768E+01 -4.40548E+01
  -6.79694E+01 -4.33187E+01 -4.23980E+01 -4.70494E+01 -3.28328E+01 -4.72775E+01 -3.03199E+01 -3.57789E+01 -3.25246E+01 -3.10086E+01
  -4.71305E+01 -6.19280E+01 -4.62576E+01 -4.32609E+01 -4.26205E+01 -4.07189E+01 -4.23875E+01 -3.37790E+01 -4.37906E+01 -4.84653E+01
  -3.62159E+01 -4.87704E+01 -4.07439E+01 -3.92798E+01 -4.58096E+01 -3.11280E+01 -4.12420E+01 -3.50654E+01 -3.92963E+01 -3.49837E+01
  -4.30564E+01 -4.50757E+01 -4.77805E+01 -4.43330E+01 -3.51059E+01 -4.69012E+01 -2.92488E+01 -2.94897E+01 -3.19010E+01 -3.01280E+01
  -2.87307E+01 -3.27036E+01 -2.79891E+01 -3.85339E+01 -2.75440E+01 -1.27741E+01 -1.34606E+00  1.72084E+00  1.61544E+01  2.97879E+01
   5.53311E+01  3.20706E+01  3.07868E+01  2.13499E+01  4.37797E+00 -1.59807E+01 -1.99171E+01 -2.73322E+01 -3.12054E+01 -4.38625E+01
  -3.86300E+01 -2.92645E+01 -2.04165E+01 -3.54651E+01 -2.82185E+01 -1.90067E+01 -3.66675E+01 -4.09815E+01 -2.16392E+01 -2.07898E+01
  -2.28261E+01 -2.34174E+01 -3.97951E+01 -3.22867E+01 -4.16312E+01 -4.35106E+01 -4.18829E+01 -3.80228E+01 -3.47491E+01 -3.56953E+01
  -3.41319E+01 -3.67523E+01 -3.36217E+01 -2.22079E+01 -1.30699E+01 -3.51431E+01 -2.29050E+01 -2.07084E+01 -1.56792E+01 -2.98618E+01
  -1.48475E+01 -1.54619E+01 -1.85113E+01 -1.98031E+01 -3.24402E+01 -2.98381E+00 -1.24558E+01 -1.22578E+01 -1.60307E+01 -1.62169E+01
  -2.52745E+01 -1.29072E+01 -2.70999E+01 -8.84729E+00 -1.86195E+01 -1.82466E+01 -1.99094E+01 -1.35474E+01 -1.05134E+01 -1.09516E+01
  -1.99283E+01 -1.87745E+01 -2.96312E+01 -1.12679E+01 -3.57711E+01 -6.06798E+00 -1.08928E+01 -2.37239E+01 -2.45888E+01 -1.53092E+01
  -2.33482E+01 -1.78824E+01 -1.79654E+01 -1.62522E+01 -2.17539E+01 -7.00178E+00 -7.19849E+00 -1.81528E+01 -8.46096E+00 -3.95612E+00
  -1.35768E+01  5.26827E+00 -1.16905E+01 -5.10061E+00 -6.04888E+00  1.48985E+01  2.30459E+01  1.41286E+01 -8.66444E+00 -2.68598E+00
   1.01737E+01 -1.23356E-01 -8.95508E+00  5.93354E+00  2.44190E+00  1.08561E+01 -5.40078E+00  1.23660E+01 -2.61119E+00 -4.80109E+00
  -1.74290E+00 -1.26170E+00 -3.97516E+00 -7.75425E+00 -2.96974E+00 -5.09919E+00  4.95426E+00 -6.82308E+00  7.24992E-01 -3.62089E+00
   4.80720E+00  3.80852E+00 -8.26306E+00  7.05166E+00  4.81187E-01  4.40799E-01 -3.18747E+00  7.13256E+00  3.85805E+00  1.02605E+01
  -8.26051E+00  1.26446E+01  1.27033E+01  9.68882E+00  9.95387E+00 -1.39594E+00 -1.09045E+00  5.55659E+00  3.65217E+00  1.22435E+01
   9.65731E+00  1.17583E+01  1.33474E+01  5.38754E+00 -1.08002E+01 -7.39684E+00 -6.71951E+00  1.18447E+01  2.08213E+01  2.51533E+00
  -3.09998E+00  2.17415E+01  1.41574E+01  1.01548E+01  1.75185E+00  1.26947E+01  8.88090E+00  2.72120E+01  1.33666E+01  1.07866E+01
   1.59601E+01  9.14232E+00  1.35272E+01  3.17268E+01  1.60504E+01  1.26962E+01  1.47877E+01  2.61772E+01  2.01154E+01  1.28231E+01
   1.79728E+01  2.23973E+01  9.80239E+00  2.22649E+01  1.20187E+01  2.03351E+01  6.76166E+00  1.62117E+01  1.68726E+01  2.47943E+01
   2.22687E+01  9.32607E+00  2.53578E+01  3.41071E+01  4.38889E+00  1.33362E+01  1.78232E+01  1.33976E+01  3.60985E+01  1.85469E+01
   1.21293E+01  8.25302E+00  1.92110E+01  1.84121E+00  4.99794E+00 -3.17628E+00  5.67003E+00  9.95989E+00 -5.42355E+00  7.78435E+00
  -1.45260E+00  1.70199E+01  1.22629E+01  1.93058E+01  1.04859E+01  8.93484E+00 -6.73820E-01  7.49286E+00 -8.60417E+00  2.16116E+01
   4.31790E+00  6.78465E+00 -3.84415E+00  3.43415E+00  6.56118E+00  2.19120E+01  4.52059E+00  1.26970E+01  9.17806E+00  2.85441E+01
   7.92798E+00  1.78040E+01  1.42354E+01  1.63311E+01  1.09184E+01  2.00388E+01  6.88673E+00  6.99534E+00  8.57890E+00 -1.11360E+00
   9.99043E-01  7.62975E+00  3.78591E+00  6.56478E+00  1.41299E+01 -1.11081E+01 -5.94783E+00  6.91879E+00  1.17372E+01  1.01125E+01
   5.39985E+00  7.02692E+00 -9.03860E-01  1.37915E+01  5.54143E+00  6.38154E+00  3.32087E-01  4.88352E+00
 NY points of the fit to the data follow
  -2.61411E+02 -2.60067E+02 -2.58515E+02 -2.56758E+02 -2.54095E+02 -2.50975E+02 -2.47860E+02 -2.44043E+02 -2.39137E+02 -2.33991E+02
  -2.29929E+02 -2.27428E+02 -2.26268E+02 -2.26058E+02 -2.26197E+02 -2.26299E+02 -2.26306E+02 -2.25949E+02 -2.24676E+02 -2.22840E+02
  -2.20788E+02 -2.18730E+02 -2.16772E+02 -2.14617E+02 -2.11982E+02 -2.09267E+02 -2.06268E+02 -2.02278E+02 -1.97468E+02 -1.92826E+02
  -1.89150E+02 -1.86536E+02 -1.84990E+02 -1.84561E+02 -1.84987E+02 -1.85916E+02 -1.86917E+02 -1.87343E+02 -1.86974E+02 -1.86168E+02
  -1.84777E+02 -1.82530E+02 -1.79519E+02 -1.76084E+02 -1.72246E+02 -1.67900E+02 -1.63560E+02 -1.60197E+02 -1.58457E+02 -1.58335E+02
  -1.59280E+02 -1.60630E+02 -1.61868E+02 -1.62540E+02 -1.62289E+02 -1.61039E+02 -1.58950E+02 -1.56369E+02 -1.53618E+02 -1.51028E+02
  -1.48914E+02 -1.47438E+02 -1.46581E+02 -1.46068E+02 -1.45590E+02 -1.44945E+02 -1.43934E+02 -1.42520E+02 -1.40831E+02 -1.38905E+02
  -1.36766E+02 -1.34665E+02 -1.32761E+02 -1.31029E+02 -1.29520E+02 -1.28401E+02 -1.27726E+02 -1.27364E+02 -1.27159E+02 -1.26802E+02
  -1.25845E+02 -1.24352E+02 -1.22627E+02 -1.20601E+02 -1.18348E+02 -1.16474E+02 -1.15530E+02 -1.15520E+02 -1.15994E+02 -1.16457E+02
  -1.16571E+02 -1.16289E+02 -1.15693E+02 -1.14731E+02 -1.13347E+02 -1.11654E+02 -1.09330E+02 -1.05124E+02 -9.93548E+01 -9.24987E+01
  -8.33230E+01 -7.20993E+01 -6.21038E+01 -5.69705E+01 -5.76553E+01 -6.28098E+01 -7.06115E+01 -7.91573E+01 -8.70783E+01 -9.35535E+01
  -9.77940E+01 -9.92234E+01 -9.91312E+01 -9.87037E+01 -9.81928E+01 -9.76484E+01 -9.70709E+01 -9.65143E+01 -9.59584E+01 -9.53116E+01
  -9.44212E+01 -9.27033E+01 -8.94329E+01 -8.51656E+01 -7.98254E+01 -7.26999E+01 -6.47876E+01 -5.86231E+01 -5.61540E+01 -5.73618E+01
  -6.11120E+01 -6.63106E+01 -7.20109E+01 -7.75552E+01 -8.23504E+01 -8.55097E+01 -8.66388E+01 -8.65943E+01 -8.57190E+01 -8.42579E+01
  -8.25580E+01 -8.09503E+01 -7.97112E+01 -7.89286E+01 -7.85185E+01 -7.83728E+01 -7.83625E+01 -7.83440E+01 -7.82761E+01 -7.81236E+01
  -7.79015E+01 -7.76427E+01 -7.73449E+01 -7.69796E+01 -7.65464E+01 -7.61251E+01 -7.57436E+01 -7.54222E+01 -7.52391E+01 -7.51620E+01
  -7.50772E+01 -7.48076E+01 -7.42368E+01 -7.34604E+01 -7.26948E+01 -7.21179E+01 -7.17478E+01 -7.15263E+01 -7.14241E+01 -7.14171E+01
  -7.14548E+01 -7.14775E+01 -7.14134E+01 -7.13167E+01 -7.12733E+01 -7.11731E+01 -7.08213E+01 -7.02091E+01 -6.95616E+01 -6.90477E+01
  -6.86304E+01 -6.82251E+01 -6.77403E+01 -6.71573E+01 -6.65266E+01 -6.57175E+01 -6.44581E+01 -6.26934E+01 -6.06257E+01 -5.86245E+01
  -5.70392E+01 -5.61315E+01 -5.59644E+01 -5.63362E+01 -5.70223E+01 -5.77955E+01 -5.82509E+01 -5.80380E+01 -5.70590E+01 -5.54665E+01
  -5.35105E+01 -5.14888E+01 -4.96934E+01 -4.84076E+01 -4.80257E+01 -4.86092E+01 -4.99483E+01 -5.18640E+01 -5.39296E+01 -5.54410E+01
  -5.57627E+01 -5.48142E+01 -5.27856E+01 -4.97824E+01 -4.63488E+01 -4.35495E+01 -4.23228E+01 -4.29126E+01 -4.49079E+01 -4.76416E+01
  -5.05485E+01 -5.28463E+01 -5.36124E+01 -5.25203E+01 -4.99930E+01 -4.69950E+01 -4.42744E+01 -4.21957E+01 -4.10137E+01 -4.07318E+01
  -4.10402E+01 -4.12954E+01 -4.10500E+01 -4.03563E+01 -3.94005E+01 -3.83222E+01 -3.74299E+01 -3.71413E+01 -3.74955E+01 -3.82550E+01
  -3.92217E+01 -4.01351E+01 -4.05749E+01 -4.02638E+01 -3.93326E+01 -3.80479E+01 -3.67109E+01 -3.55741E+01 -3.47452E+01 -3.41206E+01
  -3.34161E+01 -3.24894E+01 -3.11033E+01 -2.86882E+01 -2.36466E+01 -1.58042E+01 -6.80304E+00  4.43759E+00  1.89323E+01  3.30786E+01
   4.11245E+01  4.04267E+01  3.24562E+01  1.99253E+01  5.64882E+00 -7.94717E+00 -1.95294E+01 -2.80780E+01 -3.24241E+01 -3.35637E+01
  -3.38094E+01 -3.36980E+01 -3.33092E+01 -3.27531E+01 -3.21601E+01 -3.16083E+01 -3.11670E+01 -3.08712E+01 -3.07160E+01 -3.06548E+01
  -3.06249E+01 -3.05571E+01 -3.04051E+01 -3.01563E+01 -2.98154E+01 -2.94088E+01 -2.89685E+01 -2.85117E+01 -2.80504E+01 -2.75935E+01
  -2.71336E+01 -2.66647E+01 -2.61869E+01 -2.56991E+01 -2.51966E+01 -2.46815E+01 -2.41594E+01 -2.36328E+01 -2.31040E+01 -2.25785E+01
  -2.20610E+01 -2.15579E+01 -2.10778E+01 -2.06281E+01 -2.02145E+01 -1.98409E+01 -1.95090E+01 -1.92190E+01 -1.89676E+01 -1.87505E+01
  -1.85624E+01 -1.83969E+01 -1.82468E+01 -1.81042E+01 -1.79602E+01 -1.78055E+01 -1.76300E+01 -1.74224E+01 -1.71678E+01 -1.68441E+01
  -1.64066E+01 -1.57895E+01 -1.51036E+01 -1.44689E+01 -1.38458E+01 -1.33899E+01 -1.34692E+01 -1.42595E+01 -1.55392E+01 -1.67937E+01
  -1.76143E+01 -1.78884E+01 -1.74550E+01 -1.60992E+01 -1.38871E+01 -1.12769E+01 -8.90945E+00 -7.10065E+00 -5.83383E+00 -4.99999E+00
  -4.41988E+00 -3.92072E+00 -3.43912E+00 -2.87456E+00 -2.12347E+00 -1.37118E+00 -9.15072E-01 -9.27602E-01 -1.30480E+00 -1.71423E+00
  -1.93790E+00 -1.90159E+00 -1.46393E+00 -5.24842E-01  8.01414E-01  2.20718E+00  3.33928E+00  4.02804E+00  4.30276E+00  4.25149E+00
   3.97937E+00  3.57026E+00  3.11411E+00  2.73879E+00  2.46005E+00  2.22588E+00  2.01908E+00  1.83636E+00  1.67881E+00  1.54873E+00
   1.44868E+00  1.38068E+00  1.34623E+00  1.34612E+00  1.38066E+00  1.44960E+00  1.55232E+00  1.68773E+00  1.85463E+00  2.05166E+00
   2.27764E+00  2.53132E+00  2.81166E+00  3.11758E+00  3.44830E+00  3.80311E+00  4.18156E+00  4.58309E+00  5.00717E+00  5.45300E+00
   5.91973E+00  6.40611E+00  6.91058E+00  7.43092E+00  7.96431E+00  8.50720E+00  9.05547E+00  9.60428E+00  1.01482E+01  1.06812E+01
   1.11968E+01  1.16884E+01  1.21494E+01  1.25736E+01  1.29552E+01  1.32891E+01  1.35712E+01  1.37988E+01  1.39703E+01  1.40858E+01
   1.41466E+01  1.41555E+01  1.41164E+01  1.40341E+01  1.39145E+01  1.37639E+01  1.35887E+01  1.33955E+01  1.31907E+01  1.29802E+01
   1.27694E+01  1.25629E+01  1.23644E+01  1.21770E+01  1.20029E+01  1.18436E+01  1.16998E+01  1.15718E+01  1.14591E+01  1.13610E+01
   1.12765E+01  1.12045E+01  1.11436E+01  1.10924E+01  1.10495E+01  1.10135E+01  1.09831E+01  1.09573E+01  1.09350E+01  1.09150E+01
   1.08966E+01  1.08790E+01  1.08615E+01  1.08437E+01  1.08249E+01  1.08047E+01  1.07828E+01  1.07588E+01  1.07325E+01  1.07038E+01
   1.06722E+01  1.06378E+01  1.06003E+01  1.05597E+01  1.05161E+01  1.04693E+01  1.04194E+01  1.03664E+01  1.03104E+01  1.02514E+01
   1.01895E+01  1.01248E+01  1.00573E+01  9.98697E+00  9.91411E+00  9.83873E+00  9.76094E+00  9.68075E+00  9.59827E+00  9.51361E+00
   9.42693E+00  9.33832E+00  9.24786E+00  9.15560E+00  9.06169E+00  8.96626E+00  8.86946E+00  8.77135E+00  8.67204E+00  8.57158E+00
   8.47017E+00  8.36792E+00  8.26498E+00  8.16141E+00  8.05733E+00  7.95282E+00  7.84809E+00  7.74325E+00  7.63845E+00  7.53374E+00
   7.42926E+00  7.32512E+00  7.22154E+00  7.11864E+00  7.01655E+00  6.91534E+00  6.81519E+00  6.71627E+00
 NY background values follow
    -2.662E+02   -2.642E+02   -2.621E+02   -2.601E+02   -2.581E+02   -2.561E+02   -2.541E+02   -2.521E+02   -2.501E+02   -2.480E+02
    -2.460E+02   -2.440E+02   -2.420E+02   -2.401E+02   -2.381E+02   -2.361E+02   -2.341E+02   -2.321E+02   -2.302E+02   -2.282E+02
    -2.263E+02   -2.243E+02   -2.224E+02   -2.204E+02   -2.185E+02   -2.166E+02   -2.147E+02   -2.128E+02   -2.109E+02   -2.090E+02
    -2.071E+02   -2.053E+02   -2.034E+02   -2.016E+02   -1.998E+02   -1.979E+02   -1.961E+02   -1.943E+02   -1.926E+02   -1.908E+02
    -1.890E+02   -1.873E+02   -1.856E+02   -1.838E+02   -1.821E+02   -1.805E+02   -1.788E+02   -1.771E+02   -1.755E+02   -1.739E+02
    -1.723E+02   -1.707E+02   -1.691E+02   -1.675E+02   -1.660E+02   -1.644E+02   -1.629E+02   -1.614E+02   -1.599E+02   -1.585E+02
    -1.570E+02   -1.555E+02   -1.541E+02   -1.527E+02   -1.513E+02   -1.499E+02   -1.486E+02   -1.472E+02   -1.459E+02   -1.445E+02
    -1.432E+02   -1.419E+02   -1.406E+02   -1.394E+02   -1.381E+02   -1.369E+02   -1.357E+02   -1.345E+02   -1.333E+02   -1.321E+02
    -1.309E+02   -1.298E+02   -1.287E+02   -1.276E+02   -1.265E+02   -1.254E+02   -1.243E+02   -1.232E+02   -1.222E+02   -1.212E+02
    -1.202E+02   -1.192E+02   -1.182E+02   -1.172E+02   -1.163E+02   -1.153E+02   -1.144E+02   -1.135E+02   -1.126E+02   -1.117E+02
    -1.108E+02   -1.099E+02   -1.091E+02   -1.083E+02   -1.074E+02   -1.066E+02   -1.058E+02   -1.050E+02   -1.042E+02   -1.035E+02
    -1.027E+02   -1.020E+02   -1.012E+02   -1.005E+02   -9.979E+01   -9.909E+01   -9.839E+01   -9.770E+01   -9.702E+01   -9.634E+01
    -9.568E+01   -9.503E+01   -9.438E+01   -9.374E+01   -9.311E+01   -9.248E+01   -9.186E+01   -9.125E+01   -9.065E+01   -9.005E+01
    -8.946E+01   -8.888E+01   -8.830E+01   -8.772E+01   -8.715E+01   -8.659E+01   -8.603E+01   -8.548E+01   -8.493E+01   -8.438E+01
    -8.384E+01   -8.331E+01   -8.278E+01   -8.225E+01   -8.173E+01   -8.121E+01   -8.069E+01   -8.018E+01   -7.967E+01   -7.917E+01
    -7.867E+01   -7.817E+01   -7.768E+01   -7.719E+01   -7.670E+01   -7.622E+01   -7.573E+01   -7.526E+01   -7.478E+01   -7.431E+01
    -7.384E+01   -7.337E+01   -7.291E+01   -7.244E+01   -7.198E+01   -7.153E+01   -7.107E+01   -7.062E+01   -7.017E+01   -6.972E+01
    -6.927E+01   -6.882E+01   -6.838E+01   -6.793E+01   -6.749E+01   -6.705E+01   -6.661E+01   -6.617E+01   -6.574E+01   -6.530E+01
    -6.486E+01   -6.443E+01   -6.399E+01   -6.356E+01   -6.313E+01   -6.270E+01   -6.227E+01   -6.184E+01   -6.141E+01   -6.098E+01
    -6.056E+01   -6.013E+01   -5.971E+01   -5.929E+01   -5.887E+01   -5.845E+01   -5.803E+01   -5.762E+01   -5.721E+01   -5.680E+01
    -5.639E+01   -5.598E+01   -5.558E+01   -5.518E+01   -5.478E+01   -5.438E+01   -5.399E+01   -5.360E+01   -5.321E+01   -5.282E+01
    -5.244E+01   -5.206E+01   -5.168E+01   -5.130E+01   -5.093E+01   -5.057E+01   -5.020E+01   -4.984E+01   -4.948E+01   -4.913E+01
    -4.878E+01   -4.843E+01   -4.808E+01   -4.774E+01   -4.741E+01   -4.708E+01   -4.675E+01   -4.642E+01   -4.610E+01   -4.579E+01
    -4.548E+01   -4.517E+01   -4.486E+01   -4.456E+01   -4.426E+01   -4.397E+01   -4.368E+01   -4.339E+01   -4.310E+01   -4.282E+01
    -4.254E+01   -4.226E+01   -4.198E+01   -4.171E+01   -4.144E+01   -4.117E+01   -4.090E+01   -4.063E+01   -4.037E+01   -4.011E+01
    -3.985E+01   -3.959E+01   -3.933E+01   -3.907E+01   -3.882E+01   -3.856E+01   -3.831E+01   -3.806E+01   -3.780E+01   -3.755E+01
    -3.730E+01   -3.705E+01   -3.680E+01   -3.655E+01   -3.630E+01   -3.605E+01   -3.579E+01   -3.554E+01   -3.529E+01   -3.504E+01
    -3.478E+01   -3.453E+01   -3.427E+01   -3.402E+01   -3.376E+01   -3.350E+01   -3.324E+01   -3.298E+01   -3.272E+01   -3.246E+01
    -3.220E+01   -3.193E+01   -3.167E+01   -3.140E+01   -3.113E+01   -3.086E+01   -3.059E+01   -3.032E+01   -3.005E+01   -2.978E+01
    -2.950E+01   -2.923E+01   -2.895E+01   -2.867E+01   -2.839E+01   -2.811E+01   -2.783E+01   -2.755E+01   -2.726E+01   -2.698E+01
    -2.669E+01   -2.640E+01   -2.612E+01   -2.582E+01   -2.553E+01   -2.524E+01   -2.494E+01   -2.465E+01   -2.435E+01   -2.405E+01
    -2.375E+01   -2.345E+01   -2.315E+01   -2.284E+01   -2.254E+01   -2.223E+01   -2.192E+01   -2.161E+01   -2.130E+01   -2.099E+01
    -2.067E+01   -2.036E+01   -2.004E+01   -1.972E+01   -1.940E+01   -1.908E+01   -1.876E+01   -1.843E+01   -1.811E+01   -1.778E+01
    -1.746E+01   -1.713E+01   -1.680E+01   -1.647E+01   -1.614E+01   -1.581E+01   -1.547E+01   -1.514E+01   -1.480E+01   -1.447E+01
    -1.413E+01   -1.379E+01   -1.346E+01   -1.312E+01   -1.278E+01   -1.244E+01   -1.210E+01   -1.176E+01   -1.142E+01   -1.107E+01
    -1.073E+01   -1.039E+01   -1.004E+01   -9.699E+00   -9.354E+00   -9.009E+00   -8.664E+00   -8.318E+00   -7.972E+00   -7.626E+00
    -7.280E+00   -6.933E+00   -6.587E+00   -6.240E+00   -5.893E+00   -5.547E+00   -5.201E+00   -4.855E+00   -4.510E+00   -4.166E+00
    -3.823E+00   -3.481E+00   -3.140E+00   -2.800E+00   -2.462E+00   -2.125E+00   -1.790E+00   -1.457E+00   -1.126E+00   -7.968E-01
    -4.701E-01   -1.458E-01    1.759E-01    4.949E-01    8.111E-01    1.124E+00    1.434E+00    1.741E+00    2.045E+00    2.345E+00
     2.641E+00    2.934E+00    3.222E+00    3.507E+00    3.787E+00    4.063E+00    4.335E+00    4.601E+00    4.864E+00    5.121E+00
     5.373E+00    5.620E+00    5.862E+00    6.098E+00    6.329E+00    6.554E+00    6.773E+00    6.986E+00    7.194E+00    7.395E+00
     7.590E+00    7.779E+00    7.962E+00    8.140E+00    8.311E+00    8.477E+00    8.637E+00    8.791E+00    8.940E+00    9.083E+00
     9.220E+00    9.352E+00    9.478E+00    9.599E+00    9.714E+00    9.824E+00    9.928E+00    1.003E+01    1.012E+01    1.021E+01
     1.029E+01    1.037E+01    1.044E+01    1.051E+01    1.057E+01    1.063E+01    1.068E+01    1.073E+01    1.077E+01    1.081E+01
     1.084E+01    1.087E+01    1.089E+01    1.091E+01    1.092E+01    1.093E+01    1.094E+01    1.094E+01    1.093E+01    1.092E+01
     1.091E+01    1.089E+01    1.086E+01    1.084E+01    1.080E+01    1.077E+01    1.073E+01    1.068E+01    1.064E+01    1.058E+01
     1.053E+01    1.047E+01    1.041E+01    1.034E+01    1.028E+01    1.020E+01    1.013E+01    1.005E+01    9.974E+00    9.892E+00
     9.808E+00    9.722E+00    9.633E+00    9.543E+00    9.450E+00    9.356E+00    9.260E+00    9.163E+00    9.064E+00    8.964E+00
     8.863E+00    8.760E+00    8.657E+00    8.553E+00    8.448E+00    8.343E+00    8.237E+00    8.131E+00    8.025E+00    7.919E+00
     7.813E+00    7.706E+00    7.601E+00    7.495E+00    7.390E+00    7.286E+00    7.182E+00    7.079E+00
 Ala      Conc. = 3.29E+02
