 LCModel (Version 6.3-1L) Copyright: S.W. Provencher.          Ref.: Magn. Reson. Med. 30:672-679 (1993).                
 Slice#3 Row#4 Col#6  PD_24_press_2_raw_act
 36 lines in following concentration table = NCONC+1
    Conc.  %SD /Cr+PCr  Metabolite                                         
    0.000 999%   0.000 Ala                                                 
  181.518  98%   0.168 Asp                                                 
    0.000 999%   0.000 Cr                                                  
 1.08E+03  11%   1.000 PCr                                                 
  111.477  96%   0.103 GABA                                                
  113.342  95%   0.105 Glc                                                 
    0.000 999%   0.000 Gln                                                 
  990.926  53%   0.918 Glu                                                 
  501.487  10%   0.464 GPC                                                 
    0.000 999%   0.000 PCh                                                 
  316.727  52%   0.293 GSH                                                 
  510.048 105%   0.472 Ins                                                 
    0.000 999%   0.000 Lac                                                 
 1.20E+03  12%   1.108 NAA                                                 
    0.000 999%   0.000 NAAG                                                
    0.000 999%   0.000 Scyllo                                              
    0.000 999%   0.000 Tau                                                 
    0.000 999%   0.000 -CrCH2                                              
  501.487  10%   0.464 GPC+PCh                                             
 1.20E+03  12%   1.108 NAA+NAAG                                            
 1.08E+03  11%   1.000 Cr+PCr                                              
  990.926  53%   0.918 Glu+Gln                                             
 1.96E+03  65%   1.814 Lip13a                                              
  209.872 216%   0.194 Lip13b                                              
   55.974 773% 5.2E-02 Lip09                                               
 2.02E+03  24%   1.874 MM09                                                
  346.926  96%   0.321 Lip20                                               
 3.11E+03  23%   2.881 MM20                                                
  626.376  30%   0.580 MM12                                                
 1.98E+03  27%   1.832 MM14                                                
  405.033  87%   0.375 MM17                                                
 2.17E+03  44%   2.008 Lip13a+Lip13b                                       
 4.77E+03  20%   4.420 MM14+Lip13a+Lip13b+MM12                             
 2.08E+03  22%   1.926 MM09+Lip09                                          
 3.46E+03  21%   3.202 MM20+Lip20                                          
   6 lines in following misc. output table
  FWHM = 0.038 ppm    S/N =   3                                            
  Data shift = 0.023 ppm                                                   
  Ph:  32 deg      15.4 deg/ppm                                            
  alphaB,S = 1.6E+00,   2.2E+01                                            
   14 spline knots.   Ns = 5(1)                                            
  ( 7) 2 infls.   ( 5) 1 extrs.                                            
  498 points on ppm-axis = NY
      4.000000     3.992357     3.984714     3.977070     3.969427     3.961784     3.954141     3.946497     3.938854     3.931211
      3.923568     3.915925     3.908281     3.900638     3.892995     3.885352     3.877708     3.870065     3.862422     3.854779
      3.847136     3.839492     3.831849     3.824206     3.816563     3.808919     3.801276     3.793633     3.785990     3.778347
      3.770703     3.763060     3.755417     3.747774     3.740130     3.732487     3.724844     3.717201     3.709558     3.701914
      3.694271     3.686628     3.678985     3.671341     3.663698     3.656055     3.648412     3.640769     3.633125     3.625482
      3.617839     3.610196     3.602552     3.594909     3.587266     3.579623     3.571980     3.564336     3.556693     3.549050
      3.541407     3.533763     3.526120     3.518477     3.510834     3.503191     3.495547     3.487904     3.480261     3.472618
      3.464974     3.457331     3.449688     3.442045     3.434402     3.426758     3.419115     3.411472     3.403829     3.396185
      3.388542     3.380899     3.373256     3.365613     3.357969     3.350326     3.342683     3.335040     3.327396     3.319753
      3.312110     3.304467     3.296824     3.289180     3.281537     3.273894     3.266251     3.258607     3.250964     3.243321
      3.235678     3.228034     3.220391     3.212748     3.205105     3.197462     3.189818     3.182175     3.174532     3.166889
      3.159245     3.151602     3.143959     3.136316     3.128673     3.121029     3.113386     3.105743     3.098100     3.090456
      3.082813     3.075170     3.067527     3.059884     3.052240     3.044597     3.036954     3.029311     3.021667     3.014024
      3.006381     2.998738     2.991095     2.983451     2.975808     2.968165     2.960522     2.952878     2.945235     2.937592
      2.929949     2.922306     2.914662     2.907019     2.899376     2.891733     2.884089     2.876446     2.868803     2.861160
      2.853517     2.845873     2.838230     2.830587     2.822944     2.815300     2.807657     2.800014     2.792371     2.784728
      2.777084     2.769441     2.761798     2.754155     2.746511     2.738868     2.731225     2.723582     2.715939     2.708295
      2.700652     2.693009     2.685366     2.677722     2.670079     2.662436     2.654793     2.647150     2.639506     2.631863
      2.624220     2.616577     2.608933     2.601290     2.593647     2.586004     2.578361     2.570717     2.563074     2.555431
      2.547788     2.540144     2.532501     2.524858     2.517215     2.509572     2.501928     2.494285     2.486642     2.478999
      2.471355     2.463712     2.456069     2.448426     2.440783     2.433139     2.425496     2.417853     2.410210     2.402566
      2.394923     2.387280     2.379637     2.371994     2.364350     2.356707     2.349064     2.341421     2.333777     2.326134
      2.318491     2.310848     2.303205     2.295561     2.287918     2.280275     2.272632     2.264988     2.257345     2.249702
      2.242059     2.234416     2.226772     2.219129     2.211486     2.203843     2.196199     2.188556     2.180913     2.173270
      2.165627     2.157983     2.150340     2.142697     2.135054     2.127410     2.119767     2.112124     2.104481     2.096838
      2.089194     2.081551     2.073908     2.066265     2.058621     2.050978     2.043335     2.035692     2.028049     2.020405
      2.012762     2.005119     1.997476     1.989833     1.982190     1.974546     1.966903     1.959260     1.951617     1.943974
      1.936331     1.928688     1.921045     1.913402     1.905759     1.898115     1.890472     1.882829     1.875186     1.867543
      1.859900     1.852257     1.844614     1.836971     1.829327     1.821684     1.814041     1.806398     1.798755     1.791112
      1.783469     1.775826     1.768183     1.760540     1.752896     1.745253     1.737610     1.729967     1.722324     1.714681
      1.707038     1.699395     1.691752     1.684108     1.676465     1.668822     1.661179     1.653536     1.645893     1.638250
      1.630607     1.622964     1.615321     1.607677     1.600034     1.592391     1.584748     1.577105     1.569462     1.561819
      1.554176     1.546533     1.538890     1.531246     1.523603     1.515960     1.508317     1.500674     1.493031     1.485388
      1.477745     1.470102     1.462458     1.454815     1.447172     1.439529     1.431886     1.424243     1.416600     1.408957
      1.401314     1.393671     1.386027     1.378384     1.370741     1.363098     1.355455     1.347812     1.340169     1.332526
      1.324883     1.317240     1.309596     1.301953     1.294310     1.286667     1.279024     1.271381     1.263738     1.256095
      1.248452     1.240808     1.233165     1.225522     1.217879     1.210236     1.202593     1.194950     1.187307     1.179664
      1.172021     1.164377     1.156734     1.149091     1.141448     1.133805     1.126162     1.118519     1.110876     1.103233
      1.095590     1.087946     1.080303     1.072660     1.065017     1.057374     1.049731     1.042088     1.034445     1.026802
      1.019158     1.011515     1.003872     0.996229     0.988586     0.980943     0.973300     0.965657     0.958014     0.950371
      0.942727     0.935084     0.927441     0.919798     0.912155     0.904512     0.896869     0.889226     0.881583     0.873940
      0.866296     0.858653     0.851010     0.843367     0.835724     0.828081     0.820438     0.812795     0.805152     0.797508
      0.789865     0.782222     0.774579     0.766936     0.759293     0.751650     0.744007     0.736364     0.728721     0.721077
      0.713434     0.705791     0.698148     0.690505     0.682862     0.675219     0.667576     0.659933     0.652290     0.644646
      0.637003     0.629360     0.621717     0.614074     0.606431     0.598788     0.591145     0.583502     0.575858     0.568215
      0.560572     0.552929     0.545286     0.537643     0.530000     0.522357     0.514714     0.507071     0.499427     0.491784
      0.484141     0.476498     0.468855     0.461212     0.453569     0.445925     0.438282     0.430639     0.422996     0.415353
      0.407710     0.400067     0.392424     0.384780     0.377137     0.369494     0.361851     0.354208     0.346565     0.338922
      0.331278     0.323635     0.315992     0.308349     0.300706     0.293063     0.285420     0.277777     0.270133     0.262490
      0.254847     0.247204     0.239561     0.231918     0.224275     0.216631     0.208988     0.201345
 NY phased data points follow
   1.41274E+02  1.60951E+02  1.59800E+02  1.66231E+02  1.49101E+02  1.60056E+02  1.42211E+02  1.76776E+02  1.62733E+02  1.63518E+02
   1.44067E+02  1.86789E+02  1.44560E+02  1.54506E+02  1.42540E+02  1.45867E+02  1.23614E+02  1.27616E+02  1.18641E+02  1.39045E+02
   1.27765E+02  1.48401E+02  1.28337E+02  1.33979E+02  1.22204E+02  1.32221E+02  1.24618E+02  1.31394E+02  1.13338E+02  1.34050E+02
   1.11003E+02  1.21348E+02  1.14066E+02  1.15190E+02  1.15412E+02  1.03370E+02  9.56385E+01  1.20867E+02  1.12584E+02  1.30808E+02
   1.13452E+02  1.15406E+02  9.58304E+01  1.03667E+02  8.14195E+01  1.00502E+02  1.05893E+02  9.47229E+01  1.05156E+02  1.13519E+02
   1.00399E+02  1.02753E+02  8.69357E+01  1.03119E+02  7.81901E+01  8.92049E+01  8.36456E+01  8.22262E+01  8.40254E+01  7.64076E+01
   7.79344E+01  8.69979E+01  7.42330E+01  7.91528E+01  7.02555E+01  6.18961E+01  6.92704E+01  7.93946E+01  6.78371E+01  7.41019E+01
   6.86491E+01  7.40291E+01  8.04404E+01  9.19927E+01  6.88370E+01  8.64613E+01  6.07325E+01  6.54682E+01  6.12028E+01  7.07403E+01
   7.67442E+01  4.82501E+01  7.00440E+01  6.94639E+01  4.36396E+01  6.50786E+01  5.34507E+01  5.89676E+01  4.89838E+01  5.37831E+01
   5.31634E+01  6.42749E+01  4.45544E+01  5.35542E+01  3.93315E+01  7.36820E+01  5.68703E+01  5.37933E+01  7.06981E+01  7.32534E+01
   7.68692E+01  8.33545E+01  1.04352E+02  1.20791E+02  9.90102E+01  1.01567E+02  8.42496E+01  7.03506E+01  6.56792E+01  6.46956E+01
   5.79224E+01  5.59970E+01  4.78012E+01  5.14275E+01  3.60495E+01  4.32423E+01  4.72410E+01  3.92664E+01  4.21111E+01  3.96689E+01
   4.35046E+01  5.27428E+01  4.15825E+01  4.96867E+01  6.34145E+01  5.35803E+01  7.16556E+01  7.32044E+01  6.88699E+01  8.73471E+01
   6.06398E+01  6.15354E+01  4.82204E+01  5.78986E+01  3.95771E+01  3.96917E+01  3.20517E+01  3.92891E+01  2.22573E+01  4.15443E+01
   4.09549E+01  2.75790E+01  2.70760E+01  2.73802E+01  7.42461E+00  2.61264E+01  2.00077E+01  3.32054E+01  3.39633E+01  2.61957E+01
   2.76538E+01  1.72719E+01  1.90754E+01  3.52989E+01  1.48820E+01  1.54167E+01  2.89050E+01  2.93575E+01  2.29758E+01  2.75420E+01
   1.09361E+01  3.22554E+01  2.13707E+01  1.40539E+01  1.68273E+01  4.10322E+01  2.63822E+01  2.16082E+01  2.19679E+01  2.81999E+01
   9.29635E+00  1.04292E+01  1.54177E+01  1.14457E+01 -6.91849E-01  1.50156E+01  1.10407E+01  1.07564E+01  1.84936E+01 -1.87626E+00
   5.57276E+00  1.64876E+01 -1.93211E+01  1.97844E+01  1.05931E+01  3.14929E+01 -4.65409E+00  8.51453E+00  8.20901E+00  1.04527E+01
   1.43960E+01  7.22903E+00  6.83164E+00  1.57612E+01  1.53965E+01  2.37411E+01  1.47462E+01  1.02729E+01 -1.34141E+01  1.59051E+01
   1.86893E+00  1.14361E+01  6.11210E+00  1.03017E+01  7.51100E+00  5.30620E+00  6.11342E+00  5.04128E+00  1.31483E+00  1.41264E+01
   1.25280E+00  1.12119E+01 -3.08584E+00  1.43067E+01  8.11643E+00  4.12823E+00  1.14582E+01  2.70587E+01  1.48539E+01  7.55260E+00
  -9.32755E+00 -9.39080E+00 -1.09419E+01  1.52929E+01  3.98220E+00  3.01125E+00  2.05073E+01  4.33586E+00 -1.42229E+01 -1.39631E+00
   5.52486E+00  6.28691E+00  2.29141E+00 -2.48250E+00 -4.62796E+00  6.33990E+00  5.63262E+00  9.75782E+00  3.50058E+00  6.61141E+00
  -7.72382E+00 -2.92897E+00 -5.83621E+00  8.78166E+00 -6.90004E+00  6.84849E+00  5.30189E+00  2.41818E+01  1.74157E+01  5.53314E+00
   1.61050E+01  1.41066E+01  2.56687E+01  1.10913E+01  1.32700E+01  4.83519E+00  1.14922E+01  1.49874E+01  2.89596E+01  4.53073E+01
   5.14651E+01  5.63718E+01  4.71203E+01  2.50026E+01  1.58612E+01  4.05827E+00 -7.29352E+00  5.57045E+00  1.26323E+00  5.34505E+00
  -7.11139E-02  7.29062E+00 -1.67624E+01 -5.27207E+00 -1.21840E+01  1.27162E+01  1.14689E+01 -2.69894E+00 -4.71663E+00  1.25710E+01
  -1.90246E+01 -3.55671E+00  7.74786E+00 -8.41990E+00 -8.20503E+00 -1.72672E+01 -1.05307E+01 -5.58155E+00 -1.80867E+01 -1.55623E+01
  -1.73701E+01 -1.75146E+01 -1.12084E+01 -5.23586E+00 -8.89692E+00 -1.56553E+01 -1.09534E+01 -1.03061E+01 -1.58193E+01 -1.83427E+01
  -1.91561E+01 -1.11703E+01 -5.22470E-01 -1.76366E+01 -8.04619E+00 -8.87291E+00 -9.97407E+00 -1.67762E+01 -1.90418E+01 -1.94261E+01
  -2.30816E+01 -1.62478E+01 -1.85883E+01 -2.43486E+01 -1.80680E+01 -1.05139E+01 -2.30821E+01 -1.46105E+01 -1.89781E+01 -1.14158E+01
  -2.21957E+01 -1.86411E+01 -2.20124E-01 -3.23348E+00 -1.22154E+01  6.35675E+00  4.37893E+00  2.34179E-01  1.77671E+01 -1.14523E+00
  -3.80943E+00  1.77106E+01 -3.23707E+00  5.77381E+00 -7.53513E+00 -1.10875E-01 -4.76173E+00 -8.51131E+00 -1.26401E+01 -1.19117E+00
  -1.30964E+01 -1.96365E+01 -1.54289E+01  5.66831E+00 -7.52729E+00  1.41784E+01 -3.15400E+00 -1.59490E+01 -1.51510E+01 -4.99021E+00
  -1.07513E+01 -6.70479E+00  2.16494E+00  7.73413E+00 -8.58324E+00  6.09131E-01 -2.22640E-01 -1.40738E+01  2.04744E+00 -3.21817E+00
  -1.30597E+01 -2.70618E+00 -1.37245E+00 -1.29122E+01 -2.37136E+01 -6.99452E+00 -1.25981E+01 -2.12746E+01 -5.08957E+00  7.58797E+00
  -5.33633E+00 -8.42882E+00 -2.13618E+01 -4.28960E+00 -1.17441E+00 -6.65124E+00 -1.44961E+01 -2.09434E+01 -1.74712E+01 -1.09831E+01
  -1.16505E+01 -2.57273E+01 -9.26159E+00 -7.84892E+00 -9.24477E+00 -7.89234E+00  1.81613E+00  9.39882E+00 -7.99639E-01  5.17761E+00
  -4.88436E+00 -2.42850E+00 -1.79488E+01 -1.43605E+01 -2.38059E+01 -1.33190E+01 -1.42759E+00 -1.24556E+01 -1.69661E+01 -2.07520E+00
  -2.66467E+01 -9.23174E+00 -9.25221E+00 -2.00276E+01 -6.67254E+00 -1.33111E+01 -2.16319E+01 -1.23443E+01 -8.03666E+00 -6.39684E-01
  -7.29891E+00 -3.33507E+01 -2.74652E+01 -2.47994E+01 -1.94082E+01 -4.04550E+00 -1.85005E+01 -2.13380E+01 -3.07055E+01 -1.76843E+01
  -1.75245E+01 -1.75858E+01 -2.92333E+01 -3.35645E+01 -2.62202E+01 -4.40839E+01 -2.60663E+01 -2.78805E+01 -2.29694E+01 -2.64470E+01
  -2.31044E+01 -2.21725E+01 -1.99481E+01 -2.26732E+01 -2.27449E+01 -2.45571E+01 -1.92067E+01 -1.66793E+01 -3.24702E+01 -2.19424E+01
  -3.03457E+01 -3.46310E+01 -3.28239E+01 -1.10720E+01 -3.25926E+01 -1.20506E+01 -1.73662E+01 -3.10270E+01 -3.71197E+01 -1.73660E+01
  -1.74850E+01 -1.17743E+01 -2.45916E+01 -1.67596E+01 -2.69533E+01 -2.92934E+01 -2.99059E+01 -2.15209E+01 -2.60217E+01 -2.58186E+01
  -2.25071E+01 -2.12060E+01 -3.41283E+01 -1.09721E+01 -1.13097E+01 -2.60362E+01 -2.72204E+01 -1.63766E+01 -1.44611E+01 -2.57749E+01
  -2.55348E+01 -1.05412E+01 -2.79143E+01 -1.25804E+01 -3.25177E+01 -3.77792E+01 -3.44987E+01 -2.48912E+01 -3.05796E+01 -2.96747E+01
  -3.88159E+01 -3.56721E+01 -2.77709E+01 -1.53149E+01 -2.44664E+01 -1.92752E+01 -2.60851E+01 -2.51258E+01 -3.21647E+01 -1.95828E+01
  -2.54281E+01 -4.43537E+01 -2.03694E+01 -4.04807E+01 -3.48219E+01 -3.04253E+01 -3.04168E+01 -2.40999E+01
 NY points of the fit to the data follow
   1.40085E+02  1.39271E+02  1.38725E+02  1.38658E+02  1.39885E+02  1.42672E+02  1.46304E+02  1.51155E+02  1.56617E+02  1.60391E+02
   1.60636E+02  1.57066E+02  1.50477E+02  1.43281E+02  1.37482E+02  1.32790E+02  1.29284E+02  1.27424E+02  1.25937E+02  1.24485E+02
   1.23188E+02  1.22074E+02  1.21024E+02  1.19912E+02  1.19020E+02  1.18653E+02  1.18518E+02  1.18778E+02  1.19715E+02  1.20939E+02
   1.21686E+02  1.21451E+02  1.19964E+02  1.17545E+02  1.14932E+02  1.12287E+02  1.09618E+02  1.07714E+02  1.06592E+02  1.05815E+02
   1.05100E+02  1.04606E+02  1.04271E+02  1.03906E+02  1.03638E+02  1.03513E+02  1.03363E+02  1.03176E+02  1.02589E+02  1.01325E+02
   9.95961E+01  9.77132E+01  9.57731E+01  9.39515E+01  9.24678E+01  9.13485E+01  9.04251E+01  8.96687E+01  8.90210E+01  8.84116E+01
   8.77324E+01  8.68482E+01  8.57020E+01  8.43769E+01  8.30420E+01  8.18146E+01  8.07820E+01  8.00111E+01  7.94132E+01  7.89084E+01
   7.84251E+01  7.79176E+01  7.73348E+01  7.66474E+01  7.58632E+01  7.50016E+01  7.41070E+01  7.32094E+01  7.22903E+01  7.13824E+01
   7.04879E+01  6.95946E+01  6.86675E+01  6.76976E+01  6.66718E+01  6.55755E+01  6.44247E+01  6.33024E+01  6.23146E+01  6.15653E+01
   6.10789E+01  6.07985E+01  6.06296E+01  6.04773E+01  6.02820E+01  6.00621E+01  5.99365E+01  6.06885E+01  6.46134E+01  7.11120E+01
   7.98404E+01  9.16303E+01  1.03723E+02  1.10653E+02  1.09568E+02  1.00425E+02  8.63493E+01  7.31058E+01  6.31564E+01  5.51621E+01
   5.07752E+01  4.93368E+01  4.85613E+01  4.79680E+01  4.74439E+01  4.69399E+01  4.64516E+01  4.59748E+01  4.55008E+01  4.50889E+01
   4.48750E+01  4.52672E+01  4.77327E+01  5.24082E+01  5.85482E+01  6.67939E+01  7.58350E+01  8.19326E+01  8.25241E+01  7.73105E+01
   6.78329E+01  5.80040E+01  5.02554E+01  4.36870E+01  3.88992E+01  3.63998E+01  3.46607E+01  3.35300E+01  3.30613E+01  3.30577E+01
   3.32876E+01  3.35023E+01  3.33752E+01  3.28965E+01  3.21962E+01  3.13477E+01  3.04677E+01  2.95922E+01  2.87411E+01  2.79487E+01
   2.71939E+01  2.64868E+01  2.58194E+01  2.52153E+01  2.46714E+01  2.41411E+01  2.35635E+01  2.29272E+01  2.22047E+01  2.13895E+01
   2.06160E+01  1.99917E+01  1.96024E+01  1.94636E+01  1.94031E+01  1.91856E+01  1.87599E+01  1.81793E+01  1.74911E+01  1.68142E+01
   1.61699E+01  1.54841E+01  1.48272E+01  1.41985E+01  1.35399E+01  1.29142E+01  1.24148E+01  1.21036E+01  1.19039E+01  1.16719E+01
   1.12855E+01  1.08083E+01  1.03773E+01  1.00496E+01  9.77684E+00  9.57428E+00  9.54472E+00  9.86695E+00  1.04681E+01  1.11897E+01
   1.17812E+01  1.19650E+01  1.16506E+01  1.09361E+01  1.00253E+01  9.10221E+00  8.29453E+00  7.68224E+00  7.39222E+00  7.45178E+00
   7.73708E+00  8.15354E+00  8.53874E+00  8.83393E+00  8.93492E+00  8.56386E+00  7.77990E+00  6.73740E+00  5.57009E+00  4.52431E+00
   3.85765E+00  3.87815E+00  4.49138E+00  5.72945E+00  7.28906E+00  8.53739E+00  8.72368E+00  7.39802E+00  4.85132E+00  1.89091E+00
  -7.85670E-01 -2.68262E+00 -3.30743E+00 -2.23293E+00 -4.37052E-03  2.51508E+00  4.47939E+00  5.49898E+00  5.76767E+00  5.38663E+00
   4.58872E+00  3.98688E+00  4.01648E+00  4.61266E+00  5.54243E+00  6.43511E+00  6.98606E+00  7.01351E+00  6.34830E+00  5.21163E+00
   4.11502E+00  3.46788E+00  3.51153E+00  4.30476E+00  5.61945E+00  7.07774E+00  8.26014E+00  8.84676E+00  8.79540E+00  8.33624E+00
   7.70427E+00  7.17379E+00  7.00851E+00  7.26767E+00  8.15520E+00  1.11169E+01  1.63414E+01  2.29129E+01  3.17772E+01  4.17286E+01
   4.86282E+01  4.93395E+01  4.33959E+01  3.24549E+01  2.09692E+01  1.19628E+01  4.68430E+00 -2.85868E-01 -2.27717E+00 -3.41216E+00
  -4.29748E+00 -4.92558E+00 -5.31870E+00 -5.57465E+00 -5.75956E+00 -5.96146E+00 -6.26347E+00 -6.68941E+00 -7.20345E+00 -7.77983E+00
  -8.35965E+00 -8.87000E+00 -9.29453E+00 -9.63112E+00 -9.87842E+00 -1.00614E+01 -1.02067E+01 -1.03310E+01 -1.04515E+01 -1.05712E+01
  -1.06836E+01 -1.07886E+01 -1.08873E+01 -1.09737E+01 -1.10429E+01 -1.10991E+01 -1.11445E+01 -1.11777E+01 -1.12034E+01 -1.12271E+01
  -1.12496E+01 -1.12738E+01 -1.13012E+01 -1.13322E+01 -1.13668E+01 -1.14041E+01 -1.14424E+01 -1.14780E+01 -1.15071E+01 -1.15255E+01
  -1.15285E+01 -1.15117E+01 -1.14708E+01 -1.14012E+01 -1.12989E+01 -1.11600E+01 -1.09816E+01 -1.07618E+01 -1.05001E+01 -1.01968E+01
  -9.85370E+00 -9.47397E+00 -9.06226E+00 -8.62462E+00 -8.16820E+00 -7.70110E+00 -7.23220E+00 -6.77090E+00 -6.32686E+00 -5.90944E+00
  -5.52722E+00 -5.18772E+00 -4.89713E+00 -4.66010E+00 -4.47951E+00 -4.35621E+00 -4.28889E+00 -4.27415E+00 -4.30671E+00 -4.37952E+00
  -4.48381E+00 -4.60908E+00 -4.74324E+00 -4.87286E+00 -4.98371E+00 -5.06154E+00 -5.09325E+00 -5.06870E+00 -4.98307E+00 -4.83934E+00
  -4.65018E+00 -4.43841E+00 -4.23570E+00 -4.07913E+00 -4.00628E+00 -4.04937E+00 -4.22979E+00 -4.55442E+00 -5.01459E+00 -5.58809E+00
  -6.24368E+00 -6.94669E+00 -7.66439E+00 -8.36989E+00 -9.04426E+00 -9.67674E+00 -1.02634E+01 -1.08048E+01 -1.13039E+01 -1.17637E+01
  -1.21861E+01 -1.25715E+01 -1.29186E+01 -1.32250E+01 -1.34869E+01 -1.37001E+01 -1.38602E+01 -1.39631E+01 -1.40051E+01 -1.39832E+01
  -1.38954E+01 -1.37404E+01 -1.35185E+01 -1.32314E+01 -1.28825E+01 -1.24773E+01 -1.20229E+01 -1.15285E+01 -1.10054E+01 -1.04669E+01
  -9.92777E+00 -9.40410E+00 -8.91262E+00 -8.47017E+00 -8.09314E+00 -7.79676E+00 -7.59430E+00 -7.49639E+00 -7.51052E+00 -7.64078E+00
  -7.88767E+00 -8.24803E+00 -8.71522E+00 -9.27940E+00 -9.92815E+00 -1.06472E+01 -1.14211E+01 -1.22339E+01 -1.30696E+01 -1.39133E+01
  -1.47511E+01 -1.55710E+01 -1.63629E+01 -1.71188E+01 -1.78328E+01 -1.85006E+01 -1.91201E+01 -1.96906E+01 -2.02128E+01 -2.06884E+01
  -2.11198E+01 -2.15099E+01 -2.18618E+01 -2.21792E+01 -2.24654E+01 -2.27237E+01 -2.29572E+01 -2.31687E+01 -2.33609E+01 -2.35362E+01
  -2.36968E+01 -2.38444E+01 -2.39806E+01 -2.41068E+01 -2.42244E+01 -2.43344E+01 -2.44377E+01 -2.45351E+01 -2.46272E+01 -2.47147E+01
  -2.47982E+01 -2.48780E+01 -2.49546E+01 -2.50282E+01 -2.50992E+01 -2.51678E+01 -2.52344E+01 -2.52991E+01 -2.53621E+01 -2.54235E+01
  -2.54834E+01 -2.55421E+01 -2.55998E+01 -2.56564E+01 -2.57120E+01 -2.57667E+01 -2.58206E+01 -2.58737E+01 -2.59263E+01 -2.59782E+01
  -2.60295E+01 -2.60802E+01 -2.61305E+01 -2.61803E+01 -2.62298E+01 -2.62788E+01 -2.63274E+01 -2.63757E+01 -2.64237E+01 -2.64715E+01
  -2.65189E+01 -2.65661E+01 -2.66130E+01 -2.66597E+01 -2.67062E+01 -2.67526E+01 -2.67987E+01 -2.68447E+01 -2.68904E+01 -2.69361E+01
  -2.69816E+01 -2.70270E+01 -2.70722E+01 -2.71173E+01 -2.71623E+01 -2.72072E+01 -2.72520E+01 -2.72967E+01 -2.73412E+01 -2.73857E+01
  -2.74300E+01 -2.74743E+01 -2.75185E+01 -2.75626E+01 -2.76065E+01 -2.76503E+01 -2.76941E+01 -2.77377E+01
 NY background values follow
     1.376E+02    1.367E+02    1.358E+02    1.349E+02    1.340E+02    1.331E+02    1.322E+02    1.312E+02    1.303E+02    1.294E+02
     1.285E+02    1.276E+02    1.267E+02    1.258E+02    1.249E+02    1.240E+02    1.231E+02    1.222E+02    1.213E+02    1.203E+02
     1.194E+02    1.185E+02    1.176E+02    1.167E+02    1.158E+02    1.149E+02    1.140E+02    1.131E+02    1.122E+02    1.113E+02
     1.104E+02    1.095E+02    1.087E+02    1.078E+02    1.069E+02    1.060E+02    1.051E+02    1.042E+02    1.033E+02    1.025E+02
     1.016E+02    1.007E+02    9.983E+01    9.895E+01    9.808E+01    9.722E+01    9.635E+01    9.549E+01    9.463E+01    9.377E+01
     9.291E+01    9.206E+01    9.120E+01    9.035E+01    8.951E+01    8.866E+01    8.782E+01    8.698E+01    8.615E+01    8.532E+01
     8.449E+01    8.366E+01    8.284E+01    8.201E+01    8.120E+01    8.038E+01    7.957E+01    7.876E+01    7.796E+01    7.715E+01
     7.635E+01    7.556E+01    7.477E+01    7.398E+01    7.319E+01    7.241E+01    7.163E+01    7.086E+01    7.009E+01    6.932E+01
     6.856E+01    6.780E+01    6.704E+01    6.629E+01    6.554E+01    6.480E+01    6.406E+01    6.333E+01    6.259E+01    6.187E+01
     6.114E+01    6.043E+01    5.971E+01    5.900E+01    5.829E+01    5.759E+01    5.690E+01    5.620E+01    5.551E+01    5.483E+01
     5.415E+01    5.347E+01    5.280E+01    5.213E+01    5.147E+01    5.081E+01    5.015E+01    4.950E+01    4.885E+01    4.821E+01
     4.757E+01    4.694E+01    4.631E+01    4.568E+01    4.506E+01    4.444E+01    4.382E+01    4.321E+01    4.261E+01    4.200E+01
     4.141E+01    4.081E+01    4.022E+01    3.964E+01    3.905E+01    3.848E+01    3.790E+01    3.733E+01    3.677E+01    3.621E+01
     3.565E+01    3.509E+01    3.454E+01    3.400E+01    3.346E+01    3.292E+01    3.238E+01    3.185E+01    3.133E+01    3.080E+01
     3.029E+01    2.977E+01    2.926E+01    2.875E+01    2.825E+01    2.775E+01    2.725E+01    2.676E+01    2.627E+01    2.579E+01
     2.531E+01    2.483E+01    2.436E+01    2.389E+01    2.342E+01    2.296E+01    2.250E+01    2.204E+01    2.159E+01    2.114E+01
     2.070E+01    2.026E+01    1.982E+01    1.938E+01    1.895E+01    1.853E+01    1.810E+01    1.768E+01    1.726E+01    1.685E+01
     1.644E+01    1.603E+01    1.563E+01    1.523E+01    1.483E+01    1.443E+01    1.404E+01    1.365E+01    1.327E+01    1.289E+01
     1.251E+01    1.213E+01    1.176E+01    1.139E+01    1.103E+01    1.066E+01    1.030E+01    9.948E+00    9.594E+00    9.243E+00
     8.895E+00    8.551E+00    8.209E+00    7.869E+00    7.533E+00    7.200E+00    6.869E+00    6.542E+00    6.217E+00    5.895E+00
     5.576E+00    5.259E+00    4.945E+00    4.634E+00    4.326E+00    4.020E+00    3.717E+00    3.417E+00    3.119E+00    2.824E+00
     2.532E+00    2.242E+00    1.954E+00    1.669E+00    1.387E+00    1.107E+00    8.296E-01    5.546E-01    2.820E-01    1.187E-02
    -2.559E-01   -5.213E-01   -7.843E-01   -1.045E+00   -1.303E+00   -1.560E+00   -1.813E+00   -2.065E+00   -2.314E+00   -2.561E+00
    -2.806E+00   -3.049E+00   -3.289E+00   -3.528E+00   -3.764E+00   -3.998E+00   -4.230E+00   -4.460E+00   -4.688E+00   -4.914E+00
    -5.137E+00   -5.359E+00   -5.579E+00   -5.796E+00   -6.012E+00   -6.226E+00   -6.438E+00   -6.647E+00   -6.855E+00   -7.062E+00
    -7.266E+00   -7.468E+00   -7.669E+00   -7.867E+00   -8.064E+00   -8.259E+00   -8.452E+00   -8.644E+00   -8.834E+00   -9.022E+00
    -9.208E+00   -9.393E+00   -9.576E+00   -9.757E+00   -9.936E+00   -1.011E+01   -1.029E+01   -1.047E+01   -1.064E+01   -1.081E+01
    -1.098E+01   -1.115E+01   -1.132E+01   -1.148E+01   -1.165E+01   -1.181E+01   -1.197E+01   -1.213E+01   -1.229E+01   -1.244E+01
    -1.260E+01   -1.275E+01   -1.290E+01   -1.306E+01   -1.320E+01   -1.335E+01   -1.350E+01   -1.364E+01   -1.379E+01   -1.393E+01
    -1.407E+01   -1.421E+01   -1.435E+01   -1.449E+01   -1.462E+01   -1.476E+01   -1.489E+01   -1.502E+01   -1.515E+01   -1.528E+01
    -1.540E+01   -1.553E+01   -1.566E+01   -1.578E+01   -1.590E+01   -1.602E+01   -1.614E+01   -1.626E+01   -1.638E+01   -1.649E+01
    -1.660E+01   -1.672E+01   -1.683E+01   -1.694E+01   -1.705E+01   -1.716E+01   -1.726E+01   -1.737E+01   -1.747E+01   -1.758E+01
    -1.768E+01   -1.778E+01   -1.788E+01   -1.798E+01   -1.808E+01   -1.817E+01   -1.827E+01   -1.836E+01   -1.845E+01   -1.855E+01
    -1.864E+01   -1.873E+01   -1.882E+01   -1.891E+01   -1.899E+01   -1.908E+01   -1.916E+01   -1.925E+01   -1.933E+01   -1.942E+01
    -1.950E+01   -1.958E+01   -1.966E+01   -1.974E+01   -1.982E+01   -1.990E+01   -1.998E+01   -2.005E+01   -2.013E+01   -2.020E+01
    -2.028E+01   -2.035E+01   -2.043E+01   -2.050E+01   -2.057E+01   -2.065E+01   -2.072E+01   -2.079E+01   -2.086E+01   -2.093E+01
    -2.100E+01   -2.107E+01   -2.114E+01   -2.121E+01   -2.128E+01   -2.134E+01   -2.141E+01   -2.148E+01   -2.154E+01   -2.161E+01
    -2.168E+01   -2.174E+01   -2.181E+01   -2.187E+01   -2.193E+01   -2.200E+01   -2.206E+01   -2.212E+01   -2.219E+01   -2.225E+01
    -2.231E+01   -2.237E+01   -2.243E+01   -2.249E+01   -2.255E+01   -2.261E+01   -2.267E+01   -2.273E+01   -2.278E+01   -2.284E+01
    -2.290E+01   -2.296E+01   -2.301E+01   -2.307E+01   -2.312E+01   -2.318E+01   -2.323E+01   -2.329E+01   -2.334E+01   -2.339E+01
    -2.344E+01   -2.350E+01   -2.355E+01   -2.360E+01   -2.365E+01   -2.370E+01   -2.375E+01   -2.380E+01   -2.385E+01   -2.390E+01
    -2.394E+01   -2.399E+01   -2.404E+01   -2.409E+01   -2.413E+01   -2.418E+01   -2.422E+01   -2.427E+01   -2.431E+01   -2.436E+01
    -2.440E+01   -2.445E+01   -2.449E+01   -2.453E+01   -2.458E+01   -2.462E+01   -2.466E+01   -2.470E+01   -2.475E+01   -2.479E+01
    -2.483E+01   -2.487E+01   -2.491E+01   -2.495E+01   -2.499E+01   -2.503E+01   -2.507E+01   -2.512E+01   -2.516E+01   -2.520E+01
    -2.524E+01   -2.528E+01   -2.532E+01   -2.536E+01   -2.540E+01   -2.544E+01   -2.548E+01   -2.552E+01   -2.556E+01   -2.560E+01
    -2.564E+01   -2.568E+01   -2.572E+01   -2.576E+01   -2.580E+01   -2.584E+01   -2.588E+01   -2.592E+01   -2.596E+01   -2.600E+01
    -2.604E+01   -2.608E+01   -2.612E+01   -2.616E+01   -2.620E+01   -2.625E+01   -2.629E+01   -2.633E+01   -2.637E+01   -2.641E+01
    -2.645E+01   -2.649E+01   -2.653E+01   -2.658E+01   -2.662E+01   -2.666E+01   -2.670E+01   -2.674E+01   -2.678E+01   -2.683E+01
    -2.687E+01   -2.691E+01   -2.695E+01   -2.700E+01   -2.704E+01   -2.708E+01   -2.712E+01   -2.716E+01   -2.721E+01   -2.725E+01
    -2.729E+01   -2.733E+01   -2.738E+01   -2.742E+01   -2.746E+01   -2.751E+01   -2.755E+01   -2.759E+01
 Asp      Conc. = 1.82E+02
