 LCModel (Version 6.3-1L) Copyright: S.W. Provencher.          Ref.: Magn. Reson. Med. 30:672-679 (1993).                
 Slice#1 Row#11 Col#2  PD_24_press_2_raw_act
 36 lines in following concentration table = NCONC+1
    Conc.  %SD /Cr+PCr  Metabolite                                         
    0.000 999%   0.000 Ala                                                 
 4.70E+03  20%   0.000+Asp                                                 
    0.000 999%   0.000 Cr                                                  
    0.000 999%   0.000 PCr                                                 
  474.666 138%   0.000 GABA                                                
 1.27E+03  50%   0.000 Glc                                                 
 1.10E+03 290%   0.000 Gln                                                 
    0.000 999%   0.000 Glu                                                 
    0.000 999%   0.000 GPC                                                 
 1.18E+03  12%   0.000 PCh                                                 
    0.000 999%   0.000 GSH                                                 
 1.21E+04  13%   0.000 Ins                                                 
    0.000 999%   0.000 Lac                                                 
 1.37E+04   5%   0.000 NAA                                                 
    0.000 999%   0.000 NAAG                                                
  961.798  15%   0.000+Scyllo                                              
 4.84E+03  19%   0.000+Tau                                                 
   71.578 193%   0.000 -CrCH2                                              
 1.18E+03  12%   0.000 GPC+PCh                                             
 1.37E+04   5%   0.000 NAA+NAAG                                            
    0.000 999%   0.000 Cr+PCr                                              
 1.10E+03 290%   0.000 Glu+Gln                                             
 7.97E+04  10%   0.000 Lip13a                                              
    0.000 999%   0.000 Lip13b                                              
 4.88E+04  12%   0.000 Lip09                                               
 2.48E+04  11%   0.000 MM09                                                
    0.000 999%   0.000 Lip20                                               
 2.72E+04  10%   0.000 MM20                                                
 3.62E+04  13%   0.000 MM12                                                
 6.52E+04   4%   0.000 MM14                                                
 2.47E+04   4%   0.000 MM17                                                
 7.97E+04  10%   0.000 Lip13a+Lip13b                                       
 1.81E+05   4%   0.000 MM14+Lip13a+Lip13b+MM12                             
 7.36E+04  10%   0.000 MM09+Lip09                                          
 2.72E+04  10%   0.000 MM20+Lip20                                          
   6 lines in following misc. output table
  FWHM = 0.168 ppm    S/N =  19                                            
  Data shift = 0.306 ppm                                                   
  Ph:  86 deg     198.6 deg/ppm                                            
  alphaB,S = 2.3E-01,   2.8E+02                                            
    9 spline knots.   Ns = 9(2)                                            
  (10) 2 infls.   (10) 1 extrs.                                            
  498 points on ppm-axis = NY
      4.000000     3.992357     3.984714     3.977070     3.969427     3.961784     3.954141     3.946497     3.938854     3.931211
      3.923568     3.915925     3.908281     3.900638     3.892995     3.885352     3.877708     3.870065     3.862422     3.854779
      3.847136     3.839492     3.831849     3.824206     3.816563     3.808919     3.801276     3.793633     3.785990     3.778347
      3.770703     3.763060     3.755417     3.747774     3.740130     3.732487     3.724844     3.717201     3.709558     3.701914
      3.694271     3.686628     3.678985     3.671341     3.663698     3.656055     3.648412     3.640769     3.633125     3.625482
      3.617839     3.610196     3.602552     3.594909     3.587266     3.579623     3.571980     3.564336     3.556693     3.549050
      3.541407     3.533763     3.526120     3.518477     3.510834     3.503191     3.495547     3.487904     3.480261     3.472618
      3.464974     3.457331     3.449688     3.442045     3.434402     3.426758     3.419115     3.411472     3.403829     3.396185
      3.388542     3.380899     3.373256     3.365613     3.357969     3.350326     3.342683     3.335040     3.327396     3.319753
      3.312110     3.304467     3.296824     3.289180     3.281537     3.273894     3.266251     3.258607     3.250964     3.243321
      3.235678     3.228034     3.220391     3.212748     3.205105     3.197462     3.189818     3.182175     3.174532     3.166889
      3.159245     3.151602     3.143959     3.136316     3.128673     3.121029     3.113386     3.105743     3.098100     3.090456
      3.082813     3.075170     3.067527     3.059884     3.052240     3.044597     3.036954     3.029311     3.021667     3.014024
      3.006381     2.998738     2.991095     2.983451     2.975808     2.968165     2.960522     2.952878     2.945235     2.937592
      2.929949     2.922306     2.914662     2.907019     2.899376     2.891733     2.884089     2.876446     2.868803     2.861160
      2.853517     2.845873     2.838230     2.830587     2.822944     2.815300     2.807657     2.800014     2.792371     2.784728
      2.777084     2.769441     2.761798     2.754155     2.746511     2.738868     2.731225     2.723582     2.715939     2.708295
      2.700652     2.693009     2.685366     2.677722     2.670079     2.662436     2.654793     2.647150     2.639506     2.631863
      2.624220     2.616577     2.608933     2.601290     2.593647     2.586004     2.578361     2.570717     2.563074     2.555431
      2.547788     2.540144     2.532501     2.524858     2.517215     2.509572     2.501928     2.494285     2.486642     2.478999
      2.471355     2.463712     2.456069     2.448426     2.440783     2.433139     2.425496     2.417853     2.410210     2.402566
      2.394923     2.387280     2.379637     2.371994     2.364350     2.356707     2.349064     2.341421     2.333777     2.326134
      2.318491     2.310848     2.303205     2.295561     2.287918     2.280275     2.272632     2.264988     2.257345     2.249702
      2.242059     2.234416     2.226772     2.219129     2.211486     2.203843     2.196199     2.188556     2.180913     2.173270
      2.165627     2.157983     2.150340     2.142697     2.135054     2.127410     2.119767     2.112124     2.104481     2.096838
      2.089194     2.081551     2.073908     2.066265     2.058621     2.050978     2.043335     2.035692     2.028049     2.020405
      2.012762     2.005119     1.997476     1.989833     1.982190     1.974546     1.966903     1.959260     1.951617     1.943974
      1.936331     1.928688     1.921045     1.913402     1.905759     1.898115     1.890472     1.882829     1.875186     1.867543
      1.859900     1.852257     1.844614     1.836971     1.829327     1.821684     1.814041     1.806398     1.798755     1.791112
      1.783469     1.775826     1.768183     1.760540     1.752896     1.745253     1.737610     1.729967     1.722324     1.714681
      1.707038     1.699395     1.691752     1.684108     1.676465     1.668822     1.661179     1.653536     1.645893     1.638250
      1.630607     1.622964     1.615321     1.607677     1.600034     1.592391     1.584748     1.577105     1.569462     1.561819
      1.554176     1.546533     1.538890     1.531246     1.523603     1.515960     1.508317     1.500674     1.493031     1.485388
      1.477745     1.470102     1.462458     1.454815     1.447172     1.439529     1.431886     1.424243     1.416600     1.408957
      1.401314     1.393671     1.386027     1.378384     1.370741     1.363098     1.355455     1.347812     1.340169     1.332526
      1.324883     1.317240     1.309596     1.301953     1.294310     1.286667     1.279024     1.271381     1.263738     1.256095
      1.248452     1.240808     1.233165     1.225522     1.217879     1.210236     1.202593     1.194950     1.187307     1.179664
      1.172021     1.164377     1.156734     1.149091     1.141448     1.133805     1.126162     1.118519     1.110876     1.103233
      1.095590     1.087946     1.080303     1.072660     1.065017     1.057374     1.049731     1.042088     1.034445     1.026802
      1.019158     1.011515     1.003872     0.996229     0.988586     0.980943     0.973300     0.965657     0.958014     0.950371
      0.942727     0.935084     0.927441     0.919798     0.912155     0.904512     0.896869     0.889226     0.881583     0.873940
      0.866296     0.858653     0.851010     0.843367     0.835724     0.828081     0.820438     0.812795     0.805152     0.797508
      0.789865     0.782222     0.774579     0.766936     0.759293     0.751650     0.744007     0.736364     0.728721     0.721077
      0.713434     0.705791     0.698148     0.690505     0.682862     0.675219     0.667576     0.659933     0.652290     0.644646
      0.637003     0.629360     0.621717     0.614074     0.606431     0.598788     0.591145     0.583502     0.575858     0.568215
      0.560572     0.552929     0.545286     0.537643     0.530000     0.522357     0.514714     0.507071     0.499427     0.491784
      0.484141     0.476498     0.468855     0.461212     0.453569     0.445925     0.438282     0.430639     0.422996     0.415353
      0.407710     0.400067     0.392424     0.384780     0.377137     0.369494     0.361851     0.354208     0.346565     0.338922
      0.331278     0.323635     0.315992     0.308349     0.300706     0.293063     0.285420     0.277777     0.270133     0.262490
      0.254847     0.247204     0.239561     0.231918     0.224275     0.216631     0.208988     0.201345
 NY phased data points follow
  -1.34498E+01 -1.26819E+01 -1.31182E+01 -1.01546E+01 -1.03688E+01 -8.66787E+00 -1.37020E+01 -8.69847E+00 -1.03402E+01 -7.15756E+00
  -1.09420E+01 -1.01605E+01 -9.51475E+00 -9.94436E+00 -9.04598E+00 -9.11012E+00 -9.24288E+00 -8.34694E+00 -9.06168E+00 -5.45636E+00
  -6.94266E+00 -5.52298E+00 -8.99580E+00 -6.65333E+00 -3.56727E+00 -5.54102E+00 -3.79877E+00 -4.08342E+00 -6.79983E+00 -3.88297E+00
  -5.71683E+00 -4.70634E+00 -6.75572E+00 -6.76857E+00 -5.18046E+00 -5.65472E+00 -6.15233E+00 -4.74826E+00 -4.45199E+00 -3.27313E+00
  -3.94354E+00 -4.65092E+00 -5.25826E+00 -6.17545E+00 -4.24101E+00 -6.11449E+00 -4.27797E+00 -6.05062E+00 -4.27369E+00 -5.68910E+00
  -4.95459E+00 -8.18904E+00 -4.66214E+00 -6.83669E+00 -7.04614E+00 -8.10026E+00 -9.97561E+00 -8.13199E+00 -8.10245E+00 -8.95561E+00
  -1.24450E+01 -9.67236E+00 -1.19570E+01 -1.10286E+01 -1.18613E+01 -8.85455E+00 -7.81044E+00 -9.38533E+00 -1.23490E+01 -1.26000E+01
  -1.31177E+01 -1.33495E+01 -1.18228E+01 -1.30361E+01 -1.38768E+01 -1.24616E+01 -1.65882E+01 -1.53386E+01 -1.70297E+01 -1.86370E+01
  -1.70039E+01 -1.77298E+01 -1.64366E+01 -1.97218E+01 -1.75922E+01 -1.99751E+01 -1.68474E+01 -1.96873E+01 -1.68934E+01 -1.76066E+01
  -1.50912E+01 -1.41618E+01 -1.40480E+01 -1.36451E+01 -1.35663E+01 -1.53067E+01 -1.17214E+01 -1.31077E+01 -1.08045E+01 -1.00579E+01
  -5.82987E+00 -7.98236E+00 -5.05020E+00 -1.14789E+01 -5.98040E+00 -6.20479E+00 -7.21069E+00 -5.77841E+00 -3.70974E+00 -5.67660E+00
  -5.12067E+00 -6.09206E+00 -5.54687E+00 -5.22084E+00 -5.27686E+00 -3.84383E+00 -6.09051E+00 -8.30085E+00 -6.92735E+00 -5.98561E+00
  -6.36015E+00 -8.51175E+00 -6.26742E+00 -9.83886E+00 -8.61264E+00 -7.28475E+00 -7.57983E+00 -1.16275E+01 -7.42908E+00 -5.50723E+00
  -8.17874E+00 -1.29278E+01 -6.28436E+00 -1.13463E+01 -8.52823E+00 -1.05976E+01 -1.15215E+01 -1.01823E+01 -1.01526E+01 -9.08843E+00
  -7.54823E+00 -6.97829E+00 -3.71339E+00 -6.59208E+00 -5.38947E+00 -3.38202E+00 -2.47260E+00 -2.60831E+00  3.59041E-01 -3.19280E-02
   1.60175E+00  3.16679E+00  6.26239E+00  6.95177E+00  1.12824E+01  1.10500E+01  1.12208E+01  1.72317E+01  1.69720E+01  2.08497E+01
   1.91531E+01  2.29953E+01  2.41068E+01  2.51318E+01  2.60033E+01  2.80186E+01  2.80668E+01  3.19184E+01  3.32156E+01  3.54492E+01
   3.82859E+01  4.01825E+01  4.01753E+01  4.14764E+01  4.62936E+01  4.72125E+01  5.17693E+01  5.10773E+01  5.13765E+01  5.48825E+01
   5.13114E+01  5.49205E+01  5.56014E+01  5.62464E+01  5.79515E+01  5.94648E+01  5.62794E+01  5.79961E+01  5.86937E+01  5.77483E+01
   5.75232E+01  5.56385E+01  5.50880E+01  5.39305E+01  5.50423E+01  5.15491E+01  4.86755E+01  4.80558E+01  4.71736E+01  4.59441E+01
   4.02559E+01  3.87096E+01  3.92940E+01  3.84858E+01  3.40249E+01  3.62549E+01  3.15445E+01  2.93572E+01  2.92123E+01  2.66507E+01
   2.62165E+01  2.68903E+01  2.57990E+01  2.73160E+01  2.66636E+01  2.55598E+01  2.66992E+01  2.52374E+01  2.77633E+01  2.74532E+01
   2.31053E+01  2.20360E+01  2.14084E+01  2.40639E+01  2.11243E+01  2.25779E+01  2.38787E+01  2.67625E+01  2.64750E+01  2.91440E+01
   2.81875E+01  3.33042E+01  2.76153E+01  3.11614E+01  3.30543E+01  3.17768E+01  3.36958E+01  3.44496E+01  3.52950E+01  3.67731E+01
   3.92969E+01  4.09601E+01  4.27494E+01  4.58962E+01  4.76368E+01  4.65987E+01  5.04220E+01  5.59371E+01  5.40008E+01  5.77190E+01
   6.09905E+01  6.41306E+01  6.59887E+01  7.02424E+01  7.03520E+01  7.28331E+01  7.38121E+01  7.33343E+01  7.20331E+01  7.53056E+01
   7.41825E+01  7.11088E+01  6.57705E+01  6.30134E+01  5.92413E+01  5.21207E+01  4.33547E+01  3.44577E+01  1.94428E+01  1.00953E+01
  -3.47494E+00 -2.19879E+01 -3.61767E+01 -5.42275E+01 -7.41851E+01 -9.32354E+01 -1.11698E+02 -1.27703E+02 -1.51381E+02 -1.73921E+02
  -1.87611E+02 -2.06218E+02 -2.19015E+02 -2.31073E+02 -2.42500E+02 -2.48676E+02 -2.52588E+02 -2.54482E+02 -2.49011E+02 -2.46373E+02
  -2.36884E+02 -2.27761E+02 -2.13373E+02 -2.04924E+02 -1.90676E+02 -1.77388E+02 -1.64563E+02 -1.49912E+02 -1.33388E+02 -1.22355E+02
  -1.12408E+02 -9.65377E+01 -8.75407E+01 -7.96855E+01 -6.95258E+01 -6.05820E+01 -5.36585E+01 -4.76746E+01 -4.32165E+01 -3.61386E+01
  -2.88129E+01 -2.43961E+01 -2.34432E+01 -1.79845E+01 -1.39228E+01 -1.13974E+01 -5.02082E+00 -3.96261E+00 -2.03772E+00  1.77163E+00
   6.93487E+00  5.52359E+00  6.57210E+00  1.01017E+01  8.61175E+00  1.29599E+01  1.17304E+01  1.32398E+01  1.22916E+01  1.35857E+01
   1.45247E+01  1.26915E+01  1.24410E+01  1.34861E+01  1.17885E+01  1.24873E+01  1.71437E+01  1.66437E+01  1.38297E+01  1.26984E+01
   1.12767E+01  1.52933E+01  1.54169E+01  1.50532E+01  1.67623E+01  1.66607E+01  1.64432E+01  1.82536E+01  1.87142E+01  1.95913E+01
   1.86654E+01  1.91228E+01  2.52041E+01  2.49214E+01  2.22966E+01  2.34885E+01  2.50139E+01  2.82073E+01  2.84267E+01  2.73058E+01
   3.06507E+01  3.01015E+01  2.89635E+01  2.98501E+01  3.18334E+01  3.04308E+01  3.44950E+01  3.31153E+01  3.22244E+01  3.30080E+01
   3.56384E+01  3.78482E+01  3.50298E+01  3.56533E+01  3.67443E+01  3.71338E+01  3.51796E+01  3.46552E+01  3.83299E+01  3.87378E+01
   3.65438E+01  3.76624E+01  3.47717E+01  3.81876E+01  3.63922E+01  3.63571E+01  3.66735E+01  3.66714E+01  3.45729E+01  3.44748E+01
   3.68836E+01  3.31915E+01  3.48342E+01  3.48146E+01  3.53288E+01  3.63014E+01  3.42569E+01  3.44906E+01  3.36588E+01  3.32773E+01
   3.40734E+01  3.37038E+01  3.24453E+01  3.38431E+01  2.89949E+01  2.97748E+01  3.21967E+01  3.00066E+01  3.16636E+01  3.14754E+01
   2.88007E+01  3.12443E+01  2.75874E+01  3.00362E+01  2.68723E+01  2.39474E+01  2.72928E+01  2.62372E+01  2.65867E+01  2.35966E+01
   2.14998E+01  2.20859E+01  2.44191E+01  2.11714E+01  1.65891E+01  2.36288E+01  2.18789E+01  1.82013E+01  1.94419E+01  1.98014E+01
   1.95974E+01  1.72911E+01  1.91380E+01  1.76966E+01  1.70260E+01  1.96453E+01  1.83175E+01  1.45625E+01  1.69741E+01  1.58770E+01
   1.41247E+01  1.18509E+01  1.23752E+01  1.41105E+01  1.17194E+01  7.75424E+00  9.43322E+00  1.07396E+01  8.01344E+00  9.24331E+00
   7.90278E+00  9.30771E+00  4.83223E+00  7.57150E+00  6.72232E+00  6.87008E+00  6.37299E+00  4.33898E+00  7.02499E+00  2.79737E+00
   4.97948E+00  5.48226E+00  2.76532E+00  1.66931E+00  3.76425E+00  3.04180E+00 -4.36782E-01 -7.34717E-01  1.40120E+00 -2.39627E+00
  -2.69641E+00 -1.05773E+00  7.03496E-01 -2.45280E+00 -2.56575E+00 -4.78596E+00 -2.82731E+00 -5.60166E+00 -3.58948E+00 -5.16069E+00
  -3.25578E+00 -3.68688E+00 -4.87626E+00 -8.13392E+00 -4.59772E+00 -6.99097E+00 -8.04533E+00 -6.37258E+00 -6.42693E+00 -8.94234E+00
  -9.47899E+00 -6.68415E+00 -7.57913E+00 -1.08479E+01 -8.58232E+00 -8.71095E+00 -1.01642E+01 -8.56609E+00
 NY points of the fit to the data follow
   1.13490E+01  7.74381E+00  4.26752E+00  8.93793E-01 -2.22138E+00 -5.21035E+00 -7.80063E+00 -1.02219E+01 -1.20671E+01 -1.36402E+01
  -1.45498E+01 -1.51182E+01 -1.50706E+01 -1.49377E+01 -1.37506E+01 -1.32957E+01 -1.21685E+01 -1.12270E+01 -1.02201E+01 -9.33755E+00
  -8.62434E+00 -7.97921E+00 -7.42327E+00 -6.82776E+00 -6.32208E+00 -5.68941E+00 -5.17753E+00 -4.51700E+00 -3.69197E+00 -2.95457E+00
  -2.21204E+00 -2.12263E+00 -1.64480E+00 -1.83702E+00 -1.55655E+00 -1.82076E+00 -1.55058E+00 -1.77074E+00 -1.70141E+00 -2.31870E+00
  -2.31934E+00 -2.98132E+00 -2.86162E+00 -3.48903E+00 -3.69009E+00 -4.48743E+00 -4.98216E+00 -5.80367E+00 -6.50702E+00 -7.26390E+00
  -8.16447E+00 -8.76480E+00 -1.00863E+01 -1.03644E+01 -1.18927E+01 -1.21175E+01 -1.36091E+01 -1.33465E+01 -1.50944E+01 -1.47645E+01
  -1.69207E+01 -1.68983E+01 -1.91542E+01 -1.87142E+01 -2.06142E+01 -1.95334E+01 -2.05224E+01 -1.79452E+01 -1.81894E+01 -1.51537E+01
  -1.59691E+01 -1.42654E+01 -1.59252E+01 -1.48194E+01 -1.66590E+01 -1.60786E+01 -1.77952E+01 -1.76854E+01 -1.87485E+01 -1.90854E+01
  -1.90588E+01 -1.96890E+01 -1.89337E+01 -2.01741E+01 -1.84735E+01 -1.97622E+01 -1.74986E+01 -1.97490E+01 -1.67434E+01 -1.95501E+01
  -1.58766E+01 -1.86769E+01 -1.46507E+01 -1.69164E+01 -1.23399E+01 -1.41766E+01 -9.53133E+00 -1.07178E+01 -6.85818E+00 -8.10455E+00
  -5.18069E+00 -6.14393E+00 -4.01338E+00 -4.23058E+00 -2.62154E+00 -1.99896E+00 -9.68272E-01  4.29497E-01  4.22692E-01  3.83481E-01
  -4.87666E-01 -1.32517E+00 -2.35793E+00 -3.64383E+00 -4.71452E+00 -6.61658E+00 -7.56551E+00 -9.69681E+00 -9.98705E+00 -1.21706E+01
  -1.15971E+01 -1.35427E+01 -1.24420E+01 -1.30110E+01 -1.09560E+01 -9.21131E+00 -7.20973E+00 -5.70883E+00 -4.20590E+00 -2.92281E+00
  -1.70266E+00 -7.15528E-01  2.81661E-01  1.09896E+00  1.94882E+00  2.66851E+00  3.41902E+00  4.06463E+00  4.74234E+00  5.32554E+00
   5.92353E+00  6.39482E+00  6.90793E+00  7.29295E+00  7.93674E+00  8.30741E+00  9.19850E+00  9.62719E+00  1.06574E+01  1.11113E+01
   1.22263E+01  1.26300E+01  1.38473E+01  1.41989E+01  1.54854E+01  1.58116E+01  1.71355E+01  1.74033E+01  1.86270E+01  1.90478E+01
   2.02840E+01  2.07864E+01  2.18013E+01  2.22289E+01  2.30539E+01  2.38898E+01  2.47362E+01  2.58822E+01  2.65392E+01  2.75757E+01
   2.83132E+01  2.93207E+01  3.01673E+01  3.10377E+01  3.19619E+01  3.26879E+01  3.38869E+01  3.44273E+01  3.60022E+01  3.62125E+01
   3.79052E+01  3.75346E+01  3.93923E+01  3.84951E+01  4.09098E+01  3.99446E+01  4.29328E+01  4.19935E+01  4.50501E+01  4.41162E+01
   4.69357E+01  4.59804E+01  4.83636E+01  4.75168E+01  4.93042E+01  4.84087E+01  4.95531E+01  4.86957E+01  4.90033E+01  4.84116E+01
   4.81933E+01  4.75731E+01  4.66935E+01  4.57935E+01  4.46860E+01  4.37387E+01  4.26459E+01  4.13915E+01  4.02124E+01  3.85397E+01
   3.77552E+01  3.58817E+01  3.52666E+01  3.31303E+01  3.25933E+01  3.03669E+01  3.01852E+01  2.80035E+01  2.80575E+01  2.60536E+01
   2.59718E+01  2.41663E+01  2.40441E+01  2.27148E+01  2.26946E+01  2.20256E+01  2.22738E+01  2.20202E+01  2.23669E+01  2.24929E+01
   2.28868E+01  2.33860E+01  2.37492E+01  2.46397E+01  2.50924E+01  2.60715E+01  2.68294E+01  2.79994E+01  2.89040E+01  3.00832E+01
   3.11569E+01  3.34982E+01  3.95857E+01  4.24914E+01  4.83862E+01  5.03537E+01  5.53272E+01  5.62886E+01  6.09606E+01  6.12540E+01
   6.62227E+01  6.60502E+01  7.09746E+01  7.03385E+01  7.45504E+01  7.34793E+01  7.64198E+01  7.49383E+01  7.61549E+01  7.43074E+01
   7.32119E+01  7.08129E+01  6.67002E+01  6.34552E+01  5.58320E+01  5.12193E+01  3.93451E+01  3.29428E+01  1.66759E+01  8.37331E+00
  -1.14622E+01 -2.15571E+01 -4.42751E+01 -5.60568E+01 -8.08635E+01 -9.41832E+01 -1.20044E+02 -1.34502E+02 -1.59761E+02 -1.73942E+02
  -1.93516E+02 -2.04059E+02 -2.10985E+02 -2.16583E+02 -2.21210E+02 -2.24888E+02 -2.27564E+02 -2.29114E+02 -2.29433E+02 -2.28363E+02
  -2.25802E+02 -2.21619E+02 -2.15776E+02 -2.08176E+02 -1.98922E+02 -1.88017E+02 -1.75713E+02 -1.62152E+02 -1.47723E+02 -1.32692E+02
  -1.17553E+02 -1.02614E+02 -8.83648E+01 -7.50852E+01 -6.31511E+01 -5.27134E+01 -4.39627E+01 -3.68607E+01 -3.13832E+01 -2.73240E+01
  -2.44772E+01 -2.25240E+01 -2.11665E+01 -2.00775E+01 -1.89717E+01 -1.76023E+01 -1.57952E+01 -1.34400E+01 -1.05135E+01 -7.05536E+00
  -3.17937E+00  9.61989E-01  5.17296E+00  9.25512E+00  1.30033E+01  1.62455E+01  1.88326E+01  2.06720E+01  2.17103E+01  2.19580E+01
   2.14645E+01  2.03360E+01  1.87023E+01  1.67301E+01  1.45875E+01  1.24563E+01  1.04973E+01  8.86335E+00  7.66716E+00  6.99862E+00
   6.89750E+00  7.37623E+00  8.39771E+00  9.90262E+00  1.17919E+01  1.39580E+01  1.62699E+01  1.86061E+01  2.08396E+01  2.28703E+01
   2.46069E+01  2.59979E+01  2.70090E+01  2.76494E+01  2.79451E+01  2.79604E+01  2.77670E+01  2.74631E+01  2.71394E+01  2.68974E+01
   2.68147E+01  2.69648E+01  2.73854E+01  2.81008E+01  2.90950E+01  3.03377E+01  3.17625E+01  3.32970E+01  3.48441E+01  3.63152E+01
   3.76122E+01  3.86611E+01  3.93926E+01  3.97727E+01  3.97807E+01  3.94359E+01  3.87700E+01  3.78506E+01  3.67492E+01  3.55620E+01
   3.43761E+01  3.32888E+01  3.23743E+01  3.17043E+01  3.13176E+01  3.12430E+01  3.14728E+01  3.19899E+01  3.27434E+01  3.36795E+01
   3.47198E+01  3.57934E+01  3.68156E+01  3.77198E+01  3.84360E+01  3.89201E+01  3.91305E+01  3.90558E+01  3.86883E+01  3.80490E+01
   3.71597E+01  3.60666E+01  3.48105E+01  3.34506E+01  3.20341E+01  3.06200E+01  2.92503E+01  2.79737E+01  2.68187E+01  2.58181E+01
   2.49831E+01  2.43290E+01  2.38498E+01  2.35456E+01  2.33968E+01  2.33919E+01  2.35027E+01  2.37115E+01  2.39858E+01  2.43061E+01
   2.46404E+01  2.49707E+01  2.52681E+01  2.55190E+01  2.56997E+01  2.58026E+01  2.58098E+01  2.57198E+01  2.55206E+01  2.52164E+01
   2.48007E+01  2.42822E+01  2.36589E+01  2.29430E+01  2.21354E+01  2.12509E+01  2.02922E+01  1.92754E+01  1.82037E+01  1.70936E+01
   1.59484E+01  1.47839E+01  1.36029E+01  1.24201E+01  1.12372E+01  1.00677E+01  8.91186E+00  7.78202E+00  6.67713E+00  5.60809E+00
   4.57247E+00  3.57993E+00  2.62701E+00  1.72230E+00  8.61333E-01  5.17055E-02 -7.11808E-01 -1.42242E+00 -2.08590E+00 -2.69602E+00
  -3.25908E+00 -3.76939E+00 -4.23353E+00 -4.64615E+00 -5.01407E+00 -5.33212E+00 -5.60729E+00 -5.83470E+00 -6.02139E+00 -6.16249E+00
  -6.26509E+00 -6.32441E+00 -6.34750E+00 -6.32975E+00 -6.27814E+00 -6.18795E+00 -6.06614E+00 -5.90803E+00 -5.72056E+00 -5.49905E+00
  -5.25029E+00 -4.96960E+00 -4.66366E+00 -4.32791E+00 -3.96901E+00 -3.58227E+00 -3.17427E+00 -2.74036E+00 -2.28713E+00 -1.81004E+00
  -1.31564E+00 -7.99403E-01 -2.67853E-01  2.83293E-01  8.47354E-01  1.42840E+00  2.01936E+00  2.62388E+00
 NY background values follow
    -8.727E+01   -8.842E+01   -8.956E+01   -9.068E+01   -9.178E+01   -9.288E+01   -9.396E+01   -9.502E+01   -9.607E+01   -9.711E+01
    -9.814E+01   -9.916E+01   -1.002E+02   -1.011E+02   -1.021E+02   -1.031E+02   -1.040E+02   -1.050E+02   -1.059E+02   -1.068E+02
    -1.077E+02   -1.086E+02   -1.095E+02   -1.104E+02   -1.113E+02   -1.121E+02   -1.129E+02   -1.138E+02   -1.146E+02   -1.154E+02
    -1.162E+02   -1.169E+02   -1.177E+02   -1.184E+02   -1.192E+02   -1.199E+02   -1.206E+02   -1.213E+02   -1.220E+02   -1.226E+02
    -1.233E+02   -1.239E+02   -1.245E+02   -1.251E+02   -1.257E+02   -1.263E+02   -1.268E+02   -1.274E+02   -1.279E+02   -1.284E+02
    -1.289E+02   -1.293E+02   -1.298E+02   -1.302E+02   -1.306E+02   -1.310E+02   -1.313E+02   -1.317E+02   -1.320E+02   -1.323E+02
    -1.325E+02   -1.328E+02   -1.330E+02   -1.332E+02   -1.333E+02   -1.335E+02   -1.336E+02   -1.337E+02   -1.337E+02   -1.337E+02
    -1.337E+02   -1.337E+02   -1.336E+02   -1.335E+02   -1.333E+02   -1.332E+02   -1.330E+02   -1.327E+02   -1.324E+02   -1.321E+02
    -1.317E+02   -1.313E+02   -1.309E+02   -1.304E+02   -1.299E+02   -1.293E+02   -1.287E+02   -1.281E+02   -1.274E+02   -1.266E+02
    -1.259E+02   -1.251E+02   -1.242E+02   -1.234E+02   -1.224E+02   -1.215E+02   -1.205E+02   -1.195E+02   -1.184E+02   -1.173E+02
    -1.162E+02   -1.151E+02   -1.139E+02   -1.127E+02   -1.114E+02   -1.101E+02   -1.088E+02   -1.075E+02   -1.062E+02   -1.048E+02
    -1.034E+02   -1.020E+02   -1.005E+02   -9.904E+01   -9.756E+01   -9.605E+01   -9.452E+01   -9.298E+01   -9.142E+01   -8.985E+01
    -8.826E+01   -8.666E+01   -8.505E+01   -8.343E+01   -8.180E+01   -8.016E+01   -7.851E+01   -7.686E+01   -7.520E+01   -7.354E+01
    -7.188E+01   -7.022E+01   -6.856E+01   -6.690E+01   -6.524E+01   -6.358E+01   -6.194E+01   -6.030E+01   -5.866E+01   -5.704E+01
    -5.543E+01   -5.383E+01   -5.224E+01   -5.067E+01   -4.912E+01   -4.758E+01   -4.606E+01   -4.457E+01   -4.309E+01   -4.164E+01
    -4.021E+01   -3.881E+01   -3.744E+01   -3.610E+01   -3.479E+01   -3.351E+01   -3.226E+01   -3.105E+01   -2.988E+01   -2.874E+01
    -2.765E+01   -2.659E+01   -2.558E+01   -2.461E+01   -2.369E+01   -2.282E+01   -2.199E+01   -2.121E+01   -2.049E+01   -1.981E+01
    -1.919E+01   -1.861E+01   -1.809E+01   -1.762E+01   -1.720E+01   -1.682E+01   -1.651E+01   -1.624E+01   -1.602E+01   -1.586E+01
    -1.574E+01   -1.568E+01   -1.567E+01   -1.572E+01   -1.581E+01   -1.596E+01   -1.616E+01   -1.641E+01   -1.671E+01   -1.706E+01
    -1.747E+01   -1.793E+01   -1.844E+01   -1.900E+01   -1.961E+01   -2.028E+01   -2.099E+01   -2.176E+01   -2.258E+01   -2.345E+01
    -2.437E+01   -2.534E+01   -2.636E+01   -2.744E+01   -2.856E+01   -2.973E+01   -3.096E+01   -3.223E+01   -3.356E+01   -3.493E+01
    -3.635E+01   -3.782E+01   -3.934E+01   -4.091E+01   -4.253E+01   -4.419E+01   -4.590E+01   -4.766E+01   -4.947E+01   -5.132E+01
    -5.322E+01   -5.517E+01   -5.716E+01   -5.920E+01   -6.128E+01   -6.340E+01   -6.558E+01   -6.779E+01   -7.005E+01   -7.235E+01
    -7.470E+01   -7.709E+01   -7.952E+01   -8.199E+01   -8.450E+01   -8.705E+01   -8.965E+01   -9.228E+01   -9.496E+01   -9.767E+01
    -1.004E+02   -1.032E+02   -1.060E+02   -1.089E+02   -1.118E+02   -1.147E+02   -1.177E+02   -1.207E+02   -1.238E+02   -1.268E+02
    -1.299E+02   -1.331E+02   -1.363E+02   -1.395E+02   -1.427E+02   -1.459E+02   -1.492E+02   -1.525E+02   -1.558E+02   -1.592E+02
    -1.625E+02   -1.659E+02   -1.693E+02   -1.727E+02   -1.762E+02   -1.796E+02   -1.830E+02   -1.865E+02   -1.900E+02   -1.934E+02
    -1.969E+02   -2.004E+02   -2.038E+02   -2.073E+02   -2.108E+02   -2.143E+02   -2.177E+02   -2.212E+02   -2.247E+02   -2.281E+02
    -2.316E+02   -2.350E+02   -2.384E+02   -2.418E+02   -2.452E+02   -2.485E+02   -2.519E+02   -2.552E+02   -2.585E+02   -2.618E+02
    -2.651E+02   -2.683E+02   -2.715E+02   -2.747E+02   -2.779E+02   -2.810E+02   -2.841E+02   -2.871E+02   -2.901E+02   -2.931E+02
    -2.961E+02   -2.990E+02   -3.018E+02   -3.047E+02   -3.074E+02   -3.102E+02   -3.129E+02   -3.155E+02   -3.181E+02   -3.207E+02
    -3.232E+02   -3.256E+02   -3.280E+02   -3.304E+02   -3.327E+02   -3.349E+02   -3.371E+02   -3.392E+02   -3.412E+02   -3.432E+02
    -3.452E+02   -3.471E+02   -3.489E+02   -3.506E+02   -3.523E+02   -3.539E+02   -3.555E+02   -3.569E+02   -3.584E+02   -3.597E+02
    -3.610E+02   -3.622E+02   -3.633E+02   -3.643E+02   -3.653E+02   -3.662E+02   -3.671E+02   -3.679E+02   -3.686E+02   -3.692E+02
    -3.698E+02   -3.703E+02   -3.707E+02   -3.711E+02   -3.714E+02   -3.717E+02   -3.719E+02   -3.720E+02   -3.721E+02   -3.721E+02
    -3.720E+02   -3.719E+02   -3.718E+02   -3.716E+02   -3.713E+02   -3.710E+02   -3.706E+02   -3.702E+02   -3.698E+02   -3.692E+02
    -3.687E+02   -3.681E+02   -3.674E+02   -3.667E+02   -3.660E+02   -3.652E+02   -3.643E+02   -3.634E+02   -3.625E+02   -3.616E+02
    -3.606E+02   -3.595E+02   -3.585E+02   -3.574E+02   -3.562E+02   -3.550E+02   -3.538E+02   -3.526E+02   -3.513E+02   -3.500E+02
    -3.486E+02   -3.473E+02   -3.459E+02   -3.444E+02   -3.430E+02   -3.415E+02   -3.400E+02   -3.385E+02   -3.369E+02   -3.353E+02
    -3.337E+02   -3.321E+02   -3.305E+02   -3.288E+02   -3.271E+02   -3.254E+02   -3.237E+02   -3.219E+02   -3.202E+02   -3.184E+02
    -3.166E+02   -3.148E+02   -3.130E+02   -3.112E+02   -3.094E+02   -3.075E+02   -3.056E+02   -3.038E+02   -3.019E+02   -3.000E+02
    -2.981E+02   -2.962E+02   -2.943E+02   -2.923E+02   -2.904E+02   -2.885E+02   -2.865E+02   -2.846E+02   -2.826E+02   -2.807E+02
    -2.787E+02   -2.768E+02   -2.748E+02   -2.728E+02   -2.709E+02   -2.689E+02   -2.669E+02   -2.649E+02   -2.629E+02   -2.609E+02
    -2.590E+02   -2.570E+02   -2.550E+02   -2.530E+02   -2.510E+02   -2.490E+02   -2.470E+02   -2.450E+02   -2.430E+02   -2.410E+02
    -2.390E+02   -2.370E+02   -2.350E+02   -2.330E+02   -2.310E+02   -2.290E+02   -2.270E+02   -2.250E+02   -2.230E+02   -2.210E+02
    -2.190E+02   -2.170E+02   -2.150E+02   -2.130E+02   -2.110E+02   -2.090E+02   -2.070E+02   -2.050E+02   -2.030E+02   -2.010E+02
    -1.991E+02   -1.971E+02   -1.951E+02   -1.931E+02   -1.911E+02   -1.892E+02   -1.872E+02   -1.852E+02   -1.833E+02   -1.813E+02
    -1.793E+02   -1.774E+02   -1.754E+02   -1.734E+02   -1.715E+02   -1.695E+02   -1.676E+02   -1.656E+02   -1.637E+02   -1.617E+02
    -1.598E+02   -1.578E+02   -1.559E+02   -1.540E+02   -1.520E+02   -1.501E+02   -1.481E+02   -1.462E+02   -1.443E+02   -1.423E+02
    -1.404E+02   -1.385E+02   -1.365E+02   -1.346E+02   -1.327E+02   -1.308E+02   -1.288E+02   -1.269E+02
 Asp      Conc. = 4.70E+03
