 LCModel (Version 6.3-1L) Copyright: S.W. Provencher.          Ref.: Magn. Reson. Med. 30:672-679 (1993).                
 Slice#2 Row#5 Col#5  PD_24_press_2_raw_act
 36 lines in following concentration table = NCONC+1
    Conc.  %SD /Cr+PCr  Metabolite                                         
 1.04E+03  32%   0.430 Ala                                                 
  104.678 434% 4.3E-02 Asp                                                 
  533.709 117%   0.221 Cr                                                  
 1.88E+03  35%   0.779 PCr                                                 
  142.075 205% 5.9E-02 GABA                                                
  430.372  67%   0.179 Glc                                                 
 1.50E+03  42%   0.622 Gln                                                 
 2.28E+03  32%   0.947 Glu                                                 
 1.05E+03   6%   0.434 GPC                                                 
    0.000 999%   0.000 PCh                                                 
  920.946  23%   0.382 GSH                                                 
 3.56E+03  21%   1.479 Ins                                                 
  201.863 182% 8.4E-02 Lac                                                 
 3.56E+03   5%   1.478 NAA                                                 
    0.000 999%   0.000 NAAG                                                
  281.490  23%   0.117 Scyllo                                              
  847.803  51%   0.352 Tau                                                 
  434.286  69%   0.180 -CrCH2                                              
 1.05E+03   6%   0.434 GPC+PCh                                             
 3.56E+03   5%   1.478 NAA+NAAG                                            
 2.41E+03   6%   1.000 Cr+PCr                                              
 3.78E+03  27%   1.569 Glu+Gln                                             
 5.56E+03  26%   2.306 Lip13a                                              
  401.257 126%   0.166 Lip13b                                              
    0.000 999%   0.000 Lip09                                               
 2.36E+03  19%   0.979 MM09                                                
 1.29E+03  40%   0.536 Lip20                                               
 4.25E+03  17%   1.763 MM20                                                
  734.160  29%   0.305 MM12                                                
 4.39E+03  10%   1.822+MM14                                                
    0.000 999%   0.000 MM17                                                
 5.96E+03  21%   2.472 Lip13a+Lip13b                                       
 1.11E+04  11%   4.599 MM14+Lip13a+Lip13b+MM12                             
 2.36E+03  19%   0.979 MM09+Lip09                                          
 5.54E+03  14%   2.299 MM20+Lip20                                          
   6 lines in following misc. output table
  FWHM = 0.061 ppm    S/N =   7                                            
  Data shift = 0.015 ppm                                                   
  Ph: -25 deg      -5.4 deg/ppm                                            
  alphaB,S = 1.2E+00,   8.2E+01                                            
   14 spline knots.   Ns = 7(1)                                            
  (10) 2 infls.   (11) 1 extrs.                                            
  498 points on ppm-axis = NY
      4.000000     3.992357     3.984714     3.977070     3.969427     3.961784     3.954141     3.946497     3.938854     3.931211
      3.923568     3.915925     3.908281     3.900638     3.892995     3.885352     3.877708     3.870065     3.862422     3.854779
      3.847136     3.839492     3.831849     3.824206     3.816563     3.808919     3.801276     3.793633     3.785990     3.778347
      3.770703     3.763060     3.755417     3.747774     3.740130     3.732487     3.724844     3.717201     3.709558     3.701914
      3.694271     3.686628     3.678985     3.671341     3.663698     3.656055     3.648412     3.640769     3.633125     3.625482
      3.617839     3.610196     3.602552     3.594909     3.587266     3.579623     3.571980     3.564336     3.556693     3.549050
      3.541407     3.533763     3.526120     3.518477     3.510834     3.503191     3.495547     3.487904     3.480261     3.472618
      3.464974     3.457331     3.449688     3.442045     3.434402     3.426758     3.419115     3.411472     3.403829     3.396185
      3.388542     3.380899     3.373256     3.365613     3.357969     3.350326     3.342683     3.335040     3.327396     3.319753
      3.312110     3.304467     3.296824     3.289180     3.281537     3.273894     3.266251     3.258607     3.250964     3.243321
      3.235678     3.228034     3.220391     3.212748     3.205105     3.197462     3.189818     3.182175     3.174532     3.166889
      3.159245     3.151602     3.143959     3.136316     3.128673     3.121029     3.113386     3.105743     3.098100     3.090456
      3.082813     3.075170     3.067527     3.059884     3.052240     3.044597     3.036954     3.029311     3.021667     3.014024
      3.006381     2.998738     2.991095     2.983451     2.975808     2.968165     2.960522     2.952878     2.945235     2.937592
      2.929949     2.922306     2.914662     2.907019     2.899376     2.891733     2.884089     2.876446     2.868803     2.861160
      2.853517     2.845873     2.838230     2.830587     2.822944     2.815300     2.807657     2.800014     2.792371     2.784728
      2.777084     2.769441     2.761798     2.754155     2.746511     2.738868     2.731225     2.723582     2.715939     2.708295
      2.700652     2.693009     2.685366     2.677722     2.670079     2.662436     2.654793     2.647150     2.639506     2.631863
      2.624220     2.616577     2.608933     2.601290     2.593647     2.586004     2.578361     2.570717     2.563074     2.555431
      2.547788     2.540144     2.532501     2.524858     2.517215     2.509572     2.501928     2.494285     2.486642     2.478999
      2.471355     2.463712     2.456069     2.448426     2.440783     2.433139     2.425496     2.417853     2.410210     2.402566
      2.394923     2.387280     2.379637     2.371994     2.364350     2.356707     2.349064     2.341421     2.333777     2.326134
      2.318491     2.310848     2.303205     2.295561     2.287918     2.280275     2.272632     2.264988     2.257345     2.249702
      2.242059     2.234416     2.226772     2.219129     2.211486     2.203843     2.196199     2.188556     2.180913     2.173270
      2.165627     2.157983     2.150340     2.142697     2.135054     2.127410     2.119767     2.112124     2.104481     2.096838
      2.089194     2.081551     2.073908     2.066265     2.058621     2.050978     2.043335     2.035692     2.028049     2.020405
      2.012762     2.005119     1.997476     1.989833     1.982190     1.974546     1.966903     1.959260     1.951617     1.943974
      1.936331     1.928688     1.921045     1.913402     1.905759     1.898115     1.890472     1.882829     1.875186     1.867543
      1.859900     1.852257     1.844614     1.836971     1.829327     1.821684     1.814041     1.806398     1.798755     1.791112
      1.783469     1.775826     1.768183     1.760540     1.752896     1.745253     1.737610     1.729967     1.722324     1.714681
      1.707038     1.699395     1.691752     1.684108     1.676465     1.668822     1.661179     1.653536     1.645893     1.638250
      1.630607     1.622964     1.615321     1.607677     1.600034     1.592391     1.584748     1.577105     1.569462     1.561819
      1.554176     1.546533     1.538890     1.531246     1.523603     1.515960     1.508317     1.500674     1.493031     1.485388
      1.477745     1.470102     1.462458     1.454815     1.447172     1.439529     1.431886     1.424243     1.416600     1.408957
      1.401314     1.393671     1.386027     1.378384     1.370741     1.363098     1.355455     1.347812     1.340169     1.332526
      1.324883     1.317240     1.309596     1.301953     1.294310     1.286667     1.279024     1.271381     1.263738     1.256095
      1.248452     1.240808     1.233165     1.225522     1.217879     1.210236     1.202593     1.194950     1.187307     1.179664
      1.172021     1.164377     1.156734     1.149091     1.141448     1.133805     1.126162     1.118519     1.110876     1.103233
      1.095590     1.087946     1.080303     1.072660     1.065017     1.057374     1.049731     1.042088     1.034445     1.026802
      1.019158     1.011515     1.003872     0.996229     0.988586     0.980943     0.973300     0.965657     0.958014     0.950371
      0.942727     0.935084     0.927441     0.919798     0.912155     0.904512     0.896869     0.889226     0.881583     0.873940
      0.866296     0.858653     0.851010     0.843367     0.835724     0.828081     0.820438     0.812795     0.805152     0.797508
      0.789865     0.782222     0.774579     0.766936     0.759293     0.751650     0.744007     0.736364     0.728721     0.721077
      0.713434     0.705791     0.698148     0.690505     0.682862     0.675219     0.667576     0.659933     0.652290     0.644646
      0.637003     0.629360     0.621717     0.614074     0.606431     0.598788     0.591145     0.583502     0.575858     0.568215
      0.560572     0.552929     0.545286     0.537643     0.530000     0.522357     0.514714     0.507071     0.499427     0.491784
      0.484141     0.476498     0.468855     0.461212     0.453569     0.445925     0.438282     0.430639     0.422996     0.415353
      0.407710     0.400067     0.392424     0.384780     0.377137     0.369494     0.361851     0.354208     0.346565     0.338922
      0.331278     0.323635     0.315992     0.308349     0.300706     0.293063     0.285420     0.277777     0.270133     0.262490
      0.254847     0.247204     0.239561     0.231918     0.224275     0.216631     0.208988     0.201345
 NY phased data points follow
  -1.10953E+02 -9.76432E+01 -1.05287E+02 -8.53883E+01 -7.80916E+01 -6.77500E+01 -5.96814E+01 -4.90783E+01 -4.06184E+01 -3.53899E+01
  -3.57564E+01 -1.67256E+01 -4.64949E+01 -2.14319E+01 -6.36855E+01 -4.80918E+01 -8.04126E+01 -5.75442E+01 -7.16501E+01 -6.46073E+01
  -7.84193E+01 -5.85855E+01 -6.72611E+01 -5.91026E+01 -6.11955E+01 -4.81215E+01 -4.53643E+01 -4.19547E+01 -4.76183E+01 -4.91825E+01
  -5.41643E+01 -4.37837E+01 -5.78286E+01 -4.87217E+01 -5.26906E+01 -4.28501E+01 -6.20977E+01 -4.31728E+01 -5.39099E+01 -4.07220E+01
  -5.39067E+01 -5.03577E+01 -3.67437E+01 -2.92307E+01 -4.20315E+01 -3.34128E+01 -4.18077E+01 -2.22557E+01 -3.78075E+01 -3.94611E+01
  -4.18359E+01 -3.12514E+01 -4.45516E+01 -4.48387E+01 -4.46706E+01 -3.07134E+01 -4.53945E+01 -3.92610E+01 -4.61569E+01 -3.77212E+01
  -4.07282E+01 -3.77761E+01 -4.77214E+01 -4.74293E+01 -6.20510E+01 -5.25236E+01 -4.84464E+01 -5.22861E+01 -5.02091E+01 -4.57780E+01
  -3.86830E+01 -3.84591E+01 -3.75362E+01 -3.36763E+01 -4.01773E+01 -3.14881E+01 -4.39443E+01 -2.77614E+01 -3.12011E+01 -3.54272E+01
  -4.52737E+01 -3.93368E+01 -2.91731E+01 -2.77375E+01 -3.82641E+01 -2.20353E+01 -3.66173E+01 -2.24706E+01 -3.91364E+01 -4.32169E+01
  -3.29520E+01 -2.58263E+01 -3.33500E+01 -2.96253E+01 -3.39452E+01 -2.35159E+01 -3.61894E+01 -2.03262E+01 -2.37275E+01  1.35243E+00
   1.19623E+01  4.73348E+01  3.94298E+01  5.47744E+01  4.62104E+01  4.35834E+01  3.15480E+01  6.78914E+00 -4.82585E+00 -1.08985E+01
  -1.86385E+01 -1.95758E+01 -3.57289E+01 -1.65131E+01 -2.43467E+01 -2.78174E+01 -4.39286E+01 -3.25042E+01 -4.41881E+01 -4.91211E+01
  -4.46144E+01 -2.45177E+01 -2.24200E+01 -2.70414E+00  1.24224E+01  2.88525E+01  4.40564E+01  5.26178E+01  3.42316E+01  3.42959E+01
   2.83247E+01  1.81191E+01 -3.39862E+00 -7.52515E+00 -2.24736E+01 -2.70915E+01 -1.66344E+01 -1.15778E+01 -3.14295E+01 -2.39620E+01
  -3.15907E+01 -3.20294E+01 -2.88209E+01 -2.85945E+01 -3.52965E+01 -3.66564E+01 -3.89677E+01 -2.47844E+01 -3.00866E+01 -3.04540E+01
  -3.48776E+01 -3.44026E+01 -4.13641E+01 -2.04277E+01 -3.71341E+01 -2.70226E+01 -3.27797E+01 -2.01065E+01 -2.94904E+01 -2.61880E+01
  -3.44448E+01 -1.38908E+01 -2.87988E+01 -3.58920E+01 -2.47161E+01 -3.31931E+01 -2.94724E+01 -2.46458E+01 -3.05232E+01 -2.92110E+01
  -2.76304E+01 -2.45953E+01 -4.75321E+01 -3.99692E+01 -4.37192E+01 -4.33418E+01 -3.07940E+01 -3.87765E+01 -4.71674E+01 -3.89201E+01
  -3.59199E+01 -3.40262E+01 -3.92852E+01 -4.24790E+01 -4.98460E+01 -3.30114E+01 -4.35240E+01 -1.90738E+01 -2.13154E+01 -1.53526E+01
  -1.54668E+01 -2.42455E+01 -1.89441E+01 -1.47133E+01 -1.97675E+01 -2.21342E+01 -2.95571E+01 -1.82248E+01 -2.26340E+01 -1.73427E+01
  -1.79338E+01 -1.61711E+01 -7.89784E+00 -1.30589E+01 -1.91850E+01 -2.73674E+01 -3.53417E+01 -3.26870E+01 -2.77534E+01 -2.54214E+01
  -3.07157E+01 -1.76147E+01 -1.85133E+01 -4.97061E+00 -7.44967E+00 -2.11246E+00 -2.07771E+00 -2.20718E-01  1.66242E-01 -1.36808E+01
  -1.81117E+01 -2.18409E+01 -1.27501E+01 -9.87599E+00 -1.08657E+01 -1.09755E+01  1.24327E+00 -5.18284E+00  3.88145E-01 -2.58793E-01
  -9.79608E+00  5.94391E+00 -4.69582E+00  1.51393E+01 -6.57325E+00  2.26549E-01  1.96764E+00 -4.54009E+00 -3.40538E+00  3.75663E+00
  -5.86992E-01 -9.39376E+00 -1.46536E+01 -5.47484E+00 -8.67596E+00  1.28799E+01  8.06405E+00  7.78975E+00  1.67669E+01  4.62924E-02
  -1.10909E+01 -5.26731E+00 -3.12140E+00  3.44752E+00  6.64960E+00  2.07756E+01  3.69613E+01  7.59867E+01  1.01373E+02  1.11597E+02
   1.03577E+02  1.02835E+02  9.44847E+01  7.63560E+01  5.12486E+01  4.14392E+01  2.85166E+01  1.74193E+01  9.81421E-02  3.03700E+00
   1.14407E+00 -1.63511E-01  4.46635E+00  3.03488E-01 -1.14923E+01 -8.19950E+00 -5.49439E+00 -2.36184E+00 -7.95544E+00 -2.67350E+00
  -5.25034E+00 -3.78091E+00 -1.21015E+01 -9.31371E+00 -1.49009E+01 -1.32437E+01 -9.54735E+00 -1.58499E+01 -1.34376E+01 -1.80314E+01
  -2.61899E+01 -3.47610E+01 -1.61706E+01 -2.04204E+01 -3.41189E+01 -2.86901E+01 -2.04808E+01 -2.41729E+01 -3.10193E+01 -1.35913E+01
  -2.59089E+01 -2.29620E+01 -3.18658E+01 -2.71615E+01 -2.69802E+01 -1.44987E+01 -1.92644E+01 -2.66499E+01 -3.54780E+01 -1.75331E+01
  -1.41739E+01 -1.44217E+01 -1.52471E+01  7.98357E+00  2.95550E+00  5.18329E+00  1.22452E+01  1.54657E+01  8.53202E+00  2.35883E+01
   2.92745E+01  1.71164E+01  2.54772E+01  1.48108E+01  5.13791E+01  3.22928E+01  3.14927E+01  2.36259E+01  2.32948E+01  2.31561E+01
   2.43019E+01  1.52006E+01  1.15196E+01  6.03123E+00  1.37228E+01  1.45590E+01  2.31678E+00  6.55919E+00  5.95820E+00  5.25161E+00
   1.35585E+01  1.36116E+01  1.60704E+01  2.27924E+01  1.86979E+01  1.63071E+01  1.93865E+01  1.06579E+01  1.38128E+01  8.85376E+00
   1.38336E+01  1.36356E+01  6.28835E+00  1.51505E+01  2.40767E+01  1.00468E+01  2.34170E+01  1.22675E+01  5.66318E+00  1.50319E+01
   1.01026E+01  6.55959E+00  2.03443E+00  4.45212E+00  5.74180E+00  3.74777E+00 -2.02978E+00 -7.68663E+00 -9.12633E-01  1.55928E+01
  -5.93156E+00 -6.36766E-01  7.39946E+00 -1.33229E+00  4.15583E+00 -1.97955E+00  1.80470E+00  3.36530E+00  8.13545E+00  2.32803E+00
  -6.59691E+00  4.61840E+00 -2.71096E+00  8.35339E+00  1.68054E+00 -8.60181E-01 -6.04313E-01 -1.41157E+00  5.20907E+00 -3.26246E+00
   1.98516E+01 -1.77750E+01 -8.63339E+00 -1.82870E+00 -1.99594E+01 -1.80515E+01 -7.96229E+00 -1.04087E+01 -2.56666E+01  5.18160E+00
  -9.65720E+00 -1.00099E+01 -4.08730E+00 -6.47936E+00 -3.43855E+00 -5.59535E+00  7.47702E+00  6.75512E+00 -6.96242E+00 -1.05683E+00
  -6.40640E+00 -5.28442E+00 -8.01570E-01 -8.46002E+00 -7.53309E+00  1.04213E+01  3.81393E+00 -9.91891E+00 -5.59657E+00 -3.60075E+00
   1.17030E+00 -1.15585E+01 -1.39206E+01  1.26089E+00 -1.00165E+01 -7.15740E+00 -6.23541E+00 -1.22848E+01 -1.24481E+01 -3.55373E+00
  -1.40606E+01  3.58685E+00 -7.88245E+00 -1.50640E+01 -1.20023E+00 -1.43652E+01 -4.41425E+00 -7.75346E-01 -7.69219E+00 -6.48946E+00
  -2.12595E+01 -1.28694E+01 -1.10867E+01 -5.23024E+00 -1.42855E+01  1.60828E+00 -1.96119E+00 -1.72983E+01 -2.47426E+01 -9.45746E+00
  -1.34204E+01 -8.24890E+00 -1.05441E+01  9.45384E-01 -7.97578E+00 -1.17666E+01 -1.07963E+01 -1.55762E+01 -1.25119E+01 -1.19435E+01
  -8.26577E+00 -1.06695E+01 -5.31167E-01 -1.05751E+01 -3.07539E+00 -1.00834E+01  1.38709E+01 -1.46854E+01 -6.14955E+00 -1.13044E+01
  -5.34722E+00  5.81939E+00 -5.80861E+00  5.90889E+00 -4.40949E+00 -8.73690E+00 -6.61205E-01 -6.81349E+00 -3.27970E+00 -1.02904E+01
   2.09210E-01 -2.89429E+00  2.36267E+00  9.08739E+00 -1.13590E+01  4.26402E-02 -5.30237E+00  2.93503E+00 -2.83772E+00  3.01527E+00
  -5.57284E+00 -4.52477E+00  9.39251E+00  5.38128E+00  5.07713E+00 -1.69647E+01 -6.52114E+00  7.05235E-02
 NY points of the fit to the data follow
  -7.94728E+01 -7.99070E+01 -7.95043E+01 -7.81372E+01 -7.44466E+01 -6.75235E+01 -5.78601E+01 -4.75318E+01 -3.90932E+01 -3.41022E+01
  -3.25617E+01 -3.37754E+01 -3.72305E+01 -4.23466E+01 -4.80777E+01 -5.32811E+01 -5.75617E+01 -6.12368E+01 -6.41647E+01 -6.54240E+01
  -6.56419E+01 -6.52461E+01 -6.46138E+01 -6.35258E+01 -6.15127E+01 -5.83501E+01 -5.43805E+01 -5.05158E+01 -4.74959E+01 -4.53680E+01
  -4.39653E+01 -4.34579E+01 -4.41473E+01 -4.58581E+01 -4.79926E+01 -5.02530E+01 -5.27001E+01 -5.52274E+01 -5.69064E+01 -5.75925E+01
  -5.72005E+01 -5.48910E+01 -5.03586E+01 -4.42233E+01 -3.80958E+01 -3.37745E+01 -3.20564E+01 -3.26696E+01 -3.49642E+01 -3.82850E+01
  -4.22056E+01 -4.59700E+01 -4.86711E+01 -5.00994E+01 -5.05895E+01 -4.99597E+01 -4.79574E+01 -4.54221E+01 -4.35650E+01 -4.28543E+01
  -4.30859E+01 -4.38851E+01 -4.48825E+01 -4.57349E+01 -4.61742E+01 -4.60723E+01 -4.55275E+01 -4.46197E+01 -4.33887E+01 -4.20015E+01
  -4.04767E+01 -3.89086E+01 -3.74823E+01 -3.65294E+01 -3.63666E+01 -3.69575E+01 -3.79134E+01 -3.89060E+01 -3.96763E+01 -4.01292E+01
  -3.98003E+01 -3.83195E+01 -3.60713E+01 -3.39408E+01 -3.26976E+01 -3.25814E+01 -3.33205E+01 -3.43570E+01 -3.54805E+01 -3.67809E+01
  -3.81108E+01 -3.91396E+01 -3.97728E+01 -4.01907E+01 -4.04409E+01 -4.00330E+01 -3.80604E+01 -3.23823E+01 -2.00531E+01 -9.96507E-01
   2.07957E+01  3.91500E+01  4.97235E+01  5.21017E+01  4.82262E+01  3.95459E+01  2.69473E+01  1.27172E+01 -1.30831E-01 -1.04754E+01
  -1.93370E+01 -2.73161E+01 -3.23846E+01 -3.40213E+01 -3.46016E+01 -3.49320E+01 -3.51542E+01 -3.51983E+01 -3.50097E+01 -3.44553E+01
  -3.29565E+01 -2.85403E+01 -1.86112E+01 -2.92435E+00  1.54225E+01  3.13448E+01  4.11228E+01  4.42986E+01  4.23282E+01  3.61489E+01
   2.61164E+01  1.37234E+01  1.56140E+00 -8.66514E+00 -1.72291E+01 -2.44954E+01 -2.88291E+01 -2.94194E+01 -2.86692E+01 -2.77116E+01
  -2.69285E+01 -2.63559E+01 -2.59333E+01 -2.57781E+01 -2.59049E+01 -2.62026E+01 -2.66275E+01 -2.71314E+01 -2.76277E+01 -2.80697E+01
  -2.83418E+01 -2.84719E+01 -2.84751E+01 -2.83708E+01 -2.82293E+01 -2.82013E+01 -2.84323E+01 -2.89296E+01 -2.95214E+01 -2.98933E+01
  -2.98409E+01 -2.94508E+01 -2.90046E+01 -2.87334E+01 -2.86771E+01 -2.87873E+01 -2.90457E+01 -2.94349E+01 -2.98837E+01 -3.03415E+01
  -3.09404E+01 -3.17795E+01 -3.27245E+01 -3.34870E+01 -3.37549E+01 -3.36217E+01 -3.34169E+01 -3.33037E+01 -3.32441E+01 -3.31183E+01
  -3.29545E+01 -3.29216E+01 -3.30234E+01 -3.28996E+01 -3.21039E+01 -3.04914E+01 -2.82658E+01 -2.57557E+01 -2.34663E+01 -2.18071E+01
  -2.10855E+01 -2.13477E+01 -2.22997E+01 -2.35144E+01 -2.44508E+01 -2.47169E+01 -2.42573E+01 -2.30713E+01 -2.10932E+01 -1.84832E+01
  -1.56083E+01 -1.30495E+01 -1.14563E+01 -1.13398E+01 -1.29705E+01 -1.61270E+01 -1.99949E+01 -2.35825E+01 -2.61476E+01 -2.71872E+01
  -2.62687E+01 -2.33102E+01 -1.88613E+01 -1.40381E+01 -1.02021E+01 -8.18977E+00 -8.14782E+00 -9.97396E+00 -1.34110E+01 -1.76048E+01
  -2.08359E+01 -2.20646E+01 -2.14798E+01 -1.97070E+01 -1.72444E+01 -1.43910E+01 -1.18024E+01 -1.00687E+01 -9.07459E+00 -8.38731E+00
  -7.73244E+00 -7.14037E+00 -6.58239E+00 -5.74475E+00 -4.55377E+00 -3.41035E+00 -2.69243E+00 -2.60089E+00 -3.12891E+00 -4.12374E+00
  -5.23093E+00 -5.90143E+00 -5.81514E+00 -5.13550E+00 -4.18664E+00 -3.05750E+00 -1.70683E+00 -4.58016E-01  5.88328E-01  1.67302E+00
   2.98512E+00  4.34976E+00  5.58960E+00  7.50777E+00  1.30246E+01  2.61236E+01  4.74632E+01  7.28371E+01  9.48010E+01  1.07552E+02
   1.10028E+02  1.04522E+02  9.30832E+01  7.68587E+01  5.83047E+01  4.10122E+01  2.69243E+01  1.49387E+01  3.96753E+00 -3.80320E+00
  -6.68461E+00 -7.84436E+00 -8.51495E+00 -8.93536E+00 -9.26055E+00 -9.63726E+00 -1.00821E+01 -1.06068E+01 -1.11922E+01 -1.17921E+01
  -1.23618E+01 -1.28909E+01 -1.33567E+01 -1.37319E+01 -1.40234E+01 -1.42518E+01 -1.44341E+01 -1.45850E+01 -1.47138E+01 -1.48295E+01
  -1.49427E+01 -1.50462E+01 -1.51349E+01 -1.52076E+01 -1.52590E+01 -1.52819E+01 -1.52743E+01 -1.52354E+01 -1.51606E+01 -1.50429E+01
  -1.48773E+01 -1.46575E+01 -1.43738E+01 -1.40171E+01 -1.35750E+01 -1.30332E+01 -1.23772E+01 -1.15918E+01 -1.06622E+01 -9.57402E+00
  -8.31548E+00 -6.87758E+00 -5.25488E+00 -3.44670E+00 -1.45790E+00  7.01789E-01  3.01822E+00  5.47446E+00  8.05481E+00  1.07543E+01
   1.36030E+01  1.67203E+01  2.02756E+01  2.40093E+01  2.70844E+01  2.85033E+01  2.77354E+01  2.50410E+01  2.11176E+01  1.65564E+01
   1.20106E+01  8.55188E+00  7.22273E+00  8.20864E+00  1.05378E+01  1.29625E+01  1.49742E+01  1.67264E+01  1.77996E+01  1.77731E+01
   1.68989E+01  1.57584E+01  1.47747E+01  1.38299E+01  1.25917E+01  1.13239E+01  1.03958E+01  9.72499E+00  9.30583E+00  9.19902E+00
   9.51529E+00  1.03374E+01  1.15773E+01  1.29353E+01  1.40754E+01  1.48349E+01  1.52215E+01  1.51724E+01  1.46078E+01  1.36262E+01
   1.23975E+01  1.10554E+01  9.64683E+00  8.19511E+00  6.82092E+00  5.57852E+00  4.42993E+00  3.35386E+00  2.33810E+00  1.37480E+00
   4.59905E-01 -4.07323E-01 -1.22511E+00 -1.99014E+00 -2.69835E+00 -3.34552E+00 -3.92763E+00 -4.44120E+00 -4.88346E+00 -5.25248E+00
  -5.54703E+00 -5.76646E+00 -5.91055E+00 -5.97963E+00 -5.97457E+00 -5.89686E+00 -5.74854E+00 -5.53224E+00 -5.25129E+00 -4.90989E+00
  -4.51334E+00 -4.06808E+00 -3.58169E+00 -3.06285E+00 -2.52144E+00 -1.96847E+00 -1.41595E+00 -8.76613E-01 -3.63442E-01  1.10665E-01
   5.33257E-01  8.92736E-01  1.17882E+00  1.38303E+00  1.49916E+00  1.52344E+00  1.45466E+00  1.29415E+00  1.04577E+00  7.15761E-01
   3.12487E-01 -1.54041E-01 -6.72668E-01 -1.23159E+00 -1.81871E+00 -2.42211E+00 -3.03042E+00 -3.63326E+00 -4.22151E+00 -4.78747E+00
  -5.32482E+00 -5.82866E+00 -6.29543E+00 -6.72300E+00 -7.11039E+00 -7.45765E+00 -7.76555E+00 -8.03542E+00 -8.26910E+00 -8.46881E+00
  -8.63700E+00 -8.77616E+00 -8.88869E+00 -8.97694E+00 -9.04314E+00 -9.08948E+00 -9.11798E+00 -9.13043E+00 -9.12838E+00 -9.11324E+00
  -9.08632E+00 -9.04884E+00 -9.00187E+00 -8.94628E+00 -8.88280E+00 -8.81214E+00 -8.73497E+00 -8.65191E+00 -8.56345E+00 -8.46998E+00
  -8.37184E+00 -8.26938E+00 -8.16297E+00 -8.05293E+00 -7.93950E+00 -7.82285E+00 -7.70317E+00 -7.58069E+00 -7.45566E+00 -7.32824E+00
  -7.19854E+00 -7.06664E+00 -6.93267E+00 -6.79680E+00 -6.65919E+00 -6.51993E+00 -6.37905E+00 -6.23661E+00 -6.09272E+00 -5.94753E+00
  -5.80112E+00 -5.65352E+00 -5.50473E+00 -5.35482E+00 -5.20388E+00 -5.05204E+00 -4.89933E+00 -4.74575E+00 -4.59131E+00 -4.43608E+00
  -4.28015E+00 -4.12361E+00 -3.96644E+00 -3.80864E+00 -3.65021E+00 -3.49124E+00 -3.33180E+00 -3.17194E+00 -3.01161E+00 -2.85080E+00
  -2.68954E+00 -2.52790E+00 -2.36593E+00 -2.20361E+00 -2.04088E+00 -1.87772E+00 -1.71415E+00 -1.55022E+00
 NY background values follow
    -8.736E+01   -8.684E+01   -8.632E+01   -8.579E+01   -8.527E+01   -8.475E+01   -8.423E+01   -8.371E+01   -8.319E+01   -8.267E+01
    -8.216E+01   -8.164E+01   -8.112E+01   -8.060E+01   -8.009E+01   -7.957E+01   -7.906E+01   -7.854E+01   -7.803E+01   -7.752E+01
    -7.701E+01   -7.650E+01   -7.599E+01   -7.548E+01   -7.498E+01   -7.447E+01   -7.397E+01   -7.347E+01   -7.297E+01   -7.247E+01
    -7.198E+01   -7.148E+01   -7.099E+01   -7.050E+01   -7.001E+01   -6.953E+01   -6.904E+01   -6.856E+01   -6.808E+01   -6.761E+01
    -6.713E+01   -6.666E+01   -6.619E+01   -6.572E+01   -6.526E+01   -6.480E+01   -6.434E+01   -6.388E+01   -6.343E+01   -6.298E+01
    -6.254E+01   -6.209E+01   -6.165E+01   -6.121E+01   -6.078E+01   -6.035E+01   -5.992E+01   -5.949E+01   -5.907E+01   -5.865E+01
    -5.823E+01   -5.782E+01   -5.741E+01   -5.700E+01   -5.660E+01   -5.620E+01   -5.580E+01   -5.541E+01   -5.501E+01   -5.463E+01
    -5.424E+01   -5.386E+01   -5.348E+01   -5.311E+01   -5.273E+01   -5.236E+01   -5.200E+01   -5.164E+01   -5.128E+01   -5.092E+01
    -5.057E+01   -5.022E+01   -4.987E+01   -4.953E+01   -4.919E+01   -4.886E+01   -4.853E+01   -4.820E+01   -4.787E+01   -4.755E+01
    -4.723E+01   -4.692E+01   -4.661E+01   -4.630E+01   -4.600E+01   -4.570E+01   -4.540E+01   -4.510E+01   -4.481E+01   -4.452E+01
    -4.424E+01   -4.396E+01   -4.368E+01   -4.340E+01   -4.313E+01   -4.286E+01   -4.259E+01   -4.233E+01   -4.206E+01   -4.180E+01
    -4.155E+01   -4.129E+01   -4.104E+01   -4.079E+01   -4.054E+01   -4.030E+01   -4.006E+01   -3.982E+01   -3.958E+01   -3.934E+01
    -3.911E+01   -3.888E+01   -3.865E+01   -3.842E+01   -3.819E+01   -3.797E+01   -3.775E+01   -3.753E+01   -3.731E+01   -3.709E+01
    -3.687E+01   -3.666E+01   -3.645E+01   -3.624E+01   -3.603E+01   -3.582E+01   -3.561E+01   -3.541E+01   -3.520E+01   -3.500E+01
    -3.480E+01   -3.459E+01   -3.439E+01   -3.420E+01   -3.400E+01   -3.380E+01   -3.361E+01   -3.341E+01   -3.322E+01   -3.303E+01
    -3.284E+01   -3.265E+01   -3.246E+01   -3.227E+01   -3.208E+01   -3.190E+01   -3.171E+01   -3.153E+01   -3.135E+01   -3.116E+01
    -3.098E+01   -3.080E+01   -3.062E+01   -3.044E+01   -3.026E+01   -3.009E+01   -2.991E+01   -2.974E+01   -2.956E+01   -2.939E+01
    -2.921E+01   -2.904E+01   -2.887E+01   -2.870E+01   -2.853E+01   -2.836E+01   -2.819E+01   -2.802E+01   -2.785E+01   -2.768E+01
    -2.751E+01   -2.735E+01   -2.718E+01   -2.701E+01   -2.685E+01   -2.668E+01   -2.652E+01   -2.636E+01   -2.620E+01   -2.604E+01
    -2.588E+01   -2.572E+01   -2.556E+01   -2.540E+01   -2.525E+01   -2.509E+01   -2.494E+01   -2.479E+01   -2.464E+01   -2.449E+01
    -2.434E+01   -2.419E+01   -2.405E+01   -2.391E+01   -2.376E+01   -2.362E+01   -2.349E+01   -2.335E+01   -2.322E+01   -2.309E+01
    -2.296E+01   -2.283E+01   -2.270E+01   -2.258E+01   -2.246E+01   -2.234E+01   -2.222E+01   -2.211E+01   -2.200E+01   -2.189E+01
    -2.178E+01   -2.168E+01   -2.158E+01   -2.148E+01   -2.138E+01   -2.129E+01   -2.120E+01   -2.111E+01   -2.103E+01   -2.095E+01
    -2.087E+01   -2.079E+01   -2.072E+01   -2.065E+01   -2.058E+01   -2.052E+01   -2.045E+01   -2.039E+01   -2.033E+01   -2.028E+01
    -2.022E+01   -2.017E+01   -2.012E+01   -2.008E+01   -2.003E+01   -1.999E+01   -1.995E+01   -1.991E+01   -1.987E+01   -1.983E+01
    -1.980E+01   -1.976E+01   -1.973E+01   -1.970E+01   -1.968E+01   -1.965E+01   -1.962E+01   -1.960E+01   -1.958E+01   -1.956E+01
    -1.954E+01   -1.952E+01   -1.950E+01   -1.948E+01   -1.947E+01   -1.945E+01   -1.944E+01   -1.942E+01   -1.941E+01   -1.940E+01
    -1.939E+01   -1.938E+01   -1.937E+01   -1.936E+01   -1.935E+01   -1.934E+01   -1.933E+01   -1.932E+01   -1.932E+01   -1.931E+01
    -1.930E+01   -1.930E+01   -1.929E+01   -1.928E+01   -1.928E+01   -1.927E+01   -1.926E+01   -1.926E+01   -1.925E+01   -1.924E+01
    -1.924E+01   -1.923E+01   -1.922E+01   -1.922E+01   -1.921E+01   -1.920E+01   -1.919E+01   -1.919E+01   -1.918E+01   -1.917E+01
    -1.916E+01   -1.915E+01   -1.914E+01   -1.913E+01   -1.912E+01   -1.910E+01   -1.909E+01   -1.908E+01   -1.906E+01   -1.905E+01
    -1.903E+01   -1.902E+01   -1.900E+01   -1.898E+01   -1.896E+01   -1.894E+01   -1.892E+01   -1.890E+01   -1.887E+01   -1.885E+01
    -1.882E+01   -1.879E+01   -1.877E+01   -1.874E+01   -1.871E+01   -1.868E+01   -1.865E+01   -1.861E+01   -1.858E+01   -1.855E+01
    -1.851E+01   -1.848E+01   -1.844E+01   -1.840E+01   -1.837E+01   -1.833E+01   -1.829E+01   -1.825E+01   -1.821E+01   -1.817E+01
    -1.812E+01   -1.808E+01   -1.804E+01   -1.799E+01   -1.795E+01   -1.790E+01   -1.786E+01   -1.781E+01   -1.777E+01   -1.772E+01
    -1.767E+01   -1.763E+01   -1.758E+01   -1.753E+01   -1.748E+01   -1.743E+01   -1.738E+01   -1.733E+01   -1.728E+01   -1.723E+01
    -1.718E+01   -1.713E+01   -1.708E+01   -1.703E+01   -1.698E+01   -1.692E+01   -1.687E+01   -1.682E+01   -1.677E+01   -1.671E+01
    -1.666E+01   -1.661E+01   -1.655E+01   -1.650E+01   -1.644E+01   -1.639E+01   -1.633E+01   -1.627E+01   -1.621E+01   -1.615E+01
    -1.609E+01   -1.603E+01   -1.597E+01   -1.591E+01   -1.585E+01   -1.578E+01   -1.572E+01   -1.565E+01   -1.558E+01   -1.552E+01
    -1.545E+01   -1.538E+01   -1.531E+01   -1.523E+01   -1.516E+01   -1.508E+01   -1.501E+01   -1.493E+01   -1.485E+01   -1.477E+01
    -1.469E+01   -1.461E+01   -1.452E+01   -1.444E+01   -1.435E+01   -1.426E+01   -1.417E+01   -1.408E+01   -1.398E+01   -1.389E+01
    -1.379E+01   -1.369E+01   -1.359E+01   -1.349E+01   -1.338E+01   -1.328E+01   -1.317E+01   -1.306E+01   -1.295E+01   -1.284E+01
    -1.273E+01   -1.262E+01   -1.250E+01   -1.239E+01   -1.227E+01   -1.215E+01   -1.203E+01   -1.191E+01   -1.178E+01   -1.166E+01
    -1.153E+01   -1.140E+01   -1.128E+01   -1.115E+01   -1.102E+01   -1.088E+01   -1.075E+01   -1.062E+01   -1.048E+01   -1.034E+01
    -1.021E+01   -1.007E+01   -9.929E+00   -9.788E+00   -9.646E+00   -9.503E+00   -9.360E+00   -9.215E+00   -9.069E+00   -8.922E+00
    -8.775E+00   -8.626E+00   -8.477E+00   -8.326E+00   -8.175E+00   -8.023E+00   -7.870E+00   -7.717E+00   -7.562E+00   -7.407E+00
    -7.251E+00   -7.095E+00   -6.938E+00   -6.780E+00   -6.622E+00   -6.463E+00   -6.304E+00   -6.144E+00   -5.983E+00   -5.822E+00
    -5.661E+00   -5.499E+00   -5.337E+00   -5.174E+00   -5.011E+00   -4.848E+00   -4.684E+00   -4.520E+00   -4.356E+00   -4.192E+00
    -4.027E+00   -3.863E+00   -3.698E+00   -3.533E+00   -3.368E+00   -3.203E+00   -3.037E+00   -2.872E+00   -2.707E+00   -2.542E+00
    -2.377E+00   -2.211E+00   -2.046E+00   -1.882E+00   -1.717E+00   -1.552E+00   -1.388E+00   -1.224E+00
 Ala      Conc. = 1.04E+03
