 LCModel (Version 6.3-1L) Copyright: S.W. Provencher.          Ref.: Magn. Reson. Med. 30:672-679 (1993).                
 Slice#2 Row#7 Col#10  PD_24_press_2_raw_act
 36 lines in following concentration table = NCONC+1
    Conc.  %SD /Cr+PCr  Metabolite                                         
  142.609 170% 6.9E-02 Ala                                                 
    0.000 999%   0.000 Asp                                                 
    0.000 999%   0.000 Cr                                                  
 2.05E+03   5%   1.000 PCr                                                 
    0.000 999%   0.000 GABA                                                
  203.705 140% 9.9E-02 Glc                                                 
 1.67E+03  29%   0.811 Gln                                                 
 2.06E+03  26%   1.004 Glu                                                 
  947.418   5%   0.461 GPC                                                 
    0.000 999%   0.000 PCh                                                 
  717.688  21%   0.349 GSH                                                 
 3.42E+03  14%   1.663 Ins                                                 
  210.712 127%   0.103 Lac                                                 
 4.05E+03   4%   1.970 NAA                                                 
    0.000 999%   0.000 NAAG                                                
  360.073  14%   0.175 Scyllo                                              
  590.210  63%   0.287 Tau                                                 
 1.34E+03  14%   0.651 -CrCH2                                              
  947.418   5%   0.461 GPC+PCh                                             
 4.05E+03   4%   1.970 NAA+NAAG                                            
 2.05E+03   5%   1.000 Cr+PCr                                              
 3.73E+03  21%   1.815 Glu+Gln                                             
 3.23E+03  34%   1.571 Lip13a                                              
    0.000 999%   0.000 Lip13b                                              
  721.999  67%   0.352 Lip09                                               
 2.66E+03  21%   1.294 MM09                                                
  546.711  58%   0.266 Lip20                                               
 4.39E+03  15%   2.136 MM20                                                
 1.09E+03  39%   0.533 MM12                                                
 4.21E+03  17%   2.051 MM14                                                
    0.000 999%   0.000 MM17                                                
 3.23E+03  34%   1.571 Lip13a+Lip13b                                       
 8.53E+03   8%   4.155 MM14+Lip13a+Lip13b+MM12                             
 3.38E+03  10%   1.646 MM09+Lip09                                          
 4.93E+03  12%   2.402 MM20+Lip20                                          
   6 lines in following misc. output table
  FWHM = 0.061 ppm    S/N =  11                                            
  Data shift = 0.008 ppm                                                   
  Ph: -40 deg     -10.6 deg/ppm                                            
  alphaB,S = 4.2E+00,   1.2E+02                                            
   14 spline knots.   Ns = 8(1)                                            
  (13) 4 infls.   ( 7) 1 extrs.                                            
  498 points on ppm-axis = NY
      4.000000     3.992357     3.984714     3.977070     3.969427     3.961784     3.954141     3.946497     3.938854     3.931211
      3.923568     3.915925     3.908281     3.900638     3.892995     3.885352     3.877708     3.870065     3.862422     3.854779
      3.847136     3.839492     3.831849     3.824206     3.816563     3.808919     3.801276     3.793633     3.785990     3.778347
      3.770703     3.763060     3.755417     3.747774     3.740130     3.732487     3.724844     3.717201     3.709558     3.701914
      3.694271     3.686628     3.678985     3.671341     3.663698     3.656055     3.648412     3.640769     3.633125     3.625482
      3.617839     3.610196     3.602552     3.594909     3.587266     3.579623     3.571980     3.564336     3.556693     3.549050
      3.541407     3.533763     3.526120     3.518477     3.510834     3.503191     3.495547     3.487904     3.480261     3.472618
      3.464974     3.457331     3.449688     3.442045     3.434402     3.426758     3.419115     3.411472     3.403829     3.396185
      3.388542     3.380899     3.373256     3.365613     3.357969     3.350326     3.342683     3.335040     3.327396     3.319753
      3.312110     3.304467     3.296824     3.289180     3.281537     3.273894     3.266251     3.258607     3.250964     3.243321
      3.235678     3.228034     3.220391     3.212748     3.205105     3.197462     3.189818     3.182175     3.174532     3.166889
      3.159245     3.151602     3.143959     3.136316     3.128673     3.121029     3.113386     3.105743     3.098100     3.090456
      3.082813     3.075170     3.067527     3.059884     3.052240     3.044597     3.036954     3.029311     3.021667     3.014024
      3.006381     2.998738     2.991095     2.983451     2.975808     2.968165     2.960522     2.952878     2.945235     2.937592
      2.929949     2.922306     2.914662     2.907019     2.899376     2.891733     2.884089     2.876446     2.868803     2.861160
      2.853517     2.845873     2.838230     2.830587     2.822944     2.815300     2.807657     2.800014     2.792371     2.784728
      2.777084     2.769441     2.761798     2.754155     2.746511     2.738868     2.731225     2.723582     2.715939     2.708295
      2.700652     2.693009     2.685366     2.677722     2.670079     2.662436     2.654793     2.647150     2.639506     2.631863
      2.624220     2.616577     2.608933     2.601290     2.593647     2.586004     2.578361     2.570717     2.563074     2.555431
      2.547788     2.540144     2.532501     2.524858     2.517215     2.509572     2.501928     2.494285     2.486642     2.478999
      2.471355     2.463712     2.456069     2.448426     2.440783     2.433139     2.425496     2.417853     2.410210     2.402566
      2.394923     2.387280     2.379637     2.371994     2.364350     2.356707     2.349064     2.341421     2.333777     2.326134
      2.318491     2.310848     2.303205     2.295561     2.287918     2.280275     2.272632     2.264988     2.257345     2.249702
      2.242059     2.234416     2.226772     2.219129     2.211486     2.203843     2.196199     2.188556     2.180913     2.173270
      2.165627     2.157983     2.150340     2.142697     2.135054     2.127410     2.119767     2.112124     2.104481     2.096838
      2.089194     2.081551     2.073908     2.066265     2.058621     2.050978     2.043335     2.035692     2.028049     2.020405
      2.012762     2.005119     1.997476     1.989833     1.982190     1.974546     1.966903     1.959260     1.951617     1.943974
      1.936331     1.928688     1.921045     1.913402     1.905759     1.898115     1.890472     1.882829     1.875186     1.867543
      1.859900     1.852257     1.844614     1.836971     1.829327     1.821684     1.814041     1.806398     1.798755     1.791112
      1.783469     1.775826     1.768183     1.760540     1.752896     1.745253     1.737610     1.729967     1.722324     1.714681
      1.707038     1.699395     1.691752     1.684108     1.676465     1.668822     1.661179     1.653536     1.645893     1.638250
      1.630607     1.622964     1.615321     1.607677     1.600034     1.592391     1.584748     1.577105     1.569462     1.561819
      1.554176     1.546533     1.538890     1.531246     1.523603     1.515960     1.508317     1.500674     1.493031     1.485388
      1.477745     1.470102     1.462458     1.454815     1.447172     1.439529     1.431886     1.424243     1.416600     1.408957
      1.401314     1.393671     1.386027     1.378384     1.370741     1.363098     1.355455     1.347812     1.340169     1.332526
      1.324883     1.317240     1.309596     1.301953     1.294310     1.286667     1.279024     1.271381     1.263738     1.256095
      1.248452     1.240808     1.233165     1.225522     1.217879     1.210236     1.202593     1.194950     1.187307     1.179664
      1.172021     1.164377     1.156734     1.149091     1.141448     1.133805     1.126162     1.118519     1.110876     1.103233
      1.095590     1.087946     1.080303     1.072660     1.065017     1.057374     1.049731     1.042088     1.034445     1.026802
      1.019158     1.011515     1.003872     0.996229     0.988586     0.980943     0.973300     0.965657     0.958014     0.950371
      0.942727     0.935084     0.927441     0.919798     0.912155     0.904512     0.896869     0.889226     0.881583     0.873940
      0.866296     0.858653     0.851010     0.843367     0.835724     0.828081     0.820438     0.812795     0.805152     0.797508
      0.789865     0.782222     0.774579     0.766936     0.759293     0.751650     0.744007     0.736364     0.728721     0.721077
      0.713434     0.705791     0.698148     0.690505     0.682862     0.675219     0.667576     0.659933     0.652290     0.644646
      0.637003     0.629360     0.621717     0.614074     0.606431     0.598788     0.591145     0.583502     0.575858     0.568215
      0.560572     0.552929     0.545286     0.537643     0.530000     0.522357     0.514714     0.507071     0.499427     0.491784
      0.484141     0.476498     0.468855     0.461212     0.453569     0.445925     0.438282     0.430639     0.422996     0.415353
      0.407710     0.400067     0.392424     0.384780     0.377137     0.369494     0.361851     0.354208     0.346565     0.338922
      0.331278     0.323635     0.315992     0.308349     0.300706     0.293063     0.285420     0.277777     0.270133     0.262490
      0.254847     0.247204     0.239561     0.231918     0.224275     0.216631     0.208988     0.201345
 NY phased data points follow
   8.32480E+00  1.11124E+01  9.74130E+00  1.96424E+01  1.46538E+01  1.52440E+01  7.83136E+00  2.07651E+01  1.52909E+01  2.68913E+01
   2.35179E+01  2.25564E+01  1.63127E+01  2.01136E+01  1.43399E+01  2.15346E+01  1.02406E+01  1.40925E+01  1.52550E+01  5.87981E+00
   4.91548E+00  2.00736E+01  1.29100E+01  1.25746E+01  1.46546E+01  2.38105E+01  1.71237E+01  2.11875E+01  1.20494E+01  2.53065E+01
   7.83057E+00  1.93386E+01  9.38288E+00  2.86631E+01  1.33890E+01  2.21811E+01  1.42451E+01  2.07350E+01  2.00542E+01  1.84226E+01
   1.54330E+01  1.89725E+01  1.32663E+01  2.29033E+01  1.52772E+01  2.40915E+01  2.25234E+01  2.94656E+01  2.69915E+01  3.03414E+01
   2.84292E+01  2.28008E+01  1.22920E+01  1.79360E+01  1.93880E+01  1.56713E+01  8.95806E+00  1.77390E+01  1.25046E+01  1.71864E+01
   1.13455E+01  1.42770E+01  1.13846E+01  1.01685E+01  5.61127E+00  6.74757E+00  1.27315E+01  1.31884E+01  2.47519E+00  9.13967E+00
   8.62500E+00  6.78810E+00  6.32684E+00  7.01992E+00  1.54462E+01  1.06174E+01  1.00072E+01  1.15563E+01  9.46084E+00  8.51897E+00
   8.00609E+00  2.26429E+01  1.27298E+01  2.21291E+01  1.21144E+01  2.08449E+01  1.17935E+01  2.24862E+01  1.80923E+01  2.02952E+01
   9.79470E+00  1.41236E+01  2.05508E+01  1.30526E+01  1.37411E+01  2.19518E+01  1.36938E+01  2.25403E+01  2.92572E+01  3.97168E+01
   4.85250E+01  5.98730E+01  7.45164E+01  8.24116E+01  8.13394E+01  6.72933E+01  5.33025E+01  4.46665E+01  3.23967E+01  2.63677E+01
   2.66575E+01  1.89496E+01  1.42230E+01  1.29386E+01  1.24167E+01  1.25985E+01  3.27903E+00  9.68126E+00  9.42833E-01  1.45085E+01
   1.34232E+01  1.94486E+01  1.48488E+01  3.07847E+01  3.82965E+01  5.20049E+01  5.14738E+01  6.89730E+01  6.64460E+01  6.45758E+01
   4.88789E+01  3.81539E+01  2.20940E+01  1.95590E+01  3.01895E+01  1.43906E+01  1.63732E+01  1.23234E+01  7.70956E+00  7.99517E+00
   7.48122E+00  1.80664E+01  6.19120E+00  6.58026E+00  1.04449E+01  4.79452E+00  1.04860E+01  8.35904E+00 -1.89869E+00  6.36056E+00
   7.35632E+00  1.09422E+01  2.85695E+00 -8.43850E-01  1.17769E+01  5.73808E+00  4.09535E+00  2.71669E+00  4.82782E+00  5.34758E+00
   1.40675E+01  7.03818E+00 -5.50234E+00  1.59838E+00  7.30732E-01 -3.35496E+00 -9.84533E+00  5.62097E+00 -4.99398E+00 -1.27384E+01
  -1.84720E+01 -1.77250E+01 -1.36285E+01 -1.92008E+01 -1.78869E+01 -2.43258E+01 -2.44460E+01 -2.12572E+01 -1.56472E+01 -9.98921E+00
  -1.82075E+01 -8.45116E+00 -9.18082E+00 -2.45224E+00 -1.14548E+01 -7.76516E+00 -1.05772E+01 -9.10846E+00 -1.46373E+01 -4.04610E+00
  -6.39344E+00  1.18241E+00 -9.38655E-01 -3.80782E+00 -7.78940E+00 -3.06752E+00 -7.24905E+00 -7.24769E+00 -5.50870E+00 -9.44089E+00
  -9.76262E+00 -2.89425E+00 -7.83320E-01  1.09088E+01  4.47688E+00  6.65396E+00  1.54218E+00 -1.66832E+00 -5.96805E+00  3.37740E+00
   2.90793E+00  8.19991E+00  2.67057E+00  1.47302E+01  1.25994E+01  1.93576E+01  1.96968E+01  1.74720E+01  1.73301E+01  1.92056E+01
   1.58742E+00  9.32854E+00 -2.79483E+00  6.80540E+00  6.75417E-01  1.11128E+01  7.14771E+00  1.40841E+01  1.12104E+01  1.48146E+01
   1.15661E+01  1.76668E+01  1.01452E+01  1.97196E+01  1.37351E+01  1.89933E+01  1.67626E+01  1.62963E+01  1.20018E+01  1.33889E+01
   1.12001E+01  5.17925E+00  6.89877E+00  6.78471E+00  6.03092E+00  1.45970E+01  7.39548E+00  1.06782E+01  1.77729E+01  1.99320E+01
   1.32711E+01  1.94703E+01  2.66009E+01  3.61609E+01  4.09391E+01  6.00035E+01  7.73847E+01  8.92096E+01  1.04291E+02  1.23979E+02
   1.36120E+02  1.41526E+02  1.31756E+02  9.50000E+01  6.86679E+01  5.28374E+01  3.77015E+01  3.26933E+01  2.84755E+01  2.80745E+01
   1.80335E+01  2.08963E+01  1.31067E+01  7.34774E+00  8.16651E+00  2.22836E+01  1.19638E+01  8.96918E+00  3.64494E+00  1.39828E+01
   1.77036E+00  3.30814E+00  5.64890E+00  5.63331E+00  2.18411E+00 -2.77954E+00 -7.25836E+00 -6.26083E+00 -5.72846E+00 -1.93564E+00
  -8.58763E+00  1.79822E+00 -5.81614E+00  1.70802E+00 -3.71298E+00  1.69793E+00 -1.54976E+00 -1.03596E+00 -5.01475E-01 -2.17181E+00
  -6.39230E+00 -2.04544E+00 -7.85395E+00 -3.62050E+00  1.85894E+00  2.11747E+00  4.79271E-01  2.76879E+00  4.33655E+00  2.64321E+00
   1.52229E+00  1.03211E+01  6.12325E-01  7.22700E+00  8.83700E+00  1.63022E+01  1.31785E+01  1.17216E+01  8.90448E+00  1.62561E+01
   1.33247E+01  2.37348E+01  1.49366E+01  1.41056E+01  2.60612E+01  1.61589E+01  1.34251E+01  1.66543E+01  2.40627E+01  2.98907E+01
   2.27683E+01  3.33062E+01  2.62684E+01  3.63909E+01  3.04299E+01  2.65500E+01  4.20802E+01  3.43949E+01  3.56298E+01  2.60964E+01
   3.19180E+01  2.80905E+01  2.94294E+01  3.12591E+01  2.76371E+01  3.06461E+01  3.30373E+01  2.88192E+01  2.82264E+01  2.80679E+01
   2.06192E+01  1.66724E+01  1.70187E+01  2.01221E+01  2.42363E+01  2.19820E+01  2.39581E+01  1.71421E+01  2.00611E+01  2.10520E+01
   1.96597E+01  1.86757E+01  1.59994E+01  1.98743E+01  1.84559E+01  1.64232E+01  2.46686E+01  1.85037E+01  2.16962E+01  1.57754E+01
   2.41114E+01  2.30899E+01  2.21415E+01  1.48640E+01  2.01124E+01  1.10649E+01  1.63465E+01  1.93455E+01  1.48610E+01  1.44888E+01
   1.62639E+01  1.66435E+01  1.02095E+01  9.65213E+00  8.34377E+00  9.69933E+00  1.85510E+01  1.39498E+01  1.11960E+01  1.74838E+01
   1.15373E+01  1.99535E+01  1.79541E+01  1.87457E+01  1.18112E+01  1.25892E+01  1.52230E+01  2.09903E+01  2.42526E+01  2.27172E+01
   2.66832E+01  3.26668E+01  2.12913E+01  2.49176E+01  2.17892E+01  3.17544E+01  2.26849E+01  1.70651E+01  2.60588E+01  2.51090E+01
   2.70535E+01  2.63697E+01  2.39935E+01  2.59436E+01  1.68185E+01  2.65657E+01  1.97982E+01  2.07983E+01  1.87022E+01  1.40188E+01
   1.08958E+01  1.41969E+01  1.38061E+01  1.14869E+01  7.66811E+00  5.27618E+00  6.12919E-01  8.85242E+00  6.83495E+00  6.05011E+00
   4.20684E+00  5.71369E+00  5.42314E+00  9.89991E+00  4.07004E+00  7.43598E+00  6.30260E+00  6.64045E+00  1.46263E+01  6.94824E+00
   8.49526E+00 -1.42328E+00  5.39069E+00  9.76959E+00  4.25895E+00  3.41518E+00  4.28953E+00  6.64905E+00  4.89480E-02  1.92989E-01
   3.58734E+00  7.53416E+00  3.27514E-01  1.11337E+01  8.61789E+00  6.79163E+00 -3.11402E+00  4.49615E+00  8.23684E+00  1.09972E+01
   1.81654E-01  8.34447E+00  6.79148E+00  3.69644E+00  3.09578E-01 -1.69575E+00 -4.11253E-01  1.13311E+01  1.10640E+00  5.21851E+00
   4.45448E+00  6.31254E+00  9.50210E+00  1.61023E+00  2.71641E+00  3.63894E+00  9.35679E-01 -3.74931E-01  3.19191E+00  6.67478E+00
   5.38691E+00  9.23716E+00  2.90023E+00  2.78949E+00  4.37182E+00  5.89938E+00  7.04084E+00  8.49153E-01  8.61182E+00  4.62298E+00
   3.08594E+00  4.57317E+00  1.79941E+00 -2.04258E+00  4.67780E+00  5.02221E+00  7.21567E+00  1.70483E+00
 NY points of the fit to the data follow
   1.13812E+01  1.02971E+01  1.02666E+01  1.11721E+01  1.25331E+01  1.41180E+01  1.60503E+01  1.82810E+01  2.06074E+01  2.27156E+01
   2.39406E+01  2.36464E+01  2.17613E+01  1.90196E+01  1.65365E+01  1.49004E+01  1.41155E+01  1.36131E+01  1.26446E+01  1.11492E+01
   1.02960E+01  1.00235E+01  1.03491E+01  1.09192E+01  1.17207E+01  1.28602E+01  1.44027E+01  1.65652E+01  1.92453E+01  2.20788E+01
   2.43685E+01  2.53280E+01  2.45398E+01  2.23734E+01  1.95969E+01  1.70291E+01  1.48981E+01  1.31507E+01  1.16548E+01  1.09952E+01
   1.17317E+01  1.31522E+01  1.50817E+01  1.74975E+01  2.03217E+01  2.34049E+01  2.62934E+01  2.84179E+01  2.89713E+01  2.71721E+01
   2.29955E+01  1.77859E+01  1.34090E+01  1.10414E+01  1.05575E+01  1.07751E+01  1.08031E+01  1.08050E+01  1.13656E+01  1.24121E+01
   1.33396E+01  1.36314E+01  1.30168E+01  1.16137E+01  1.00627E+01  9.01200E+00  8.78625E+00  9.36440E+00  1.02751E+01  1.10963E+01
   1.17973E+01  1.23959E+01  1.29334E+01  1.32859E+01  1.33359E+01  1.30082E+01  1.23041E+01  1.13848E+01  1.06406E+01  1.07667E+01
   1.14331E+01  1.22956E+01  1.36137E+01  1.52568E+01  1.68800E+01  1.83875E+01  1.95126E+01  1.94985E+01  1.77879E+01  1.46626E+01
   1.12151E+01  8.78072E+00  7.83169E+00  7.98773E+00  8.90396E+00  1.18620E+01  1.70465E+01  2.37774E+01  3.18416E+01  4.09106E+01
   5.09807E+01  6.20257E+01  7.29158E+01  8.04773E+01  8.08235E+01  7.23216E+01  5.76554E+01  4.24662E+01  3.12052E+01  2.48971E+01
   2.12071E+01  1.67793E+01  1.06734E+01  6.34228E+00  4.98629E+00  4.49828E+00  4.30053E+00  4.30783E+00  4.86149E+00  7.37109E+00
   1.21640E+01  1.77284E+01  2.40417E+01  3.13604E+01  3.96341E+01  4.87642E+01  5.78454E+01  6.45107E+01  6.58368E+01  6.03093E+01
   4.95261E+01  3.77045E+01  2.84705E+01  2.28097E+01  1.91783E+01  1.50776E+01  9.64412E+00  5.62125E+00  4.77777E+00  5.23549E+00
   5.96924E+00  6.41958E+00  6.37309E+00  6.02035E+00  5.55404E+00  5.06042E+00  4.64503E+00  4.29841E+00  3.93212E+00  3.54324E+00
   3.10990E+00  2.74717E+00  2.45634E+00  2.08962E+00  1.72081E+00  1.40719E+00  1.14541E+00  9.52232E-01  6.35842E-01  1.44852E-01
  -4.13930E-01 -8.38529E-01 -9.17642E-01 -6.10960E-01 -2.17929E-01 -2.03137E-01 -8.34334E-01 -2.02059E+00 -3.38484E+00 -4.38895E+00
  -4.85172E+00 -5.22645E+00 -5.76457E+00 -6.58689E+00 -7.43197E+00 -7.89095E+00 -7.97921E+00 -7.73175E+00 -7.29907E+00 -7.07882E+00
  -7.17497E+00 -7.40203E+00 -7.43219E+00 -6.95866E+00 -5.98468E+00 -4.83086E+00 -3.78999E+00 -2.60825E+00 -9.44685E-01  1.02161E+00
   2.61129E+00  3.18870E+00  2.74226E+00  1.77690E+00  8.62394E-01  4.50861E-01  7.08309E-01  1.40102E+00  2.56726E+00  4.21289E+00
   6.07460E+00  7.76191E+00  8.71525E+00  8.79367E+00  7.82035E+00  5.64917E+00  2.64804E+00 -5.71829E-01 -3.41105E+00 -5.04906E+00
  -5.17937E+00 -3.62101E+00 -7.37296E-01  2.71863E+00  5.99356E+00  8.43904E+00  9.70465E+00  9.63309E+00  8.12288E+00  5.46020E+00
   2.28628E+00 -1.32524E-01 -1.12975E+00 -8.80685E-01  5.06547E-01  2.78005E+00  5.43800E+00  7.78221E+00  9.00035E+00  9.38019E+00
   9.45212E+00  9.66860E+00  1.02122E+01  1.08539E+01  1.14326E+01  1.20206E+01  1.26494E+01  1.32897E+01  1.37953E+01  1.39073E+01
   1.35051E+01  1.25977E+01  1.14828E+01  1.07969E+01  1.10115E+01  1.20392E+01  1.34105E+01  1.48845E+01  1.61249E+01  1.69844E+01
   1.77897E+01  1.96040E+01  2.60367E+01  3.63604E+01  4.74188E+01  5.97070E+01  7.37258E+01  8.94182E+01  1.06739E+02  1.24032E+02
   1.36263E+02  1.37046E+02  1.23465E+02  9.97827E+01  7.52167E+01  5.70651E+01  4.68336E+01  4.08571E+01  3.34939E+01  2.28802E+01
   1.54178E+01  1.29302E+01  1.16610E+01  1.07678E+01  1.01236E+01  9.65149E+00  9.15690E+00  8.59892E+00  8.00896E+00  7.42359E+00
   6.88127E+00  6.40440E+00  5.97283E+00  5.57298E+00  5.21971E+00  4.91766E+00  4.64477E+00  4.38935E+00  4.15334E+00  3.94857E+00
   3.77635E+00  3.62245E+00  3.48201E+00  3.36023E+00  3.25636E+00  3.17045E+00  3.10041E+00  3.04723E+00  3.01019E+00  2.98997E+00
   2.98761E+00  3.00580E+00  3.04384E+00  3.10500E+00  3.19178E+00  3.30897E+00  3.45921E+00  3.64814E+00  3.88080E+00  4.16615E+00
   4.51198E+00  4.92796E+00  5.42091E+00  6.00005E+00  6.67371E+00  7.45241E+00  8.34473E+00  9.36227E+00  1.05214E+01  1.18461E+01
   1.32763E+01  1.47617E+01  1.63051E+01  1.78867E+01  1.94652E+01  2.09871E+01  2.23702E+01  2.35827E+01  2.46296E+01  2.55357E+01
   2.64233E+01  2.74093E+01  2.84999E+01  2.96244E+01  3.06879E+01  3.15981E+01  3.22892E+01  3.27333E+01  3.28478E+01  3.26773E+01
   3.23281E+01  3.18404E+01  3.12890E+01  3.06485E+01  2.98337E+01  2.88759E+01  2.78083E+01  2.66236E+01  2.53187E+01  2.39390E+01
   2.27032E+01  2.18566E+01  2.14914E+01  2.15461E+01  2.18718E+01  2.22775E+01  2.26005E+01  2.27808E+01  2.27325E+01  2.24059E+01
   2.19650E+01  2.15560E+01  2.12025E+01  2.08054E+01  2.02514E+01  1.96343E+01  1.90556E+01  1.84863E+01  1.79108E+01  1.73283E+01
   1.67412E+01  1.61567E+01  1.55811E+01  1.50231E+01  1.44893E+01  1.39887E+01  1.35283E+01  1.31169E+01  1.27609E+01  1.24679E+01
   1.22431E+01  1.20932E+01  1.20232E+01  1.20390E+01  1.21443E+01  1.23433E+01  1.26378E+01  1.30305E+01  1.35212E+01  1.41094E+01
   1.47909E+01  1.55607E+01  1.64095E+01  1.73273E+01  1.82995E+01  1.93100E+01  2.03382E+01  2.13627E+01  2.23592E+01  2.33041E+01
   2.41719E+01  2.49395E+01  2.55835E+01  2.60857E+01  2.64297E+01  2.66056E+01  2.66065E+01  2.64321E+01  2.60857E+01  2.55774E+01
   2.49202E+01  2.41323E+01  2.32330E+01  2.22445E+01  2.11886E+01  2.00888E+01  1.89659E+01  1.78406E+01  1.67294E+01  1.56481E+01
   1.46079E+01  1.36192E+01  1.26881E+01  1.18196E+01  1.10147E+01  1.02743E+01  9.59621E+00  8.97914E+00  8.41900E+00  7.91261E+00
   7.45482E+00  7.04218E+00  6.66985E+00  6.33476E+00  6.03226E+00  5.75945E+00  5.51217E+00  5.28841E+00  5.08496E+00  4.90042E+00
   4.73182E+00  4.57800E+00  4.43652E+00  4.30697E+00  4.18750E+00  4.07786E+00  3.97612E+00  3.88213E+00  3.79443E+00  3.71335E+00
   3.63766E+00  3.56755E+00  3.50162E+00  3.44019E+00  3.38225E+00  3.32845E+00  3.27774E+00  3.23049E+00  3.18555E+00  3.14350E+00
   3.10355E+00  3.06643E+00  3.03113E+00  2.99812E+00  2.96641E+00  2.93676E+00  2.90845E+00  2.88219E+00  2.85698E+00  2.83335E+00
   2.81047E+00  2.78916E+00  2.76875E+00  2.74987E+00  2.73154E+00  2.71439E+00  2.69766E+00  2.68224E+00  2.66738E+00  2.65369E+00
   2.64020E+00  2.62762E+00  2.61530E+00  2.60409E+00  2.59318E+00  2.58314E+00  2.57309E+00  2.56380E+00  2.55466E+00  2.54646E+00
   2.53833E+00  2.53085E+00  2.52321E+00  2.51623E+00  2.50931E+00  2.50314E+00  2.49685E+00  2.49102E+00
 NY background values follow
     3.888E-01    3.814E-01    3.741E-01    3.668E-01    3.595E-01    3.521E-01    3.448E-01    3.375E-01    3.302E-01    3.229E-01
     3.155E-01    3.082E-01    3.009E-01    2.936E-01    2.862E-01    2.789E-01    2.716E-01    2.643E-01    2.570E-01    2.496E-01
     2.423E-01    2.350E-01    2.277E-01    2.204E-01    2.130E-01    2.057E-01    1.984E-01    1.911E-01    1.838E-01    1.764E-01
     1.691E-01    1.618E-01    1.545E-01    1.472E-01    1.398E-01    1.325E-01    1.252E-01    1.179E-01    1.106E-01    1.033E-01
     9.596E-02    8.865E-02    8.133E-02    7.402E-02    6.671E-02    5.940E-02    5.209E-02    4.479E-02    3.748E-02    3.017E-02
     2.287E-02    1.557E-02    8.268E-03    9.706E-04   -6.325E-03   -1.362E-02   -2.091E-02   -2.819E-02   -3.548E-02   -4.276E-02
    -5.003E-02   -5.731E-02   -6.457E-02   -7.184E-02   -7.910E-02   -8.635E-02   -9.360E-02   -1.008E-01   -1.081E-01   -1.153E-01
    -1.225E-01   -1.298E-01   -1.370E-01   -1.442E-01   -1.514E-01   -1.586E-01   -1.658E-01   -1.730E-01   -1.801E-01   -1.873E-01
    -1.944E-01   -2.016E-01   -2.087E-01   -2.159E-01   -2.230E-01   -2.301E-01   -2.372E-01   -2.443E-01   -2.514E-01   -2.585E-01
    -2.655E-01   -2.726E-01   -2.796E-01   -2.867E-01   -2.937E-01   -3.007E-01   -3.077E-01   -3.147E-01   -3.217E-01   -3.286E-01
    -3.356E-01   -3.425E-01   -3.494E-01   -3.563E-01   -3.632E-01   -3.701E-01   -3.769E-01   -3.838E-01   -3.906E-01   -3.974E-01
    -4.042E-01   -4.109E-01   -4.177E-01   -4.244E-01   -4.311E-01   -4.378E-01   -4.445E-01   -4.511E-01   -4.578E-01   -4.644E-01
    -4.710E-01   -4.775E-01   -4.841E-01   -4.906E-01   -4.971E-01   -5.036E-01   -5.100E-01   -5.164E-01   -5.228E-01   -5.292E-01
    -5.356E-01   -5.419E-01   -5.482E-01   -5.545E-01   -5.607E-01   -5.669E-01   -5.731E-01   -5.793E-01   -5.854E-01   -5.915E-01
    -5.976E-01   -6.036E-01   -6.096E-01   -6.156E-01   -6.215E-01   -6.274E-01   -6.333E-01   -6.391E-01   -6.449E-01   -6.506E-01
    -6.563E-01   -6.620E-01   -6.676E-01   -6.732E-01   -6.787E-01   -6.842E-01   -6.896E-01   -6.950E-01   -7.003E-01   -7.056E-01
    -7.108E-01   -7.160E-01   -7.211E-01   -7.262E-01   -7.312E-01   -7.362E-01   -7.411E-01   -7.460E-01   -7.507E-01   -7.555E-01
    -7.601E-01   -7.647E-01   -7.693E-01   -7.738E-01   -7.782E-01   -7.825E-01   -7.868E-01   -7.910E-01   -7.952E-01   -7.993E-01
    -8.033E-01   -8.072E-01   -8.111E-01   -8.148E-01   -8.186E-01   -8.222E-01   -8.258E-01   -8.293E-01   -8.327E-01   -8.361E-01
    -8.394E-01   -8.426E-01   -8.457E-01   -8.488E-01   -8.518E-01   -8.547E-01   -8.576E-01   -8.604E-01   -8.631E-01   -8.658E-01
    -8.684E-01   -8.709E-01   -8.734E-01   -8.757E-01   -8.781E-01   -8.803E-01   -8.825E-01   -8.846E-01   -8.867E-01   -8.886E-01
    -8.905E-01   -8.924E-01   -8.942E-01   -8.959E-01   -8.975E-01   -8.991E-01   -9.006E-01   -9.021E-01   -9.035E-01   -9.048E-01
    -9.060E-01   -9.072E-01   -9.084E-01   -9.094E-01   -9.104E-01   -9.114E-01   -9.122E-01   -9.130E-01   -9.138E-01   -9.145E-01
    -9.151E-01   -9.156E-01   -9.161E-01   -9.165E-01   -9.169E-01   -9.172E-01   -9.174E-01   -9.175E-01   -9.176E-01   -9.176E-01
    -9.176E-01   -9.174E-01   -9.172E-01   -9.170E-01   -9.166E-01   -9.162E-01   -9.158E-01   -9.152E-01   -9.146E-01   -9.139E-01
    -9.131E-01   -9.123E-01   -9.114E-01   -9.104E-01   -9.093E-01   -9.082E-01   -9.070E-01   -9.057E-01   -9.043E-01   -9.029E-01
    -9.014E-01   -8.998E-01   -8.981E-01   -8.963E-01   -8.945E-01   -8.926E-01   -8.906E-01   -8.885E-01   -8.864E-01   -8.842E-01
    -8.819E-01   -8.795E-01   -8.770E-01   -8.744E-01   -8.718E-01   -8.691E-01   -8.663E-01   -8.634E-01   -8.604E-01   -8.574E-01
    -8.543E-01   -8.511E-01   -8.478E-01   -8.444E-01   -8.410E-01   -8.375E-01   -8.339E-01   -8.302E-01   -8.264E-01   -8.226E-01
    -8.187E-01   -8.147E-01   -8.106E-01   -8.065E-01   -8.022E-01   -7.979E-01   -7.936E-01   -7.891E-01   -7.846E-01   -7.800E-01
    -7.753E-01   -7.705E-01   -7.657E-01   -7.607E-01   -7.558E-01   -7.507E-01   -7.455E-01   -7.403E-01   -7.350E-01   -7.297E-01
    -7.242E-01   -7.187E-01   -7.131E-01   -7.075E-01   -7.017E-01   -6.959E-01   -6.900E-01   -6.841E-01   -6.780E-01   -6.719E-01
    -6.658E-01   -6.595E-01   -6.532E-01   -6.468E-01   -6.404E-01   -6.338E-01   -6.273E-01   -6.206E-01   -6.139E-01   -6.071E-01
    -6.002E-01   -5.933E-01   -5.863E-01   -5.793E-01   -5.722E-01   -5.650E-01   -5.577E-01   -5.504E-01   -5.431E-01   -5.357E-01
    -5.282E-01   -5.206E-01   -5.130E-01   -5.054E-01   -4.977E-01   -4.899E-01   -4.821E-01   -4.742E-01   -4.663E-01   -4.583E-01
    -4.502E-01   -4.421E-01   -4.340E-01   -4.258E-01   -4.175E-01   -4.092E-01   -4.009E-01   -3.924E-01   -3.840E-01   -3.755E-01
    -3.669E-01   -3.583E-01   -3.497E-01   -3.410E-01   -3.323E-01   -3.235E-01   -3.146E-01   -3.058E-01   -2.968E-01   -2.879E-01
    -2.789E-01   -2.698E-01   -2.607E-01   -2.516E-01   -2.424E-01   -2.332E-01   -2.239E-01   -2.146E-01   -2.053E-01   -1.959E-01
    -1.865E-01   -1.770E-01   -1.675E-01   -1.580E-01   -1.484E-01   -1.388E-01   -1.291E-01   -1.195E-01   -1.097E-01   -9.997E-02
    -9.017E-02   -8.033E-02   -7.046E-02   -6.056E-02   -5.062E-02   -4.065E-02   -3.064E-02   -2.060E-02   -1.053E-02   -4.243E-04
     9.712E-03    1.988E-02    3.008E-02    4.031E-02    5.057E-02    6.086E-02    7.118E-02    8.153E-02    9.191E-02    1.023E-01
     1.128E-01    1.232E-01    1.337E-01    1.442E-01    1.548E-01    1.653E-01    1.759E-01    1.865E-01    1.972E-01    2.079E-01
     2.185E-01    2.293E-01    2.400E-01    2.508E-01    2.615E-01    2.723E-01    2.831E-01    2.940E-01    3.048E-01    3.157E-01
     3.266E-01    3.375E-01    3.485E-01    3.594E-01    3.704E-01    3.814E-01    3.924E-01    4.034E-01    4.144E-01    4.255E-01
     4.365E-01    4.476E-01    4.587E-01    4.698E-01    4.809E-01    4.920E-01    5.032E-01    5.143E-01    5.255E-01    5.366E-01
     5.478E-01    5.590E-01    5.702E-01    5.814E-01    5.926E-01    6.038E-01    6.150E-01    6.263E-01    6.375E-01    6.487E-01
     6.600E-01    6.712E-01    6.825E-01    6.938E-01    7.051E-01    7.163E-01    7.276E-01    7.389E-01    7.502E-01    7.615E-01
     7.728E-01    7.841E-01    7.954E-01    8.067E-01    8.180E-01    8.294E-01    8.407E-01    8.520E-01    8.633E-01    8.747E-01
     8.860E-01    8.973E-01    9.087E-01    9.200E-01    9.313E-01    9.427E-01    9.540E-01    9.654E-01    9.767E-01    9.880E-01
     9.994E-01    1.011E+00    1.022E+00    1.033E+00    1.045E+00    1.056E+00    1.067E+00    1.079E+00
 Ala      Conc. = 1.43E+02
