 LCModel (Version 6.3-1L) Copyright: S.W. Provencher.          Ref.: Magn. Reson. Med. 30:672-679 (1993).                
 Slice#1 Row#4 Col#6  PD_24_press_2_raw_act
 36 lines in following concentration table = NCONC+1
    Conc.  %SD /Cr+PCr  Metabolite                                         
  279.391 108%   0.231 Ala                                                 
  288.362 103%   0.238 Asp                                                 
    0.000 999%   0.000 Cr                                                  
 1.21E+03  12%   1.000 PCr                                                 
   65.070 283% 5.4E-02 GABA                                                
  134.104 136%   0.111 Glc                                                 
  565.486 110%   0.467 Gln                                                 
   53.131 999% 4.4E-02 Glu                                                 
    0.000 999%   0.000 GPC                                                 
  589.900   9%   0.487 PCh                                                 
  510.937  38%   0.422 GSH                                                 
 1.64E+03  39%   1.350 Ins                                                 
    0.000 999%   0.000 Lac                                                 
 2.00E+03  13%   1.652 NAA                                                 
  465.989  61%   0.385 NAAG                                                
  134.950  37%   0.111 Scyllo                                              
  544.480  53%   0.449 Tau                                                 
  806.116  27%   0.665 -CrCH2                                              
  589.900   9%   0.487 GPC+PCh                                             
 2.47E+03   8%   2.037 NAA+NAAG                                            
 1.21E+03  12%   1.000 Cr+PCr                                              
  618.617 159%   0.511 Glu+Gln                                             
 4.51E+03  29%   3.723 Lip13a                                              
    0.000 999%   0.000 Lip13b                                              
 1.12E+03  55%   0.927 Lip09                                               
 2.60E+03  27%   2.143 MM09                                                
  687.448  62%   0.567 Lip20                                               
 4.63E+03  20%   3.823 MM20                                                
  888.077  60%   0.733 MM12                                                
  757.652 107%   0.625 MM14                                                
 1.25E+03  37%   1.033 MM17                                                
 4.51E+03  29%   3.723 Lip13a+Lip13b                                       
 6.16E+03  15%   5.081 MM14+Lip13a+Lip13b+MM12                             
 3.72E+03  12%   3.070 MM09+Lip09                                          
 5.32E+03  16%   4.391 MM20+Lip20                                          
   6 lines in following misc. output table
  FWHM = 0.054 ppm    S/N =   4                                            
  Data shift = 0.031 ppm                                                   
  Ph: -54 deg     -10.9 deg/ppm                                            
  alphaB,S = 8.5E+01,   8.9E+01                                            
   14 spline knots.   Ns = 7(1)                                            
   2 inflections.     1 extrema                                            
  498 points on ppm-axis = NY
      4.000000     3.992357     3.984714     3.977070     3.969427     3.961784     3.954141     3.946497     3.938854     3.931211
      3.923568     3.915925     3.908281     3.900638     3.892995     3.885352     3.877708     3.870065     3.862422     3.854779
      3.847136     3.839492     3.831849     3.824206     3.816563     3.808919     3.801276     3.793633     3.785990     3.778347
      3.770703     3.763060     3.755417     3.747774     3.740130     3.732487     3.724844     3.717201     3.709558     3.701914
      3.694271     3.686628     3.678985     3.671341     3.663698     3.656055     3.648412     3.640769     3.633125     3.625482
      3.617839     3.610196     3.602552     3.594909     3.587266     3.579623     3.571980     3.564336     3.556693     3.549050
      3.541407     3.533763     3.526120     3.518477     3.510834     3.503191     3.495547     3.487904     3.480261     3.472618
      3.464974     3.457331     3.449688     3.442045     3.434402     3.426758     3.419115     3.411472     3.403829     3.396185
      3.388542     3.380899     3.373256     3.365613     3.357969     3.350326     3.342683     3.335040     3.327396     3.319753
      3.312110     3.304467     3.296824     3.289180     3.281537     3.273894     3.266251     3.258607     3.250964     3.243321
      3.235678     3.228034     3.220391     3.212748     3.205105     3.197462     3.189818     3.182175     3.174532     3.166889
      3.159245     3.151602     3.143959     3.136316     3.128673     3.121029     3.113386     3.105743     3.098100     3.090456
      3.082813     3.075170     3.067527     3.059884     3.052240     3.044597     3.036954     3.029311     3.021667     3.014024
      3.006381     2.998738     2.991095     2.983451     2.975808     2.968165     2.960522     2.952878     2.945235     2.937592
      2.929949     2.922306     2.914662     2.907019     2.899376     2.891733     2.884089     2.876446     2.868803     2.861160
      2.853517     2.845873     2.838230     2.830587     2.822944     2.815300     2.807657     2.800014     2.792371     2.784728
      2.777084     2.769441     2.761798     2.754155     2.746511     2.738868     2.731225     2.723582     2.715939     2.708295
      2.700652     2.693009     2.685366     2.677722     2.670079     2.662436     2.654793     2.647150     2.639506     2.631863
      2.624220     2.616577     2.608933     2.601290     2.593647     2.586004     2.578361     2.570717     2.563074     2.555431
      2.547788     2.540144     2.532501     2.524858     2.517215     2.509572     2.501928     2.494285     2.486642     2.478999
      2.471355     2.463712     2.456069     2.448426     2.440783     2.433139     2.425496     2.417853     2.410210     2.402566
      2.394923     2.387280     2.379637     2.371994     2.364350     2.356707     2.349064     2.341421     2.333777     2.326134
      2.318491     2.310848     2.303205     2.295561     2.287918     2.280275     2.272632     2.264988     2.257345     2.249702
      2.242059     2.234416     2.226772     2.219129     2.211486     2.203843     2.196199     2.188556     2.180913     2.173270
      2.165627     2.157983     2.150340     2.142697     2.135054     2.127410     2.119767     2.112124     2.104481     2.096838
      2.089194     2.081551     2.073908     2.066265     2.058621     2.050978     2.043335     2.035692     2.028049     2.020405
      2.012762     2.005119     1.997476     1.989833     1.982190     1.974546     1.966903     1.959260     1.951617     1.943974
      1.936331     1.928688     1.921045     1.913402     1.905759     1.898115     1.890472     1.882829     1.875186     1.867543
      1.859900     1.852257     1.844614     1.836971     1.829327     1.821684     1.814041     1.806398     1.798755     1.791112
      1.783469     1.775826     1.768183     1.760540     1.752896     1.745253     1.737610     1.729967     1.722324     1.714681
      1.707038     1.699395     1.691752     1.684108     1.676465     1.668822     1.661179     1.653536     1.645893     1.638250
      1.630607     1.622964     1.615321     1.607677     1.600034     1.592391     1.584748     1.577105     1.569462     1.561819
      1.554176     1.546533     1.538890     1.531246     1.523603     1.515960     1.508317     1.500674     1.493031     1.485388
      1.477745     1.470102     1.462458     1.454815     1.447172     1.439529     1.431886     1.424243     1.416600     1.408957
      1.401314     1.393671     1.386027     1.378384     1.370741     1.363098     1.355455     1.347812     1.340169     1.332526
      1.324883     1.317240     1.309596     1.301953     1.294310     1.286667     1.279024     1.271381     1.263738     1.256095
      1.248452     1.240808     1.233165     1.225522     1.217879     1.210236     1.202593     1.194950     1.187307     1.179664
      1.172021     1.164377     1.156734     1.149091     1.141448     1.133805     1.126162     1.118519     1.110876     1.103233
      1.095590     1.087946     1.080303     1.072660     1.065017     1.057374     1.049731     1.042088     1.034445     1.026802
      1.019158     1.011515     1.003872     0.996229     0.988586     0.980943     0.973300     0.965657     0.958014     0.950371
      0.942727     0.935084     0.927441     0.919798     0.912155     0.904512     0.896869     0.889226     0.881583     0.873940
      0.866296     0.858653     0.851010     0.843367     0.835724     0.828081     0.820438     0.812795     0.805152     0.797508
      0.789865     0.782222     0.774579     0.766936     0.759293     0.751650     0.744007     0.736364     0.728721     0.721077
      0.713434     0.705791     0.698148     0.690505     0.682862     0.675219     0.667576     0.659933     0.652290     0.644646
      0.637003     0.629360     0.621717     0.614074     0.606431     0.598788     0.591145     0.583502     0.575858     0.568215
      0.560572     0.552929     0.545286     0.537643     0.530000     0.522357     0.514714     0.507071     0.499427     0.491784
      0.484141     0.476498     0.468855     0.461212     0.453569     0.445925     0.438282     0.430639     0.422996     0.415353
      0.407710     0.400067     0.392424     0.384780     0.377137     0.369494     0.361851     0.354208     0.346565     0.338922
      0.331278     0.323635     0.315992     0.308349     0.300706     0.293063     0.285420     0.277777     0.270133     0.262490
      0.254847     0.247204     0.239561     0.231918     0.224275     0.216631     0.208988     0.201345
 NY phased data points follow
  -5.26769E+01 -2.39185E+01 -2.85212E+01 -4.48842E+01 -3.57954E+01 -3.46276E+01 -4.03597E+01 -1.86586E+01 -1.85084E+01 -2.44351E+01
  -2.26553E+01 -1.18294E+01 -1.58573E+01 -1.43082E+01 -3.34477E+01 -2.34030E+01 -1.17506E+01 -2.13598E+01 -4.63105E+01 -3.24423E+01
  -2.36426E+01 -2.56555E+01 -3.57493E+01 -1.82917E+01 -2.48381E+01 -2.23555E+01 -2.11943E+01 -1.67751E+01 -2.96908E+01 -2.31327E+01
  -1.62093E+01  6.15691E+00 -1.45193E+01 -4.36117E+00 -2.72506E+01 -3.04231E+01 -2.57877E+01 -1.17208E+01 -2.77610E+01 -1.59194E+01
  -2.81324E+01 -2.98457E+01 -3.20324E+01 -2.42674E+01 -1.55039E+01 -1.97556E+01 -1.70007E+01 -1.48529E+00 -9.20937E-01 -3.59960E+00
  -7.72035E+00 -4.45325E+00 -1.34189E+01 -1.73223E+01 -2.68303E+01 -1.58159E+01 -2.42937E+01 -1.17283E+01 -7.82335E+00 -2.74715E+01
  -1.73916E+01 -2.14513E+01 -2.77874E+01 -1.05065E+01 -3.00477E+01 -3.29468E+01 -1.75479E+01 -3.57487E+01 -2.74069E+01 -2.76623E+01
  -8.88844E+00 -4.93386E+00 -8.56122E+00 -1.39220E+01 -2.16675E+01 -1.92486E+00 -5.05691E+00 -9.66117E+00 -1.86858E+01 -1.73391E+01
  -2.01809E+01 -2.22579E+01 -1.21624E+01  1.03632E+00 -6.78647E+00 -2.12926E+01 -6.24568E+00 -1.08110E+01 -1.62892E+01 -3.77969E-01
  -1.46809E+01 -1.33177E+01 -6.46574E+00 -8.62185E+00  2.71190E+00  9.35273E+00 -1.22535E+01 -9.11844E+00 -4.34142E+00  5.08161E+00
   2.07385E+01  2.57366E+01  3.70473E+01  3.86175E+01  3.44178E+01  1.88440E+01  1.75866E+01  7.35294E+00  8.58879E+00  5.25733E+00
  -4.43345E+00 -2.07632E+00 -1.00253E+01  2.26934E+00 -1.46138E+01 -4.60331E-01 -1.25689E+01  5.58630E-01 -9.19154E+00 -7.96646E+00
  -2.75622E+00 -6.51438E+00 -1.14528E+01 -4.94068E+00 -2.32977E+00  3.17603E+00  1.43196E+01  4.06092E+01  4.01379E+01  2.41899E+01
   1.66156E+01  8.41707E+00  2.98327E+00  7.63591E+00  5.78379E+00  7.39876E+00 -4.83155E+00 -5.92643E+00 -9.66664E+00  3.02493E+00
  -1.28397E+01 -1.16590E+01 -9.50407E+00 -2.89160E+00 -1.54740E+01 -1.78029E+01 -1.17909E+01 -2.04300E+01 -9.75065E+00 -2.16548E+01
  -1.54206E+01 -4.33764E+00 -7.75627E+00 -3.93111E+00 -1.21609E+01 -3.59298E+00 -1.17997E+01  5.02230E+00 -5.86652E+00 -1.39542E+01
  -2.30443E+01 -3.02737E+01 -1.91003E+01 -7.30873E+00 -2.29481E+01 -1.75487E+01 -7.69537E+00 -2.75686E+01 -1.22157E+01 -1.81937E+01
  -1.98523E+01 -1.63797E+01 -1.92961E+01 -2.33223E+01 -2.20951E+01 -2.26036E+01 -1.71085E+01 -2.08708E+01 -3.49081E+01 -2.23891E+01
  -1.46575E+01 -1.94403E+01 -1.75069E+01 -2.61384E+01 -1.30341E+01 -1.07840E+01 -1.47047E+01 -6.20723E-03 -1.33287E+01 -2.46830E+01
  -1.96022E+01 -5.82688E+00 -9.69603E+00 -1.90310E+01 -1.56347E+01 -2.69128E+01 -1.61320E+01 -1.54362E+01 -1.17213E+01 -1.57427E+01
  -1.80215E+01 -1.81284E+01 -3.18797E+00 -2.25935E-01  6.68413E-01  1.03243E+01  1.66685E-01 -4.91239E+00 -9.22476E+00 -1.79466E+00
  -2.60894E+00  1.06501E+01  2.93523E+00  5.01987E-01  1.03642E+00 -1.51208E+00  1.87120E+01 -1.75900E+01  3.46062E+00  2.53195E+01
   1.07086E+01 -1.11475E+01  1.14348E+00  3.08868E+00  1.29267E+00  4.89672E+00  3.55112E+00  1.81742E+00 -3.51580E+00 -7.59577E-01
   5.42377E+00  1.37254E+01  4.40397E+00  1.49479E+00  2.70843E+00  1.37365E+01  3.14121E+00  1.35817E+01  1.26132E+01 -2.36098E+00
   1.84417E+01 -6.76502E+00 -2.56516E+00  6.97409E+00  2.40046E+00  6.97155E-01  6.80600E+00  9.31526E+00  2.50978E+01  5.83932E+00
   1.68985E+01  2.03997E+01  1.50570E+01  3.08459E+01  4.08510E+01  4.02280E+01  5.35081E+01  6.17625E+01  7.39101E+01  6.09252E+01
   7.97059E+01  9.11441E+01  8.22344E+01  5.14852E+01  4.92198E+01  2.26078E+01  2.48739E+01  1.73657E+01  1.04809E+01  1.77643E+01
   1.68171E+01  1.40508E+01 -1.49779E+01 -9.92050E+00  6.40813E-01  2.62391E+00 -5.17173E+00  1.02812E+01 -6.87729E+00  1.16365E+01
   4.80129E+00 -5.91373E+00  5.30852E+00 -3.53630E+00 -2.26163E+00  1.62022E+01 -1.08968E+01 -6.05479E+00 -6.04655E+00  6.55447E+00
   3.00334E+00 -3.97171E+00  1.06410E+01  8.72109E+00  5.07179E+00  1.07739E+01 -6.79268E-02 -9.45619E+00  7.07838E+00  1.41791E+01
   4.97145E+00  1.54063E+01  1.61493E+01  1.25042E+01  6.89538E+00  1.78892E+01 -4.28075E+00  3.57669E+00  1.16369E+00  6.67049E+00
   2.31768E+01  5.15726E+00  7.60171E+00  1.00091E+01  6.20079E+00  1.43517E+01 -1.39360E-01 -3.48998E+00  9.18668E+00  7.12913E+00
   1.66960E+01  3.39190E+00 -8.87599E-01  1.74460E+01 -9.66126E-01  3.71047E+00  4.55032E+00 -1.26162E-01  8.50283E+00 -1.58595E+01
   1.77646E+01  7.93068E+00  1.51812E+01 -1.32569E+01  2.21399E+01  1.65515E+01  1.49433E+01  1.36145E+01  8.12678E+00  2.50250E+01
   2.61744E+01  2.12045E+01  2.53640E+01  1.75744E+01  6.77983E+00  3.94745E+01  1.35259E+01  2.42049E+01  3.11297E+01  2.87301E+01
   1.37152E+01  3.42418E+01  2.25976E+01  2.34914E+01  2.61171E+01  2.88851E+01  1.58383E+01  1.47405E+01  3.12617E+01  1.85310E+01
   2.59490E+01  1.98432E+01  1.80968E+01  2.86091E+01  7.94607E+00  1.02664E+01  2.27597E+01  2.03328E+01  2.45263E+01  3.17121E+01
   3.31550E+01  1.79366E+01  2.64652E+01  2.33307E+01  1.76130E+01  2.95183E+01  2.51764E+01  7.46658E+00  1.71418E+01  6.25557E+00
   1.79421E+01  1.64277E+01  6.92996E+00  5.68475E+00  7.40368E+00  4.05770E+01  3.25816E+01  1.79648E-01  2.35112E+01  1.75986E+01
   9.48900E+00  2.63720E+01  1.34917E+01 -9.90155E-01  4.23580E+01  3.21944E+00  2.15690E+01  1.37439E+01  3.15202E+01  2.75078E+01
   1.35310E+01  1.46819E+01  1.86173E+01  2.39158E+01  3.91639E+01  2.68704E+01  2.81826E+01  3.82907E+01  3.84350E+01  2.86828E+01
   3.00206E+01  2.65794E+01  3.91576E+01  3.66557E+01  2.52217E+01  3.21371E+01  2.78254E+01  2.22361E+01  2.22802E+01  2.13500E+01
   2.60042E+01  1.90331E+01  3.67927E+01  3.03281E+01  2.59611E+01  3.03511E+01  2.25213E+01  1.86070E+01  1.21824E+01  2.44805E+01
   1.97738E+01  1.59737E+01  1.81853E+01  2.43115E+01  2.92187E+01  1.46609E+01  6.72579E+00  6.08081E+00  2.25096E+01  5.20624E+00
   8.81262E+00  1.28128E+01  1.48996E+01  9.76979E+00  6.60093E-01  1.28571E+01  1.48598E+01  2.53237E+01  9.42975E+00  1.48057E+01
   2.42872E+01  1.28553E+01  3.47848E+00  6.04199E+00  4.14696E+00  1.06103E+01  1.98489E+01  6.65652E+00  5.67920E+00  2.20004E+01
   2.13113E+01  1.14829E+01 -3.18363E+00 -8.10110E+00 -5.89638E+00  2.47366E+01  1.27180E-01 -7.65064E+00  1.70870E+01  8.07365E+00
   2.15593E+00  1.47652E+01  1.95092E+01  4.04973E+00  1.06370E+01  2.08136E+01  1.26485E+01  1.60923E+01  7.21789E+00  1.67954E+00
   5.79245E+00 -1.90316E+00  1.18610E+01 -2.27637E+00  1.58998E+01  1.01610E+01  2.10514E+01  1.39634E+00  1.59691E+01  1.30181E+01
   7.26303E+00  1.13543E+01  6.48043E+00  1.95874E+01  2.50072E+01  1.69931E+01  1.16439E+01  3.05404E+00
 NY points of the fit to the data follow
  -2.38098E+01 -2.49533E+01 -2.60539E+01 -2.67689E+01 -2.71197E+01 -2.69665E+01 -2.61450E+01 -2.46309E+01 -2.24504E+01 -1.96839E+01
  -1.69893E+01 -1.55070E+01 -1.58182E+01 -1.74731E+01 -1.94520E+01 -2.09551E+01 -2.20110E+01 -2.32463E+01 -2.45187E+01 -2.48951E+01
  -2.47622E+01 -2.44957E+01 -2.42327E+01 -2.38433E+01 -2.32069E+01 -2.21818E+01 -2.06037E+01 -1.84428E+01 -1.58819E+01 -1.33197E+01
  -1.13552E+01 -1.05805E+01 -1.11935E+01 -1.27945E+01 -1.46897E+01 -1.64294E+01 -1.79511E+01 -1.93690E+01 -2.06964E+01 -2.16654E+01
  -2.22089E+01 -2.22511E+01 -2.16170E+01 -2.02909E+01 -1.84250E+01 -1.62904E+01 -1.42298E+01 -1.26866E+01 -1.22123E+01 -1.30970E+01
  -1.50291E+01 -1.72777E+01 -1.91095E+01 -2.02119E+01 -2.07448E+01 -2.08494E+01 -2.04420E+01 -1.94790E+01 -1.82400E+01 -1.71181E+01
  -1.63738E+01 -1.61131E+01 -1.63217E+01 -1.68527E+01 -1.74489E+01 -1.78218E+01 -1.78910E+01 -1.77476E+01 -1.74061E+01 -1.68531E+01
  -1.61745E+01 -1.54169E+01 -1.46856E+01 -1.41346E+01 -1.38837E+01 -1.39504E+01 -1.43268E+01 -1.49729E+01 -1.56927E+01 -1.61808E+01
  -1.61944E+01 -1.56612E+01 -1.47467E+01 -1.37308E+01 -1.28062E+01 -1.21234E+01 -1.19472E+01 -1.24750E+01 -1.36344E+01 -1.50296E+01
  -1.61861E+01 -1.68517E+01 -1.71175E+01 -1.72492E+01 -1.72131E+01 -1.63378E+01 -1.35378E+01 -8.77234E+00 -2.16579E+00  6.19567E+00
   1.56969E+01  2.52310E+01  3.31977E+01  3.73803E+01  3.60069E+01  2.94698E+01  2.03177E+01  1.13946E+01  4.17744E+00 -1.72771E+00
  -7.06335E+00 -1.13086E+01 -1.32631E+01 -1.38546E+01 -1.41008E+01 -1.42192E+01 -1.42806E+01 -1.42641E+01 -1.41574E+01 -1.38701E+01
  -1.29078E+01 -1.05133E+01 -6.64494E+00 -1.27223E+00  5.43456E+00  1.28305E+01  1.99170E+01  2.53685E+01  2.75217E+01  2.54786E+01
   2.01255E+01  1.35007E+01  7.31701E+00  2.11554E+00 -2.60897E+00 -7.08527E+00 -1.03973E+01 -1.17522E+01 -1.20195E+01 -1.17117E+01
  -1.11417E+01 -1.05801E+01 -1.01533E+01 -9.89776E+00 -9.85900E+00 -1.00011E+01 -1.02703E+01 -1.06558E+01 -1.11191E+01 -1.15801E+01
  -1.19940E+01 -1.23187E+01 -1.25754E+01 -1.27774E+01 -1.29461E+01 -1.30841E+01 -1.32200E+01 -1.34053E+01 -1.36473E+01 -1.39504E+01
  -1.42637E+01 -1.44626E+01 -1.44536E+01 -1.42705E+01 -1.40464E+01 -1.39282E+01 -1.39992E+01 -1.42021E+01 -1.44191E+01 -1.46308E+01
  -1.48808E+01 -1.51529E+01 -1.54442E+01 -1.57434E+01 -1.60169E+01 -1.62577E+01 -1.63975E+01 -1.63476E+01 -1.61532E+01 -1.59658E+01
  -1.58913E+01 -1.58711E+01 -1.57300E+01 -1.53380E+01 -1.47205E+01 -1.39892E+01 -1.31540E+01 -1.20892E+01 -1.07686E+01 -9.37386E+00
  -8.25381E+00 -7.70765E+00 -7.77410E+00 -8.27919E+00 -8.98614E+00 -9.66960E+00 -1.01518E+01 -1.02545E+01 -9.85558E+00 -8.95130E+00
  -7.66229E+00 -6.26232E+00 -5.11129E+00 -4.49237E+00 -4.45907E+00 -4.96721E+00 -5.96259E+00 -7.29217E+00 -8.60036E+00 -9.56187E+00
  -9.98586E+00 -9.81055E+00 -9.13733E+00 -8.14507E+00 -7.01288E+00 -5.85810E+00 -4.75036E+00 -3.75344E+00 -2.95979E+00 -2.39217E+00
  -1.89427E+00 -1.36933E+00 -8.71683E-01 -4.04986E-01  2.08668E-02  3.51376E-01  5.57211E-01  6.45402E-01  6.57214E-01  6.47826E-01
   7.24998E-01  1.01857E+00  1.61927E+00  2.56244E+00  3.76852E+00  5.03104E+00  6.14784E+00  7.02133E+00  7.59900E+00  7.85677E+00
   7.83320E+00  7.69544E+00  7.69112E+00  8.00536E+00  8.68493E+00  9.65861E+00  1.08660E+01  1.21931E+01  1.35597E+01  1.52241E+01
   1.73353E+01  1.99091E+01  2.30472E+01  2.75302E+01  3.40969E+01  4.23263E+01  5.16968E+01  6.13649E+01  7.02879E+01  7.74658E+01
   8.13785E+01  7.98455E+01  7.18836E+01  5.93683E+01  4.60495E+01  3.49460E+01  2.63438E+01  1.90088E+01  1.25601E+01  8.33209E+00
   6.67944E+00  5.84961E+00  5.23724E+00  4.71154E+00  4.21887E+00  3.74152E+00  3.28239E+00  2.85578E+00  2.47929E+00  2.16973E+00
   1.93721E+00  1.77982E+00  1.68746E+00  1.65324E+00  1.67027E+00  1.73182E+00  1.83040E+00  1.97024E+00  2.16150E+00  2.41113E+00
   2.71829E+00  3.08098E+00  3.49180E+00  3.93349E+00  4.38449E+00  4.83424E+00  5.27666E+00  5.70924E+00  6.12766E+00  6.52449E+00
   6.89363E+00  7.23302E+00  7.53200E+00  7.77758E+00  7.96119E+00  8.08090E+00  8.13846E+00  8.13672E+00  8.07904E+00  7.97569E+00
   7.83820E+00  7.67825E+00  7.50804E+00  7.34049E+00  7.18835E+00  7.06488E+00  6.98303E+00  6.95742E+00  7.00673E+00  7.16457E+00
   7.47696E+00  7.90208E+00  8.37385E+00  8.83120E+00  9.17592E+00  9.29724E+00  9.09893E+00  8.51893E+00  7.68004E+00  6.88886E+00
   6.46838E+00  6.62923E+00  7.38865E+00  8.62022E+00  1.01940E+01  1.19988E+01  1.38154E+01  1.52848E+01  1.62864E+01  1.69746E+01
   1.75436E+01  1.80900E+01  1.85885E+01  1.90213E+01  1.95106E+01  2.01176E+01  2.07767E+01  2.14498E+01  2.21149E+01  2.27553E+01
   2.33565E+01  2.39059E+01  2.43917E+01  2.48037E+01  2.51330E+01  2.53724E+01  2.55162E+01  2.55615E+01  2.55069E+01  2.53540E+01
   2.51058E+01  2.47678E+01  2.43469E+01  2.38521E+01  2.32933E+01  2.26819E+01  2.20294E+01  2.13476E+01  2.06484E+01  1.99437E+01
   1.92445E+01  1.85612E+01  1.79032E+01  1.72790E+01  1.66961E+01  1.61611E+01  1.56795E+01  1.52562E+01  1.48948E+01  1.45987E+01
   1.43705E+01  1.42130E+01  1.41280E+01  1.41179E+01  1.41842E+01  1.43292E+01  1.45549E+01  1.48634E+01  1.52565E+01  1.57358E+01
   1.63023E+01  1.69566E+01  1.76979E+01  1.85241E+01  1.94310E+01  2.04126E+01  2.14600E+01  2.25620E+01  2.37042E+01  2.48696E+01
   2.60381E+01  2.71876E+01  2.82940E+01  2.93326E+01  3.02781E+01  3.11064E+01  3.17949E+01  3.23242E+01  3.26789E+01  3.28483E+01
   3.28265E+01  3.26137E+01  3.22151E+01  3.16419E+01  3.09094E+01  3.00374E+01  2.90484E+01  2.79670E+01  2.68184E+01  2.56279E+01
   2.44197E+01  2.32160E+01  2.20362E+01  2.08969E+01  1.98114E+01  1.87900E+01  1.78397E+01  1.69647E+01  1.61666E+01  1.54449E+01
   1.47973E+01  1.42207E+01  1.37105E+01  1.32618E+01  1.28693E+01  1.25277E+01  1.22319E+01  1.19770E+01  1.17585E+01  1.15720E+01
   1.14137E+01  1.12802E+01  1.11686E+01  1.10763E+01  1.10009E+01  1.09404E+01  1.08929E+01  1.08571E+01  1.08315E+01  1.08152E+01
   1.08069E+01  1.08059E+01  1.08113E+01  1.08227E+01  1.08393E+01  1.08608E+01  1.08866E+01  1.09162E+01  1.09494E+01  1.09859E+01
   1.10254E+01  1.10677E+01  1.11124E+01  1.11594E+01  1.12085E+01  1.12597E+01  1.13127E+01  1.13675E+01  1.14237E+01  1.14813E+01
   1.15404E+01  1.16008E+01  1.16623E+01  1.17250E+01  1.17886E+01  1.18532E+01  1.19188E+01  1.19853E+01  1.20526E+01  1.21206E+01
   1.21893E+01  1.22588E+01  1.23289E+01  1.23998E+01  1.24711E+01  1.25430E+01  1.26155E+01  1.26885E+01  1.27620E+01  1.28361E+01
   1.29106E+01  1.29855E+01  1.30609E+01  1.31369E+01  1.32132E+01  1.32901E+01  1.33673E+01  1.34449E+01
 NY background values follow
    -2.799E+01   -2.791E+01   -2.782E+01   -2.774E+01   -2.766E+01   -2.757E+01   -2.749E+01   -2.741E+01   -2.732E+01   -2.724E+01
    -2.716E+01   -2.708E+01   -2.699E+01   -2.691E+01   -2.683E+01   -2.674E+01   -2.666E+01   -2.658E+01   -2.649E+01   -2.641E+01
    -2.633E+01   -2.624E+01   -2.616E+01   -2.608E+01   -2.599E+01   -2.591E+01   -2.583E+01   -2.574E+01   -2.566E+01   -2.558E+01
    -2.549E+01   -2.541E+01   -2.533E+01   -2.525E+01   -2.516E+01   -2.508E+01   -2.500E+01   -2.491E+01   -2.483E+01   -2.475E+01
    -2.466E+01   -2.458E+01   -2.450E+01   -2.441E+01   -2.433E+01   -2.425E+01   -2.416E+01   -2.408E+01   -2.400E+01   -2.391E+01
    -2.383E+01   -2.375E+01   -2.366E+01   -2.358E+01   -2.350E+01   -2.341E+01   -2.333E+01   -2.325E+01   -2.316E+01   -2.308E+01
    -2.300E+01   -2.291E+01   -2.283E+01   -2.274E+01   -2.266E+01   -2.258E+01   -2.249E+01   -2.241E+01   -2.233E+01   -2.224E+01
    -2.216E+01   -2.208E+01   -2.199E+01   -2.191E+01   -2.183E+01   -2.174E+01   -2.166E+01   -2.158E+01   -2.149E+01   -2.141E+01
    -2.133E+01   -2.124E+01   -2.116E+01   -2.108E+01   -2.099E+01   -2.091E+01   -2.083E+01   -2.074E+01   -2.066E+01   -2.057E+01
    -2.049E+01   -2.041E+01   -2.032E+01   -2.024E+01   -2.016E+01   -2.007E+01   -1.999E+01   -1.991E+01   -1.982E+01   -1.974E+01
    -1.966E+01   -1.957E+01   -1.949E+01   -1.940E+01   -1.932E+01   -1.924E+01   -1.915E+01   -1.907E+01   -1.899E+01   -1.890E+01
    -1.882E+01   -1.874E+01   -1.865E+01   -1.857E+01   -1.849E+01   -1.840E+01   -1.832E+01   -1.823E+01   -1.815E+01   -1.807E+01
    -1.798E+01   -1.790E+01   -1.782E+01   -1.773E+01   -1.765E+01   -1.757E+01   -1.748E+01   -1.740E+01   -1.731E+01   -1.723E+01
    -1.715E+01   -1.706E+01   -1.698E+01   -1.690E+01   -1.681E+01   -1.673E+01   -1.665E+01   -1.656E+01   -1.648E+01   -1.639E+01
    -1.631E+01   -1.623E+01   -1.614E+01   -1.606E+01   -1.598E+01   -1.589E+01   -1.581E+01   -1.572E+01   -1.564E+01   -1.556E+01
    -1.547E+01   -1.539E+01   -1.531E+01   -1.522E+01   -1.514E+01   -1.505E+01   -1.497E+01   -1.489E+01   -1.480E+01   -1.472E+01
    -1.464E+01   -1.455E+01   -1.447E+01   -1.438E+01   -1.430E+01   -1.422E+01   -1.413E+01   -1.405E+01   -1.397E+01   -1.388E+01
    -1.380E+01   -1.371E+01   -1.363E+01   -1.355E+01   -1.346E+01   -1.338E+01   -1.330E+01   -1.321E+01   -1.313E+01   -1.304E+01
    -1.296E+01   -1.288E+01   -1.279E+01   -1.271E+01   -1.263E+01   -1.254E+01   -1.246E+01   -1.237E+01   -1.229E+01   -1.221E+01
    -1.212E+01   -1.204E+01   -1.196E+01   -1.187E+01   -1.179E+01   -1.170E+01   -1.162E+01   -1.154E+01   -1.145E+01   -1.137E+01
    -1.128E+01   -1.120E+01   -1.112E+01   -1.103E+01   -1.095E+01   -1.087E+01   -1.078E+01   -1.070E+01   -1.061E+01   -1.053E+01
    -1.045E+01   -1.036E+01   -1.028E+01   -1.020E+01   -1.011E+01   -1.003E+01   -9.944E+00   -9.860E+00   -9.776E+00   -9.692E+00
    -9.609E+00   -9.525E+00   -9.441E+00   -9.357E+00   -9.273E+00   -9.190E+00   -9.106E+00   -9.022E+00   -8.938E+00   -8.854E+00
    -8.770E+00   -8.687E+00   -8.603E+00   -8.519E+00   -8.435E+00   -8.351E+00   -8.267E+00   -8.184E+00   -8.100E+00   -8.016E+00
    -7.932E+00   -7.848E+00   -7.764E+00   -7.681E+00   -7.597E+00   -7.513E+00   -7.429E+00   -7.345E+00   -7.261E+00   -7.178E+00
    -7.094E+00   -7.010E+00   -6.926E+00   -6.842E+00   -6.759E+00   -6.675E+00   -6.591E+00   -6.507E+00   -6.423E+00   -6.339E+00
    -6.256E+00   -6.172E+00   -6.088E+00   -6.004E+00   -5.920E+00   -5.836E+00   -5.753E+00   -5.669E+00   -5.585E+00   -5.501E+00
    -5.417E+00   -5.334E+00   -5.250E+00   -5.166E+00   -5.082E+00   -4.998E+00   -4.914E+00   -4.831E+00   -4.747E+00   -4.663E+00
    -4.579E+00   -4.495E+00   -4.412E+00   -4.328E+00   -4.244E+00   -4.160E+00   -4.076E+00   -3.993E+00   -3.909E+00   -3.825E+00
    -3.741E+00   -3.657E+00   -3.573E+00   -3.490E+00   -3.406E+00   -3.322E+00   -3.238E+00   -3.155E+00   -3.071E+00   -2.987E+00
    -2.903E+00   -2.819E+00   -2.736E+00   -2.652E+00   -2.568E+00   -2.484E+00   -2.400E+00   -2.317E+00   -2.233E+00   -2.149E+00
    -2.065E+00   -1.982E+00   -1.898E+00   -1.814E+00   -1.730E+00   -1.646E+00   -1.563E+00   -1.479E+00   -1.395E+00   -1.311E+00
    -1.228E+00   -1.144E+00   -1.060E+00   -9.764E-01   -8.927E-01   -8.089E-01   -7.252E-01   -6.414E-01   -5.577E-01   -4.740E-01
    -3.902E-01   -3.065E-01   -2.228E-01   -1.390E-01   -5.531E-02    2.841E-02    1.121E-01    1.959E-01    2.796E-01    3.633E-01
     4.470E-01    5.307E-01    6.144E-01    6.981E-01    7.818E-01    8.655E-01    9.492E-01    1.033E+00    1.117E+00    1.200E+00
     1.284E+00    1.368E+00    1.451E+00    1.535E+00    1.619E+00    1.702E+00    1.786E+00    1.870E+00    1.953E+00    2.037E+00
     2.121E+00    2.204E+00    2.288E+00    2.372E+00    2.455E+00    2.539E+00    2.623E+00    2.706E+00    2.790E+00    2.874E+00
     2.957E+00    3.041E+00    3.124E+00    3.208E+00    3.292E+00    3.375E+00    3.459E+00    3.542E+00    3.626E+00    3.710E+00
     3.793E+00    3.877E+00    3.960E+00    4.044E+00    4.128E+00    4.211E+00    4.295E+00    4.378E+00    4.462E+00    4.545E+00
     4.629E+00    4.713E+00    4.796E+00    4.880E+00    4.963E+00    5.047E+00    5.130E+00    5.214E+00    5.297E+00    5.381E+00
     5.464E+00    5.548E+00    5.631E+00    5.715E+00    5.798E+00    5.882E+00    5.965E+00    6.049E+00    6.132E+00    6.216E+00
     6.299E+00    6.383E+00    6.466E+00    6.550E+00    6.633E+00    6.717E+00    6.800E+00    6.884E+00    6.967E+00    7.050E+00
     7.134E+00    7.217E+00    7.301E+00    7.384E+00    7.468E+00    7.551E+00    7.634E+00    7.718E+00    7.801E+00    7.885E+00
     7.968E+00    8.051E+00    8.135E+00    8.218E+00    8.302E+00    8.385E+00    8.468E+00    8.552E+00    8.635E+00    8.718E+00
     8.802E+00    8.885E+00    8.968E+00    9.052E+00    9.135E+00    9.218E+00    9.302E+00    9.385E+00    9.468E+00    9.552E+00
     9.635E+00    9.718E+00    9.801E+00    9.885E+00    9.968E+00    1.005E+01    1.013E+01    1.022E+01    1.030E+01    1.038E+01
     1.047E+01    1.055E+01    1.063E+01    1.072E+01    1.080E+01    1.088E+01    1.097E+01    1.105E+01    1.113E+01    1.122E+01
     1.130E+01    1.138E+01    1.147E+01    1.155E+01    1.163E+01    1.172E+01    1.180E+01    1.188E+01    1.196E+01    1.205E+01
     1.213E+01    1.221E+01    1.230E+01    1.238E+01    1.246E+01    1.255E+01    1.263E+01    1.271E+01    1.280E+01    1.288E+01
     1.296E+01    1.304E+01    1.313E+01    1.321E+01    1.329E+01    1.338E+01    1.346E+01    1.354E+01
 Ala      Conc. = 2.79E+02
