 LCModel (Version 6.3-1L) Copyright: S.W. Provencher.          Ref.: Magn. Reson. Med. 30:672-679 (1993).                
 Slice#3 Row#8 Col#5  PD_24_press_2_raw_act
 36 lines in following concentration table = NCONC+1
    Conc.  %SD /Cr+PCr  Metabolite                                         
    0.000 999%   0.000 Ala                                                 
  266.508 123% 9.2E-02 Asp                                                 
 1.96E+03  14%   0.679 Cr                                                  
  927.950  29%   0.321 PCr                                                 
    0.000 999%   0.000 GABA                                                
    0.000 999%   0.000 Glc                                                 
  809.024  33%   0.280 Gln                                                 
 2.08E+03  14%   0.721 Glu                                                 
  778.634   4%   0.270 GPC                                                 
    0.000 999%   0.000 PCh                                                 
  830.718  12%   0.288 GSH                                                 
 1.59E+03  20%   0.551 Ins                                                 
  218.677  65% 7.6E-02 Lac                                                 
 3.39E+03   3%   1.175 NAA                                                 
    0.000 999%   0.000 NAAG                                                
   64.252  56% 2.2E-02 Scyllo                                              
    0.000 999%   0.000 Tau                                                 
    0.000 999%   0.000 -CrCH2                                              
  778.634   4%   0.270 GPC+PCh                                             
 3.39E+03   3%   1.175 NAA+NAAG                                            
 2.89E+03   3%   1.000 Cr+PCr                                              
 2.89E+03  14%   1.001 Glu+Gln                                             
 2.05E+03  28%   0.712 Lip13a                                              
    0.000 999%   0.000 Lip13b                                              
    0.000 999%   0.000 Lip09                                               
 1.81E+03  16%   0.626 MM09                                                
  369.647  70%   0.128 Lip20                                               
 3.67E+03  14%   1.272 MM20                                                
  546.674  36%   0.189 MM12                                                
 1.16E+03  41%   0.401 MM14                                                
 2.09E+03  10%   0.725 MM17                                                
 2.05E+03  28%   0.712 Lip13a+Lip13b                                       
 3.76E+03  16%   1.302 MM14+Lip13a+Lip13b+MM12                             
 1.81E+03  16%   0.626 MM09+Lip09                                          
 4.04E+03  13%   1.400 MM20+Lip20                                          
   6 lines in following misc. output table
  FWHM = 0.046 ppm    S/N =  13                                            
  Data shift = 0.015 ppm                                                   
  Ph:   3 deg      -0.1 deg/ppm                                            
  alphaB,S = 1.0E+00,   9.8E+01                                            
   14 spline knots.   Ns = 5(1)                                            
  ( 6) 2 infls.   ( 3) 1 extrs.                                            
  498 points on ppm-axis = NY
      4.000000     3.992357     3.984714     3.977070     3.969427     3.961784     3.954141     3.946497     3.938854     3.931211
      3.923568     3.915925     3.908281     3.900638     3.892995     3.885352     3.877708     3.870065     3.862422     3.854779
      3.847136     3.839492     3.831849     3.824206     3.816563     3.808919     3.801276     3.793633     3.785990     3.778347
      3.770703     3.763060     3.755417     3.747774     3.740130     3.732487     3.724844     3.717201     3.709558     3.701914
      3.694271     3.686628     3.678985     3.671341     3.663698     3.656055     3.648412     3.640769     3.633125     3.625482
      3.617839     3.610196     3.602552     3.594909     3.587266     3.579623     3.571980     3.564336     3.556693     3.549050
      3.541407     3.533763     3.526120     3.518477     3.510834     3.503191     3.495547     3.487904     3.480261     3.472618
      3.464974     3.457331     3.449688     3.442045     3.434402     3.426758     3.419115     3.411472     3.403829     3.396185
      3.388542     3.380899     3.373256     3.365613     3.357969     3.350326     3.342683     3.335040     3.327396     3.319753
      3.312110     3.304467     3.296824     3.289180     3.281537     3.273894     3.266251     3.258607     3.250964     3.243321
      3.235678     3.228034     3.220391     3.212748     3.205105     3.197462     3.189818     3.182175     3.174532     3.166889
      3.159245     3.151602     3.143959     3.136316     3.128673     3.121029     3.113386     3.105743     3.098100     3.090456
      3.082813     3.075170     3.067527     3.059884     3.052240     3.044597     3.036954     3.029311     3.021667     3.014024
      3.006381     2.998738     2.991095     2.983451     2.975808     2.968165     2.960522     2.952878     2.945235     2.937592
      2.929949     2.922306     2.914662     2.907019     2.899376     2.891733     2.884089     2.876446     2.868803     2.861160
      2.853517     2.845873     2.838230     2.830587     2.822944     2.815300     2.807657     2.800014     2.792371     2.784728
      2.777084     2.769441     2.761798     2.754155     2.746511     2.738868     2.731225     2.723582     2.715939     2.708295
      2.700652     2.693009     2.685366     2.677722     2.670079     2.662436     2.654793     2.647150     2.639506     2.631863
      2.624220     2.616577     2.608933     2.601290     2.593647     2.586004     2.578361     2.570717     2.563074     2.555431
      2.547788     2.540144     2.532501     2.524858     2.517215     2.509572     2.501928     2.494285     2.486642     2.478999
      2.471355     2.463712     2.456069     2.448426     2.440783     2.433139     2.425496     2.417853     2.410210     2.402566
      2.394923     2.387280     2.379637     2.371994     2.364350     2.356707     2.349064     2.341421     2.333777     2.326134
      2.318491     2.310848     2.303205     2.295561     2.287918     2.280275     2.272632     2.264988     2.257345     2.249702
      2.242059     2.234416     2.226772     2.219129     2.211486     2.203843     2.196199     2.188556     2.180913     2.173270
      2.165627     2.157983     2.150340     2.142697     2.135054     2.127410     2.119767     2.112124     2.104481     2.096838
      2.089194     2.081551     2.073908     2.066265     2.058621     2.050978     2.043335     2.035692     2.028049     2.020405
      2.012762     2.005119     1.997476     1.989833     1.982190     1.974546     1.966903     1.959260     1.951617     1.943974
      1.936331     1.928688     1.921045     1.913402     1.905759     1.898115     1.890472     1.882829     1.875186     1.867543
      1.859900     1.852257     1.844614     1.836971     1.829327     1.821684     1.814041     1.806398     1.798755     1.791112
      1.783469     1.775826     1.768183     1.760540     1.752896     1.745253     1.737610     1.729967     1.722324     1.714681
      1.707038     1.699395     1.691752     1.684108     1.676465     1.668822     1.661179     1.653536     1.645893     1.638250
      1.630607     1.622964     1.615321     1.607677     1.600034     1.592391     1.584748     1.577105     1.569462     1.561819
      1.554176     1.546533     1.538890     1.531246     1.523603     1.515960     1.508317     1.500674     1.493031     1.485388
      1.477745     1.470102     1.462458     1.454815     1.447172     1.439529     1.431886     1.424243     1.416600     1.408957
      1.401314     1.393671     1.386027     1.378384     1.370741     1.363098     1.355455     1.347812     1.340169     1.332526
      1.324883     1.317240     1.309596     1.301953     1.294310     1.286667     1.279024     1.271381     1.263738     1.256095
      1.248452     1.240808     1.233165     1.225522     1.217879     1.210236     1.202593     1.194950     1.187307     1.179664
      1.172021     1.164377     1.156734     1.149091     1.141448     1.133805     1.126162     1.118519     1.110876     1.103233
      1.095590     1.087946     1.080303     1.072660     1.065017     1.057374     1.049731     1.042088     1.034445     1.026802
      1.019158     1.011515     1.003872     0.996229     0.988586     0.980943     0.973300     0.965657     0.958014     0.950371
      0.942727     0.935084     0.927441     0.919798     0.912155     0.904512     0.896869     0.889226     0.881583     0.873940
      0.866296     0.858653     0.851010     0.843367     0.835724     0.828081     0.820438     0.812795     0.805152     0.797508
      0.789865     0.782222     0.774579     0.766936     0.759293     0.751650     0.744007     0.736364     0.728721     0.721077
      0.713434     0.705791     0.698148     0.690505     0.682862     0.675219     0.667576     0.659933     0.652290     0.644646
      0.637003     0.629360     0.621717     0.614074     0.606431     0.598788     0.591145     0.583502     0.575858     0.568215
      0.560572     0.552929     0.545286     0.537643     0.530000     0.522357     0.514714     0.507071     0.499427     0.491784
      0.484141     0.476498     0.468855     0.461212     0.453569     0.445925     0.438282     0.430639     0.422996     0.415353
      0.407710     0.400067     0.392424     0.384780     0.377137     0.369494     0.361851     0.354208     0.346565     0.338922
      0.331278     0.323635     0.315992     0.308349     0.300706     0.293063     0.285420     0.277777     0.270133     0.262490
      0.254847     0.247204     0.239561     0.231918     0.224275     0.216631     0.208988     0.201345
 NY phased data points follow
   7.21931E+01  8.06206E+01  7.94810E+01  7.95694E+01  8.65066E+01  9.16447E+01  9.35280E+01  1.14019E+02  1.19908E+02  1.43862E+02
   1.54415E+02  1.62694E+02  1.50773E+02  1.43975E+02  1.22941E+02  1.20302E+02  1.02170E+02  9.50360E+01  8.12797E+01  8.32247E+01
   7.67142E+01  8.21351E+01  6.52005E+01  8.22474E+01  7.59409E+01  8.24760E+01  7.84549E+01  9.20439E+01  8.41287E+01  8.94658E+01
   9.05123E+01  9.62670E+01  9.17846E+01  8.79122E+01  7.92443E+01  7.30936E+01  6.99562E+01  7.04294E+01  6.26318E+01  7.59273E+01
   7.87541E+01  7.44598E+01  6.65059E+01  6.55817E+01  6.66848E+01  7.44754E+01  7.59992E+01  8.07211E+01  8.23387E+01  8.18618E+01
   7.25195E+01  6.92481E+01  6.50656E+01  6.47367E+01  5.86938E+01  6.24949E+01  6.00114E+01  6.69606E+01  5.33498E+01  6.31238E+01
   6.26568E+01  5.99823E+01  5.53817E+01  5.77949E+01  4.18938E+01  4.66452E+01  4.37280E+01  3.65450E+01  3.64683E+01  4.23500E+01
   4.65761E+01  4.69165E+01  5.24245E+01  5.10912E+01  4.44698E+01  5.11465E+01  3.95085E+01  5.35502E+01  4.18242E+01  3.88911E+01
   3.93445E+01  4.41619E+01  4.08440E+01  4.68258E+01  4.14503E+01  4.72691E+01  4.97118E+01  4.42821E+01  3.82872E+01  4.25511E+01
   3.08160E+01  4.82315E+01  4.20718E+01  4.30524E+01  4.03453E+01  3.28898E+01  3.20574E+01  4.01766E+01  3.54369E+01  4.63074E+01
   6.28805E+01  7.78710E+01  1.05264E+02  1.28370E+02  1.20950E+02  1.15817E+02  9.48389E+01  7.67260E+01  5.99715E+01  5.79741E+01
   4.54455E+01  4.73537E+01  3.89017E+01  4.26407E+01  4.38704E+01  3.86732E+01  3.39500E+01  3.58281E+01  3.21644E+01  3.18342E+01
   3.18108E+01  3.35358E+01  3.45685E+01  5.14871E+01  6.41072E+01  9.56641E+01  1.25131E+02  1.42758E+02  1.42545E+02  1.22890E+02
   1.02884E+02  7.84098E+01  6.20733E+01  6.02537E+01  4.68176E+01  3.33524E+01  2.83901E+01  2.85034E+01  3.03198E+01  2.92833E+01
   3.02783E+01  2.42410E+01  2.66284E+01  2.93566E+01  2.14252E+01  2.31116E+01  2.54927E+01  2.50663E+01  2.20271E+01  1.65745E+01
   1.78195E+01  2.38555E+01  1.48913E+01  2.44102E+01  1.41768E+01  2.07503E+01  2.57995E+01  1.96979E+01  1.86702E+01  2.57107E+01
   2.23789E+01  2.61358E+01  1.28094E+01  1.51251E+01  1.47283E+01  2.88487E+01  1.98146E+01  2.13400E+01  2.19739E+01  3.00695E+01
   1.93457E+01  2.72095E+01  1.87236E+01  1.22891E+01  6.90549E+00  3.01131E+00 -1.72542E+00 -9.55908E-01  8.42879E+00 -4.38560E-01
   5.84071E+00 -4.13969E-01  4.96255E+00  2.95930E+00  7.12975E+00  3.39951E+00  7.08462E+00  1.40424E+01  1.46035E+01  1.58538E+01
   2.97454E+01  2.57673E+01  2.72072E+01  3.02059E+01  2.63794E+01  3.42245E+01  1.96337E+01  2.06626E+01  1.54408E+01  1.89028E+01
   1.44433E+01  2.25534E+01  2.65554E+01  2.48667E+01  3.46198E+01  1.81064E+01  1.50595E+01  1.51502E+01  9.78363E+00  1.52244E+01
   8.07399E+00  8.12467E+00  1.09334E+01  2.71343E+01  2.78098E+01  3.29599E+01  3.54377E+01  2.55439E+01  3.00933E+01  2.32976E+01
   9.03229E+00  8.42409E+00  1.17489E+01  9.75119E+00  1.11457E+01  1.68464E+01  1.43280E+01  2.51294E+01  2.63030E+01  2.49908E+01
   1.94120E+01  2.47646E+01  2.18045E+01  2.49368E+01  2.20866E+01  2.31014E+01  1.98694E+01  2.58865E+01  2.42894E+01  3.33011E+01
   2.11019E+01  2.57491E+01  1.47917E+01  1.33101E+01  2.65609E+01  2.56423E+01  2.59336E+01  2.91911E+01  2.40856E+01  3.14744E+01
   2.86741E+01  2.40004E+01  2.63082E+01  2.92017E+01  2.50729E+01  3.57217E+01  5.07614E+01  6.78946E+01  9.90172E+01  1.31117E+02
   1.61143E+02  1.61894E+02  1.39099E+02  1.01558E+02  6.77745E+01  6.09373E+01  4.78808E+01  4.00464E+01  1.95609E+01  2.48516E+01
   2.40942E+01  2.09070E+01  2.16738E+01  2.30883E+01  1.76850E+01  2.25130E+01  1.48215E+01  1.41752E+01  9.77967E+00  1.54668E+01
   1.72593E+01  1.17298E+01  9.16164E+00  5.71381E+00  7.62295E+00  7.25016E+00  1.12169E+01  1.23455E+01  9.83425E+00  1.02061E+01
   7.51180E+00  8.44643E+00  1.43341E+01  8.00692E+00  2.02362E+01  2.02780E+01  1.18586E+01  1.78449E+01  9.47732E+00  1.81592E+01
   2.51634E+01  3.01332E+01  2.22306E+01  2.46959E+01  2.92582E+01  2.27873E+01  2.60035E+01  2.93834E+01  2.84604E+01  3.40741E+01
   2.60048E+01  3.45337E+01  3.15741E+01  2.22677E+01  3.26985E+01  1.89445E+01  2.45510E+01  1.88724E+01  1.32434E+01  1.69675E+01
   1.72779E+01  8.11728E+00  1.49224E+01  1.01771E+01  1.18617E+01  9.12474E+00  7.47056E+00  1.94548E+01  7.79123E+00  1.37991E+01
   7.89043E+00  1.93368E+01  1.41780E+01  1.32502E+01  1.43736E+01  1.42956E+01  1.85734E+01  1.46708E+01  1.86625E+01  1.74654E+01
   1.59556E+01  2.42212E+01  2.65410E+01  1.50440E+01  1.92854E+01  2.74078E+01  2.12625E+01  2.45346E+01  1.73070E+01  2.19608E+01
   1.88833E+01  2.23441E+01  1.11395E+01  2.26508E+01  2.77824E+01  2.16308E+01  1.93447E+01  2.01174E+01  2.54170E+01  2.52465E+01
   2.02940E+01  2.43080E+01  2.27162E+01  1.31875E+01  1.79564E+01  2.11673E+01  1.87073E+01  2.33045E+01  1.13033E+01  1.77144E+01
   1.88940E+01  1.65182E+01  1.77899E+01  1.71970E+01  1.50795E+01  7.45798E+00  1.57119E+01  8.69285E+00  1.35660E+01  9.52772E+00
   7.05261E+00  1.18542E+01  1.24070E+01  1.29918E+01  7.26509E+00  9.19939E+00  1.45268E+01  7.59130E+00  1.36920E+01  7.45267E+00
   1.43973E+01  1.26850E+01  1.49423E+01  1.82825E+01  1.13802E+01  8.44778E+00  1.60048E+01  1.59063E+01  1.11405E+01  1.02918E+01
   2.04527E+01  2.17985E+01  1.30203E+01  2.68300E+01  2.07803E+01  2.32429E+01  2.06222E+01  1.58922E+01  2.11385E+01  2.49307E+01
   1.72514E+01  1.91970E+01  1.20197E+01  1.87084E+01  1.73303E+01  2.03668E+01  1.35220E+01  6.83716E+00  1.85690E+01  1.87275E+01
   1.13496E+01  1.98683E+01  1.71197E+01  1.29275E+01  1.24459E+01  7.20585E+00  1.17879E+01  1.32336E+01 -1.10560E+00  7.40607E+00
   9.13822E+00  1.06282E+01  1.40827E+01  2.05879E+01  1.10481E+01  8.53582E+00  1.23667E+01  8.81149E+00  1.45206E+01  1.36702E+01
   1.04794E+01  4.09245E+00  6.07569E+00  1.70857E+01  1.62947E+01  1.04999E+01  1.14187E+01  7.95629E+00  1.09015E+01  9.25546E+00
   1.37243E+01  1.23934E+01  7.65779E+00  1.33099E+01  7.57292E+00  8.52548E+00  1.25908E+01  1.46798E+01  1.27815E+01  9.27453E+00
   7.36714E+00  9.94911E+00  1.06488E+01  7.12774E+00  1.48062E+01  1.14422E+01  7.28230E+00  7.07261E+00  8.44880E+00  1.30826E+01
   1.60506E+01  6.18302E+00  6.81682E+00  1.67246E+01  7.44525E+00  9.39021E+00  5.75941E+00  1.06441E+01  1.11848E+01  6.72768E+00
   1.20746E+01  4.90397E+00  1.10214E+01  1.11190E+01  5.63829E+00  5.38402E+00  9.11553E+00  4.32635E+00  1.03841E+01  5.82689E+00
   2.06838E+00  9.32333E+00  9.20703E+00  9.58234E+00  3.40586E+00  6.96092E+00  1.25813E+01  7.52706E+00
 NY points of the fit to the data follow
   8.28134E+01  8.19796E+01  8.15249E+01  8.16293E+01  8.27888E+01  8.59581E+01  9.22705E+01  1.03361E+02  1.18404E+02  1.34581E+02
   1.47440E+02  1.52498E+02  1.47869E+02  1.35849E+02  1.21134E+02  1.07647E+02  9.70797E+01  8.91942E+01  8.29761E+01  7.99142E+01
   7.84214E+01  7.72996E+01  7.61449E+01  7.47710E+01  7.35183E+01  7.35272E+01  7.53253E+01  7.91635E+01  8.46873E+01  9.03447E+01
   9.39998E+01  9.41576E+01  9.11110E+01  8.62579E+01  8.09294E+01  7.53541E+01  7.02731E+01  6.74141E+01  6.62994E+01  6.61481E+01
   6.63855E+01  6.66842E+01  6.72896E+01  6.84380E+01  7.04017E+01  7.30077E+01  7.55954E+01  7.72359E+01  7.69840E+01  7.43513E+01
   7.02560E+01  6.62915E+01  6.31089E+01  6.04647E+01  5.84899E+01  5.76488E+01  5.77431E+01  5.82906E+01  5.90914E+01  5.98251E+01
   6.00546E+01  5.93890E+01  5.77945E+01  5.57387E+01  5.38154E+01  5.23527E+01  5.14581E+01  5.12192E+01  5.14380E+01  5.19022E+01
   5.23744E+01  5.26462E+01  5.25725E+01  5.20628E+01  5.11943E+01  5.02052E+01  4.92907E+01  4.85376E+01  4.78362E+01  4.72307E+01
   4.67752E+01  4.65509E+01  4.65998E+01  4.67799E+01  4.68421E+01  4.64120E+01  4.51896E+01  4.32703E+01  4.12090E+01  3.97022E+01
   3.91066E+01  3.92164E+01  3.96155E+01  4.01873E+01  4.07703E+01  4.09933E+01  4.07778E+01  4.05032E+01  4.19024E+01  4.89742E+01
   6.31364E+01  8.35240E+01  1.05938E+02  1.22594E+02  1.26431E+02  1.16256E+02  9.76288E+01  7.87134E+01  6.41324E+01  5.24415E+01
   4.23351E+01  3.76800E+01  3.62968E+01  3.56468E+01  3.52307E+01  3.49039E+01  3.46102E+01  3.43313E+01  3.40929E+01  3.40013E+01
   3.42749E+01  3.54653E+01  4.01733E+01  5.26915E+01  7.35357E+01  1.00787E+02  1.28084E+02  1.45530E+02  1.45939E+02  1.30390E+02
   1.07115E+02  8.54489E+01  6.86323E+01  5.33304E+01  3.97702E+01  3.27985E+01  2.93606E+01  2.79936E+01  2.82481E+01  2.93783E+01
   3.07480E+01  3.18709E+01  3.22334E+01  3.18591E+01  3.10785E+01  3.00734E+01  2.90174E+01  2.79736E+01  2.70030E+01  2.61970E+01
   2.54514E+01  2.47616E+01  2.41657E+01  2.37310E+01  2.34552E+01  2.32627E+01  2.29712E+01  2.23506E+01  2.13280E+01  2.00390E+01
   1.89388E+01  1.84747E+01  1.87728E+01  1.95920E+01  2.03201E+01  2.03956E+01  1.97789E+01  1.88682E+01  1.79244E+01  1.70633E+01
   1.62915E+01  1.53990E+01  1.43942E+01  1.33543E+01  1.23179E+01  1.16075E+01  1.14476E+01  1.17486E+01  1.21390E+01  1.21967E+01
   1.18380E+01  1.14146E+01  1.12243E+01  1.10819E+01  1.07469E+01  1.06507E+01  1.14224E+01  1.35255E+01  1.65778E+01  1.95921E+01
   2.17274E+01  2.24361E+01  2.17635E+01  2.01669E+01  1.81007E+01  1.60305E+01  1.46006E+01  1.41407E+01  1.48310E+01  1.66703E+01
   1.92350E+01  2.19401E+01  2.42991E+01  2.58023E+01  2.59961E+01  2.42329E+01  2.07929E+01  1.65032E+01  1.23042E+01  9.15003E+00
   7.80189E+00  8.92045E+00  1.24381E+01  1.75379E+01  2.30110E+01  2.73607E+01  2.91467E+01  2.71107E+01  2.19632E+01  1.55962E+01
   9.54894E+00  4.98937E+00  3.05220E+00  4.68752E+00  9.24814E+00  1.46301E+01  1.90935E+01  2.18455E+01  2.30778E+01  2.30020E+01
   2.18246E+01  2.04555E+01  2.00354E+01  2.07386E+01  2.21842E+01  2.38712E+01  2.53095E+01  2.60605E+01  2.54937E+01  2.35195E+01
   2.09786E+01  1.89232E+01  1.79556E+01  1.82270E+01  1.98512E+01  2.23279E+01  2.45587E+01  2.58457E+01  2.62851E+01  2.63326E+01
   2.61081E+01  2.59617E+01  2.63018E+01  2.71999E+01  2.87205E+01  3.38190E+01  4.78046E+01  7.16250E+01  1.03388E+02  1.35609E+02
   1.56351E+02  1.56573E+02  1.37257E+02  1.08379E+02  8.15339E+01  6.10349E+01  4.33918E+01  2.91523E+01  2.33410E+01  2.09143E+01
   1.93290E+01  1.82819E+01  1.76998E+01  1.73380E+01  1.70866E+01  1.68011E+01  1.63848E+01  1.58550E+01  1.52757E+01  1.46611E+01
   1.40517E+01  1.35298E+01  1.31328E+01  1.28404E+01  1.26193E+01  1.24524E+01  1.23461E+01  1.23077E+01  1.23313E+01  1.24376E+01
   1.26477E+01  1.29744E+01  1.34253E+01  1.40055E+01  1.47180E+01  1.55596E+01  1.65193E+01  1.75852E+01  1.87380E+01  1.99498E+01
   2.11885E+01  2.24179E+01  2.35967E+01  2.46805E+01  2.56254E+01  2.63925E+01  2.69505E+01  2.72779E+01  2.73621E+01  2.71999E+01
   2.67994E+01  2.61805E+01  2.53718E+01  2.44088E+01  2.33320E+01  2.21837E+01  2.10068E+01  1.98418E+01  1.87254E+01  1.76881E+01
   1.67536E+01  1.59383E+01  1.52523E+01  1.46995E+01  1.42787E+01  1.39839E+01  1.38057E+01  1.37323E+01  1.37515E+01  1.38509E+01
   1.40186E+01  1.42430E+01  1.45143E+01  1.48240E+01  1.51664E+01  1.55373E+01  1.59348E+01  1.63589E+01  1.68125E+01  1.73033E+01
   1.78484E+01  1.84896E+01  1.93155E+01  2.02976E+01  2.12556E+01  2.19555E+01  2.21108E+01  2.15670E+01  2.04729E+01  1.92290E+01
   1.83581E+01  1.81591E+01  1.86088E+01  1.96116E+01  2.11005E+01  2.26201E+01  2.35754E+01  2.38232E+01  2.35439E+01  2.30357E+01
   2.24144E+01  2.16086E+01  2.07930E+01  2.00784E+01  1.93999E+01  1.87323E+01  1.80711E+01  1.74192E+01  1.67817E+01  1.61645E+01
   1.55734E+01  1.50134E+01  1.44890E+01  1.40041E+01  1.35617E+01  1.31639E+01  1.28121E+01  1.25071E+01  1.22499E+01  1.20409E+01
   1.18808E+01  1.17698E+01  1.17081E+01  1.16962E+01  1.17350E+01  1.18255E+01  1.19682E+01  1.21639E+01  1.24126E+01  1.27144E+01
   1.30689E+01  1.34745E+01  1.39284E+01  1.44266E+01  1.49634E+01  1.55319E+01  1.61234E+01  1.67276E+01  1.73325E+01  1.79249E+01
   1.84912E+01  1.90172E+01  1.94894E+01  1.98945E+01  2.02207E+01  2.04583E+01  2.06002E+01  2.06421E+01  2.05826E+01  2.04233E+01
   2.01687E+01  1.98262E+01  1.94056E+01  1.89184E+01  1.83775E+01  1.77959E+01  1.71869E+01  1.65637E+01  1.59382E+01  1.53212E+01
   1.47218E+01  1.41473E+01  1.36034E+01  1.30943E+01  1.26227E+01  1.21897E+01  1.17954E+01  1.14387E+01  1.11179E+01  1.08312E+01
   1.05761E+01  1.03501E+01  1.01501E+01  9.97369E+00  9.81831E+00  9.68177E+00  9.56193E+00  9.45672E+00  9.36427E+00  9.28305E+00
   9.21182E+00  9.14948E+00  9.09493E+00  9.04713E+00  9.00521E+00  8.96857E+00  8.93671E+00  8.90916E+00  8.88534E+00  8.86475E+00
   8.84701E+00  8.83194E+00  8.81936E+00  8.80901E+00  8.80056E+00  8.79377E+00  8.78853E+00  8.78482E+00  8.78255E+00  8.78154E+00
   8.78155E+00  8.78249E+00  8.78437E+00  8.78723E+00  8.79099E+00  8.79549E+00  8.80056E+00  8.80621E+00  8.81249E+00  8.81944E+00
   8.82696E+00  8.83489E+00  8.84318E+00  8.85188E+00  8.86108E+00  8.87076E+00  8.88080E+00  8.89107E+00  8.90158E+00  8.91242E+00
   8.92366E+00  8.93524E+00  8.94702E+00  8.95894E+00  8.97108E+00  8.98352E+00  8.99629E+00  9.00930E+00  9.02242E+00  9.03565E+00
   9.04910E+00  9.06286E+00  9.07688E+00  9.09105E+00  9.10530E+00  9.11969E+00  9.13434E+00  9.14930E+00
 NY background values follow
     7.829E+01    7.784E+01    7.739E+01    7.694E+01    7.648E+01    7.603E+01    7.558E+01    7.513E+01    7.468E+01    7.423E+01
     7.378E+01    7.332E+01    7.287E+01    7.242E+01    7.197E+01    7.152E+01    7.107E+01    7.062E+01    7.017E+01    6.971E+01
     6.926E+01    6.881E+01    6.836E+01    6.791E+01    6.746E+01    6.702E+01    6.657E+01    6.612E+01    6.567E+01    6.522E+01
     6.478E+01    6.433E+01    6.388E+01    6.344E+01    6.299E+01    6.255E+01    6.210E+01    6.166E+01    6.122E+01    6.078E+01
     6.034E+01    5.990E+01    5.946E+01    5.902E+01    5.858E+01    5.814E+01    5.771E+01    5.727E+01    5.684E+01    5.640E+01
     5.597E+01    5.554E+01    5.511E+01    5.468E+01    5.425E+01    5.383E+01    5.340E+01    5.298E+01    5.255E+01    5.213E+01
     5.171E+01    5.129E+01    5.087E+01    5.046E+01    5.004E+01    4.963E+01    4.922E+01    4.881E+01    4.840E+01    4.799E+01
     4.759E+01    4.718E+01    4.678E+01    4.638E+01    4.598E+01    4.559E+01    4.519E+01    4.480E+01    4.441E+01    4.402E+01
     4.363E+01    4.325E+01    4.287E+01    4.249E+01    4.211E+01    4.173E+01    4.136E+01    4.098E+01    4.062E+01    4.025E+01
     3.988E+01    3.952E+01    3.916E+01    3.880E+01    3.845E+01    3.809E+01    3.774E+01    3.739E+01    3.705E+01    3.671E+01
     3.636E+01    3.603E+01    3.569E+01    3.536E+01    3.503E+01    3.470E+01    3.437E+01    3.405E+01    3.373E+01    3.341E+01
     3.309E+01    3.278E+01    3.247E+01    3.216E+01    3.185E+01    3.155E+01    3.125E+01    3.095E+01    3.065E+01    3.036E+01
     3.007E+01    2.978E+01    2.949E+01    2.921E+01    2.893E+01    2.865E+01    2.838E+01    2.810E+01    2.783E+01    2.757E+01
     2.730E+01    2.704E+01    2.678E+01    2.652E+01    2.627E+01    2.602E+01    2.577E+01    2.552E+01    2.528E+01    2.504E+01
     2.480E+01    2.456E+01    2.433E+01    2.410E+01    2.387E+01    2.365E+01    2.343E+01    2.320E+01    2.299E+01    2.277E+01
     2.256E+01    2.235E+01    2.214E+01    2.193E+01    2.173E+01    2.153E+01    2.133E+01    2.113E+01    2.094E+01    2.075E+01
     2.056E+01    2.037E+01    2.018E+01    2.000E+01    1.982E+01    1.964E+01    1.947E+01    1.929E+01    1.912E+01    1.895E+01
     1.878E+01    1.861E+01    1.845E+01    1.829E+01    1.813E+01    1.797E+01    1.781E+01    1.766E+01    1.751E+01    1.736E+01
     1.721E+01    1.706E+01    1.692E+01    1.678E+01    1.663E+01    1.650E+01    1.636E+01    1.622E+01    1.609E+01    1.596E+01
     1.582E+01    1.570E+01    1.557E+01    1.544E+01    1.532E+01    1.519E+01    1.507E+01    1.495E+01    1.483E+01    1.472E+01
     1.460E+01    1.449E+01    1.437E+01    1.426E+01    1.415E+01    1.404E+01    1.393E+01    1.382E+01    1.372E+01    1.361E+01
     1.351E+01    1.341E+01    1.330E+01    1.320E+01    1.310E+01    1.300E+01    1.291E+01    1.281E+01    1.271E+01    1.262E+01
     1.252E+01    1.243E+01    1.233E+01    1.224E+01    1.215E+01    1.206E+01    1.197E+01    1.188E+01    1.179E+01    1.170E+01
     1.161E+01    1.152E+01    1.143E+01    1.135E+01    1.126E+01    1.118E+01    1.109E+01    1.101E+01    1.092E+01    1.084E+01
     1.076E+01    1.068E+01    1.060E+01    1.052E+01    1.044E+01    1.036E+01    1.028E+01    1.020E+01    1.012E+01    1.005E+01
     9.972E+00    9.897E+00    9.822E+00    9.748E+00    9.675E+00    9.603E+00    9.531E+00    9.460E+00    9.389E+00    9.319E+00
     9.250E+00    9.182E+00    9.114E+00    9.047E+00    8.980E+00    8.914E+00    8.849E+00    8.785E+00    8.721E+00    8.658E+00
     8.596E+00    8.535E+00    8.474E+00    8.414E+00    8.354E+00    8.296E+00    8.238E+00    8.180E+00    8.124E+00    8.068E+00
     8.013E+00    7.958E+00    7.904E+00    7.851E+00    7.799E+00    7.747E+00    7.696E+00    7.646E+00    7.597E+00    7.548E+00
     7.500E+00    7.452E+00    7.406E+00    7.360E+00    7.314E+00    7.270E+00    7.226E+00    7.183E+00    7.140E+00    7.098E+00
     7.057E+00    7.017E+00    6.977E+00    6.938E+00    6.900E+00    6.862E+00    6.825E+00    6.789E+00    6.754E+00    6.719E+00
     6.685E+00    6.651E+00    6.619E+00    6.587E+00    6.555E+00    6.525E+00    6.495E+00    6.466E+00    6.437E+00    6.409E+00
     6.382E+00    6.356E+00    6.330E+00    6.305E+00    6.281E+00    6.257E+00    6.234E+00    6.211E+00    6.190E+00    6.169E+00
     6.148E+00    6.128E+00    6.109E+00    6.091E+00    6.073E+00    6.056E+00    6.039E+00    6.024E+00    6.008E+00    5.994E+00
     5.980E+00    5.966E+00    5.954E+00    5.942E+00    5.930E+00    5.919E+00    5.909E+00    5.900E+00    5.891E+00    5.882E+00
     5.874E+00    5.867E+00    5.860E+00    5.854E+00    5.849E+00    5.844E+00    5.840E+00    5.836E+00    5.833E+00    5.831E+00
     5.829E+00    5.827E+00    5.827E+00    5.826E+00    5.827E+00    5.828E+00    5.829E+00    5.831E+00    5.834E+00    5.837E+00
     5.840E+00    5.844E+00    5.849E+00    5.854E+00    5.860E+00    5.866E+00    5.873E+00    5.880E+00    5.888E+00    5.897E+00
     5.905E+00    5.915E+00    5.925E+00    5.935E+00    5.946E+00    5.957E+00    5.969E+00    5.981E+00    5.994E+00    6.007E+00
     6.021E+00    6.035E+00    6.050E+00    6.065E+00    6.081E+00    6.097E+00    6.113E+00    6.130E+00    6.148E+00    6.166E+00
     6.184E+00    6.203E+00    6.222E+00    6.242E+00    6.262E+00    6.282E+00    6.303E+00    6.324E+00    6.346E+00    6.368E+00
     6.391E+00    6.413E+00    6.437E+00    6.460E+00    6.484E+00    6.508E+00    6.533E+00    6.558E+00    6.583E+00    6.608E+00
     6.634E+00    6.659E+00    6.685E+00    6.712E+00    6.738E+00    6.765E+00    6.792E+00    6.819E+00    6.846E+00    6.873E+00
     6.900E+00    6.928E+00    6.955E+00    6.983E+00    7.010E+00    7.038E+00    7.066E+00    7.093E+00    7.121E+00    7.149E+00
     7.177E+00    7.204E+00    7.232E+00    7.259E+00    7.287E+00    7.314E+00    7.342E+00    7.369E+00    7.396E+00    7.423E+00
     7.449E+00    7.476E+00    7.502E+00    7.529E+00    7.555E+00    7.580E+00    7.606E+00    7.631E+00    7.657E+00    7.682E+00
     7.707E+00    7.731E+00    7.756E+00    7.781E+00    7.805E+00    7.829E+00    7.853E+00    7.877E+00    7.901E+00    7.925E+00
     7.948E+00    7.972E+00    7.995E+00    8.018E+00    8.041E+00    8.064E+00    8.087E+00    8.110E+00    8.133E+00    8.156E+00
     8.178E+00    8.201E+00    8.224E+00    8.246E+00    8.268E+00    8.291E+00    8.313E+00    8.335E+00    8.358E+00    8.380E+00
     8.402E+00    8.424E+00    8.447E+00    8.469E+00    8.491E+00    8.513E+00    8.535E+00    8.557E+00
 Asp      Conc. = 2.67E+02
