 LCModel (Version 6.3-1L) Copyright: S.W. Provencher.          Ref.: Magn. Reson. Med. 30:672-679 (1993).                
 Slice#2 Row#11 Col#7  PD_24_press_2_raw_act
 36 lines in following concentration table = NCONC+1
    Conc.  %SD /Cr+PCr  Metabolite                                         
    0.000 999%   0.000 Ala                                                 
   76.104 131%   0.122 Asp                                                 
  296.138  28%   0.475 Cr                                                  
  327.897  25%   0.525 PCr                                                 
   64.433  98%   0.103 GABA                                                
   28.489 217% 4.6E-02 Glc                                                 
    0.000 999%   0.000 Gln                                                 
  429.743  50%   0.689 Glu                                                 
   63.560  73%   0.102 GPC                                                 
   92.400  51%   0.148 PCh                                                 
   84.377  66%   0.135 GSH                                                 
  897.746  22%   1.439 Ins                                                 
    0.000 999%   0.000 Lac                                                 
  948.497   5%   1.520 NAA                                                 
    0.000 999%   0.000 NAAG                                                
   54.287  29% 8.7E-02 Scyllo                                              
  169.367  56%   0.271 Tau                                                 
  472.969  16%   0.758 -CrCH2                                              
  155.960  10%   0.250 GPC+PCh                                             
  948.497   5%   1.520 NAA+NAAG                                            
  624.035   7%   1.000 Cr+PCr                                              
  429.743  50%   0.689 Glu+Gln                                             
    0.000 999%   0.000 Lip13a                                              
   27.669 202% 4.4E-02 Lip13b                                              
    0.000 999%   0.000 Lip09                                               
  201.490  31%   0.323 MM09                                                
   16.621 153% 2.7E-02 Lip20                                               
  433.861  27%   0.695 MM20                                                
   59.065  48% 9.5E-02 MM12                                                
    0.000 999%   0.000 MM14                                                
    0.000 999%   0.000 MM17                                                
   27.669 202% 4.4E-02 Lip13a+Lip13b                                       
   86.733  72%   0.139 MM14+Lip13a+Lip13b+MM12                             
  201.490  31%   0.323 MM09+Lip09                                          
  450.481  26%   0.722 MM20+Lip20                                          
   6 lines in following misc. output table
  FWHM = 0.069 ppm    S/N =   6                                            
  Data shift = 0.031 ppm                                                   
  Ph: -24 deg      -6.6 deg/ppm                                            
  alphaB,S = 2.4E+00,   4.2E-01                                            
   14 spline knots.   Ns = 8(1)                                            
  14 inflections.    17 extrema                                            
  498 points on ppm-axis = NY
      4.000000     3.992357     3.984714     3.977070     3.969427     3.961784     3.954141     3.946497     3.938854     3.931211
      3.923568     3.915925     3.908281     3.900638     3.892995     3.885352     3.877708     3.870065     3.862422     3.854779
      3.847136     3.839492     3.831849     3.824206     3.816563     3.808919     3.801276     3.793633     3.785990     3.778347
      3.770703     3.763060     3.755417     3.747774     3.740130     3.732487     3.724844     3.717201     3.709558     3.701914
      3.694271     3.686628     3.678985     3.671341     3.663698     3.656055     3.648412     3.640769     3.633125     3.625482
      3.617839     3.610196     3.602552     3.594909     3.587266     3.579623     3.571980     3.564336     3.556693     3.549050
      3.541407     3.533763     3.526120     3.518477     3.510834     3.503191     3.495547     3.487904     3.480261     3.472618
      3.464974     3.457331     3.449688     3.442045     3.434402     3.426758     3.419115     3.411472     3.403829     3.396185
      3.388542     3.380899     3.373256     3.365613     3.357969     3.350326     3.342683     3.335040     3.327396     3.319753
      3.312110     3.304467     3.296824     3.289180     3.281537     3.273894     3.266251     3.258607     3.250964     3.243321
      3.235678     3.228034     3.220391     3.212748     3.205105     3.197462     3.189818     3.182175     3.174532     3.166889
      3.159245     3.151602     3.143959     3.136316     3.128673     3.121029     3.113386     3.105743     3.098100     3.090456
      3.082813     3.075170     3.067527     3.059884     3.052240     3.044597     3.036954     3.029311     3.021667     3.014024
      3.006381     2.998738     2.991095     2.983451     2.975808     2.968165     2.960522     2.952878     2.945235     2.937592
      2.929949     2.922306     2.914662     2.907019     2.899376     2.891733     2.884089     2.876446     2.868803     2.861160
      2.853517     2.845873     2.838230     2.830587     2.822944     2.815300     2.807657     2.800014     2.792371     2.784728
      2.777084     2.769441     2.761798     2.754155     2.746511     2.738868     2.731225     2.723582     2.715939     2.708295
      2.700652     2.693009     2.685366     2.677722     2.670079     2.662436     2.654793     2.647150     2.639506     2.631863
      2.624220     2.616577     2.608933     2.601290     2.593647     2.586004     2.578361     2.570717     2.563074     2.555431
      2.547788     2.540144     2.532501     2.524858     2.517215     2.509572     2.501928     2.494285     2.486642     2.478999
      2.471355     2.463712     2.456069     2.448426     2.440783     2.433139     2.425496     2.417853     2.410210     2.402566
      2.394923     2.387280     2.379637     2.371994     2.364350     2.356707     2.349064     2.341421     2.333777     2.326134
      2.318491     2.310848     2.303205     2.295561     2.287918     2.280275     2.272632     2.264988     2.257345     2.249702
      2.242059     2.234416     2.226772     2.219129     2.211486     2.203843     2.196199     2.188556     2.180913     2.173270
      2.165627     2.157983     2.150340     2.142697     2.135054     2.127410     2.119767     2.112124     2.104481     2.096838
      2.089194     2.081551     2.073908     2.066265     2.058621     2.050978     2.043335     2.035692     2.028049     2.020405
      2.012762     2.005119     1.997476     1.989833     1.982190     1.974546     1.966903     1.959260     1.951617     1.943974
      1.936331     1.928688     1.921045     1.913402     1.905759     1.898115     1.890472     1.882829     1.875186     1.867543
      1.859900     1.852257     1.844614     1.836971     1.829327     1.821684     1.814041     1.806398     1.798755     1.791112
      1.783469     1.775826     1.768183     1.760540     1.752896     1.745253     1.737610     1.729967     1.722324     1.714681
      1.707038     1.699395     1.691752     1.684108     1.676465     1.668822     1.661179     1.653536     1.645893     1.638250
      1.630607     1.622964     1.615321     1.607677     1.600034     1.592391     1.584748     1.577105     1.569462     1.561819
      1.554176     1.546533     1.538890     1.531246     1.523603     1.515960     1.508317     1.500674     1.493031     1.485388
      1.477745     1.470102     1.462458     1.454815     1.447172     1.439529     1.431886     1.424243     1.416600     1.408957
      1.401314     1.393671     1.386027     1.378384     1.370741     1.363098     1.355455     1.347812     1.340169     1.332526
      1.324883     1.317240     1.309596     1.301953     1.294310     1.286667     1.279024     1.271381     1.263738     1.256095
      1.248452     1.240808     1.233165     1.225522     1.217879     1.210236     1.202593     1.194950     1.187307     1.179664
      1.172021     1.164377     1.156734     1.149091     1.141448     1.133805     1.126162     1.118519     1.110876     1.103233
      1.095590     1.087946     1.080303     1.072660     1.065017     1.057374     1.049731     1.042088     1.034445     1.026802
      1.019158     1.011515     1.003872     0.996229     0.988586     0.980943     0.973300     0.965657     0.958014     0.950371
      0.942727     0.935084     0.927441     0.919798     0.912155     0.904512     0.896869     0.889226     0.881583     0.873940
      0.866296     0.858653     0.851010     0.843367     0.835724     0.828081     0.820438     0.812795     0.805152     0.797508
      0.789865     0.782222     0.774579     0.766936     0.759293     0.751650     0.744007     0.736364     0.728721     0.721077
      0.713434     0.705791     0.698148     0.690505     0.682862     0.675219     0.667576     0.659933     0.652290     0.644646
      0.637003     0.629360     0.621717     0.614074     0.606431     0.598788     0.591145     0.583502     0.575858     0.568215
      0.560572     0.552929     0.545286     0.537643     0.530000     0.522357     0.514714     0.507071     0.499427     0.491784
      0.484141     0.476498     0.468855     0.461212     0.453569     0.445925     0.438282     0.430639     0.422996     0.415353
      0.407710     0.400067     0.392424     0.384780     0.377137     0.369494     0.361851     0.354208     0.346565     0.338922
      0.331278     0.323635     0.315992     0.308349     0.300706     0.293063     0.285420     0.277777     0.270133     0.262490
      0.254847     0.247204     0.239561     0.231918     0.224275     0.216631     0.208988     0.201345
 NY phased data points follow
  -1.85929E+01 -1.83880E+01 -1.71710E+01 -2.33804E+01 -1.29147E+01 -1.63459E+01 -7.17502E+00 -1.48700E+01 -8.57137E+00 -1.12641E+01
  -6.37211E+00 -7.01463E+00 -6.38415E+00 -7.48619E+00 -1.10527E+01 -1.39346E+01 -7.85984E+00 -1.39842E+01 -9.78101E+00 -1.67597E+01
  -1.05894E+01 -1.63493E+01 -1.30530E+01 -1.40779E+01 -1.17359E+01 -1.35514E+01 -1.03812E+01 -9.68364E+00 -8.72764E+00 -1.18362E+01
  -6.19432E+00 -9.12191E+00 -6.49286E+00 -1.23871E+01 -6.22335E+00 -1.27063E+01 -7.13688E+00 -1.07159E+01 -7.67617E+00 -9.95259E+00
  -9.27784E+00 -6.96268E+00 -4.43939E+00 -1.05365E+01 -1.15493E+00 -5.22485E+00 -3.27933E+00 -5.18930E+00 -1.31910E-02 -6.33494E+00
  -5.48747E+00 -9.95221E+00 -3.08929E+00 -7.45149E+00 -4.86103E+00 -6.64785E+00 -8.75448E+00 -1.02625E+01 -5.28276E+00 -9.54208E+00
  -4.86689E+00 -5.81297E+00 -5.05276E+00 -8.21231E+00 -7.41239E+00 -1.08164E+01 -5.21223E+00 -9.92734E+00 -7.21059E+00 -9.09563E+00
  -4.89982E+00 -8.94703E+00 -2.82019E+00 -7.20655E+00 -1.54246E+00 -9.79399E+00 -4.63829E+00 -1.03779E+01 -5.60739E+00 -6.83722E+00
  -2.51705E+00 -7.44358E+00 -4.97573E+00 -6.32623E+00 -2.79880E+00 -8.39121E+00 -4.57681E+00 -3.27087E+00 -4.51835E+00 -5.25901E+00
  -5.58468E+00 -4.27818E+00 -7.03006E+00 -6.57785E+00 -2.64695E+00 -3.91097E+00 -6.98951E+00 -5.01648E+00 -2.11195E+00  8.67186E-01
   4.25801E+00  3.37378E+00  3.13495E+00  1.41847E+00  7.33591E+00  9.95753E-01  1.93581E+00 -9.30260E-01 -2.18540E+00 -1.03986E+00
  -1.56155E+00 -4.62686E+00 -5.29955E+00 -4.95908E+00 -3.52144E+00 -7.42514E+00 -2.49862E+00 -5.20677E+00 -3.19391E+00  3.30836E-01
  -1.29896E+00 -1.30600E-03 -8.08263E-01  4.28388E+00  5.34923E+00  6.11714E+00  7.61869E+00  1.13150E+01  1.37520E+01  8.60275E+00
   7.43943E+00  4.73089E+00  2.00744E+00 -3.68513E+00 -1.87078E-01 -2.80527E+00 -1.29855E+00 -4.09301E+00 -1.53798E+00 -4.15446E+00
  -2.98002E+00 -2.89938E+00 -7.78927E+00 -3.63511E+00 -4.68864E+00 -4.98286E+00 -3.23840E+00 -3.23616E+00 -1.25849E+00 -2.16685E+00
  -2.50721E+00 -5.65114E+00 -1.02922E+00 -7.42149E+00 -2.53952E+00 -4.11469E+00 -2.95323E+00 -7.57655E+00 -4.15611E+00 -3.43477E+00
  -4.20254E+00 -7.97594E+00 -5.37345E+00 -5.66417E+00 -2.27631E+00 -6.99949E+00 -7.23474E+00 -4.49638E+00 -5.69184E+00 -3.36856E+00
  -6.26511E+00 -5.06198E+00 -5.75693E+00 -6.50045E+00 -5.58713E+00 -6.92790E+00 -4.02769E+00 -5.55466E+00 -4.13803E+00 -5.50727E+00
  -6.24075E+00 -6.59120E+00 -4.73723E+00 -7.30832E+00 -2.70610E+00 -5.97412E+00 -6.35574E+00 -6.88843E+00 -2.57126E+00 -5.14637E+00
  -4.51941E+00 -2.03669E+00  8.04235E-01 -4.01600E+00  4.30866E-01 -5.59084E+00 -2.98680E+00 -2.69633E+00  1.38229E-01 -5.12831E+00
  -1.40498E+00  2.75549E+00  1.65966E+00 -1.23003E+00  1.48993E+00 -1.02932E+00 -2.75024E+00 -4.71044E+00 -4.39189E+00 -4.75999E-01
  -2.33504E-01 -3.21352E+00  5.09647E-01 -2.67754E+00  6.02046E-01 -3.48166E+00  1.42637E+00  9.53719E-01  1.31717E+00 -4.55658E-01
   1.04902E+00 -2.38467E-01 -3.01241E+00 -5.21138E+00 -5.98715E+00 -4.32978E+00  2.01579E+00 -7.39178E-01 -1.13647E+00 -8.44474E-01
  -2.88585E+00 -7.60431E-01 -1.54110E-01 -7.62259E-01 -3.48096E-01  2.61864E-01 -1.86800E+00  8.03343E-01  5.83482E-01 -1.88862E+00
   2.37225E-01  9.44152E-01 -7.40134E-01  2.57785E+00  1.94410E+00 -1.51681E+00  1.79846E-01  1.19941E+00  6.28897E+00  8.83709E-01
   4.10914E+00  2.98440E+00  3.77063E+00  4.49015E+00  1.13387E+01  1.03481E+01  1.07234E+01  1.72586E+01  1.78992E+01  2.12502E+01
   2.41804E+01  2.43140E+01  1.83692E+01  1.74577E+01  1.38911E+01  1.28530E+01  8.77565E+00  3.29144E+00  1.43044E+00  5.01476E+00
   5.06726E+00  6.26435E-01  4.90555E-01 -2.67611E-01  5.73463E+00  1.24540E-01  3.43275E+00 -1.64515E+00 -1.18559E+00 -2.63303E+00
   1.74714E+00 -9.72454E-01 -2.26506E+00 -1.69878E+00 -5.06491E+00 -3.44275E+00  1.16558E-01 -5.86403E+00 -4.30892E+00 -3.98641E-03
  -2.06210E+00 -3.36243E+00 -1.27800E+00  1.19177E+00 -9.26129E-01 -2.97824E+00 -1.33083E+00 -2.59749E+00 -2.42558E+00 -4.45028E+00
   2.48687E-01 -4.14083E+00 -7.19796E+00 -1.59989E+00 -4.58455E+00 -3.59670E+00 -5.42192E+00 -4.20266E+00 -5.96478E+00 -7.52081E+00
  -2.20655E+00 -2.37937E+00 -1.50794E+00 -4.20867E+00 -1.57288E+00 -1.35243E+00  1.23916E+00 -2.07251E+00  1.72145E-01 -2.64291E+00
  -1.48239E-01  1.47413E-01  1.38887E+00 -2.25952E+00 -2.60850E+00 -5.13634E-01 -3.42486E+00 -3.16438E+00 -3.35277E+00 -6.56961E+00
  -3.57978E+00 -3.31091E-01 -2.82238E+00 -5.42275E+00 -5.22117E+00 -3.41905E+00 -1.72199E+00 -3.98872E+00 -4.11534E+00 -7.87245E+00
  -6.94466E+00 -5.10414E+00 -3.93435E+00 -5.80919E+00 -5.89221E+00 -2.62878E+00 -1.11716E+00 -2.79690E+00 -2.65380E+00 -3.51541E+00
  -7.53817E-01 -4.76524E+00 -3.63077E+00 -7.82513E-01 -5.79940E-01 -3.26072E-02  1.68121E+00  2.19198E+00 -3.02790E+00 -2.17805E+00
  -1.64924E+00 -5.31649E+00 -5.28155E-02 -3.98565E+00  3.39253E+00 -9.46624E-01 -2.49917E-01  1.50252E+00 -3.01400E+00 -2.65723E+00
   2.48693E+00 -1.96223E-01 -2.06405E+00 -3.13872E+00  2.20929E+00 -2.61016E+00 -7.74959E-01 -4.25484E+00 -1.96425E+00 -1.53726E+00
  -4.57520E-01  2.16379E-01 -1.01541E+00 -1.03731E+00  3.10452E-01 -8.34890E-01 -5.25639E+00 -2.89412E+00 -3.14834E+00 -3.06980E+00
   6.32439E-01 -2.35455E-01 -1.84669E+00 -3.87144E+00 -2.95345E-01  1.26562E+00 -4.48030E+00 -2.34031E+00  6.61335E-01 -2.99738E+00
  -5.48381E-01 -2.94532E+00  1.86128E-01  3.19827E+00 -1.20740E+00 -9.98536E-01  1.94522E+00  2.27635E+00 -1.84828E+00 -1.15160E+00
  -8.57466E-01 -2.78263E+00  1.52194E+00 -1.68588E+00 -1.85050E+00 -1.84935E+00  9.18216E-01 -2.30012E+00  1.72854E+00 -8.75867E-01
   2.37192E-01 -2.13701E+00  1.36598E+00 -4.49745E+00 -1.47742E+00 -4.12534E+00  1.32631E+00 -2.34979E+00 -2.59575E+00 -1.66784E+00
  -2.70871E+00 -1.81030E+00 -2.50871E+00 -1.20083E+00  7.47938E-01 -2.09235E+00 -4.81811E+00 -3.22343E+00 -2.71241E-01 -2.61656E+00
  -1.51029E+00 -5.13618E+00 -1.95909E+00  2.01030E-02 -1.82645E+00 -2.50145E+00 -1.38095E-01 -1.99878E+00  3.89257E+00 -1.17907E+00
  -2.02629E+00  1.23883E+00 -3.94711E+00  7.17799E-01 -1.27659E+00 -2.88059E+00  3.55917E+00 -1.07347E+00  2.00707E-01 -1.90955E+00
   3.50304E-01 -2.26063E+00 -3.28252E+00 -1.62779E+00 -1.49253E+00  1.57775E+00 -2.82209E+00 -2.91909E+00 -2.16481E+00 -1.12220E+00
   7.64683E-01 -2.31241E+00 -7.13892E-01 -3.72737E+00 -1.16153E+00 -1.40400E+00 -1.44263E+00  6.98295E-01 -2.74058E+00 -1.35788E+00
  -1.20579E+00 -2.08274E+00 -2.79703E+00 -2.08349E+00  1.47299E+00 -1.57170E+00  1.96155E+00  2.72652E+00 -2.70220E+00 -6.33630E+00
   2.15931E+00 -4.49420E-01 -2.29780E+00 -1.19970E+00  7.96779E-01  4.41999E-02 -1.58437E+00 -1.46743E+00
 NY points of the fit to the data follow
  -1.45281E+01 -1.05693E+01 -1.24602E+01 -1.50543E+01 -1.02098E+01 -1.52298E+01 -1.02798E+01 -1.41524E+01 -9.18887E+00 -1.47248E+01
  -7.24297E+00 -9.27510E+00 -6.21943E+00 -1.00908E+01 -7.41345E+00 -1.10863E+01 -6.76317E+00 -1.17764E+01 -1.07303E+01 -1.06090E+01
  -9.82103E+00 -1.14334E+01 -1.04985E+01 -1.15190E+01 -9.64943E+00 -1.14307E+01 -8.91493E+00 -1.07824E+01 -8.48142E+00 -1.02514E+01
  -7.61892E+00 -9.34963E+00 -7.56917E+00 -9.36688E+00 -7.76724E+00 -9.41351E+00 -8.32931E+00 -1.01693E+01 -8.65180E+00 -9.17547E+00
  -8.77642E+00 -9.09008E+00 -7.47253E+00 -8.03881E+00 -6.47365E+00 -6.97717E+00 -5.54345E+00 -5.74522E+00 -4.32843E+00 -5.59636E+00
  -6.07818E+00 -7.17269E+00 -7.58283E+00 -7.85594E+00 -7.68852E+00 -8.94826E+00 -7.30636E+00 -8.02069E+00 -6.83187E+00 -7.92959E+00
  -6.49663E+00 -7.11431E+00 -6.49726E+00 -7.26725E+00 -6.61398E+00 -7.87008E+00 -6.23222E+00 -7.89567E+00 -5.86742E+00 -7.34861E+00
  -5.36877E+00 -6.86990E+00 -5.37732E+00 -6.23167E+00 -5.40074E+00 -6.43310E+00 -5.32985E+00 -6.14530E+00 -5.12916E+00 -6.96112E+00
  -4.69352E+00 -6.97295E+00 -4.60750E+00 -6.65004E+00 -4.67550E+00 -6.45171E+00 -4.53189E+00 -6.30304E+00 -5.66380E+00 -7.37921E+00
  -6.36480E+00 -7.09459E+00 -6.61914E+00 -6.77380E+00 -6.17032E+00 -4.00444E+00 -5.71370E+00 -1.84322E+00 -2.16470E+00 -1.22975E+00
   2.00323E+00  7.24186E-01  4.08897E+00  3.39867E+00  6.50954E+00  2.21188E+00  2.66145E+00 -6.80628E-01 -1.30310E-01 -2.46474E+00
  -2.89084E+00 -5.55869E+00 -3.31307E+00 -5.14354E+00 -5.58362E+00 -5.86259E+00 -5.80585E+00 -5.64470E+00 -4.21869E+00 -2.73693E+00
  -3.58687E+00  1.39030E+00  9.71176E-01  3.42282E+00  6.06433E+00  6.89676E+00  9.09836E+00  1.07094E+01  1.23293E+01  7.95796E+00
   6.86040E+00  3.85761E+00  2.73214E+00  7.93191E-01 -1.24447E+00 -3.55521E+00 -1.70482E+00 -3.73196E+00 -4.48465E+00 -4.81081E+00
  -4.50294E+00 -4.75015E+00 -4.40439E+00 -4.59253E+00 -4.54118E+00 -4.53697E+00 -4.51288E+00 -4.60665E+00 -4.52110E+00 -4.67965E+00
  -4.52774E+00 -4.68771E+00 -4.67571E+00 -4.80865E+00 -4.61913E+00 -5.03909E+00 -4.56711E+00 -5.05152E+00 -4.83493E+00 -4.84570E+00
  -5.05404E+00 -4.96402E+00 -5.10688E+00 -4.82911E+00 -4.91454E+00 -4.65804E+00 -4.88560E+00 -5.00623E+00 -5.09487E+00 -4.99712E+00
  -5.42583E+00 -5.29454E+00 -5.38239E+00 -5.67846E+00 -5.14227E+00 -5.95855E+00 -5.26680E+00 -5.92173E+00 -5.12517E+00 -5.58495E+00
  -4.87651E+00 -5.67465E+00 -4.75389E+00 -5.13718E+00 -4.31397E+00 -4.75215E+00 -3.95047E+00 -4.19730E+00 -3.35074E+00 -3.29383E+00
  -2.93044E+00 -2.62040E+00 -2.77255E+00 -2.33334E+00 -2.68004E+00 -2.16263E+00 -2.73947E+00 -2.12198E+00 -2.36909E+00 -2.44410E+00
  -1.95799E+00 -2.52368E+00 -1.77803E+00 -2.43061E+00 -1.84458E+00 -2.34569E+00 -1.88884E+00 -2.86236E+00 -1.91642E+00 -3.30601E+00
  -1.41880E+00 -3.85464E+00 -1.19050E+00 -3.66286E+00 -1.42494E+00 -3.04428E+00 -1.54976E+00 -3.15878E+00 -2.43854E+00 -3.76686E+00
  -3.02555E+00 -3.71521E+00 -3.51610E+00 -3.71678E+00 -2.57848E+00 -2.18612E+00 -2.14610E+00 -1.73657E+00 -1.69908E+00 -1.25126E+00
  -1.29083E+00 -1.43467E+00 -1.37082E+00 -8.68797E-01 -1.05216E+00 -8.30688E-01 -8.77211E-01 -8.83157E-01 -7.65760E-01 -8.53375E-01
  -9.91147E-01 -1.02181E+00 -6.58679E-01 -8.23193E-01 -3.75743E-01 -3.31164E-01  5.27078E-02  1.08454E-01  2.72888E-01  4.27029E-01
   7.83215E-01  2.44238E+00  5.85329E+00  2.89260E+00  1.19278E+01  1.03526E+01  1.34776E+01  1.80944E+01  1.79760E+01  2.16602E+01
   2.26719E+01  2.62942E+01  1.86982E+01  1.71847E+01  1.23045E+01  1.06975E+01  7.41673E+00  4.89712E+00  3.90246E-01  4.07660E+00
   7.64353E-01 -7.88629E-01 -9.94437E-01 -1.13953E+00 -1.20073E+00 -1.26867E+00 -1.27310E+00 -1.34886E+00 -1.39559E+00 -1.51403E+00
  -1.53790E+00 -1.67494E+00 -1.66464E+00 -1.73857E+00 -1.75756E+00 -1.80834E+00 -1.77963E+00 -1.82156E+00 -1.81598E+00 -1.84281E+00
  -1.83646E+00 -1.85809E+00 -1.85515E+00 -1.89008E+00 -1.87996E+00 -1.90775E+00 -1.89529E+00 -1.93278E+00 -1.90949E+00 -1.93864E+00
  -1.91918E+00 -1.94953E+00 -1.91891E+00 -1.95563E+00 -1.92178E+00 -1.95775E+00 -1.92407E+00 -1.95987E+00 -1.92612E+00 -1.96113E+00
  -1.92743E+00 -1.96232E+00 -1.92742E+00 -1.96232E+00 -1.92758E+00 -1.96163E+00 -1.92681E+00 -1.96012E+00 -1.92535E+00 -1.95804E+00
  -1.92319E+00 -1.95529E+00 -1.92037E+00 -1.95184E+00 -1.91693E+00 -1.94772E+00 -1.91259E+00 -1.94263E+00 -1.90742E+00 -1.93668E+00
  -1.90128E+00 -1.92968E+00 -1.89393E+00 -1.92135E+00 -1.88518E+00 -1.91151E+00 -1.87476E+00 -1.89972E+00 -1.86198E+00 -1.88511E+00
  -1.84565E+00 -1.86586E+00 -1.82300E+00 -1.83790E+00 -1.78856E+00 -1.79429E+00 -1.73410E+00 -1.72631E+00 -1.65156E+00 -1.62844E+00
  -1.54056E+00 -1.50769E+00 -1.41678E+00 -1.38833E+00 -1.31123E+00 -1.30454E+00 -1.25630E+00 -1.28150E+00 -1.26540E+00 -1.31834E+00
  -1.32371E+00 -1.38929E+00 -1.39934E+00 -1.46179E+00 -1.46377E+00 -1.51457E+00 -1.50449E+00 -1.54354E+00 -1.52396E+00 -1.55520E+00
  -1.53030E+00 -1.55738E+00 -1.52996E+00 -1.55469E+00 -1.52552E+00 -1.54782E+00 -1.51618E+00 -1.53491E+00 -1.49945E+00 -1.51314E+00
  -1.47225E+00 -1.47918E+00 -1.43111E+00 -1.42958E+00 -1.37272E+00 -1.36123E+00 -1.29416E+00 -1.27146E+00 -1.19324E+00 -1.15887E+00
  -1.06962E+00 -1.02432E+00 -9.25495E-01 -8.71600E-01 -7.66500E-01 -7.08350E-01 -6.02298E-01 -5.46056E-01 -4.45897E-01 -3.98950E-01
  -3.12363E-01 -2.82351E-01 -2.16535E-01 -2.09818E-01 -1.69989E-01 -1.90405E-01 -1.78811E-01 -2.26852E-01 -2.42135E-01 -3.14664E-01
  -3.52119E-01 -4.43165E-01 -4.95839E-01 -5.97798E-01 -6.57774E-01 -7.62776E-01 -8.22612E-01 -9.23947E-01 -9.77818E-01 -1.07065E+00
  -1.11474E+00 -1.19633E+00 -1.22894E+00 -1.29850E+00 -1.31964E+00 -1.37780E+00 -1.38850E+00 -1.43668E+00 -1.43863E+00 -1.47863E+00
  -1.47364E+00 -1.50717E+00 -1.49685E+00 -1.52543E+00 -1.51118E+00 -1.53606E+00 -1.51894E+00 -1.54102E+00 -1.52181E+00 -1.54179E+00
  -1.52110E+00 -1.53949E+00 -1.51773E+00 -1.53484E+00 -1.51227E+00 -1.52840E+00 -1.50529E+00 -1.52061E+00 -1.49707E+00 -1.51169E+00
  -1.48784E+00 -1.50190E+00 -1.47785E+00 -1.49140E+00 -1.46719E+00 -1.48028E+00 -1.45597E+00 -1.46868E+00 -1.44431E+00 -1.45665E+00
  -1.43222E+00 -1.44422E+00 -1.41979E+00 -1.43150E+00 -1.40709E+00 -1.41849E+00 -1.39407E+00 -1.40520E+00 -1.38083E+00 -1.39171E+00
  -1.36738E+00 -1.37799E+00 -1.35369E+00 -1.36406E+00 -1.33984E+00 -1.34997E+00 -1.32579E+00 -1.33566E+00 -1.31154E+00 -1.32119E+00
  -1.29714E+00 -1.30656E+00 -1.28253E+00 -1.29171E+00 -1.26774E+00 -1.27669E+00 -1.25277E+00 -1.26146E+00 -1.23755E+00 -1.24598E+00
  -1.22209E+00 -1.23026E+00 -1.20636E+00 -1.21422E+00 -1.19027E+00 -1.19779E+00 -1.17377E+00 -1.18093E+00
 NY background values follow
    -1.374E+01   -1.367E+01   -1.360E+01   -1.354E+01   -1.347E+01   -1.341E+01   -1.334E+01   -1.327E+01   -1.321E+01   -1.314E+01
    -1.307E+01   -1.301E+01   -1.294E+01   -1.287E+01   -1.281E+01   -1.274E+01   -1.268E+01   -1.261E+01   -1.254E+01   -1.248E+01
    -1.241E+01   -1.234E+01   -1.228E+01   -1.221E+01   -1.215E+01   -1.208E+01   -1.201E+01   -1.195E+01   -1.188E+01   -1.182E+01
    -1.175E+01   -1.168E+01   -1.162E+01   -1.155E+01   -1.149E+01   -1.142E+01   -1.136E+01   -1.129E+01   -1.123E+01   -1.116E+01
    -1.110E+01   -1.103E+01   -1.097E+01   -1.090E+01   -1.084E+01   -1.077E+01   -1.071E+01   -1.064E+01   -1.058E+01   -1.051E+01
    -1.045E+01   -1.039E+01   -1.032E+01   -1.026E+01   -1.019E+01   -1.013E+01   -1.007E+01   -1.000E+01   -9.941E+00   -9.878E+00
    -9.815E+00   -9.752E+00   -9.689E+00   -9.627E+00   -9.564E+00   -9.502E+00   -9.440E+00   -9.378E+00   -9.317E+00   -9.255E+00
    -9.194E+00   -9.132E+00   -9.071E+00   -9.010E+00   -8.950E+00   -8.889E+00   -8.829E+00   -8.768E+00   -8.708E+00   -8.648E+00
    -8.589E+00   -8.529E+00   -8.470E+00   -8.411E+00   -8.352E+00   -8.293E+00   -8.235E+00   -8.176E+00   -8.118E+00   -8.060E+00
    -8.003E+00   -7.945E+00   -7.888E+00   -7.831E+00   -7.774E+00   -7.717E+00   -7.661E+00   -7.605E+00   -7.549E+00   -7.493E+00
    -7.437E+00   -7.382E+00   -7.327E+00   -7.272E+00   -7.218E+00   -7.163E+00   -7.109E+00   -7.055E+00   -7.002E+00   -6.948E+00
    -6.895E+00   -6.842E+00   -6.790E+00   -6.737E+00   -6.685E+00   -6.633E+00   -6.582E+00   -6.530E+00   -6.479E+00   -6.428E+00
    -6.377E+00   -6.327E+00   -6.277E+00   -6.227E+00   -6.178E+00   -6.128E+00   -6.079E+00   -6.031E+00   -5.982E+00   -5.934E+00
    -5.886E+00   -5.838E+00   -5.791E+00   -5.744E+00   -5.697E+00   -5.651E+00   -5.604E+00   -5.558E+00   -5.513E+00   -5.467E+00
    -5.422E+00   -5.377E+00   -5.333E+00   -5.289E+00   -5.245E+00   -5.201E+00   -5.158E+00   -5.115E+00   -5.072E+00   -5.030E+00
    -4.987E+00   -4.946E+00   -4.904E+00   -4.863E+00   -4.822E+00   -4.781E+00   -4.741E+00   -4.701E+00   -4.661E+00   -4.621E+00
    -4.582E+00   -4.543E+00   -4.505E+00   -4.466E+00   -4.428E+00   -4.391E+00   -4.353E+00   -4.316E+00   -4.279E+00   -4.243E+00
    -4.207E+00   -4.171E+00   -4.135E+00   -4.100E+00   -4.065E+00   -4.031E+00   -3.996E+00   -3.962E+00   -3.929E+00   -3.895E+00
    -3.862E+00   -3.829E+00   -3.797E+00   -3.765E+00   -3.733E+00   -3.701E+00   -3.670E+00   -3.639E+00   -3.609E+00   -3.579E+00
    -3.549E+00   -3.519E+00   -3.490E+00   -3.461E+00   -3.432E+00   -3.404E+00   -3.376E+00   -3.348E+00   -3.320E+00   -3.293E+00
    -3.267E+00   -3.240E+00   -3.214E+00   -3.188E+00   -3.163E+00   -3.137E+00   -3.113E+00   -3.088E+00   -3.064E+00   -3.040E+00
    -3.016E+00   -2.993E+00   -2.970E+00   -2.948E+00   -2.925E+00   -2.903E+00   -2.882E+00   -2.860E+00   -2.839E+00   -2.819E+00
    -2.798E+00   -2.778E+00   -2.759E+00   -2.739E+00   -2.720E+00   -2.702E+00   -2.683E+00   -2.665E+00   -2.647E+00   -2.630E+00
    -2.613E+00   -2.596E+00   -2.580E+00   -2.564E+00   -2.548E+00   -2.532E+00   -2.517E+00   -2.502E+00   -2.487E+00   -2.473E+00
    -2.459E+00   -2.445E+00   -2.432E+00   -2.419E+00   -2.406E+00   -2.393E+00   -2.381E+00   -2.369E+00   -2.357E+00   -2.345E+00
    -2.334E+00   -2.323E+00   -2.312E+00   -2.302E+00   -2.291E+00   -2.281E+00   -2.271E+00   -2.262E+00   -2.253E+00   -2.243E+00
    -2.235E+00   -2.226E+00   -2.218E+00   -2.210E+00   -2.202E+00   -2.194E+00   -2.186E+00   -2.179E+00   -2.172E+00   -2.165E+00
    -2.159E+00   -2.152E+00   -2.146E+00   -2.140E+00   -2.134E+00   -2.128E+00   -2.123E+00   -2.118E+00   -2.112E+00   -2.107E+00
    -2.103E+00   -2.098E+00   -2.094E+00   -2.089E+00   -2.085E+00   -2.081E+00   -2.077E+00   -2.073E+00   -2.070E+00   -2.066E+00
    -2.063E+00   -2.059E+00   -2.056E+00   -2.053E+00   -2.050E+00   -2.047E+00   -2.045E+00   -2.042E+00   -2.039E+00   -2.037E+00
    -2.034E+00   -2.032E+00   -2.030E+00   -2.027E+00   -2.025E+00   -2.023E+00   -2.021E+00   -2.019E+00   -2.017E+00   -2.015E+00
    -2.013E+00   -2.011E+00   -2.009E+00   -2.007E+00   -2.005E+00   -2.003E+00   -2.001E+00   -2.000E+00   -1.998E+00   -1.996E+00
    -1.994E+00   -1.992E+00   -1.990E+00   -1.988E+00   -1.986E+00   -1.984E+00   -1.982E+00   -1.981E+00   -1.979E+00   -1.977E+00
    -1.975E+00   -1.973E+00   -1.970E+00   -1.968E+00   -1.966E+00   -1.964E+00   -1.962E+00   -1.960E+00   -1.958E+00   -1.956E+00
    -1.953E+00   -1.951E+00   -1.949E+00   -1.946E+00   -1.944E+00   -1.942E+00   -1.939E+00   -1.937E+00   -1.934E+00   -1.932E+00
    -1.929E+00   -1.926E+00   -1.924E+00   -1.921E+00   -1.918E+00   -1.915E+00   -1.912E+00   -1.910E+00   -1.907E+00   -1.904E+00
    -1.901E+00   -1.897E+00   -1.894E+00   -1.891E+00   -1.888E+00   -1.884E+00   -1.881E+00   -1.878E+00   -1.874E+00   -1.871E+00
    -1.867E+00   -1.863E+00   -1.860E+00   -1.856E+00   -1.852E+00   -1.848E+00   -1.844E+00   -1.840E+00   -1.836E+00   -1.832E+00
    -1.828E+00   -1.824E+00   -1.820E+00   -1.815E+00   -1.811E+00   -1.806E+00   -1.802E+00   -1.798E+00   -1.793E+00   -1.788E+00
    -1.784E+00   -1.779E+00   -1.774E+00   -1.770E+00   -1.765E+00   -1.760E+00   -1.755E+00   -1.750E+00   -1.745E+00   -1.740E+00
    -1.735E+00   -1.729E+00   -1.724E+00   -1.719E+00   -1.713E+00   -1.708E+00   -1.703E+00   -1.697E+00   -1.692E+00   -1.686E+00
    -1.680E+00   -1.675E+00   -1.669E+00   -1.663E+00   -1.657E+00   -1.652E+00   -1.646E+00   -1.640E+00   -1.634E+00   -1.628E+00
    -1.622E+00   -1.616E+00   -1.610E+00   -1.603E+00   -1.597E+00   -1.591E+00   -1.585E+00   -1.578E+00   -1.572E+00   -1.566E+00
    -1.559E+00   -1.553E+00   -1.546E+00   -1.540E+00   -1.533E+00   -1.527E+00   -1.520E+00   -1.514E+00   -1.507E+00   -1.500E+00
    -1.494E+00   -1.487E+00   -1.480E+00   -1.473E+00   -1.467E+00   -1.460E+00   -1.453E+00   -1.446E+00   -1.439E+00   -1.432E+00
    -1.426E+00   -1.419E+00   -1.412E+00   -1.405E+00   -1.398E+00   -1.391E+00   -1.384E+00   -1.377E+00   -1.370E+00   -1.363E+00
    -1.356E+00   -1.349E+00   -1.342E+00   -1.334E+00   -1.327E+00   -1.320E+00   -1.313E+00   -1.306E+00   -1.299E+00   -1.292E+00
    -1.285E+00   -1.277E+00   -1.270E+00   -1.263E+00   -1.256E+00   -1.249E+00   -1.242E+00   -1.234E+00   -1.227E+00   -1.220E+00
    -1.213E+00   -1.206E+00   -1.198E+00   -1.191E+00   -1.184E+00   -1.177E+00   -1.169E+00   -1.162E+00   -1.155E+00   -1.148E+00
    -1.141E+00   -1.133E+00   -1.126E+00   -1.119E+00   -1.112E+00   -1.104E+00   -1.097E+00   -1.090E+00
 Asp      Conc. = 7.61E+01
