 LCModel (Version 6.3-1L) Copyright: S.W. Provencher.          Ref.: Magn. Reson. Med. 30:672-679 (1993).                
 Slice#2 Row#8 Col#10  PD_24_press_2_raw_act
 36 lines in following concentration table = NCONC+1
    Conc.  %SD /Cr+PCr  Metabolite                                         
   49.526 342% 2.0E-02 Ala                                                 
    0.000 999%   0.000 Asp                                                 
  259.145 162%   0.106 Cr                                                  
 2.18E+03  20%   0.894 PCr                                                 
    0.000 999%   0.000 GABA                                                
    0.000 999%   0.000 Glc                                                 
 1.60E+03  22%   0.656 Gln                                                 
 2.68E+03  15%   1.101 Glu                                                 
  879.128   4%   0.361 GPC                                                 
    0.000 999%   0.000 PCh                                                 
  501.910  21%   0.206 GSH                                                 
 1.99E+03  19%   0.818 Ins                                                 
  249.898  75%   0.103 Lac                                                 
 4.26E+03   3%   1.747 NAA                                                 
    0.000 999%   0.000 NAAG                                                
  307.262  14%   0.126 Scyllo                                              
   96.774 339% 4.0E-02 Tau                                                 
 1.27E+03  13%   0.522 -CrCH2                                              
  879.128   4%   0.361 GPC+PCh                                             
 4.26E+03   3%   1.747 NAA+NAAG                                            
 2.44E+03   3%   1.000 Cr+PCr                                              
 4.28E+03  14%   1.757 Glu+Gln                                             
 1.68E+03  39%   0.691 Lip13a                                              
    0.000 999%   0.000 Lip13b                                              
    0.000 999%   0.000 Lip09                                               
 2.47E+03  14%   1.015 MM09                                                
  347.091  63%   0.142 Lip20                                               
 5.76E+03  11%   2.364 MM20                                                
  903.062  31%   0.371 MM12                                                
 4.30E+03  16%   1.766 MM14                                                
 2.39E+03  21%   0.981 MM17                                                
 1.68E+03  39%   0.691 Lip13a+Lip13b                                       
 6.89E+03  11%   2.827 MM14+Lip13a+Lip13b+MM12                             
 2.47E+03  14%   1.015 MM09+Lip09                                          
 6.11E+03  11%   2.507 MM20+Lip20                                          
   6 lines in following misc. output table
  FWHM = 0.061 ppm    S/N =  17                                            
  Data shift = 0.000 ppm                                                   
  Ph: -37 deg     -13.3 deg/ppm                                            
  alphaB,S = 4.5E-01,   1.0E+02                                            
   14 spline knots.   Ns = 8(1)                                            
  (16) 4 infls.   (11) 1 extrs.                                            
  498 points on ppm-axis = NY
      4.000000     3.992357     3.984714     3.977070     3.969427     3.961784     3.954141     3.946497     3.938854     3.931211
      3.923568     3.915925     3.908281     3.900638     3.892995     3.885352     3.877708     3.870065     3.862422     3.854779
      3.847136     3.839492     3.831849     3.824206     3.816563     3.808919     3.801276     3.793633     3.785990     3.778347
      3.770703     3.763060     3.755417     3.747774     3.740130     3.732487     3.724844     3.717201     3.709558     3.701914
      3.694271     3.686628     3.678985     3.671341     3.663698     3.656055     3.648412     3.640769     3.633125     3.625482
      3.617839     3.610196     3.602552     3.594909     3.587266     3.579623     3.571980     3.564336     3.556693     3.549050
      3.541407     3.533763     3.526120     3.518477     3.510834     3.503191     3.495547     3.487904     3.480261     3.472618
      3.464974     3.457331     3.449688     3.442045     3.434402     3.426758     3.419115     3.411472     3.403829     3.396185
      3.388542     3.380899     3.373256     3.365613     3.357969     3.350326     3.342683     3.335040     3.327396     3.319753
      3.312110     3.304467     3.296824     3.289180     3.281537     3.273894     3.266251     3.258607     3.250964     3.243321
      3.235678     3.228034     3.220391     3.212748     3.205105     3.197462     3.189818     3.182175     3.174532     3.166889
      3.159245     3.151602     3.143959     3.136316     3.128673     3.121029     3.113386     3.105743     3.098100     3.090456
      3.082813     3.075170     3.067527     3.059884     3.052240     3.044597     3.036954     3.029311     3.021667     3.014024
      3.006381     2.998738     2.991095     2.983451     2.975808     2.968165     2.960522     2.952878     2.945235     2.937592
      2.929949     2.922306     2.914662     2.907019     2.899376     2.891733     2.884089     2.876446     2.868803     2.861160
      2.853517     2.845873     2.838230     2.830587     2.822944     2.815300     2.807657     2.800014     2.792371     2.784728
      2.777084     2.769441     2.761798     2.754155     2.746511     2.738868     2.731225     2.723582     2.715939     2.708295
      2.700652     2.693009     2.685366     2.677722     2.670079     2.662436     2.654793     2.647150     2.639506     2.631863
      2.624220     2.616577     2.608933     2.601290     2.593647     2.586004     2.578361     2.570717     2.563074     2.555431
      2.547788     2.540144     2.532501     2.524858     2.517215     2.509572     2.501928     2.494285     2.486642     2.478999
      2.471355     2.463712     2.456069     2.448426     2.440783     2.433139     2.425496     2.417853     2.410210     2.402566
      2.394923     2.387280     2.379637     2.371994     2.364350     2.356707     2.349064     2.341421     2.333777     2.326134
      2.318491     2.310848     2.303205     2.295561     2.287918     2.280275     2.272632     2.264988     2.257345     2.249702
      2.242059     2.234416     2.226772     2.219129     2.211486     2.203843     2.196199     2.188556     2.180913     2.173270
      2.165627     2.157983     2.150340     2.142697     2.135054     2.127410     2.119767     2.112124     2.104481     2.096838
      2.089194     2.081551     2.073908     2.066265     2.058621     2.050978     2.043335     2.035692     2.028049     2.020405
      2.012762     2.005119     1.997476     1.989833     1.982190     1.974546     1.966903     1.959260     1.951617     1.943974
      1.936331     1.928688     1.921045     1.913402     1.905759     1.898115     1.890472     1.882829     1.875186     1.867543
      1.859900     1.852257     1.844614     1.836971     1.829327     1.821684     1.814041     1.806398     1.798755     1.791112
      1.783469     1.775826     1.768183     1.760540     1.752896     1.745253     1.737610     1.729967     1.722324     1.714681
      1.707038     1.699395     1.691752     1.684108     1.676465     1.668822     1.661179     1.653536     1.645893     1.638250
      1.630607     1.622964     1.615321     1.607677     1.600034     1.592391     1.584748     1.577105     1.569462     1.561819
      1.554176     1.546533     1.538890     1.531246     1.523603     1.515960     1.508317     1.500674     1.493031     1.485388
      1.477745     1.470102     1.462458     1.454815     1.447172     1.439529     1.431886     1.424243     1.416600     1.408957
      1.401314     1.393671     1.386027     1.378384     1.370741     1.363098     1.355455     1.347812     1.340169     1.332526
      1.324883     1.317240     1.309596     1.301953     1.294310     1.286667     1.279024     1.271381     1.263738     1.256095
      1.248452     1.240808     1.233165     1.225522     1.217879     1.210236     1.202593     1.194950     1.187307     1.179664
      1.172021     1.164377     1.156734     1.149091     1.141448     1.133805     1.126162     1.118519     1.110876     1.103233
      1.095590     1.087946     1.080303     1.072660     1.065017     1.057374     1.049731     1.042088     1.034445     1.026802
      1.019158     1.011515     1.003872     0.996229     0.988586     0.980943     0.973300     0.965657     0.958014     0.950371
      0.942727     0.935084     0.927441     0.919798     0.912155     0.904512     0.896869     0.889226     0.881583     0.873940
      0.866296     0.858653     0.851010     0.843367     0.835724     0.828081     0.820438     0.812795     0.805152     0.797508
      0.789865     0.782222     0.774579     0.766936     0.759293     0.751650     0.744007     0.736364     0.728721     0.721077
      0.713434     0.705791     0.698148     0.690505     0.682862     0.675219     0.667576     0.659933     0.652290     0.644646
      0.637003     0.629360     0.621717     0.614074     0.606431     0.598788     0.591145     0.583502     0.575858     0.568215
      0.560572     0.552929     0.545286     0.537643     0.530000     0.522357     0.514714     0.507071     0.499427     0.491784
      0.484141     0.476498     0.468855     0.461212     0.453569     0.445925     0.438282     0.430639     0.422996     0.415353
      0.407710     0.400067     0.392424     0.384780     0.377137     0.369494     0.361851     0.354208     0.346565     0.338922
      0.331278     0.323635     0.315992     0.308349     0.300706     0.293063     0.285420     0.277777     0.270133     0.262490
      0.254847     0.247204     0.239561     0.231918     0.224275     0.216631     0.208988     0.201345
 NY phased data points follow
   3.73165E+01  4.04364E+01  3.74098E+01  4.04115E+01  3.65048E+01  4.56663E+01  3.94597E+01  4.59770E+01  4.83815E+01  5.52490E+01
   5.48691E+01  5.59322E+01  4.78747E+01  5.11852E+01  4.55455E+01  3.92993E+01  3.40564E+01  3.73117E+01  3.34996E+01  3.07993E+01
   2.74278E+01  3.24745E+01  3.09361E+01  3.36805E+01  2.98076E+01  3.60701E+01  3.64219E+01  3.24160E+01  3.29963E+01  3.83601E+01
   3.63244E+01  3.60749E+01  3.61781E+01  3.68732E+01  3.25817E+01  3.74113E+01  3.16984E+01  2.99424E+01  2.82894E+01  3.42425E+01
   2.79850E+01  3.68251E+01  3.12519E+01  3.28328E+01  3.50838E+01  3.30786E+01  3.69251E+01  3.89544E+01  4.23596E+01  4.01968E+01
   4.19614E+01  3.99676E+01  3.10599E+01  3.36013E+01  3.32096E+01  3.06833E+01  2.94341E+01  3.03008E+01  2.50978E+01  2.78797E+01
   2.01553E+01  2.44630E+01  1.75805E+01  1.62779E+01  1.88578E+01  1.83687E+01  1.58988E+01  1.90923E+01  1.91111E+01  2.04315E+01
   1.76974E+01  1.99196E+01  1.91604E+01  2.13821E+01  2.15344E+01  2.19356E+01  2.08846E+01  2.01999E+01  1.91333E+01  2.21867E+01
   1.97720E+01  2.15736E+01  2.40854E+01  2.54680E+01  2.39994E+01  2.78798E+01  2.81658E+01  2.64273E+01  2.41544E+01  3.00336E+01
   2.66294E+01  2.56531E+01  2.76277E+01  2.97800E+01  2.89573E+01  3.42304E+01  3.47302E+01  3.67936E+01  3.95779E+01  5.40696E+01
   6.55714E+01  6.75436E+01  7.34940E+01  7.76615E+01  7.99977E+01  7.94807E+01  6.45671E+01  5.64983E+01  3.74817E+01  3.42520E+01
   3.06237E+01  2.80770E+01  2.19683E+01  2.26087E+01  1.65450E+01  1.80967E+01  1.86359E+01  2.04086E+01  1.74212E+01  2.39882E+01
   2.70603E+01  3.14057E+01  4.10093E+01  4.98259E+01  5.88858E+01  6.98480E+01  7.89577E+01  8.22551E+01  8.80826E+01  7.69581E+01
   6.63099E+01  5.00413E+01  3.28102E+01  2.94118E+01  2.15018E+01  2.13876E+01  1.78132E+01  2.07225E+01  1.55994E+01  1.58329E+01
   8.06737E+00  1.52175E+01  1.40273E+01  1.48673E+01  1.39045E+01  1.03379E+01  6.42986E+00  1.05448E+01  1.27059E+01  1.38879E+01
   8.78447E+00  7.81562E+00  1.07880E+01  9.49225E+00  1.05640E+01  1.05524E+01  1.31942E+01  9.24739E+00  6.89298E+00  1.39976E+01
   1.01630E+01  7.28567E+00  9.39547E+00  4.27396E+00  1.88256E+00  4.21183E-01  4.40380E+00  1.44356E-01 -2.00385E+00 -1.64971E+00
  -4.67767E+00 -8.98507E+00 -1.09026E+01 -1.14530E+01 -1.34464E+01 -1.16643E+01 -1.70349E+01 -1.28877E+01 -1.59598E+01 -8.07155E+00
  -7.16278E+00 -4.62608E+00 -5.53315E+00 -3.55981E+00 -2.97427E+00 -4.32699E+00 -6.67318E+00 -6.64351E+00 -7.45003E-01 -5.07579E+00
  -2.61372E+00  2.48314E+00  3.15941E+00  3.31211E+00  1.70201E+00  3.46932E+00  3.19228E+00 -1.70428E+00 -2.20530E+00  2.99222E-01
   8.47346E-01  4.68524E+00  6.38781E+00  1.09815E+01  8.42510E+00  1.10234E+01  1.00165E+01  1.06476E+01  5.99755E+00  8.70538E+00
   5.63788E+00  1.50003E+01  1.46410E+01  2.06813E+01  2.24840E+01  2.41555E+01  2.38378E+01  2.52677E+01  1.94666E+01  1.78928E+01
   1.13968E+01  8.77108E+00  5.55479E+00  3.48134E+00  8.52244E+00  1.25609E+01  1.30732E+01  1.85031E+01  1.96771E+01  2.07891E+01
   1.91415E+01  2.17690E+01  1.82457E+01  2.01306E+01  1.99414E+01  1.67380E+01  2.47972E+01  2.44268E+01  1.79004E+01  1.99140E+01
   1.90026E+01  2.08467E+01  2.16540E+01  1.63284E+01  1.53156E+01  1.67315E+01  2.13384E+01  2.28472E+01  2.37767E+01  3.19616E+01
   3.31955E+01  3.47782E+01  4.06620E+01  4.76360E+01  6.08709E+01  6.95960E+01  8.67268E+01  1.04664E+02  1.20690E+02  1.31591E+02
   1.42907E+02  1.45028E+02  1.40174E+02  1.30357E+02  9.53849E+01  7.18350E+01  5.05207E+01  4.65004E+01  3.50875E+01  3.46419E+01
   3.21641E+01  2.32928E+01  2.39436E+01  2.47586E+01  2.35897E+01  1.99889E+01  2.13281E+01  1.99089E+01  2.13000E+01  1.44646E+01
   1.81360E+01  1.91340E+01  1.27412E+01  2.19022E+01  1.90327E+01  2.21380E+01  2.25941E+01  1.57291E+01  1.87327E+01  2.09004E+01
   1.92546E+01  1.93271E+01  2.22811E+01  2.21845E+01  2.21005E+01  2.05503E+01  2.19991E+01  2.09376E+01  2.44141E+01  2.05877E+01
   2.19655E+01  2.13120E+01  1.83989E+01  2.34239E+01  2.01960E+01  2.50210E+01  2.82589E+01  2.15941E+01  2.35614E+01  2.18928E+01
   1.99790E+01  2.48558E+01  2.38792E+01  1.94888E+01  1.90743E+01  2.37362E+01  2.22731E+01  2.30168E+01  2.31266E+01  1.94170E+01
   2.31239E+01  2.06266E+01  2.55496E+01  2.25396E+01  2.39160E+01  1.77541E+01  2.41185E+01  3.06927E+01  2.64513E+01  2.64839E+01
   2.86406E+01  3.23698E+01  2.92061E+01  3.28467E+01  3.51784E+01  3.55998E+01  4.02525E+01  3.65491E+01  3.76225E+01  3.58277E+01
   2.87531E+01  3.64315E+01  3.41022E+01  3.79003E+01  3.51222E+01  3.42886E+01  3.40544E+01  3.24911E+01  3.03318E+01  2.76632E+01
   2.61230E+01  2.40969E+01  2.43306E+01  2.50408E+01  2.68659E+01  2.76136E+01  2.23210E+01  2.40247E+01  2.86078E+01  2.14289E+01
   2.17804E+01  1.98505E+01  1.71135E+01  2.06935E+01  1.94758E+01  1.82960E+01  2.06029E+01  1.93163E+01  2.00408E+01  2.00254E+01
   1.86916E+01  1.89003E+01  1.91045E+01  1.79635E+01  1.83827E+01  1.63209E+01  1.47901E+01  1.26866E+01  8.69852E+00  1.08635E+01
   1.04512E+01  1.40705E+01  1.43245E+01  1.12553E+01  1.00556E+01  7.74965E+00  7.98350E+00  1.21739E+01  1.38801E+01  1.38978E+01
   1.56315E+01  1.49496E+01  1.50331E+01  9.86628E+00  1.56793E+01  1.48078E+01  1.40814E+01  1.71737E+01  1.70863E+01  1.77229E+01
   1.85545E+01  2.05832E+01  2.13730E+01  1.95960E+01  2.22142E+01  2.11435E+01  2.58526E+01  2.24985E+01  1.74021E+01  2.26532E+01
   2.67087E+01  1.91943E+01  1.94322E+01  1.71006E+01  1.81109E+01  1.44596E+01  1.89302E+01  1.73422E+01  1.35362E+01  1.67811E+01
   1.02973E+01  1.20321E+01  9.80045E+00  1.21112E+01  7.91158E+00  7.45031E+00  7.30214E+00  5.51364E+00  5.43136E+00  5.90101E+00
   7.52181E+00  4.08337E+00  3.80137E+00  3.86458E+00  5.48738E+00  5.17425E+00  6.33499E+00  6.32914E+00  2.56944E+00  1.16860E+00
   5.02490E+00  1.93513E-01  3.86069E+00  4.31021E+00  4.97662E+00  5.73910E+00  4.16200E+00  4.35106E+00  3.56380E+00  6.28100E+00
   3.24160E+00  7.13299E-01  3.38933E+00 -1.36757E+00  4.52517E+00  2.55394E+00  7.99092E+00 -2.00704E-01  2.80482E+00  1.22086E+00
   5.42106E+00  2.33035E+00  1.71384E+00  1.72383E+00 -4.37903E-01  6.61222E+00  5.35302E+00  2.85269E+00  4.04022E+00 -2.12477E-01
   5.67999E-01  9.13991E-02  1.52084E+00 -1.43145E+00  4.65647E+00  4.95843E+00  2.16493E+00  5.60841E+00  5.01519E+00  3.99207E+00
  -1.25914E+00  5.15030E+00  2.05906E+00  1.39563E+00  4.30746E+00  4.03053E+00  6.08465E-01  3.76344E+00  1.76324E+00  5.92039E+00
   3.85985E+00  5.28873E+00  4.55296E+00  2.14912E+00 -1.03698E+00  2.00219E+00  4.07484E+00  4.39158E+00
 NY points of the fit to the data follow
   3.39556E+01  3.45092E+01  3.54026E+01  3.68217E+01  3.91941E+01  4.21166E+01  4.52354E+01  4.83287E+01  5.11289E+01  5.32951E+01
   5.43031E+01  5.36182E+01  5.10503E+01  4.72576E+01  4.34572E+01  4.05750E+01  3.86040E+01  3.69004E+01  3.51487E+01  3.39812E+01
   3.27775E+01  3.16649E+01  3.13861E+01  3.14560E+01  3.14532E+01  3.16807E+01  3.24916E+01  3.38015E+01  3.52442E+01  3.69084E+01
   3.88490E+01  4.05018E+01  4.11815E+01  4.04382E+01  3.84101E+01  3.57571E+01  3.31719E+01  3.11903E+01  2.97609E+01  2.89954E+01
   2.94646E+01  3.06776E+01  3.19069E+01  3.30787E+01  3.45167E+01  3.61482E+01  3.74016E+01  3.80923E+01  3.83688E+01  3.80291E+01
   3.66020E+01  3.39634E+01  3.07473E+01  2.79301E+01  2.61623E+01  2.53879E+01  2.51674E+01  2.50829E+01  2.51211E+01  2.53045E+01
   2.55191E+01  2.55485E+01  2.52869E+01  2.45967E+01  2.36084E+01  2.25744E+01  2.17471E+01  2.13998E+01  2.15029E+01  2.18108E+01
   2.21651E+01  2.24117E+01  2.25255E+01  2.24961E+01  2.23136E+01  2.19519E+01  2.14010E+01  2.07674E+01  2.02883E+01  2.04048E+01
   2.12921E+01  2.19592E+01  2.26342E+01  2.38476E+01  2.54328E+01  2.68864E+01  2.80107E+01  2.88268E+01  2.91951E+01  2.87893E+01
   2.71492E+01  2.44106E+01  2.15963E+01  2.00599E+01  2.13115E+01  2.63387E+01  3.15376E+01  3.61879E+01  4.29434E+01  5.18895E+01
   6.12266E+01  6.95500E+01  7.65003E+01  8.14422E+01  8.27053E+01  7.80936E+01  6.69339E+01  5.22803E+01  3.92968E+01  3.12332E+01
   2.70005E+01  2.32446E+01  1.87511E+01  1.61899E+01  1.52817E+01  1.48512E+01  1.46800E+01  1.49311E+01  1.70525E+01  2.27959E+01
   2.85775E+01  3.40996E+01  4.15562E+01  5.11801E+01  6.10587E+01  6.97994E+01  7.70108E+01  8.18854E+01  8.27734E+01  7.75345E+01
   6.56475E+01  5.05716E+01  3.77533E+01  3.01897E+01  2.62066E+01  2.20520E+01  1.68954E+01  1.41189E+01  1.30830E+01  1.27898E+01
   1.29311E+01  1.31740E+01  1.32177E+01  1.30057E+01  1.25959E+01  1.20075E+01  1.13615E+01  1.07761E+01  1.02625E+01  9.80681E+00
   9.36052E+00  8.94184E+00  8.53779E+00  7.98108E+00  7.44136E+00  7.01315E+00  6.63398E+00  6.29018E+00  5.80013E+00  5.23328E+00
   4.73666E+00  4.31017E+00  3.91569E+00  3.64685E+00  3.61989E+00  3.69885E+00  3.51140E+00  2.70999E+00  1.28349E+00 -1.52965E-01
  -9.95778E-01 -1.54881E+00 -2.14034E+00 -2.92689E+00 -3.62088E+00 -3.92292E+00 -4.06372E+00 -4.16999E+00 -4.09950E+00 -3.85049E+00
  -3.42043E+00 -3.08457E+00 -3.05688E+00 -2.99374E+00 -2.38732E+00 -1.24972E+00 -4.03242E-02  9.50896E-01  2.04676E+00  3.48298E+00
   4.98430E+00  6.12667E+00  6.67140E+00  6.61757E+00  6.19689E+00  5.97401E+00  6.49400E+00  7.37364E+00  8.46795E+00  9.74191E+00
   1.09076E+01  1.17354E+01  1.22349E+01  1.22301E+01  1.11996E+01  8.99226E+00  6.38961E+00  4.01252E+00  2.17374E+00  1.11419E+00
   1.11462E+00  2.85922E+00  6.15109E+00  9.87548E+00  1.28867E+01  1.46206E+01  1.55854E+01  1.59213E+01  1.46493E+01  1.13462E+01
   7.13829E+00  3.85010E+00  2.42400E+00  2.59427E+00  4.07999E+00  6.76529E+00  1.04625E+01  1.42002E+01  1.68587E+01  1.82313E+01
   1.86798E+01  1.89086E+01  1.93152E+01  1.95971E+01  1.98317E+01  2.04146E+01  2.12647E+01  2.21810E+01  2.29773E+01  2.33153E+01
   2.30516E+01  2.22285E+01  2.11428E+01  2.03945E+01  2.04842E+01  2.14980E+01  2.32769E+01  2.53504E+01  2.71543E+01  2.85323E+01
   2.97966E+01  3.22662E+01  4.03365E+01  5.15966E+01  6.11100E+01  7.20868E+01  8.71868E+01  1.04091E+02  1.19233E+02  1.31758E+02
   1.41393E+02  1.45989E+02  1.41627E+02  1.25331E+02  9.97598E+01  7.37533E+01  5.56479E+01  4.63794E+01  4.01075E+01  3.17792E+01
   2.51520E+01  2.27939E+01  2.16398E+01  2.08279E+01  2.02942E+01  1.99986E+01  1.97207E+01  1.93962E+01  1.90035E+01  1.85833E+01
   1.82148E+01  1.79495E+01  1.77635E+01  1.76458E+01  1.76289E+01  1.77228E+01  1.78957E+01  1.81179E+01  1.83839E+01  1.87047E+01
   1.90815E+01  1.94917E+01  1.99276E+01  2.03827E+01  2.08439E+01  2.12984E+01  2.17334E+01  2.21363E+01  2.24931E+01  2.27916E+01
   2.30243E+01  2.31867E+01  2.32734E+01  2.32833E+01  2.32184E+01  2.30844E+01  2.28887E+01  2.26418E+01  2.23562E+01  2.20480E+01
   2.17342E+01  2.14327E+01  2.11594E+01  2.09310E+01  2.07633E+01  2.06710E+01  2.06672E+01  2.07650E+01  2.09783E+01  2.13205E+01
   2.17596E+01  2.22844E+01  2.29158E+01  2.36444E+01  2.44349E+01  2.52596E+01  2.61048E+01  2.69840E+01  2.78831E+01  2.87498E+01
   2.95840E+01  3.04317E+01  3.13225E+01  3.22313E+01  3.30955E+01  3.38619E+01  3.45136E+01  3.50655E+01  3.55018E+01  3.58260E+01
   3.58994E+01  3.57044E+01  3.54220E+01  3.50570E+01  3.44621E+01  3.35689E+01  3.24520E+01  3.13063E+01  3.00609E+01  2.85962E+01
   2.70683E+01  2.58104E+01  2.50628E+01  2.48121E+01  2.48459E+01  2.49335E+01  2.49768E+01  2.49988E+01  2.47953E+01  2.41800E+01
   2.33091E+01  2.24483E+01  2.17285E+01  2.10668E+01  2.03103E+01  1.95622E+01  1.88877E+01  1.82503E+01  1.76345E+01  1.70365E+01
   1.64552E+01  1.58928E+01  1.53516E+01  1.48355E+01  1.43480E+01  1.38934E+01  1.34750E+01  1.30971E+01  1.27629E+01  1.24764E+01
   1.22408E+01  1.20593E+01  1.19348E+01  1.18705E+01  1.18689E+01  1.19333E+01  1.20655E+01  1.22678E+01  1.25412E+01  1.28867E+01
   1.33036E+01  1.37906E+01  1.43435E+01  1.49575E+01  1.56245E+01  1.63351E+01  1.70768E+01  1.78354E+01  1.85938E+01  1.93340E+01
   2.00362E+01  2.06810E+01  2.12484E+01  2.17204E+01  2.20801E+01  2.23142E+01  2.24125E+01  2.23693E+01  2.21826E+01  2.18553E+01
   2.13940E+01  2.08101E+01  2.01173E+01  1.93328E+01  1.84747E+01  1.75625E+01  1.66152E+01  1.56519E+01  1.46892E+01  1.37430E+01
   1.28255E+01  1.19476E+01  1.11168E+01  1.03392E+01  9.61767E+00  8.95392E+00  8.34714E+00  7.79607E+00  7.29772E+00  6.84925E+00
   6.44648E+00  6.08579E+00  5.76266E+00  5.47365E+00  5.21471E+00  4.98290E+00  4.77460E+00  4.58737E+00  4.41822E+00  4.26545E+00
   4.12675E+00  4.00093E+00  3.88600E+00  3.78109E+00  3.68467E+00  3.59632E+00  3.51483E+00  3.43993E+00  3.37047E+00  3.30634E+00
   3.24667E+00  3.19157E+00  3.14027E+00  3.09286E+00  3.04852E+00  3.00744E+00  2.96901E+00  2.93353E+00  2.90035E+00  2.86969E+00
   2.84088E+00  2.81428E+00  2.78937E+00  2.76652E+00  2.74515E+00  2.72552E+00  2.70706E+00  2.69022E+00  2.67451E+00  2.66033E+00
   2.64707E+00  2.63509E+00  2.62387E+00  2.61391E+00  2.60472E+00  2.59668E+00  2.58922E+00  2.58271E+00  2.57672E+00  2.57171E+00
   2.56721E+00  2.56357E+00  2.56025E+00  2.55768E+00  2.55544E+00  2.55400E+00  2.55286E+00  2.55238E+00  2.55204E+00  2.55233E+00
   2.55282E+00  2.55398E+00  2.55529E+00  2.55713E+00  2.55902E+00  2.56149E+00  2.56413E+00  2.56740E+00
 NY background values follow
     2.740E+01    2.725E+01    2.709E+01    2.694E+01    2.679E+01    2.663E+01    2.648E+01    2.633E+01    2.617E+01    2.602E+01
     2.587E+01    2.571E+01    2.556E+01    2.541E+01    2.526E+01    2.511E+01    2.495E+01    2.480E+01    2.465E+01    2.450E+01
     2.435E+01    2.420E+01    2.405E+01    2.390E+01    2.374E+01    2.359E+01    2.344E+01    2.329E+01    2.314E+01    2.300E+01
     2.285E+01    2.270E+01    2.255E+01    2.240E+01    2.225E+01    2.210E+01    2.196E+01    2.181E+01    2.166E+01    2.151E+01
     2.137E+01    2.122E+01    2.107E+01    2.093E+01    2.078E+01    2.064E+01    2.049E+01    2.035E+01    2.020E+01    2.006E+01
     1.991E+01    1.977E+01    1.962E+01    1.948E+01    1.934E+01    1.919E+01    1.905E+01    1.891E+01    1.876E+01    1.862E+01
     1.848E+01    1.833E+01    1.819E+01    1.805E+01    1.791E+01    1.776E+01    1.762E+01    1.748E+01    1.733E+01    1.719E+01
     1.705E+01    1.691E+01    1.676E+01    1.662E+01    1.648E+01    1.633E+01    1.619E+01    1.604E+01    1.590E+01    1.576E+01
     1.561E+01    1.547E+01    1.532E+01    1.518E+01    1.503E+01    1.489E+01    1.474E+01    1.459E+01    1.445E+01    1.430E+01
     1.415E+01    1.401E+01    1.386E+01    1.371E+01    1.356E+01    1.341E+01    1.326E+01    1.311E+01    1.296E+01    1.281E+01
     1.266E+01    1.251E+01    1.236E+01    1.221E+01    1.206E+01    1.191E+01    1.176E+01    1.161E+01    1.146E+01    1.131E+01
     1.116E+01    1.101E+01    1.086E+01    1.071E+01    1.055E+01    1.040E+01    1.025E+01    1.010E+01    9.954E+00    9.804E+00
     9.655E+00    9.505E+00    9.356E+00    9.208E+00    9.059E+00    8.911E+00    8.763E+00    8.616E+00    8.468E+00    8.322E+00
     8.176E+00    8.030E+00    7.884E+00    7.739E+00    7.595E+00    7.451E+00    7.308E+00    7.165E+00    7.023E+00    6.882E+00
     6.741E+00    6.602E+00    6.463E+00    6.326E+00    6.190E+00    6.055E+00    5.922E+00    5.790E+00    5.660E+00    5.531E+00
     5.404E+00    5.279E+00    5.155E+00    5.034E+00    4.915E+00    4.798E+00    4.684E+00    4.571E+00    4.461E+00    4.354E+00
     4.249E+00    4.147E+00    4.048E+00    3.952E+00    3.859E+00    3.768E+00    3.681E+00    3.597E+00    3.517E+00    3.440E+00
     3.366E+00    3.296E+00    3.230E+00    3.168E+00    3.109E+00    3.054E+00    3.004E+00    2.957E+00    2.915E+00    2.877E+00
     2.843E+00    2.814E+00    2.789E+00    2.769E+00    2.753E+00    2.741E+00    2.734E+00    2.730E+00    2.730E+00    2.734E+00
     2.741E+00    2.752E+00    2.767E+00    2.784E+00    2.805E+00    2.829E+00    2.855E+00    2.885E+00    2.917E+00    2.952E+00
     2.989E+00    3.029E+00    3.071E+00    3.115E+00    3.161E+00    3.209E+00    3.259E+00    3.310E+00    3.363E+00    3.417E+00
     3.473E+00    3.530E+00    3.588E+00    3.647E+00    3.707E+00    3.768E+00    3.830E+00    3.892E+00    3.954E+00    4.017E+00
     4.080E+00    4.143E+00    4.206E+00    4.269E+00    4.331E+00    4.394E+00    4.455E+00    4.517E+00    4.577E+00    4.637E+00
     4.697E+00    4.755E+00    4.814E+00    4.871E+00    4.928E+00    4.985E+00    5.040E+00    5.095E+00    5.150E+00    5.204E+00
     5.257E+00    5.309E+00    5.361E+00    5.412E+00    5.462E+00    5.512E+00    5.561E+00    5.609E+00    5.657E+00    5.704E+00
     5.750E+00    5.795E+00    5.840E+00    5.884E+00    5.927E+00    5.969E+00    6.011E+00    6.052E+00    6.092E+00    6.131E+00
     6.170E+00    6.208E+00    6.245E+00    6.281E+00    6.316E+00    6.351E+00    6.385E+00    6.417E+00    6.450E+00    6.481E+00
     6.511E+00    6.541E+00    6.569E+00    6.597E+00    6.624E+00    6.650E+00    6.675E+00    6.699E+00    6.723E+00    6.745E+00
     6.767E+00    6.788E+00    6.807E+00    6.826E+00    6.844E+00    6.861E+00    6.877E+00    6.892E+00    6.906E+00    6.919E+00
     6.931E+00    6.942E+00    6.953E+00    6.962E+00    6.970E+00    6.977E+00    6.984E+00    6.989E+00    6.993E+00    6.996E+00
     6.998E+00    6.999E+00    6.999E+00    6.999E+00    6.996E+00    6.993E+00    6.989E+00    6.984E+00    6.978E+00    6.970E+00
     6.962E+00    6.952E+00    6.942E+00    6.930E+00    6.917E+00    6.903E+00    6.888E+00    6.872E+00    6.855E+00    6.836E+00
     6.817E+00    6.796E+00    6.774E+00    6.752E+00    6.728E+00    6.703E+00    6.678E+00    6.651E+00    6.623E+00    6.595E+00
     6.565E+00    6.535E+00    6.504E+00    6.472E+00    6.439E+00    6.405E+00    6.370E+00    6.335E+00    6.299E+00    6.262E+00
     6.224E+00    6.186E+00    6.147E+00    6.107E+00    6.066E+00    6.025E+00    5.983E+00    5.941E+00    5.898E+00    5.854E+00
     5.810E+00    5.765E+00    5.720E+00    5.674E+00    5.628E+00    5.581E+00    5.533E+00    5.486E+00    5.437E+00    5.389E+00
     5.340E+00    5.290E+00    5.240E+00    5.190E+00    5.140E+00    5.089E+00    5.038E+00    4.986E+00    4.935E+00    4.883E+00
     4.831E+00    4.779E+00    4.727E+00    4.675E+00    4.623E+00    4.570E+00    4.518E+00    4.466E+00    4.414E+00    4.362E+00
     4.310E+00    4.258E+00    4.206E+00    4.155E+00    4.104E+00    4.053E+00    4.002E+00    3.951E+00    3.901E+00    3.852E+00
     3.802E+00    3.753E+00    3.705E+00    3.657E+00    3.610E+00    3.563E+00    3.516E+00    3.470E+00    3.425E+00    3.381E+00
     3.337E+00    3.293E+00    3.251E+00    3.209E+00    3.168E+00    3.128E+00    3.089E+00    3.050E+00    3.013E+00    2.976E+00
     2.940E+00    2.905E+00    2.871E+00    2.838E+00    2.805E+00    2.773E+00    2.743E+00    2.713E+00    2.683E+00    2.655E+00
     2.628E+00    2.601E+00    2.575E+00    2.550E+00    2.525E+00    2.502E+00    2.479E+00    2.457E+00    2.436E+00    2.415E+00
     2.396E+00    2.377E+00    2.359E+00    2.341E+00    2.324E+00    2.308E+00    2.293E+00    2.279E+00    2.265E+00    2.252E+00
     2.239E+00    2.228E+00    2.217E+00    2.207E+00    2.197E+00    2.188E+00    2.180E+00    2.172E+00    2.166E+00    2.159E+00
     2.154E+00    2.149E+00    2.145E+00    2.141E+00    2.138E+00    2.136E+00    2.134E+00    2.133E+00    2.132E+00    2.132E+00
     2.133E+00    2.134E+00    2.135E+00    2.137E+00    2.139E+00    2.142E+00    2.146E+00    2.149E+00    2.153E+00    2.158E+00
     2.163E+00    2.168E+00    2.173E+00    2.179E+00    2.185E+00    2.191E+00    2.198E+00    2.205E+00    2.212E+00    2.219E+00
     2.227E+00    2.234E+00    2.242E+00    2.250E+00    2.258E+00    2.266E+00    2.275E+00    2.283E+00    2.292E+00    2.300E+00
     2.309E+00    2.317E+00    2.326E+00    2.334E+00    2.343E+00    2.351E+00    2.359E+00    2.368E+00
 Ala      Conc. = 4.95E+01
