 LCModel (Version 6.3-1L) Copyright: S.W. Provencher.          Ref.: Magn. Reson. Med. 30:672-679 (1993).                
 Slice#3 Row#12 Col#6  PD_24_press_2_raw_act
 36 lines in following concentration table = NCONC+1
    Conc.  %SD /Cr+PCr  Metabolite                                         
  897.939  29%  13.710 Ala                                                 
    5.083 218% 7.8E-02 Asp                                                 
   65.495  63%   1.000 Cr                                                  
    0.000 999%   0.000 PCr                                                 
    2.901 229% 4.4E-02 GABA                                                
    3.311 201% 5.1E-02 Glc                                                 
  392.136  95%   5.987 Gln                                                 
 1.07E+03  45%  16.298 Glu                                                 
    0.000 999%   0.000 GPC                                                 
    0.000 999%   0.000 PCh                                                 
    0.000 999%   0.000 GSH                                                 
  384.864  42%   5.876 Ins                                                 
    0.000 999%   0.000 Lac                                                 
   34.338 127%   0.524 NAA                                                 
    0.000 999%   0.000 NAAG                                                
    1.389 159% 2.1E-02 Scyllo                                              
    5.922 187% 9.0E-02 Tau                                                 
    6.465  71% 9.9E-02 -CrCH2                                              
    0.000 999%   0.000 GPC+PCh                                             
   34.338 127%   0.524 NAA+NAAG                                            
   65.495  63%   1.000 Cr+PCr                                              
 1.46E+03  45%  22.285 Glu+Gln                                             
    0.000 999%   0.000 Lip13a                                              
    0.000 999%   0.000 Lip13b                                              
    0.000 999%   0.000 Lip09                                               
    0.000 999%   0.000 MM09                                                
    0.000 999%   0.000 Lip20                                               
    0.000 999%   0.000 MM20                                                
    0.000 999%   0.000 MM12                                                
    0.000 999%   0.000 MM14                                                
  730.590  16%  11.155 MM17                                                
    0.000 999%   0.000 Lip13a+Lip13b                                       
    0.000 999%   0.000 MM14+Lip13a+Lip13b+MM12                             
    0.000 999%   0.000 MM09+Lip09                                          
    0.000 999%   0.000 MM20+Lip20                                          
   6 lines in following misc. output table
  FWHM = 0.153 ppm    S/N =   1                                            
  Data shift = 0.000 ppm                                                   
  Ph: -42 deg      -3.0 deg/ppm                                            
  alphaB,S = 8.5E+01,   2.0E+02                                            
   10 spline knots.   Ns = 9(2)                                            
  ( 9) 2 infls.   ( 7) 1 extrs.                                            
  498 points on ppm-axis = NY
      4.000000     3.992357     3.984714     3.977070     3.969427     3.961784     3.954141     3.946497     3.938854     3.931211
      3.923568     3.915925     3.908281     3.900638     3.892995     3.885352     3.877708     3.870065     3.862422     3.854779
      3.847136     3.839492     3.831849     3.824206     3.816563     3.808919     3.801276     3.793633     3.785990     3.778347
      3.770703     3.763060     3.755417     3.747774     3.740130     3.732487     3.724844     3.717201     3.709558     3.701914
      3.694271     3.686628     3.678985     3.671341     3.663698     3.656055     3.648412     3.640769     3.633125     3.625482
      3.617839     3.610196     3.602552     3.594909     3.587266     3.579623     3.571980     3.564336     3.556693     3.549050
      3.541407     3.533763     3.526120     3.518477     3.510834     3.503191     3.495547     3.487904     3.480261     3.472618
      3.464974     3.457331     3.449688     3.442045     3.434402     3.426758     3.419115     3.411472     3.403829     3.396185
      3.388542     3.380899     3.373256     3.365613     3.357969     3.350326     3.342683     3.335040     3.327396     3.319753
      3.312110     3.304467     3.296824     3.289180     3.281537     3.273894     3.266251     3.258607     3.250964     3.243321
      3.235678     3.228034     3.220391     3.212748     3.205105     3.197462     3.189818     3.182175     3.174532     3.166889
      3.159245     3.151602     3.143959     3.136316     3.128673     3.121029     3.113386     3.105743     3.098100     3.090456
      3.082813     3.075170     3.067527     3.059884     3.052240     3.044597     3.036954     3.029311     3.021667     3.014024
      3.006381     2.998738     2.991095     2.983451     2.975808     2.968165     2.960522     2.952878     2.945235     2.937592
      2.929949     2.922306     2.914662     2.907019     2.899376     2.891733     2.884089     2.876446     2.868803     2.861160
      2.853517     2.845873     2.838230     2.830587     2.822944     2.815300     2.807657     2.800014     2.792371     2.784728
      2.777084     2.769441     2.761798     2.754155     2.746511     2.738868     2.731225     2.723582     2.715939     2.708295
      2.700652     2.693009     2.685366     2.677722     2.670079     2.662436     2.654793     2.647150     2.639506     2.631863
      2.624220     2.616577     2.608933     2.601290     2.593647     2.586004     2.578361     2.570717     2.563074     2.555431
      2.547788     2.540144     2.532501     2.524858     2.517215     2.509572     2.501928     2.494285     2.486642     2.478999
      2.471355     2.463712     2.456069     2.448426     2.440783     2.433139     2.425496     2.417853     2.410210     2.402566
      2.394923     2.387280     2.379637     2.371994     2.364350     2.356707     2.349064     2.341421     2.333777     2.326134
      2.318491     2.310848     2.303205     2.295561     2.287918     2.280275     2.272632     2.264988     2.257345     2.249702
      2.242059     2.234416     2.226772     2.219129     2.211486     2.203843     2.196199     2.188556     2.180913     2.173270
      2.165627     2.157983     2.150340     2.142697     2.135054     2.127410     2.119767     2.112124     2.104481     2.096838
      2.089194     2.081551     2.073908     2.066265     2.058621     2.050978     2.043335     2.035692     2.028049     2.020405
      2.012762     2.005119     1.997476     1.989833     1.982190     1.974546     1.966903     1.959260     1.951617     1.943974
      1.936331     1.928688     1.921045     1.913402     1.905759     1.898115     1.890472     1.882829     1.875186     1.867543
      1.859900     1.852257     1.844614     1.836971     1.829327     1.821684     1.814041     1.806398     1.798755     1.791112
      1.783469     1.775826     1.768183     1.760540     1.752896     1.745253     1.737610     1.729967     1.722324     1.714681
      1.707038     1.699395     1.691752     1.684108     1.676465     1.668822     1.661179     1.653536     1.645893     1.638250
      1.630607     1.622964     1.615321     1.607677     1.600034     1.592391     1.584748     1.577105     1.569462     1.561819
      1.554176     1.546533     1.538890     1.531246     1.523603     1.515960     1.508317     1.500674     1.493031     1.485388
      1.477745     1.470102     1.462458     1.454815     1.447172     1.439529     1.431886     1.424243     1.416600     1.408957
      1.401314     1.393671     1.386027     1.378384     1.370741     1.363098     1.355455     1.347812     1.340169     1.332526
      1.324883     1.317240     1.309596     1.301953     1.294310     1.286667     1.279024     1.271381     1.263738     1.256095
      1.248452     1.240808     1.233165     1.225522     1.217879     1.210236     1.202593     1.194950     1.187307     1.179664
      1.172021     1.164377     1.156734     1.149091     1.141448     1.133805     1.126162     1.118519     1.110876     1.103233
      1.095590     1.087946     1.080303     1.072660     1.065017     1.057374     1.049731     1.042088     1.034445     1.026802
      1.019158     1.011515     1.003872     0.996229     0.988586     0.980943     0.973300     0.965657     0.958014     0.950371
      0.942727     0.935084     0.927441     0.919798     0.912155     0.904512     0.896869     0.889226     0.881583     0.873940
      0.866296     0.858653     0.851010     0.843367     0.835724     0.828081     0.820438     0.812795     0.805152     0.797508
      0.789865     0.782222     0.774579     0.766936     0.759293     0.751650     0.744007     0.736364     0.728721     0.721077
      0.713434     0.705791     0.698148     0.690505     0.682862     0.675219     0.667576     0.659933     0.652290     0.644646
      0.637003     0.629360     0.621717     0.614074     0.606431     0.598788     0.591145     0.583502     0.575858     0.568215
      0.560572     0.552929     0.545286     0.537643     0.530000     0.522357     0.514714     0.507071     0.499427     0.491784
      0.484141     0.476498     0.468855     0.461212     0.453569     0.445925     0.438282     0.430639     0.422996     0.415353
      0.407710     0.400067     0.392424     0.384780     0.377137     0.369494     0.361851     0.354208     0.346565     0.338922
      0.331278     0.323635     0.315992     0.308349     0.300706     0.293063     0.285420     0.277777     0.270133     0.262490
      0.254847     0.247204     0.239561     0.231918     0.224275     0.216631     0.208988     0.201345
 NY phased data points follow
   6.70280E+00  7.04579E+00  7.84693E+00  6.66190E+00  6.62985E+00  6.24196E+00  3.49078E+00  4.85085E+00  6.46585E+00  8.87942E+00
   8.85666E+00  3.08535E+00  5.55367E+00  6.62616E+00  7.16935E+00  6.98934E+00  6.65060E+00  5.77169E+00  9.28479E+00  9.51170E+00
   7.00795E+00  6.38394E+00  5.13999E+00  5.23081E+00  2.31147E+00  6.07861E+00  4.92460E+00  3.69557E+00  6.81325E+00  5.53924E+00
   5.24872E+00  5.32228E+00  5.31492E+00  3.24984E+00  3.90903E+00  5.89324E+00  4.81875E+00  7.36150E+00  5.61136E+00  5.51096E+00
   4.57508E+00  3.00374E-01  6.91249E+00  2.22825E+00  2.93244E+00  3.10313E+00  2.52007E+00  6.26878E+00  6.13136E+00  4.78895E+00
   4.64722E+00  5.99954E+00  6.29479E+00  7.27538E+00  1.78839E+00  3.57413E+00  3.35876E+00  3.22170E+00  3.50203E+00  4.31825E+00
   4.88583E+00  5.85695E+00  4.96019E+00  6.18062E+00  4.95326E+00  4.27200E+00  3.20618E+00  3.89718E+00  4.53652E+00  4.88834E+00
   5.46176E+00  4.64350E+00  2.41834E+00  2.96066E+00  2.01493E+00  4.04981E+00  1.62486E+00  1.90562E+00  3.59985E+00  2.50209E+00
   4.13380E+00  3.30519E+00  5.44235E+00  1.98378E+00 -4.02686E-01  3.29137E+00  2.59122E+00  5.95006E+00  2.18035E+00  5.84338E+00
   3.43582E+00  3.22935E+00 -1.94605E-01  2.81582E+00  2.54056E-01  3.94254E-01  6.17735E-01  3.49381E+00  1.35629E+00 -1.25267E+00
   2.73682E-03  4.44760E-01  2.50536E+00  1.45873E+00 -2.50936E-01  1.96261E+00  9.26288E-01  8.17111E-01  3.19516E+00  2.68540E+00
   1.04591E+00  2.34508E+00  1.36983E+00  1.99057E+00 -3.74426E-01 -1.61705E-01  1.11541E-01  2.18239E+00  3.99830E-01  1.93806E+00
   1.79081E+00  1.74907E+00  2.18500E+00  2.87336E+00  7.89045E-01  2.93821E+00  2.76791E-01  3.69812E+00  1.01796E+00  3.96683E-01
   2.88146E+00  3.63207E-01  3.49336E+00  1.16829E+00  4.43540E+00  1.98116E+00  5.04269E+00  1.09116E+00  3.17970E+00  2.65005E+00
   1.04441E+00 -3.68505E-03  2.79705E+00  1.18549E+00 -1.14512E+00  2.09873E+00  2.43199E+00  2.17292E+00  2.58636E+00  8.55239E-01
   1.25410E+00 -1.89312E+00 -6.21999E-01  9.32095E-01 -6.15374E-01  2.27956E+00  3.70669E+00  2.15945E-01 -2.33399E+00  2.93755E+00
  -8.53394E-01 -4.11296E-01  2.48316E-01  1.55381E+00 -8.35076E-01 -1.58267E+00 -1.97424E-01 -2.23180E+00  1.01995E+00  1.88682E+00
   8.54357E-01  2.32205E-01  1.98362E+00  2.00887E+00  9.23864E-01  2.16781E+00  2.86241E+00 -7.39317E-01  2.41034E+00  1.51256E+00
   1.32818E+00 -3.11789E+00 -2.66105E-01  2.09044E+00  6.45045E-01 -1.32393E+00  2.67176E+00 -4.20080E-01  7.69513E-01  2.33933E+00
   2.82220E+00  2.71902E+00  2.30158E+00 -8.21884E-01  2.34227E+00  1.80524E+00  1.90397E+00 -2.29201E-01 -1.26535E-01  1.19152E+00
   1.76596E+00  1.58201E+00  3.12077E+00  6.47982E-01  4.68945E-01  1.30598E+00  6.23200E-02  1.22728E+00 -6.18771E-02 -2.22200E-01
   2.95584E+00 -5.94064E-01 -2.17011E+00 -7.46748E-01  8.89262E-01  3.24014E-01  5.26219E-01  2.89384E-01  1.82874E+00  6.61205E-01
   3.09979E-01 -2.10428E-01  1.02675E+00  2.03832E+00  1.61713E+00 -9.80059E-02  1.32716E+00  1.34208E+00 -3.60513E-01  1.74674E+00
  -2.35197E+00  2.41552E+00  3.74434E+00  1.88368E+00  2.97724E+00 -3.39452E-01  1.88209E+00  3.32074E+00 -1.52506E+00 -2.29097E-01
   1.81734E+00 -6.13834E-01  2.27421E+00  2.56666E+00  9.29894E-01 -1.28529E+00  1.07498E+00  2.02178E+00 -1.81729E+00  2.21357E+00
   1.66810E+00  2.17068E+00  1.72764E+00  2.89381E+00 -1.69433E-01  1.19677E+00 -1.36051E-01  2.30108E+00  2.98037E+00  3.67686E+00
   1.87101E+00 -7.09629E-01  8.10928E-01 -1.23166E-01  2.66774E+00  1.48822E+00  5.11337E+00  5.07569E+00  2.79295E+00  3.57879E+00
   1.41747E+00  2.43629E+00  1.38807E+00 -3.96347E-01  9.69487E-01  8.80826E-01  2.93540E+00  2.49886E+00  5.58361E+00 -4.85037E-01
   1.63907E+00 -1.69272E-01  5.01572E+00  2.77951E+00  1.32262E+00  6.17410E+00  4.91108E+00  2.45482E+00  2.47955E+00  3.54957E+00
   2.73896E+00  3.76495E+00  1.58575E+00  4.19278E+00 -1.26485E-01  6.08023E+00 -1.89854E+00  5.43126E+00  4.06123E-01 -2.28746E-01
   5.16656E-01  6.67098E-01 -5.10841E-01  2.34299E+00  1.62987E+00 -2.19581E+00 -2.53963E+00  1.22896E+00  2.41558E+00  3.18474E+00
  -3.61623E-01 -1.90805E+00  1.10501E+00  1.24764E+00  7.29894E-01 -3.70362E+00  4.83814E-01  1.27545E-01  2.42963E-01 -8.52601E-01
  -9.32190E-01 -2.38532E+00 -1.68043E+00 -2.76768E+00  8.69781E-01 -1.81134E+00 -2.99243E+00 -3.92484E+00 -5.79226E+00 -5.14775E+00
  -6.30406E+00 -2.08653E+00 -6.90695E+00 -5.81386E+00 -4.67768E+00 -2.08479E+00 -3.63569E+00 -3.43042E+00 -4.29475E+00 -5.15218E+00
  -2.34035E+00 -2.42263E+00  1.42953E+00 -1.47627E+00 -1.90779E+00 -3.49938E+00 -4.13132E-01 -1.51685E+00 -7.36593E-01 -2.88009E-02
  -3.44611E+00  9.45173E-01 -2.63058E+00 -1.09468E+00 -2.24339E-01 -3.18728E+00 -1.32432E+00 -2.22477E+00 -4.56833E-01 -1.11468E+00
  -4.96531E+00 -1.91221E+00 -2.38064E+00 -2.68997E+00 -2.82890E+00 -5.18816E+00 -2.48497E+00 -4.70763E+00 -1.56646E+00  1.22814E+00
  -4.59816E+00 -2.27947E+00 -4.74971E+00 -3.92087E+00 -2.73832E+00 -3.04648E+00 -1.94230E+00 -1.32662E+00 -3.69138E+00  3.90685E-01
   3.12725E-01 -1.54919E+00 -2.69934E+00 -8.51317E-01 -2.25373E+00 -1.06951E+00 -3.03883E-01 -2.09266E+00 -2.41388E+00 -6.40164E-01
   2.88099E-02  1.64351E+00 -7.35003E-01 -2.36987E+00 -1.69543E-01 -1.61313E+00  4.72098E-01  2.14806E+00 -1.22534E+00  1.30652E+00
   1.34998E+00 -1.26395E+00  1.70387E+00 -2.78548E+00 -1.34434E+00 -8.61457E-01  9.52891E-01 -1.91771E+00  5.37526E-02  2.23684E+00
   7.94620E-01  3.57798E-01 -1.99800E+00  8.42708E-01  8.72982E-01  1.58725E+00  2.60857E+00  2.51082E+00  2.93104E+00 -8.30262E-03
  -2.37015E-01  4.32517E-01 -1.52626E-01  3.12466E+00 -5.13951E-01 -1.81321E+00  1.05576E-01  4.52224E+00 -1.30998E+00  4.27565E+00
   1.48678E+00  4.65258E-01  4.96247E-01 -1.16999E+00 -1.91665E+00  2.12303E+00 -9.40373E-01 -9.53118E-01  1.47833E+00 -2.23165E-01
  -3.63820E+00 -1.90322E+00  1.12200E+00  2.84214E+00  4.00727E-01  6.12861E-01  1.57437E+00  1.41986E-01  1.02379E+00  2.86327E-01
  -1.22601E+00 -5.07636E-01  1.39218E+00 -8.87251E-01 -3.07092E-01 -2.88999E+00 -2.39417E+00 -1.92363E-01 -1.87619E-01  2.44428E+00
   5.90074E-01  6.89111E-01  2.40953E+00  1.23445E+00 -7.65801E-01 -1.10954E+00 -1.31356E+00 -1.86451E+00 -1.48783E+00 -1.24081E+00
   1.07386E+00  3.15350E+00 -9.45997E-01  7.23551E-01 -1.66015E+00 -1.37288E+00 -1.64934E+00  1.76072E+00 -3.23910E-01  3.60987E-02
   1.95140E+00 -3.32887E+00  8.23936E-01  3.10442E+00  1.75084E+00  6.78722E-01  8.58642E-01 -3.35544E+00  1.33641E+00 -3.18343E+00
   1.86796E+00  8.36088E-01  2.50617E+00  4.35705E-01  2.81241E+00 -5.13968E-01 -2.19527E+00 -4.37477E-01
 NY points of the fit to the data follow
   6.67887E+00  6.60835E+00  6.51456E+00  6.42986E+00  6.34177E+00  6.25997E+00  6.19794E+00  6.13629E+00  6.09027E+00  6.02665E+00
   5.98700E+00  5.92055E+00  5.89131E+00  5.82656E+00  5.83240E+00  5.79845E+00  5.83234E+00  5.79653E+00  5.85670E+00  5.78103E+00
   5.84839E+00  5.72327E+00  5.80116E+00  5.62104E+00  5.72732E+00  5.48898E+00  5.64703E+00  5.35001E+00  5.58602E+00  5.23470E+00
   5.56101E+00  5.14395E+00  5.56604E+00  5.09423E+00  5.60271E+00  5.05809E+00  5.63722E+00  5.04178E+00  5.65683E+00  5.02068E+00
   5.62057E+00  4.99254E+00  5.56423E+00  4.98315E+00  5.50243E+00  5.00594E+00  5.44133E+00  5.02058E+00  5.27956E+00  4.85634E+00
   4.96437E+00  4.62669E+00  4.64647E+00  4.43952E+00  4.44150E+00  4.33605E+00  4.32243E+00  4.20475E+00  4.13604E+00  4.01763E+00
   3.92162E+00  3.83845E+00  3.74841E+00  3.67104E+00  3.60146E+00  3.53615E+00  3.48778E+00  3.44106E+00  3.41997E+00  3.39586E+00
   3.37742E+00  3.32251E+00  3.27945E+00  3.20256E+00  3.14996E+00  3.06083E+00  3.00704E+00  2.90898E+00  2.85998E+00  2.75454E+00
   2.71104E+00  2.60857E+00  2.56951E+00  2.45991E+00  2.41977E+00  2.29812E+00  2.26325E+00  2.14176E+00  2.12291E+00  2.01432E+00
   2.01521E+00  1.92353E+00  1.94299E+00  1.86911E+00  1.90827E+00  1.84297E+00  1.89240E+00  1.83533E+00  1.88935E+00  1.83937E+00
   1.89201E+00  1.84914E+00  1.89663E+00  1.86271E+00  1.90450E+00  1.88177E+00  1.91769E+00  1.90590E+00  1.93729E+00  1.94008E+00
   1.96773E+00  1.98781E+00  2.01671E+00  2.05282E+00  2.07948E+00  2.12679E+00  2.14868E+00  2.20051E+00  2.21348E+00  2.26272E+00
   2.25947E+00  2.30883E+00  2.28863E+00  2.33666E+00  2.29665E+00  2.33964E+00  2.27760E+00  2.31023E+00  2.22518E+00  2.23881E+00
   2.13281E+00  2.12377E+00  1.99991E+00  1.96422E+00  1.83062E+00  1.77065E+00  1.63919E+00  1.56352E+00  1.44628E+00  1.36674E+00
   1.27149E+00  1.19713E+00  1.12752E+00  1.06438E+00  1.02100E+00  9.72506E-01  9.58544E-01  9.35370E-01  9.49369E-01  9.59801E-01
   9.66269E-01  9.68186E-01  9.68634E-01  9.66279E-01  9.63332E-01  9.58531E-01  9.53564E-01  9.47376E-01  9.41179E-01  9.34401E-01
   9.27556E-01  9.20799E-01  9.13371E-01  9.06884E-01  8.99155E-01  8.93431E-01  8.85886E-01  8.80952E-01  8.73577E-01  8.69309E-01
   8.62273E-01  8.58624E-01  8.52162E-01  8.48794E-01  8.42869E-01  8.38187E-01  8.32005E-01  8.26227E-01  8.17928E-01  8.14386E-01
   8.04758E-01  8.07046E-01  7.99057E-01  8.13763E-01  8.08426E-01  8.35334E-01  8.29598E-01  8.68647E-01  8.49729E-01  8.92248E-01
   8.54897E-01  8.86414E-01  8.34280E-01  8.77102E-01  8.23774E-01  8.95523E-01  8.55248E-01  9.70175E-01  9.36584E-01  1.04955E+00
   1.01125E+00  1.08521E+00  1.03461E+00  1.03475E+00  9.79827E-01  9.30371E-01  9.11251E-01  8.20457E-01  8.57946E-01  7.34244E-01
   8.32969E-01  6.61975E-01  8.14960E-01  5.83305E-01  7.86130E-01  4.93488E-01  7.39185E-01  4.01262E-01  6.86478E-01  3.32255E-01
   6.56357E-01  3.02059E-01  6.59093E-01  3.41080E-01  6.98355E-01  4.41864E-01  7.78612E-01  6.16584E-01  8.88680E-01  7.91808E-01
   9.89051E-01  9.38371E-01  1.05671E+00  1.13241E+00  1.17539E+00  1.36619E+00  1.32211E+00  1.58814E+00  1.40482E+00  1.60460E+00
   1.30008E+00  1.46767E+00  1.08575E+00  1.25050E+00  8.71861E-01  1.14227E+00  8.59214E-01  1.16700E+00  9.55625E-01  1.26484E+00
   1.11148E+00  1.38519E+00  1.28338E+00  1.50030E+00  1.45835E+00  1.61720E+00  1.62806E+00  1.72097E+00  1.78108E+00  1.82741E+00
   1.91774E+00  1.89659E+00  1.98355E+00  1.90814E+00  1.96809E+00  1.86181E+00  1.93423E+00  1.80200E+00  1.87300E+00  1.73273E+00
   1.81030E+00  1.66557E+00  1.75937E+00  1.64841E+00  1.77010E+00  1.70323E+00  1.82816E+00  1.79662E+00  1.91164E+00  1.91823E+00
   2.03198E+00  2.09968E+00  2.22000E+00  2.30657E+00  2.40154E+00  2.49645E+00  2.56378E+00  2.64031E+00  2.68930E+00  2.74033E+00
   2.75777E+00  2.77229E+00  2.75217E+00  2.72303E+00  2.66339E+00  2.58957E+00  2.48194E+00  2.35371E+00  2.19616E+00  2.01774E+00
   1.81775E+00  1.60172E+00  1.37437E+00  1.14293E+00  9.11310E-01  6.87233E-01  4.75318E-01  2.83608E-01  1.16862E-01 -3.53696E-02
  -2.38531E-01 -3.68254E-01 -6.06420E-01 -7.04704E-01 -9.73344E-01 -1.02747E+00 -1.29996E+00 -1.22620E+00 -1.50070E+00 -1.33754E+00
  -1.64986E+00 -1.43282E+00 -1.82723E+00 -1.58718E+00 -2.07396E+00 -1.80790E+00 -2.37088E+00 -2.06402E+00 -2.64484E+00 -2.27020E+00
  -2.79895E+00 -2.36236E+00 -2.79147E+00 -2.31333E+00 -2.57678E+00 -2.10036E+00 -2.16298E+00 -1.74315E+00 -1.61747E+00 -1.30725E+00
  -1.06203E+00 -9.39443E-01 -6.52907E-01 -7.47275E-01 -4.69866E-01 -7.43992E-01 -4.78244E-01 -8.63070E-01 -6.82782E-01 -1.16597E+00
  -1.28608E+00 -1.80495E+00 -1.95117E+00 -2.38629E+00 -2.48540E+00 -2.72829E+00 -2.70878E+00 -2.62954E+00 -2.54991E+00 -2.47565E+00
  -2.40636E+00 -2.34208E+00 -2.28171E+00 -2.22528E+00 -2.17182E+00 -2.12150E+00 -2.07346E+00 -2.02797E+00 -1.98425E+00 -1.94263E+00
  -1.90240E+00 -1.86395E+00 -1.82660E+00 -1.79077E+00 -1.75581E+00 -1.72216E+00 -1.68921E+00 -1.65740E+00 -1.62615E+00 -1.59591E+00
  -1.56610E+00 -1.53719E+00 -1.50862E+00 -1.48086E+00 -1.45335E+00 -1.42657E+00 -1.39997E+00 -1.37404E+00 -1.34823E+00 -1.32304E+00
  -1.29791E+00 -1.27335E+00 -1.24881E+00 -1.22479E+00 -1.20076E+00 -1.17721E+00 -1.15362E+00 -1.13048E+00 -1.10726E+00 -1.08446E+00
  -1.06157E+00 -1.03907E+00 -1.01645E+00 -9.94196E-01 -9.71803E-01 -9.49760E-01 -9.27558E-01 -9.05687E-01 -8.83641E-01 -8.61909E-01
  -8.39987E-01 -8.18365E-01 -7.96540E-01 -7.75000E-01 -7.53245E-01 -7.31764E-01 -7.10056E-01 -6.88610E-01 -6.66929E-01 -6.45499E-01
  -6.23824E-01 -6.02390E-01 -5.80704E-01 -5.59249E-01 -5.37536E-01 -5.16045E-01 -4.94288E-01 -4.72747E-01 -4.50932E-01 -4.29327E-01
  -4.07443E-01 -3.85760E-01 -3.63793E-01 -3.42022E-01 -3.19960E-01 -2.98090E-01 -2.75924E-01 -2.53944E-01 -2.31662E-01 -2.09562E-01
  -1.87156E-01 -1.64927E-01 -1.42387E-01 -1.20020E-01 -9.73366E-02 -7.48214E-02 -5.19878E-02 -2.93171E-02 -6.32413E-03  1.65111E-02
   3.96714E-02  6.26788E-02  8.60137E-02  1.09201E-01  1.32719E-01  1.56096E-01  1.79806E-01  2.03378E-01  2.27287E-01  2.51064E-01
   2.75182E-01  2.99173E-01  3.23508E-01  3.47722E-01  3.72284E-01  3.96731E-01  4.21529E-01  4.46220E-01  4.71267E-01  4.96212E-01
   5.21519E-01  5.46731E-01  5.72312E-01  5.97806E-01  6.23676E-01  6.49468E-01  6.75645E-01  7.01754E-01  7.28258E-01  7.54706E-01
   7.81561E-01  8.08373E-01  8.35608E-01  8.62818E-01  8.90468E-01  9.18113E-01  9.46222E-01  9.74352E-01  1.00297E+00  1.03165E+00
   1.06086E+00  1.09017E+00  1.12006E+00  1.15011E+00  1.18082E+00  1.21177E+00  1.24348E+00  1.27557E+00
 NY background values follow
     4.911E+00    4.883E+00    4.854E+00    4.826E+00    4.798E+00    4.769E+00    4.741E+00    4.713E+00    4.684E+00    4.656E+00
     4.628E+00    4.600E+00    4.572E+00    4.544E+00    4.515E+00    4.487E+00    4.459E+00    4.431E+00    4.403E+00    4.375E+00
     4.347E+00    4.319E+00    4.292E+00    4.264E+00    4.236E+00    4.208E+00    4.180E+00    4.153E+00    4.125E+00    4.097E+00
     4.070E+00    4.042E+00    4.015E+00    3.987E+00    3.960E+00    3.932E+00    3.905E+00    3.878E+00    3.850E+00    3.823E+00
     3.796E+00    3.769E+00    3.742E+00    3.715E+00    3.688E+00    3.661E+00    3.634E+00    3.607E+00    3.580E+00    3.553E+00
     3.526E+00    3.499E+00    3.473E+00    3.446E+00    3.420E+00    3.393E+00    3.367E+00    3.340E+00    3.314E+00    3.287E+00
     3.261E+00    3.235E+00    3.209E+00    3.183E+00    3.157E+00    3.130E+00    3.105E+00    3.079E+00    3.053E+00    3.027E+00
     3.001E+00    2.976E+00    2.950E+00    2.924E+00    2.899E+00    2.873E+00    2.848E+00    2.823E+00    2.797E+00    2.772E+00
     2.747E+00    2.722E+00    2.697E+00    2.672E+00    2.647E+00    2.622E+00    2.597E+00    2.573E+00    2.548E+00    2.523E+00
     2.499E+00    2.475E+00    2.450E+00    2.426E+00    2.402E+00    2.377E+00    2.353E+00    2.329E+00    2.305E+00    2.281E+00
     2.258E+00    2.234E+00    2.210E+00    2.186E+00    2.163E+00    2.139E+00    2.116E+00    2.093E+00    2.070E+00    2.046E+00
     2.023E+00    2.000E+00    1.977E+00    1.954E+00    1.932E+00    1.909E+00    1.886E+00    1.864E+00    1.841E+00    1.819E+00
     1.796E+00    1.774E+00    1.752E+00    1.730E+00    1.708E+00    1.686E+00    1.664E+00    1.642E+00    1.621E+00    1.599E+00
     1.578E+00    1.556E+00    1.535E+00    1.514E+00    1.493E+00    1.471E+00    1.450E+00    1.430E+00    1.409E+00    1.388E+00
     1.367E+00    1.347E+00    1.326E+00    1.306E+00    1.286E+00    1.265E+00    1.245E+00    1.225E+00    1.205E+00    1.186E+00
     1.166E+00    1.146E+00    1.127E+00    1.107E+00    1.088E+00    1.069E+00    1.049E+00    1.030E+00    1.011E+00    9.923E-01
     9.735E-01    9.548E-01    9.362E-01    9.177E-01    8.993E-01    8.810E-01    8.627E-01    8.446E-01    8.266E-01    8.087E-01
     7.908E-01    7.731E-01    7.555E-01    7.379E-01    7.205E-01    7.032E-01    6.860E-01    6.689E-01    6.518E-01    6.349E-01
     6.181E-01    6.014E-01    5.848E-01    5.683E-01    5.519E-01    5.356E-01    5.194E-01    5.033E-01    4.873E-01    4.715E-01
     4.557E-01    4.401E-01    4.245E-01    4.091E-01    3.937E-01    3.785E-01    3.634E-01    3.484E-01    3.335E-01    3.187E-01
     3.040E-01    2.894E-01    2.749E-01    2.606E-01    2.463E-01    2.322E-01    2.182E-01    2.043E-01    1.905E-01    1.768E-01
     1.632E-01    1.498E-01    1.364E-01    1.232E-01    1.101E-01    9.708E-02    8.419E-02    7.142E-02    5.876E-02    4.621E-02
     3.378E-02    2.147E-02    9.270E-03   -2.811E-03   -1.478E-02   -2.662E-02   -3.835E-02   -4.997E-02   -6.146E-02   -7.284E-02
    -8.410E-02   -9.524E-02   -1.063E-01   -1.172E-01   -1.280E-01   -1.386E-01   -1.492E-01   -1.596E-01   -1.699E-01   -1.801E-01
    -1.901E-01   -2.001E-01   -2.099E-01   -2.196E-01   -2.292E-01   -2.386E-01   -2.480E-01   -2.572E-01   -2.663E-01   -2.752E-01
    -2.841E-01   -2.928E-01   -3.014E-01   -3.099E-01   -3.182E-01   -3.264E-01   -3.345E-01   -3.425E-01   -3.504E-01   -3.581E-01
    -3.657E-01   -3.732E-01   -3.805E-01   -3.877E-01   -3.948E-01   -4.018E-01   -4.087E-01   -4.154E-01   -4.220E-01   -4.284E-01
    -4.348E-01   -4.410E-01   -4.471E-01   -4.530E-01   -4.588E-01   -4.645E-01   -4.701E-01   -4.756E-01   -4.809E-01   -4.860E-01
    -4.911E-01   -4.960E-01   -5.008E-01   -5.055E-01   -5.100E-01   -5.144E-01   -5.187E-01   -5.229E-01   -5.269E-01   -5.308E-01
    -5.345E-01   -5.382E-01   -5.416E-01   -5.450E-01   -5.482E-01   -5.513E-01   -5.543E-01   -5.571E-01   -5.599E-01   -5.624E-01
    -5.649E-01   -5.672E-01   -5.694E-01   -5.714E-01   -5.733E-01   -5.751E-01   -5.767E-01   -5.783E-01   -5.796E-01   -5.809E-01
    -5.820E-01   -5.830E-01   -5.838E-01   -5.846E-01   -5.851E-01   -5.856E-01   -5.859E-01   -5.861E-01   -5.861E-01   -5.860E-01
    -5.858E-01   -5.855E-01   -5.850E-01   -5.844E-01   -5.836E-01   -5.827E-01   -5.817E-01   -5.805E-01   -5.792E-01   -5.778E-01
    -5.762E-01   -5.745E-01   -5.727E-01   -5.707E-01   -5.686E-01   -5.663E-01   -5.640E-01   -5.614E-01   -5.588E-01   -5.560E-01
    -5.531E-01   -5.500E-01   -5.468E-01   -5.435E-01   -5.400E-01   -5.364E-01   -5.327E-01   -5.288E-01   -5.248E-01   -5.207E-01
    -5.164E-01   -5.120E-01   -5.074E-01   -5.027E-01   -4.979E-01   -4.930E-01   -4.879E-01   -4.826E-01   -4.773E-01   -4.717E-01
    -4.661E-01   -4.603E-01   -4.544E-01   -4.484E-01   -4.422E-01   -4.359E-01   -4.294E-01   -4.228E-01   -4.161E-01   -4.092E-01
    -4.022E-01   -3.951E-01   -3.878E-01   -3.804E-01   -3.728E-01   -3.651E-01   -3.573E-01   -3.494E-01   -3.413E-01   -3.330E-01
    -3.247E-01   -3.162E-01   -3.075E-01   -2.988E-01   -2.898E-01   -2.808E-01   -2.716E-01   -2.623E-01   -2.529E-01   -2.433E-01
    -2.335E-01   -2.237E-01   -2.137E-01   -2.036E-01   -1.933E-01   -1.829E-01   -1.724E-01   -1.617E-01   -1.509E-01   -1.399E-01
    -1.289E-01   -1.176E-01   -1.063E-01   -9.482E-02   -8.321E-02   -7.146E-02   -5.957E-02   -4.755E-02   -3.540E-02   -2.311E-02
    -1.069E-02    1.866E-03    1.456E-02    2.738E-02    4.034E-02    5.343E-02    6.665E-02    8.001E-02    9.351E-02    1.071E-01
     1.209E-01    1.348E-01    1.488E-01    1.630E-01    1.773E-01    1.917E-01    2.062E-01    2.209E-01    2.357E-01    2.507E-01
     2.658E-01    2.810E-01    2.963E-01    3.118E-01    3.274E-01    3.432E-01    3.590E-01    3.750E-01    3.912E-01    4.074E-01
     4.238E-01    4.404E-01    4.570E-01    4.738E-01    4.907E-01    5.078E-01    5.249E-01    5.422E-01    5.597E-01    5.772E-01
     5.949E-01    6.128E-01    6.307E-01    6.488E-01    6.670E-01    6.853E-01    7.038E-01    7.224E-01    7.411E-01    7.599E-01
     7.789E-01    7.980E-01    8.172E-01    8.366E-01    8.561E-01    8.757E-01    8.954E-01    9.152E-01    9.352E-01    9.553E-01
     9.756E-01    9.959E-01    1.016E+00    1.037E+00    1.058E+00    1.079E+00    1.100E+00    1.121E+00    1.142E+00    1.163E+00
     1.185E+00    1.206E+00    1.228E+00    1.250E+00    1.272E+00    1.294E+00    1.316E+00    1.338E+00    1.361E+00    1.383E+00
     1.406E+00    1.429E+00    1.452E+00    1.475E+00    1.498E+00    1.521E+00    1.545E+00    1.568E+00
 Ala      Conc. = 8.98E+02
