 LCModel (Version 6.3-1L) Copyright: S.W. Provencher.          Ref.: Magn. Reson. Med. 30:672-679 (1993).                
 Slice#3 Row#11 Col#6  PD_24_press_2_raw_act
 36 lines in following concentration table = NCONC+1
    Conc.  %SD /Cr+PCr  Metabolite                                         
    0.000 999%   0.000 Ala                                                 
    6.524 854% 3.4E-02 Asp                                                 
  194.255  19%   1.000 Cr                                                  
    0.000 999%   0.000 PCr                                                 
   24.328 139%   0.125 GABA                                                
   23.573 144%   0.121 Glc                                                 
   34.132 483%   0.176 Gln                                                 
   39.661 463%   0.204 Glu                                                 
   71.837  20%   0.370 GPC                                                 
    0.000 999%   0.000 PCh                                                 
  115.147  46%   0.593 GSH                                                 
  786.695  26%   4.050 Ins                                                 
    0.000 999%   0.000 Lac                                                 
  442.865  10%   2.280 NAA                                                 
    0.000 999%   0.000 NAAG                                                
   11.789  88% 6.1E-02 Scyllo                                              
   57.906  96%   0.298 Tau                                                 
   54.110 102%   0.279 -CrCH2                                              
   71.837  20%   0.370 GPC+PCh                                             
  442.865  10%   2.280 NAA+NAAG                                            
  194.255  19%   1.000 Cr+PCr                                              
   73.794 359%   0.380 Glu+Gln                                             
  423.283  86%   2.179 Lip13a                                              
  190.072  56%   0.978 Lip13b                                              
    0.000 999%   0.000 Lip09                                               
  278.358  41%   1.433 MM09                                                
  106.871 112%   0.550 Lip20                                               
  349.890  58%   1.801 MM20                                                
   92.437  64%   0.476 MM12                                                
 1.00E+03  12%   5.162+MM14                                                
   31.429 413%   0.162 MM17                                                
  613.355  48%   3.157 Lip13a+Lip13b                                       
 1.71E+03  20%   8.796 MM14+Lip13a+Lip13b+MM12                             
  278.358  41%   1.433 MM09+Lip09                                          
  456.760  48%   2.351 MM20+Lip20                                          
   6 lines in following misc. output table
  FWHM = 0.054 ppm    S/N =   3                                            
  Data shift = 0.015 ppm                                                   
  Ph: -40 deg      -8.1 deg/ppm                                            
  alphaB,S = 5.4E-01,   5.1E+01                                            
   14 spline knots.   Ns = 7(1)                                            
  (10) 4 infls.   (13) 1 extrs.                                            
  498 points on ppm-axis = NY
      4.000000     3.992357     3.984714     3.977070     3.969427     3.961784     3.954141     3.946497     3.938854     3.931211
      3.923568     3.915925     3.908281     3.900638     3.892995     3.885352     3.877708     3.870065     3.862422     3.854779
      3.847136     3.839492     3.831849     3.824206     3.816563     3.808919     3.801276     3.793633     3.785990     3.778347
      3.770703     3.763060     3.755417     3.747774     3.740130     3.732487     3.724844     3.717201     3.709558     3.701914
      3.694271     3.686628     3.678985     3.671341     3.663698     3.656055     3.648412     3.640769     3.633125     3.625482
      3.617839     3.610196     3.602552     3.594909     3.587266     3.579623     3.571980     3.564336     3.556693     3.549050
      3.541407     3.533763     3.526120     3.518477     3.510834     3.503191     3.495547     3.487904     3.480261     3.472618
      3.464974     3.457331     3.449688     3.442045     3.434402     3.426758     3.419115     3.411472     3.403829     3.396185
      3.388542     3.380899     3.373256     3.365613     3.357969     3.350326     3.342683     3.335040     3.327396     3.319753
      3.312110     3.304467     3.296824     3.289180     3.281537     3.273894     3.266251     3.258607     3.250964     3.243321
      3.235678     3.228034     3.220391     3.212748     3.205105     3.197462     3.189818     3.182175     3.174532     3.166889
      3.159245     3.151602     3.143959     3.136316     3.128673     3.121029     3.113386     3.105743     3.098100     3.090456
      3.082813     3.075170     3.067527     3.059884     3.052240     3.044597     3.036954     3.029311     3.021667     3.014024
      3.006381     2.998738     2.991095     2.983451     2.975808     2.968165     2.960522     2.952878     2.945235     2.937592
      2.929949     2.922306     2.914662     2.907019     2.899376     2.891733     2.884089     2.876446     2.868803     2.861160
      2.853517     2.845873     2.838230     2.830587     2.822944     2.815300     2.807657     2.800014     2.792371     2.784728
      2.777084     2.769441     2.761798     2.754155     2.746511     2.738868     2.731225     2.723582     2.715939     2.708295
      2.700652     2.693009     2.685366     2.677722     2.670079     2.662436     2.654793     2.647150     2.639506     2.631863
      2.624220     2.616577     2.608933     2.601290     2.593647     2.586004     2.578361     2.570717     2.563074     2.555431
      2.547788     2.540144     2.532501     2.524858     2.517215     2.509572     2.501928     2.494285     2.486642     2.478999
      2.471355     2.463712     2.456069     2.448426     2.440783     2.433139     2.425496     2.417853     2.410210     2.402566
      2.394923     2.387280     2.379637     2.371994     2.364350     2.356707     2.349064     2.341421     2.333777     2.326134
      2.318491     2.310848     2.303205     2.295561     2.287918     2.280275     2.272632     2.264988     2.257345     2.249702
      2.242059     2.234416     2.226772     2.219129     2.211486     2.203843     2.196199     2.188556     2.180913     2.173270
      2.165627     2.157983     2.150340     2.142697     2.135054     2.127410     2.119767     2.112124     2.104481     2.096838
      2.089194     2.081551     2.073908     2.066265     2.058621     2.050978     2.043335     2.035692     2.028049     2.020405
      2.012762     2.005119     1.997476     1.989833     1.982190     1.974546     1.966903     1.959260     1.951617     1.943974
      1.936331     1.928688     1.921045     1.913402     1.905759     1.898115     1.890472     1.882829     1.875186     1.867543
      1.859900     1.852257     1.844614     1.836971     1.829327     1.821684     1.814041     1.806398     1.798755     1.791112
      1.783469     1.775826     1.768183     1.760540     1.752896     1.745253     1.737610     1.729967     1.722324     1.714681
      1.707038     1.699395     1.691752     1.684108     1.676465     1.668822     1.661179     1.653536     1.645893     1.638250
      1.630607     1.622964     1.615321     1.607677     1.600034     1.592391     1.584748     1.577105     1.569462     1.561819
      1.554176     1.546533     1.538890     1.531246     1.523603     1.515960     1.508317     1.500674     1.493031     1.485388
      1.477745     1.470102     1.462458     1.454815     1.447172     1.439529     1.431886     1.424243     1.416600     1.408957
      1.401314     1.393671     1.386027     1.378384     1.370741     1.363098     1.355455     1.347812     1.340169     1.332526
      1.324883     1.317240     1.309596     1.301953     1.294310     1.286667     1.279024     1.271381     1.263738     1.256095
      1.248452     1.240808     1.233165     1.225522     1.217879     1.210236     1.202593     1.194950     1.187307     1.179664
      1.172021     1.164377     1.156734     1.149091     1.141448     1.133805     1.126162     1.118519     1.110876     1.103233
      1.095590     1.087946     1.080303     1.072660     1.065017     1.057374     1.049731     1.042088     1.034445     1.026802
      1.019158     1.011515     1.003872     0.996229     0.988586     0.980943     0.973300     0.965657     0.958014     0.950371
      0.942727     0.935084     0.927441     0.919798     0.912155     0.904512     0.896869     0.889226     0.881583     0.873940
      0.866296     0.858653     0.851010     0.843367     0.835724     0.828081     0.820438     0.812795     0.805152     0.797508
      0.789865     0.782222     0.774579     0.766936     0.759293     0.751650     0.744007     0.736364     0.728721     0.721077
      0.713434     0.705791     0.698148     0.690505     0.682862     0.675219     0.667576     0.659933     0.652290     0.644646
      0.637003     0.629360     0.621717     0.614074     0.606431     0.598788     0.591145     0.583502     0.575858     0.568215
      0.560572     0.552929     0.545286     0.537643     0.530000     0.522357     0.514714     0.507071     0.499427     0.491784
      0.484141     0.476498     0.468855     0.461212     0.453569     0.445925     0.438282     0.430639     0.422996     0.415353
      0.407710     0.400067     0.392424     0.384780     0.377137     0.369494     0.361851     0.354208     0.346565     0.338922
      0.331278     0.323635     0.315992     0.308349     0.300706     0.293063     0.285420     0.277777     0.270133     0.262490
      0.254847     0.247204     0.239561     0.231918     0.224275     0.216631     0.208988     0.201345
 NY phased data points follow
  -1.07375E+02 -1.05200E+02 -1.07051E+02 -1.03643E+02 -1.04916E+02 -1.00576E+02 -9.68879E+01 -9.49674E+01 -9.14558E+01 -9.02555E+01
  -8.95527E+01 -8.85525E+01 -9.12856E+01 -8.46171E+01 -8.90226E+01 -8.60451E+01 -8.63056E+01 -8.49973E+01 -8.28497E+01 -8.40945E+01
  -8.75830E+01 -7.90393E+01 -8.37552E+01 -8.30978E+01 -8.36463E+01 -7.62527E+01 -7.95629E+01 -7.38504E+01 -7.58763E+01 -7.24136E+01
  -7.47223E+01 -7.36350E+01 -7.54710E+01 -6.86986E+01 -7.18832E+01 -6.89604E+01 -6.99008E+01 -6.82862E+01 -6.42141E+01 -6.32565E+01
  -6.64126E+01 -6.29773E+01 -6.54349E+01 -6.32325E+01 -6.56307E+01 -6.17838E+01 -5.97663E+01 -5.81065E+01 -5.97612E+01 -5.58123E+01
  -5.83588E+01 -5.59328E+01 -6.03741E+01 -5.43933E+01 -5.69906E+01 -5.47103E+01 -5.17850E+01 -5.58242E+01 -5.64824E+01 -5.24686E+01
  -5.31840E+01 -5.40329E+01 -5.20544E+01 -5.06235E+01 -5.52622E+01 -4.86965E+01 -5.37826E+01 -5.04482E+01 -5.03741E+01 -4.47031E+01
  -4.85764E+01 -4.65298E+01 -4.61627E+01 -4.47989E+01 -4.74821E+01 -4.84756E+01 -4.73495E+01 -4.43737E+01 -4.78139E+01 -4.27536E+01
  -4.58713E+01 -4.33565E+01 -4.50972E+01 -4.18313E+01 -4.48673E+01 -4.28220E+01 -4.47988E+01 -4.34921E+01 -4.11864E+01 -4.21524E+01
  -4.26944E+01 -3.84164E+01 -4.05509E+01 -4.28015E+01 -4.03314E+01 -4.00838E+01 -3.68391E+01 -3.61579E+01 -3.84293E+01 -3.88620E+01
  -3.62093E+01 -3.24428E+01 -3.30641E+01 -3.27526E+01 -3.30701E+01 -3.20531E+01 -3.39759E+01 -3.21807E+01 -3.04331E+01 -3.34223E+01
  -3.20151E+01 -3.39188E+01 -3.41131E+01 -3.68336E+01 -3.40236E+01 -3.21513E+01 -3.56339E+01 -3.77841E+01 -3.35629E+01 -3.17276E+01
  -3.59608E+01 -3.18786E+01 -3.48195E+01 -3.07011E+01 -3.22107E+01 -2.65042E+01 -2.61746E+01 -2.47696E+01 -2.37961E+01 -2.41327E+01
  -2.74001E+01 -2.80024E+01 -2.98345E+01 -2.90633E+01 -3.12731E+01 -3.20636E+01 -3.13357E+01 -2.86758E+01 -2.86940E+01 -3.01684E+01
  -3.04151E+01 -2.53091E+01 -3.00023E+01 -3.05540E+01 -2.82005E+01 -3.12731E+01 -2.88672E+01 -2.68640E+01 -2.98078E+01 -2.58938E+01
  -3.04804E+01 -2.78855E+01 -2.83544E+01 -2.70531E+01 -2.66857E+01 -2.66215E+01 -2.44926E+01 -2.50154E+01 -2.44105E+01 -2.61684E+01
  -2.77331E+01 -2.47653E+01 -2.76532E+01 -2.95575E+01 -2.38076E+01 -2.50930E+01 -2.44693E+01 -2.69490E+01 -2.69164E+01 -2.35302E+01
  -2.62442E+01 -2.45847E+01 -2.82658E+01 -2.97298E+01 -2.76198E+01 -2.87570E+01 -3.06641E+01 -2.76118E+01 -2.79676E+01 -2.61748E+01
  -2.84736E+01 -2.63710E+01 -2.83135E+01 -2.58213E+01 -2.45116E+01 -2.67924E+01 -2.47917E+01 -2.32163E+01 -2.52613E+01 -2.68711E+01
  -2.33776E+01 -2.13011E+01 -2.18414E+01 -2.18561E+01 -2.43591E+01 -2.41835E+01 -2.26248E+01 -1.87256E+01 -2.24848E+01 -2.08622E+01
  -2.34741E+01 -2.03300E+01 -2.30206E+01 -1.74073E+01 -2.21750E+01 -1.98335E+01 -2.21988E+01 -2.14953E+01 -2.09202E+01 -2.00061E+01
  -2.10246E+01 -2.06980E+01 -2.11688E+01 -1.83197E+01 -1.94508E+01 -1.74207E+01 -2.14653E+01 -1.98362E+01 -1.99460E+01 -1.84040E+01
  -2.19040E+01 -1.67270E+01 -1.82753E+01 -1.61709E+01 -1.79167E+01 -1.82321E+01 -1.89604E+01 -1.75652E+01 -1.66611E+01 -1.63987E+01
  -1.94307E+01 -1.45769E+01 -1.79467E+01 -1.36983E+01 -1.62517E+01 -1.78564E+01 -1.58886E+01 -1.49356E+01 -1.72241E+01 -1.81652E+01
  -1.95060E+01 -1.64213E+01 -1.63355E+01 -1.33908E+01 -1.75453E+01 -1.55380E+01 -1.40590E+01 -1.50017E+01 -1.80887E+01 -1.45600E+01
  -1.73131E+01 -1.46304E+01 -1.28561E+01 -1.18188E+01 -1.13817E+01 -1.12263E+01 -1.00550E+01 -8.91525E+00 -6.49648E+00 -3.19628E+00
   2.19623E+00 -2.38122E-01  6.28847E-01 -4.49505E+00 -1.28867E+01 -8.96861E+00 -1.39885E+01 -1.06415E+01 -1.24408E+01 -1.13369E+01
  -1.34753E+01 -1.41397E+01 -1.36115E+01 -1.47829E+01 -1.67297E+01 -1.60499E+01 -1.35879E+01 -1.19443E+01 -1.37724E+01 -1.30077E+01
  -1.74683E+01 -1.17727E+01 -1.84803E+01 -1.30122E+01 -1.42629E+01 -1.21960E+01 -1.39043E+01 -1.26875E+01 -1.69102E+01 -1.28973E+01
  -1.60380E+01 -1.51632E+01 -1.68899E+01 -1.13181E+01 -9.74720E+00 -1.26816E+01 -1.10413E+01 -1.10175E+01 -7.16137E+00 -9.13495E+00
  -9.97680E+00 -1.17503E+01 -1.25585E+01 -1.24507E+01 -1.21420E+01 -1.30419E+01 -1.53090E+01 -1.25802E+01 -1.08114E+01 -1.34109E+01
  -1.49923E+01 -1.54439E+01 -1.02979E+01 -5.35039E+00 -7.68304E+00 -8.21565E+00 -4.29636E+00 -5.80094E+00 -6.69233E+00 -7.89941E+00
  -5.10010E+00 -7.47121E+00 -6.61960E+00 -5.64486E+00 -8.12415E-01  7.32782E-01 -4.06570E+00 -2.27621E-02 -3.46403E+00 -4.60048E+00
   9.53072E-01 -9.34437E-02  5.02083E-01  4.83367E-02 -2.47121E+00 -4.89874E+00 -3.39119E+00 -4.47330E+00 -3.90336E+00 -4.96650E+00
  -6.68258E+00 -4.97521E+00 -5.14569E+00 -4.64681E+00 -5.62183E+00 -7.36435E+00 -6.36370E+00 -7.23007E+00 -6.94872E+00 -6.04222E+00
  -2.39262E+00 -4.25723E+00 -3.56241E+00 -2.61120E+00 -3.65442E+00 -5.49825E+00 -4.94132E+00 -7.10912E+00 -7.64014E+00 -7.68669E+00
  -1.27077E+01 -9.82737E+00 -1.51690E+01 -1.28480E+01 -9.30386E+00 -5.69680E+00 -8.76906E+00 -6.98107E+00 -4.04956E+00 -2.67922E+00
  -5.27473E+00 -3.92953E+00 -2.89153E+00 -4.61184E+00 -7.59467E+00 -6.30587E+00 -7.90868E+00 -9.49228E+00 -8.15434E+00 -1.14611E+01
  -1.16974E+01 -1.08084E+01 -1.34176E+01 -1.15254E+01 -1.22587E+01 -9.49823E+00 -6.74076E+00 -8.15494E+00 -1.15312E+01 -1.14610E+01
  -5.77742E+00 -9.76819E+00 -1.07292E+01 -1.00722E+01 -9.69877E+00 -1.00713E+01 -1.14892E+01 -8.30720E+00 -9.85695E+00 -9.30647E+00
  -1.07783E+01 -7.00404E+00 -9.06800E+00 -6.07879E+00 -9.42850E+00 -2.39644E+00 -6.71270E+00 -6.26826E+00 -6.90959E+00 -5.61954E+00
  -2.30384E+00 -3.81853E+00 -6.35092E+00 -1.00140E+01 -7.27777E+00 -8.28939E+00 -9.38140E+00 -6.84167E+00 -8.16566E+00 -1.06407E+01
  -9.97462E+00 -1.01481E+01 -8.29416E+00 -7.80134E+00 -1.00360E+01 -7.00087E+00 -8.85461E+00 -8.17089E+00 -2.80291E+00 -6.94067E+00
  -7.23985E+00 -6.96813E+00 -9.24867E+00 -7.05483E+00 -4.43070E+00 -7.46873E+00 -8.86049E+00 -5.17298E+00 -6.92864E+00 -6.92529E+00
  -1.18984E+01 -1.00886E+01 -8.61119E+00 -6.40999E+00 -9.38126E+00 -6.00414E+00 -6.59237E+00 -7.11565E+00 -6.89667E+00 -6.04340E+00
  -8.71839E+00 -5.95074E+00 -4.83952E+00 -5.53528E+00 -5.66531E+00 -6.86719E+00 -8.41812E+00 -6.10937E+00 -6.49149E+00 -5.97482E+00
  -7.76110E+00 -4.60261E+00 -3.85567E+00 -4.52742E+00 -5.61041E+00 -7.59645E+00 -5.18089E+00 -5.13173E+00 -7.87597E+00 -7.05042E+00
  -7.75568E+00 -8.42665E+00 -9.41434E+00 -7.07396E+00 -6.29064E+00 -5.61714E+00 -9.77510E+00 -6.77526E+00 -5.34395E+00 -9.28370E+00
  -9.07192E+00 -8.34859E+00 -6.68994E+00 -9.78047E+00 -9.68938E+00 -6.87064E+00 -6.15407E+00 -7.82647E+00 -7.02246E+00 -3.45904E+00
  -7.88226E+00  4.09356E-01 -5.02712E+00 -4.13735E+00 -6.65237E+00 -5.27471E+00 -2.88050E+00 -7.24271E+00
 NY points of the fit to the data follow
  -1.00809E+02 -1.00361E+02 -9.97682E+01 -9.91091E+01 -9.82838E+01 -9.72468E+01 -9.61662E+01 -9.50405E+01 -9.37372E+01 -9.21909E+01
  -9.05193E+01 -8.89820E+01 -8.78377E+01 -8.72008E+01 -8.69383E+01 -8.67226E+01 -8.63124E+01 -8.57548E+01 -8.52415E+01 -8.48056E+01
  -8.42560E+01 -8.35150E+01 -8.26871E+01 -8.17425E+01 -8.07328E+01 -7.96708E+01 -7.84843E+01 -7.71349E+01 -7.56964E+01 -7.43285E+01
  -7.31809E+01 -7.23371E+01 -7.18128E+01 -7.14652E+01 -7.10671E+01 -7.05362E+01 -6.99664E+01 -6.95028E+01 -6.91470E+01 -6.87036E+01
  -6.80478E+01 -6.71137E+01 -6.59451E+01 -6.45955E+01 -6.30528E+01 -6.13624E+01 -5.97050E+01 -5.83948E+01 -5.77505E+01 -5.78353E+01
  -5.83995E+01 -5.89803E+01 -5.91707E+01 -5.89316E+01 -5.84937E+01 -5.79765E+01 -5.72596E+01 -5.62633E+01 -5.51438E+01 -5.41077E+01
  -5.32757E+01 -5.27272E+01 -5.24497E+01 -5.23261E+01 -5.21670E+01 -5.18120E+01 -5.12766E+01 -5.06550E+01 -4.99658E+01 -4.92247E+01
  -4.84763E+01 -4.77604E+01 -4.71312E+01 -4.66128E+01 -4.62160E+01 -4.59131E+01 -4.56440E+01 -4.53848E+01 -4.51185E+01 -4.48482E+01
  -4.45776E+01 -4.42894E+01 -4.40104E+01 -4.37667E+01 -4.35847E+01 -4.34855E+01 -4.34643E+01 -4.34493E+01 -4.33376E+01 -4.30301E+01
  -4.25108E+01 -4.18602E+01 -4.11944E+01 -4.05997E+01 -4.00784E+01 -3.95559E+01 -3.88946E+01 -3.81534E+01 -3.74368E+01 -3.65968E+01
  -3.54501E+01 -3.40231E+01 -3.26233E+01 -3.16620E+01 -3.14173E+01 -3.18720E+01 -3.27278E+01 -3.35270E+01 -3.40160E+01 -3.43013E+01
  -3.45983E+01 -3.49256E+01 -3.49975E+01 -3.48224E+01 -3.46001E+01 -3.43710E+01 -3.41477E+01 -3.39216E+01 -3.36804E+01 -3.33748E+01
  -3.28387E+01 -3.20853E+01 -3.12576E+01 -3.02941E+01 -2.90779E+01 -2.76554E+01 -2.62975E+01 -2.53860E+01 -2.51999E+01 -2.57400E+01
  -2.66979E+01 -2.76222E+01 -2.82794E+01 -2.87849E+01 -2.93534E+01 -2.99838E+01 -3.03414E+01 -3.03274E+01 -3.01173E+01 -2.97986E+01
  -2.94585E+01 -2.91644E+01 -2.89294E+01 -2.87471E+01 -2.86195E+01 -2.85199E+01 -2.84293E+01 -2.83524E+01 -2.82842E+01 -2.82184E+01
  -2.81442E+01 -2.80526E+01 -2.79513E+01 -2.78420E+01 -2.77361E+01 -2.76325E+01 -2.75265E+01 -2.74242E+01 -2.73315E+01 -2.72635E+01
  -2.72093E+01 -2.71290E+01 -2.69957E+01 -2.68195E+01 -2.66447E+01 -2.65196E+01 -2.64620E+01 -2.64489E+01 -2.64354E+01 -2.63978E+01
  -2.63546E+01 -2.63087E+01 -2.62705E+01 -2.62437E+01 -2.62093E+01 -2.61487E+01 -2.60392E+01 -2.58799E+01 -2.57065E+01 -2.55573E+01
  -2.54559E+01 -2.53750E+01 -2.52590E+01 -2.50879E+01 -2.48800E+01 -2.46650E+01 -2.44284E+01 -2.41078E+01 -2.36923E+01 -2.32386E+01
  -2.28520E+01 -2.26117E+01 -2.25000E+01 -2.24663E+01 -2.24693E+01 -2.24784E+01 -2.24754E+01 -2.24206E+01 -2.22917E+01 -2.20941E+01
  -2.18355E+01 -2.15400E+01 -2.12554E+01 -2.10234E+01 -2.08547E+01 -2.07518E+01 -2.07313E+01 -2.07812E+01 -2.08303E+01 -2.08410E+01
  -2.08211E+01 -2.07781E+01 -2.06894E+01 -2.05255E+01 -2.03054E+01 -2.00630E+01 -1.98303E+01 -1.96295E+01 -1.94692E+01 -1.93402E+01
  -1.92024E+01 -1.90344E+01 -1.88564E+01 -1.86784E+01 -1.85090E+01 -1.83566E+01 -1.82300E+01 -1.81377E+01 -1.80739E+01 -1.80163E+01
  -1.79260E+01 -1.77782E+01 -1.75744E+01 -1.73150E+01 -1.70200E+01 -1.67459E+01 -1.65502E+01 -1.64504E+01 -1.64204E+01 -1.64288E+01
  -1.64552E+01 -1.64480E+01 -1.63498E+01 -1.61588E+01 -1.59101E+01 -1.56395E+01 -1.53588E+01 -1.50933E+01 -1.48810E+01 -1.47122E+01
  -1.45466E+01 -1.43494E+01 -1.40541E+01 -1.33527E+01 -1.21240E+01 -1.07445E+01 -9.16905E+00 -7.10726E+00 -4.56125E+00 -2.07427E+00
  -4.88398E-01 -4.52729E-01 -2.05905E+00 -4.74102E+00 -7.45472E+00 -9.46160E+00 -1.08469E+01 -1.21041E+01 -1.34455E+01 -1.43589E+01
  -1.45562E+01 -1.45484E+01 -1.44963E+01 -1.44238E+01 -1.43438E+01 -1.42650E+01 -1.41908E+01 -1.41227E+01 -1.40607E+01 -1.40033E+01
  -1.39457E+01 -1.38846E+01 -1.38169E+01 -1.37409E+01 -1.36572E+01 -1.35660E+01 -1.34685E+01 -1.33683E+01 -1.32677E+01 -1.31671E+01
  -1.30665E+01 -1.29658E+01 -1.28651E+01 -1.27648E+01 -1.26637E+01 -1.25607E+01 -1.24557E+01 -1.23488E+01 -1.22396E+01 -1.21277E+01
  -1.20131E+01 -1.18951E+01 -1.17723E+01 -1.16438E+01 -1.15077E+01 -1.13622E+01 -1.12049E+01 -1.10330E+01 -1.08436E+01 -1.06333E+01
  -1.03991E+01 -1.01378E+01 -9.84663E+00 -9.52328E+00 -9.16605E+00 -8.77428E+00 -8.34861E+00 -7.89113E+00 -7.40544E+00 -6.89677E+00
  -6.37200E+00 -5.83968E+00 -5.30982E+00 -4.79350E+00 -4.30244E+00 -3.84852E+00 -3.44325E+00 -3.09729E+00 -2.81982E+00 -2.61800E+00
  -2.49652E+00 -2.45738E+00 -2.49969E+00 -2.61979E+00 -2.81126E+00 -3.06519E+00 -3.37042E+00 -3.71407E+00 -4.08182E+00 -4.45836E+00
  -4.82756E+00 -5.17288E+00 -5.47783E+00 -5.72684E+00 -5.90650E+00 -6.00718E+00 -6.02494E+00 -5.96350E+00 -5.83554E+00 -5.66293E+00
  -5.47523E+00 -5.30625E+00 -5.18927E+00 -5.15180E+00 -5.21087E+00 -5.37038E+00 -5.62068E+00 -5.94096E+00 -6.30351E+00 -6.67898E+00
  -7.04116E+00 -7.37044E+00 -7.65527E+00 -7.89189E+00 -8.08266E+00 -8.23394E+00 -8.35385E+00 -8.45054E+00 -8.53094E+00 -8.60030E+00
  -8.66212E+00 -8.71846E+00 -8.77033E+00 -8.81801E+00 -8.86130E+00 -8.89979E+00 -8.93294E+00 -8.96028E+00 -8.98137E+00 -8.99582E+00
  -9.00323E+00 -9.00324E+00 -8.99549E+00 -8.97967E+00 -8.95550E+00 -8.92268E+00 -8.88089E+00 -8.82986E+00 -8.76936E+00 -8.69934E+00
  -8.61981E+00 -8.53101E+00 -8.43330E+00 -8.32736E+00 -8.21419E+00 -8.09515E+00 -7.97190E+00 -7.84642E+00 -7.72095E+00 -7.59804E+00
  -7.48036E+00 -7.37069E+00 -7.27167E+00 -7.18577E+00 -7.11509E+00 -7.06136E+00 -7.02573E+00 -7.00878E+00 -7.01041E+00 -7.02991E+00
  -7.06595E+00 -7.11673E+00 -7.17995E+00 -7.25304E+00 -7.33315E+00 -7.41743E+00 -7.50310E+00 -7.58764E+00 -7.66876E+00 -7.74454E+00
  -7.81341E+00 -7.87422E+00 -7.92623E+00 -7.96907E+00 -8.00269E+00 -8.02727E+00 -8.04317E+00 -8.05096E+00 -8.05132E+00 -8.04499E+00
  -8.03270E+00 -8.01516E+00 -7.99303E+00 -7.96699E+00 -7.93764E+00 -7.90554E+00 -7.87114E+00 -7.83485E+00 -7.79702E+00 -7.75799E+00
  -7.71805E+00 -7.67745E+00 -7.63638E+00 -7.59501E+00 -7.55349E+00 -7.51201E+00 -7.47069E+00 -7.42965E+00 -7.38897E+00 -7.34874E+00
  -7.30906E+00 -7.27005E+00 -7.23177E+00 -7.19427E+00 -7.15750E+00 -7.12148E+00 -7.08617E+00 -7.05158E+00 -7.01767E+00 -6.98441E+00
  -6.95173E+00 -6.91964E+00 -6.88811E+00 -6.85712E+00 -6.82662E+00 -6.79657E+00 -6.76692E+00 -6.73766E+00 -6.70877E+00 -6.68022E+00
  -6.65194E+00 -6.62389E+00 -6.59604E+00 -6.56837E+00 -6.54085E+00 -6.51345E+00 -6.48609E+00 -6.45874E+00 -6.43137E+00 -6.40397E+00
  -6.37650E+00 -6.34890E+00 -6.32111E+00 -6.29311E+00 -6.26486E+00 -6.23636E+00 -6.20755E+00 -6.17837E+00 -6.14876E+00 -6.11870E+00
  -6.08818E+00 -6.05716E+00 -6.02556E+00 -5.99335E+00 -5.96047E+00 -5.92690E+00 -5.89261E+00 -5.85756E+00
 NY background values follow
    -1.028E+02   -1.019E+02   -1.010E+02   -1.001E+02   -9.926E+01   -9.838E+01   -9.750E+01   -9.662E+01   -9.574E+01   -9.486E+01
    -9.398E+01   -9.310E+01   -9.223E+01   -9.136E+01   -9.049E+01   -8.962E+01   -8.876E+01   -8.790E+01   -8.704E+01   -8.619E+01
    -8.534E+01   -8.449E+01   -8.365E+01   -8.281E+01   -8.197E+01   -8.114E+01   -8.032E+01   -7.949E+01   -7.868E+01   -7.787E+01
    -7.706E+01   -7.626E+01   -7.547E+01   -7.468E+01   -7.389E+01   -7.312E+01   -7.235E+01   -7.159E+01   -7.083E+01   -7.008E+01
    -6.934E+01   -6.861E+01   -6.788E+01   -6.716E+01   -6.645E+01   -6.575E+01   -6.506E+01   -6.437E+01   -6.369E+01   -6.303E+01
    -6.236E+01   -6.171E+01   -6.107E+01   -6.043E+01   -5.981E+01   -5.919E+01   -5.857E+01   -5.797E+01   -5.738E+01   -5.679E+01
    -5.621E+01   -5.563E+01   -5.507E+01   -5.451E+01   -5.396E+01   -5.342E+01   -5.289E+01   -5.236E+01   -5.184E+01   -5.133E+01
    -5.082E+01   -5.033E+01   -4.984E+01   -4.935E+01   -4.888E+01   -4.841E+01   -4.794E+01   -4.749E+01   -4.704E+01   -4.660E+01
    -4.616E+01   -4.574E+01   -4.532E+01   -4.490E+01   -4.449E+01   -4.409E+01   -4.370E+01   -4.331E+01   -4.293E+01   -4.255E+01
    -4.218E+01   -4.182E+01   -4.146E+01   -4.111E+01   -4.076E+01   -4.043E+01   -4.009E+01   -3.977E+01   -3.944E+01   -3.913E+01
    -3.882E+01   -3.851E+01   -3.821E+01   -3.792E+01   -3.763E+01   -3.734E+01   -3.707E+01   -3.679E+01   -3.652E+01   -3.626E+01
    -3.600E+01   -3.574E+01   -3.549E+01   -3.525E+01   -3.500E+01   -3.477E+01   -3.453E+01   -3.430E+01   -3.408E+01   -3.386E+01
    -3.364E+01   -3.343E+01   -3.322E+01   -3.301E+01   -3.281E+01   -3.261E+01   -3.241E+01   -3.222E+01   -3.203E+01   -3.185E+01
    -3.166E+01   -3.148E+01   -3.131E+01   -3.113E+01   -3.096E+01   -3.079E+01   -3.063E+01   -3.046E+01   -3.030E+01   -3.014E+01
    -2.999E+01   -2.983E+01   -2.968E+01   -2.953E+01   -2.938E+01   -2.924E+01   -2.909E+01   -2.895E+01   -2.881E+01   -2.867E+01
    -2.853E+01   -2.840E+01   -2.826E+01   -2.813E+01   -2.800E+01   -2.787E+01   -2.774E+01   -2.761E+01   -2.749E+01   -2.736E+01
    -2.724E+01   -2.711E+01   -2.699E+01   -2.687E+01   -2.675E+01   -2.663E+01   -2.651E+01   -2.639E+01   -2.627E+01   -2.615E+01
    -2.603E+01   -2.591E+01   -2.579E+01   -2.567E+01   -2.555E+01   -2.544E+01   -2.532E+01   -2.520E+01   -2.508E+01   -2.496E+01
    -2.484E+01   -2.472E+01   -2.460E+01   -2.448E+01   -2.436E+01   -2.423E+01   -2.411E+01   -2.399E+01   -2.387E+01   -2.374E+01
    -2.362E+01   -2.349E+01   -2.337E+01   -2.325E+01   -2.312E+01   -2.300E+01   -2.287E+01   -2.275E+01   -2.263E+01   -2.250E+01
    -2.238E+01   -2.226E+01   -2.213E+01   -2.201E+01   -2.189E+01   -2.176E+01   -2.164E+01   -2.152E+01   -2.140E+01   -2.128E+01
    -2.116E+01   -2.104E+01   -2.092E+01   -2.080E+01   -2.068E+01   -2.057E+01   -2.045E+01   -2.033E+01   -2.022E+01   -2.010E+01
    -1.999E+01   -1.988E+01   -1.977E+01   -1.966E+01   -1.955E+01   -1.944E+01   -1.933E+01   -1.923E+01   -1.912E+01   -1.902E+01
    -1.892E+01   -1.881E+01   -1.871E+01   -1.861E+01   -1.851E+01   -1.842E+01   -1.832E+01   -1.822E+01   -1.813E+01   -1.803E+01
    -1.794E+01   -1.784E+01   -1.775E+01   -1.766E+01   -1.756E+01   -1.747E+01   -1.738E+01   -1.729E+01   -1.720E+01   -1.711E+01
    -1.702E+01   -1.693E+01   -1.684E+01   -1.676E+01   -1.667E+01   -1.658E+01   -1.649E+01   -1.640E+01   -1.632E+01   -1.623E+01
    -1.614E+01   -1.605E+01   -1.597E+01   -1.588E+01   -1.579E+01   -1.570E+01   -1.561E+01   -1.553E+01   -1.544E+01   -1.535E+01
    -1.526E+01   -1.517E+01   -1.508E+01   -1.499E+01   -1.490E+01   -1.481E+01   -1.472E+01   -1.463E+01   -1.454E+01   -1.445E+01
    -1.436E+01   -1.426E+01   -1.417E+01   -1.408E+01   -1.399E+01   -1.390E+01   -1.381E+01   -1.372E+01   -1.363E+01   -1.354E+01
    -1.345E+01   -1.336E+01   -1.328E+01   -1.319E+01   -1.310E+01   -1.302E+01   -1.293E+01   -1.284E+01   -1.276E+01   -1.268E+01
    -1.259E+01   -1.251E+01   -1.243E+01   -1.235E+01   -1.227E+01   -1.219E+01   -1.212E+01   -1.204E+01   -1.196E+01   -1.189E+01
    -1.182E+01   -1.175E+01   -1.168E+01   -1.161E+01   -1.154E+01   -1.148E+01   -1.141E+01   -1.135E+01   -1.129E+01   -1.123E+01
    -1.117E+01   -1.111E+01   -1.106E+01   -1.100E+01   -1.095E+01   -1.090E+01   -1.085E+01   -1.080E+01   -1.075E+01   -1.071E+01
    -1.066E+01   -1.062E+01   -1.058E+01   -1.054E+01   -1.050E+01   -1.046E+01   -1.042E+01   -1.038E+01   -1.035E+01   -1.031E+01
    -1.028E+01   -1.025E+01   -1.022E+01   -1.019E+01   -1.016E+01   -1.013E+01   -1.010E+01   -1.008E+01   -1.005E+01   -1.002E+01
    -1.000E+01   -9.977E+00   -9.955E+00   -9.933E+00   -9.912E+00   -9.892E+00   -9.873E+00   -9.854E+00   -9.836E+00   -9.818E+00
    -9.802E+00   -9.785E+00   -9.770E+00   -9.754E+00   -9.740E+00   -9.726E+00   -9.712E+00   -9.699E+00   -9.686E+00   -9.673E+00
    -9.660E+00   -9.648E+00   -9.636E+00   -9.624E+00   -9.612E+00   -9.600E+00   -9.589E+00   -9.577E+00   -9.565E+00   -9.553E+00
    -9.541E+00   -9.528E+00   -9.516E+00   -9.503E+00   -9.490E+00   -9.476E+00   -9.462E+00   -9.448E+00   -9.433E+00   -9.418E+00
    -9.402E+00   -9.385E+00   -9.368E+00   -9.350E+00   -9.331E+00   -9.312E+00   -9.291E+00   -9.270E+00   -9.248E+00   -9.225E+00
    -9.202E+00   -9.177E+00   -9.151E+00   -9.124E+00   -9.095E+00   -9.066E+00   -9.035E+00   -9.003E+00   -8.970E+00   -8.936E+00
    -8.900E+00   -8.864E+00   -8.826E+00   -8.787E+00   -8.747E+00   -8.707E+00   -8.665E+00   -8.623E+00   -8.580E+00   -8.536E+00
    -8.491E+00   -8.446E+00   -8.401E+00   -8.354E+00   -8.308E+00   -8.261E+00   -8.213E+00   -8.165E+00   -8.117E+00   -8.069E+00
    -8.021E+00   -7.972E+00   -7.924E+00   -7.875E+00   -7.827E+00   -7.778E+00   -7.730E+00   -7.682E+00   -7.634E+00   -7.586E+00
    -7.539E+00   -7.492E+00   -7.446E+00   -7.400E+00   -7.355E+00   -7.310E+00   -7.266E+00   -7.222E+00   -7.179E+00   -7.137E+00
    -7.096E+00   -7.056E+00   -7.017E+00   -6.979E+00   -6.941E+00   -6.905E+00   -6.869E+00   -6.834E+00   -6.800E+00   -6.767E+00
    -6.734E+00   -6.703E+00   -6.671E+00   -6.641E+00   -6.610E+00   -6.581E+00   -6.552E+00   -6.523E+00   -6.495E+00   -6.467E+00
    -6.439E+00   -6.412E+00   -6.384E+00   -6.358E+00   -6.331E+00   -6.304E+00   -6.278E+00   -6.251E+00   -6.225E+00   -6.198E+00
    -6.172E+00   -6.145E+00   -6.118E+00   -6.091E+00   -6.064E+00   -6.036E+00   -6.009E+00   -5.981E+00   -5.952E+00   -5.923E+00
    -5.894E+00   -5.864E+00   -5.834E+00   -5.803E+00   -5.771E+00   -5.739E+00   -5.707E+00   -5.673E+00
 Asp      Conc. = 6.52E+00
