 LCModel (Version 6.3-1L) Copyright: S.W. Provencher.          Ref.: Magn. Reson. Med. 30:672-679 (1993).                
 Slice#2 Row#3 Col#3  PD_24_press_2_raw_act
 36 lines in following concentration table = NCONC+1
    Conc.  %SD /Cr+PCr  Metabolite                                         
    0.000 999%   0.000 Ala                                                 
   40.695 442% 4.1E-02 Asp                                                 
    0.000 999%   0.000 Cr                                                  
  986.232  14%   1.000 PCr                                                 
   83.952 132% 8.5E-02 GABA                                                
    0.000 999%   0.000 Glc                                                 
  880.953 114%   0.893 Gln                                                 
 3.02E+03  41%   3.059 Glu                                                 
  229.076  22%   0.232 GPC                                                 
    0.000 999%   0.000 PCh                                                 
  266.936  77%   0.271 GSH                                                 
  179.567 346%   0.182 Ins                                                 
  903.565  62%   0.916 Lac                                                 
  632.531  38%   0.641 NAA                                                 
  310.015  84%   0.314 NAAG                                                
    0.000 999%   0.000 Scyllo                                              
    0.000 999%   0.000 Tau                                                 
    0.000 999%   0.000 -CrCH2                                              
  229.076  22%   0.232 GPC+PCh                                             
  942.546  19%   0.956 NAA+NAAG                                            
  986.232  14%   1.000 Cr+PCr                                              
 3.90E+03  49%   3.952 Glu+Gln                                             
 2.09E+03  39%   2.120 Lip13a                                              
    0.000 999%   0.000 Lip13b                                              
  510.326  72%   0.517 Lip09                                               
 1.56E+03  27%   1.582 MM09                                                
  449.097  54%   0.455 Lip20                                               
 2.82E+03  27%   2.858 MM20                                                
  547.899  68%   0.556 MM12                                                
 3.03E+03  18%   3.072 MM14                                                
  596.962  70%   0.605 MM17                                                
 2.09E+03  39%   2.120 Lip13a+Lip13b                                       
 5.67E+03  14%   5.747 MM14+Lip13a+Lip13b+MM12                             
 2.07E+03  16%   2.099 MM09+Lip09                                          
 3.27E+03  23%   3.313 MM20+Lip20                                          
   6 lines in following misc. output table
  FWHM = 0.122 ppm    S/N =   2                                            
  Data shift = 0.023 ppm                                                   
  Ph:  66 deg      32.8 deg/ppm                                            
  alphaB,S = 8.7E-01,   2.5E+01                                            
   14 spline knots.   Ns = 6(2)                                            
  ( 9) 6 infls.   ( 6) 1 extrs.                                            
  498 points on ppm-axis = NY
      4.000000     3.992357     3.984714     3.977070     3.969427     3.961784     3.954141     3.946497     3.938854     3.931211
      3.923568     3.915925     3.908281     3.900638     3.892995     3.885352     3.877708     3.870065     3.862422     3.854779
      3.847136     3.839492     3.831849     3.824206     3.816563     3.808919     3.801276     3.793633     3.785990     3.778347
      3.770703     3.763060     3.755417     3.747774     3.740130     3.732487     3.724844     3.717201     3.709558     3.701914
      3.694271     3.686628     3.678985     3.671341     3.663698     3.656055     3.648412     3.640769     3.633125     3.625482
      3.617839     3.610196     3.602552     3.594909     3.587266     3.579623     3.571980     3.564336     3.556693     3.549050
      3.541407     3.533763     3.526120     3.518477     3.510834     3.503191     3.495547     3.487904     3.480261     3.472618
      3.464974     3.457331     3.449688     3.442045     3.434402     3.426758     3.419115     3.411472     3.403829     3.396185
      3.388542     3.380899     3.373256     3.365613     3.357969     3.350326     3.342683     3.335040     3.327396     3.319753
      3.312110     3.304467     3.296824     3.289180     3.281537     3.273894     3.266251     3.258607     3.250964     3.243321
      3.235678     3.228034     3.220391     3.212748     3.205105     3.197462     3.189818     3.182175     3.174532     3.166889
      3.159245     3.151602     3.143959     3.136316     3.128673     3.121029     3.113386     3.105743     3.098100     3.090456
      3.082813     3.075170     3.067527     3.059884     3.052240     3.044597     3.036954     3.029311     3.021667     3.014024
      3.006381     2.998738     2.991095     2.983451     2.975808     2.968165     2.960522     2.952878     2.945235     2.937592
      2.929949     2.922306     2.914662     2.907019     2.899376     2.891733     2.884089     2.876446     2.868803     2.861160
      2.853517     2.845873     2.838230     2.830587     2.822944     2.815300     2.807657     2.800014     2.792371     2.784728
      2.777084     2.769441     2.761798     2.754155     2.746511     2.738868     2.731225     2.723582     2.715939     2.708295
      2.700652     2.693009     2.685366     2.677722     2.670079     2.662436     2.654793     2.647150     2.639506     2.631863
      2.624220     2.616577     2.608933     2.601290     2.593647     2.586004     2.578361     2.570717     2.563074     2.555431
      2.547788     2.540144     2.532501     2.524858     2.517215     2.509572     2.501928     2.494285     2.486642     2.478999
      2.471355     2.463712     2.456069     2.448426     2.440783     2.433139     2.425496     2.417853     2.410210     2.402566
      2.394923     2.387280     2.379637     2.371994     2.364350     2.356707     2.349064     2.341421     2.333777     2.326134
      2.318491     2.310848     2.303205     2.295561     2.287918     2.280275     2.272632     2.264988     2.257345     2.249702
      2.242059     2.234416     2.226772     2.219129     2.211486     2.203843     2.196199     2.188556     2.180913     2.173270
      2.165627     2.157983     2.150340     2.142697     2.135054     2.127410     2.119767     2.112124     2.104481     2.096838
      2.089194     2.081551     2.073908     2.066265     2.058621     2.050978     2.043335     2.035692     2.028049     2.020405
      2.012762     2.005119     1.997476     1.989833     1.982190     1.974546     1.966903     1.959260     1.951617     1.943974
      1.936331     1.928688     1.921045     1.913402     1.905759     1.898115     1.890472     1.882829     1.875186     1.867543
      1.859900     1.852257     1.844614     1.836971     1.829327     1.821684     1.814041     1.806398     1.798755     1.791112
      1.783469     1.775826     1.768183     1.760540     1.752896     1.745253     1.737610     1.729967     1.722324     1.714681
      1.707038     1.699395     1.691752     1.684108     1.676465     1.668822     1.661179     1.653536     1.645893     1.638250
      1.630607     1.622964     1.615321     1.607677     1.600034     1.592391     1.584748     1.577105     1.569462     1.561819
      1.554176     1.546533     1.538890     1.531246     1.523603     1.515960     1.508317     1.500674     1.493031     1.485388
      1.477745     1.470102     1.462458     1.454815     1.447172     1.439529     1.431886     1.424243     1.416600     1.408957
      1.401314     1.393671     1.386027     1.378384     1.370741     1.363098     1.355455     1.347812     1.340169     1.332526
      1.324883     1.317240     1.309596     1.301953     1.294310     1.286667     1.279024     1.271381     1.263738     1.256095
      1.248452     1.240808     1.233165     1.225522     1.217879     1.210236     1.202593     1.194950     1.187307     1.179664
      1.172021     1.164377     1.156734     1.149091     1.141448     1.133805     1.126162     1.118519     1.110876     1.103233
      1.095590     1.087946     1.080303     1.072660     1.065017     1.057374     1.049731     1.042088     1.034445     1.026802
      1.019158     1.011515     1.003872     0.996229     0.988586     0.980943     0.973300     0.965657     0.958014     0.950371
      0.942727     0.935084     0.927441     0.919798     0.912155     0.904512     0.896869     0.889226     0.881583     0.873940
      0.866296     0.858653     0.851010     0.843367     0.835724     0.828081     0.820438     0.812795     0.805152     0.797508
      0.789865     0.782222     0.774579     0.766936     0.759293     0.751650     0.744007     0.736364     0.728721     0.721077
      0.713434     0.705791     0.698148     0.690505     0.682862     0.675219     0.667576     0.659933     0.652290     0.644646
      0.637003     0.629360     0.621717     0.614074     0.606431     0.598788     0.591145     0.583502     0.575858     0.568215
      0.560572     0.552929     0.545286     0.537643     0.530000     0.522357     0.514714     0.507071     0.499427     0.491784
      0.484141     0.476498     0.468855     0.461212     0.453569     0.445925     0.438282     0.430639     0.422996     0.415353
      0.407710     0.400067     0.392424     0.384780     0.377137     0.369494     0.361851     0.354208     0.346565     0.338922
      0.331278     0.323635     0.315992     0.308349     0.300706     0.293063     0.285420     0.277777     0.270133     0.262490
      0.254847     0.247204     0.239561     0.231918     0.224275     0.216631     0.208988     0.201345
 NY phased data points follow
   1.16660E+02  1.27150E+02  1.27743E+02  1.22308E+02  1.25018E+02  1.20604E+02  1.20950E+02  1.11190E+02  1.17226E+02  1.23562E+02
   1.25519E+02  1.20580E+02  1.12626E+02  1.18567E+02  1.16724E+02  1.07298E+02  1.13627E+02  1.09855E+02  1.01518E+02  9.97908E+01
   9.83302E+01  8.86551E+01  9.68440E+01  8.97466E+01  8.52595E+01  8.17132E+01  8.92355E+01  9.43305E+01  9.47563E+01  9.23866E+01
   9.92185E+01  8.61945E+01  8.20387E+01  7.52011E+01  8.00251E+01  8.04202E+01  8.01085E+01  7.71158E+01  7.94090E+01  8.25026E+01
   7.87395E+01  7.00348E+01  7.26242E+01  8.04330E+01  7.86149E+01  7.31158E+01  6.32169E+01  6.79605E+01  6.37296E+01  6.62934E+01
   6.20056E+01  6.68935E+01  5.49784E+01  6.51531E+01  5.86849E+01  7.11878E+01  6.38961E+01  5.48806E+01  5.29179E+01  5.80045E+01
   4.47256E+01  4.61082E+01  6.09272E+01  4.56370E+01  5.28459E+01  4.94302E+01  4.94270E+01  4.43340E+01  5.08086E+01  4.19229E+01
   4.61305E+01  3.60952E+01  4.22309E+01  5.42312E+01  4.47333E+01  3.92877E+01  3.45822E+01  3.82358E+01  2.81259E+01  2.96236E+01
   3.36028E+01  3.41755E+01  2.79649E+01  3.49928E+01  3.42480E+01  3.49305E+01  3.11597E+01  3.92491E+01  3.34585E+01  3.05246E+01
   3.66487E+01  2.73850E+01  2.90007E+01  3.04945E+01  1.53347E+01  2.51475E+01  3.00135E+01  2.74605E+01  3.15643E+01  4.05846E+01
   3.79371E+01  4.39861E+01  3.81915E+01  3.60619E+01  3.73531E+01  3.71167E+01  3.89100E+01  2.94520E+01  3.63854E+01  2.79878E+01
   2.12768E+01  2.98511E+01  2.87649E+01  2.16116E+01  2.42482E+01  1.38598E+01  1.91562E+01  1.62610E+01  2.35746E+01  6.60297E+00
   1.41866E+01  1.92755E+01  3.11101E+01  3.65834E+01  2.82286E+01  2.72740E+01  2.30951E+01  2.64415E+01  2.39729E+01  2.02057E+01
   3.57747E+01  1.74907E+01  2.13247E+01  2.09912E+01  1.94562E+01  2.20387E+01  2.33038E+01  1.81623E+01  1.08180E+01  1.43155E+01
   1.84129E+01  6.86914E+00  1.34520E+01  1.70557E+01  6.86581E+00  1.75149E+01  7.62937E+00  8.85150E+00  1.39672E+00  7.27095E+00
   1.07123E+01  9.75195E+00  1.39698E+01  1.28777E+01 -9.08840E+00  4.98524E+00 -6.97415E+00  1.88333E+00  5.99973E+00  6.04787E+00
   1.14608E+00  2.28270E+00  7.27432E+00  1.19996E+00  2.35218E+00 -5.42220E-01  2.85025E+00  7.03876E-01 -1.27115E+01 -4.25336E+00
  -2.89464E+00  1.58904E+00  2.14830E+00 -4.20625E+00 -6.33894E+00 -1.06618E+01 -9.80414E+00 -7.47357E+00 -7.77232E+00 -1.12128E+01
  -1.60291E+01 -2.06752E+00 -5.43009E+00 -1.27637E+01 -1.01927E+01 -2.51919E+00 -4.25276E+00 -1.32835E+01 -6.81044E+00 -2.63939E+00
  -8.51030E+00  4.36381E+00 -1.11676E+01 -7.30038E+00 -5.35624E+00 -1.15400E+01 -1.15154E+01 -9.55837E+00 -1.35275E+01 -4.21405E+00
  -1.02173E+01 -6.70947E+00 -1.37724E+01 -1.02610E+01 -2.24764E+01 -1.27527E+01 -7.52952E+00 -1.17045E+01 -9.55636E+00 -6.03140E+00
  -8.63754E+00 -5.07508E+00 -8.18473E+00 -9.53435E+00 -1.75990E+01 -5.30673E+00 -1.10439E+01 -4.01085E+00 -1.11056E+01 -2.10417E+01
  -2.30523E+01 -7.91939E+00 -1.15401E+01 -1.45257E+01 -1.41308E+01 -1.33369E+01 -1.30898E+01 -1.58261E+01 -4.22986E-04 -3.83390E+00
  -2.11032E+01 -2.03908E+01 -1.00862E+01 -9.62011E+00 -1.81283E+01 -8.32418E+00 -7.27719E+00  9.03122E-01 -1.16422E+01 -1.29017E+01
  -5.73534E+00 -1.80653E+00 -4.13484E+00 -7.63880E+00 -5.42427E+00  6.15813E+00 -1.55899E+01 -4.99277E+00 -6.44075E+00 -9.92209E+00
  -1.10634E+01 -1.91944E+00 -4.77341E+00  1.53482E+00 -4.66054E-01  1.52991E+01  6.86609E+00  1.39528E+01  6.35791E+00  4.44561E+00
   1.21043E+01  2.22472E+00 -6.42358E-01  8.07033E+00  2.15496E+00 -5.02665E+00 -1.68473E+00 -1.00964E+01 -1.64593E+01 -7.59015E+00
  -1.62987E+01 -9.59169E+00 -1.00090E+01 -2.73801E+01 -2.26904E+01 -1.76087E+01 -2.32902E+01 -1.03507E+01 -1.75608E+01 -1.67170E+01
  -1.31381E+01 -7.57117E+00 -2.67687E+01 -1.88952E+01 -1.91432E+01 -2.30374E+01 -2.74824E+01 -2.09123E+01 -2.03422E+01 -6.96156E+00
  -3.08632E+01 -1.74923E+01 -3.06167E+01 -2.03170E+01 -2.22096E+01 -2.17977E+01 -2.57251E+01 -1.54373E+01 -2.37932E+01 -2.39582E+01
  -2.78173E+01 -2.05818E+01 -2.40673E+01 -2.63038E+01 -1.67149E+01 -1.84970E+01 -2.41955E+01 -1.80953E+01 -1.61131E+01 -9.89699E+00
  -1.26050E+01 -1.38652E+01 -1.97642E+01 -2.28829E+01 -2.64785E+01 -1.85638E+01 -1.71480E+01 -1.77290E+01 -1.57686E+01 -1.34186E+01
  -2.14322E+01 -1.67619E+01 -2.60321E+01 -2.43874E+01 -2.16728E+01 -1.46312E+01 -7.66389E+00 -1.29599E+01 -5.88941E+00 -1.10428E+01
  -1.75705E+00 -1.34494E+01 -1.18386E+01 -4.29236E+00 -8.83711E+00 -6.40127E+00 -1.06846E+01 -1.02182E+01 -2.74285E+00 -3.85529E+00
  -1.09025E+00  1.44983E+00 -5.45797E+00 -1.08709E+01 -1.11687E+01 -1.16287E+01  3.18061E-01 -1.39868E+01 -1.71146E+01 -1.42218E+01
  -7.48041E+00 -1.21429E+01 -9.97715E+00 -1.89350E+01 -1.28301E+01 -2.15806E+01 -1.94378E+01 -1.90786E+01 -1.04698E+01 -1.25580E+01
  -2.12381E+01 -2.86435E+01 -1.43866E+01 -1.95539E+01 -1.54782E+01 -1.07382E+01 -2.39533E+01 -1.68781E+01 -2.73704E+01 -1.92756E+01
  -1.33992E+01 -1.73775E+01 -2.22199E+01 -1.67395E+01 -1.17491E+01 -1.91151E+01 -2.00205E+01 -5.16482E+00 -2.65957E+01 -1.34969E+01
  -2.25136E+01 -3.04834E+01 -3.03409E+01 -2.22581E+01 -2.94286E+01 -1.85517E+01 -2.95507E+01 -1.94887E+01 -2.15162E+01 -1.35055E+01
  -3.20291E+01 -2.97527E+01 -2.28491E+01 -1.32476E+01 -2.02263E+01 -2.25360E+01 -1.64786E+01 -1.86101E+01 -1.39483E+01 -1.56525E+01
  -2.13437E+01 -1.86279E+01 -2.18314E+01 -1.68472E+01 -1.08083E+01 -2.50025E+01 -1.09304E+01 -2.64683E+01 -2.18482E+01 -1.38074E+01
  -3.38420E+01 -2.00680E+01 -1.72936E+01 -2.54848E+01 -2.53051E+01 -1.79949E+01 -2.41596E+01 -2.33966E+01 -2.04880E+01 -3.60897E+01
  -1.21612E+01 -2.17320E+01 -2.24281E+01 -2.22942E+01 -2.41426E+01 -2.25044E+01 -2.51366E+01 -2.81703E+01 -2.02997E+01 -3.01605E+01
  -4.42454E+01 -2.98181E+01 -2.27190E+01 -3.70447E+01 -3.13018E+01 -2.49594E+01 -2.39449E+01 -2.42724E+01 -2.22713E+01 -2.82892E+01
  -2.95792E+01 -2.59437E+01 -3.35178E+01 -3.09045E+01 -3.46119E+01 -4.14982E+01 -3.66784E+01 -3.11420E+01 -4.80033E+01 -1.96177E+01
  -3.66716E+01 -3.87013E+01 -3.64374E+01 -3.80053E+01 -4.46078E+01 -3.89882E+01 -2.96935E+01 -3.12140E+01 -4.46636E+01 -4.00482E+01
  -3.58636E+01 -2.85316E+01 -4.36710E+01 -2.45594E+01 -3.75345E+01 -3.84608E+01 -3.34771E+01 -3.98008E+01 -4.49810E+01 -3.18033E+01
  -3.01123E+01 -3.60169E+01 -2.79194E+01 -2.60609E+01 -3.71758E+01 -2.69996E+01 -2.79185E+01 -2.88530E+01 -3.80610E+01 -2.93866E+01
  -3.14602E+01 -3.55492E+01 -2.53880E+01 -3.33442E+01 -3.33584E+01 -2.84305E+01 -3.28044E+01 -3.30200E+01 -1.94796E+01 -3.80364E+01
  -2.31093E+01 -4.46879E+01 -2.71879E+01 -2.84701E+01 -2.99278E+01 -2.68830E+01 -2.64227E+01 -3.53504E+01
 NY points of the fit to the data follow
   1.10051E+02  1.11034E+02  1.11746E+02  1.13327E+02  1.14553E+02  1.14712E+02  1.15509E+02  1.13870E+02  1.14196E+02  1.12601E+02
   1.12896E+02  1.10945E+02  1.10903E+02  1.07998E+02  1.07387E+02  1.04656E+02  1.04152E+02  1.02253E+02  1.01195E+02  9.88912E+01
   9.69343E+01  9.45197E+01  9.23359E+01  9.08187E+01  9.00353E+01  9.00047E+01  9.04193E+01  9.05480E+01  8.99373E+01  8.95170E+01
   8.78015E+01  8.67863E+01  8.49759E+01  8.40947E+01  8.26766E+01  8.20905E+01  8.04707E+01  7.98491E+01  7.82642E+01  7.74810E+01
   7.64116E+01  7.58512E+01  7.48095E+01  7.41229E+01  7.23776E+01  7.13015E+01  6.97255E+01  6.86607E+01  6.77339E+01  6.69813E+01
   6.62433E+01  6.54445E+01  6.44347E+01  6.33983E+01  6.22316E+01  6.11384E+01  6.00774E+01  5.90111E+01  5.79891E+01  5.69684E+01
   5.59811E+01  5.50166E+01  5.41191E+01  5.32406E+01  5.24048E+01  5.15368E+01  5.07551E+01  4.99073E+01  4.91572E+01  4.83138E+01
   4.75645E+01  4.67284E+01  4.59847E+01  4.51651E+01  4.44314E+01  4.36543E+01  4.29341E+01  4.21746E+01  4.14469E+01  4.06734E+01
   3.99364E+01  3.91373E+01  3.83954E+01  3.76064E+01  3.68980E+01  3.61618E+01  3.55104E+01  3.48189E+01  3.42044E+01  3.35144E+01
   3.28000E+01  3.15912E+01  3.10256E+01  3.11463E+01  3.12535E+01  3.26214E+01  3.34225E+01  3.58568E+01  3.68508E+01  3.81260E+01
   3.84951E+01  3.78180E+01  3.76966E+01  3.70206E+01  3.68086E+01  3.57392E+01  3.51673E+01  3.30595E+01  3.21688E+01  3.00758E+01
   2.92763E+01  2.79125E+01  2.71064E+01  2.51272E+01  2.38483E+01  2.09359E+01  1.99666E+01  1.95127E+01  1.98482E+01  2.23334E+01
   2.38446E+01  2.80213E+01  2.95882E+01  3.23270E+01  3.29072E+01  3.29283E+01  3.28346E+01  3.27375E+01  3.23504E+01  3.14273E+01
   3.03607E+01  2.77788E+01  2.63196E+01  2.37879E+01  2.26835E+01  2.11052E+01  2.00763E+01  1.74417E+01  1.60778E+01  1.30767E+01
   1.18138E+01  9.61182E+00  8.92796E+00  8.15914E+00  7.76108E+00  7.04242E+00  6.60462E+00  5.99564E+00  5.61803E+00  5.13955E+00
   4.79541E+00  4.25860E+00  3.83855E+00  3.25145E+00  2.75109E+00  2.19029E+00  1.69900E+00  1.24257E+00  8.24268E-01  4.54261E-01
  -2.18338E-02 -4.16438E-01 -9.40624E-01 -1.33870E+00 -1.79199E+00 -2.12081E+00 -2.58257E+00 -2.91147E+00 -3.40230E+00 -3.80392E+00
  -4.29938E+00 -4.70595E+00 -5.09727E+00 -5.45378E+00 -5.73947E+00 -6.17714E+00 -6.47961E+00 -7.01102E+00 -7.20933E+00 -7.68625E+00
  -7.71675E+00 -8.08032E+00 -7.95342E+00 -8.17990E+00 -7.93541E+00 -8.02735E+00 -7.86253E+00 -8.10122E+00 -8.33248E+00 -8.66949E+00
  -9.21233E+00 -9.32982E+00 -9.82375E+00 -9.60687E+00 -9.84581E+00 -9.16411E+00 -9.06744E+00 -8.22084E+00 -7.97096E+00 -7.42073E+00
  -7.98796E+00 -7.86406E+00 -9.65707E+00 -9.86558E+00 -1.27399E+01 -1.22247E+01 -1.36668E+01 -1.19913E+01 -1.17247E+01 -9.35765E+00
  -8.53866E+00 -6.22704E+00 -7.39166E+00 -6.79154E+00 -9.67870E+00 -1.02213E+01 -1.33011E+01 -1.37798E+01 -1.61326E+01 -1.51890E+01
  -1.63333E+01 -1.46174E+01 -1.51782E+01 -1.39071E+01 -1.39720E+01 -1.31196E+01 -1.37904E+01 -1.27589E+01 -1.35635E+01 -1.25219E+01
  -1.30187E+01 -1.16196E+01 -1.11901E+01 -9.53779E+00 -9.12093E+00 -8.17834E+00 -8.09398E+00 -8.37272E+00 -8.31466E+00 -9.15349E+00
  -8.55620E+00 -9.27267E+00 -8.52975E+00 -9.51895E+00 -8.99051E+00 -9.46743E+00 -8.17639E+00 -8.11725E+00 -6.72287E+00 -6.73724E+00
  -3.85345E+00 -3.97613E+00 -7.17924E-01 -3.43102E-01  3.19938E+00  4.46592E+00  6.72143E+00  7.63049E+00  7.21326E+00  6.94987E+00
   5.49130E+00  5.43085E+00  3.28867E+00  3.22205E+00  2.86394E-01 -4.77186E-01 -3.90496E+00 -4.77640E+00 -7.57098E+00 -7.90304E+00
  -1.07904E+01 -1.12394E+01 -1.37691E+01 -1.45282E+01 -1.64986E+01 -1.71900E+01 -1.79234E+01 -1.82770E+01 -1.87406E+01 -1.90962E+01
  -1.93794E+01 -1.97289E+01 -1.99131E+01 -2.01980E+01 -2.03332E+01 -2.06007E+01 -2.07266E+01 -2.09616E+01 -2.10748E+01 -2.12529E+01
  -2.12863E+01 -2.13651E+01 -2.13354E+01 -2.13429E+01 -2.12689E+01 -2.12239E+01 -2.11310E+01 -2.10623E+01 -2.09532E+01 -2.08638E+01
  -2.07429E+01 -2.06458E+01 -2.05298E+01 -2.04365E+01 -2.03398E+01 -2.02627E+01 -2.01865E+01 -2.01267E+01 -2.00593E+01 -1.99987E+01
  -1.99256E+01 -1.98439E+01 -1.97414E+01 -1.96155E+01 -1.94577E+01 -1.92625E+01 -1.90210E+01 -1.87291E+01 -1.83819E+01 -1.79766E+01
  -1.75128E+01 -1.69915E+01 -1.64162E+01 -1.57920E+01 -1.51264E+01 -1.44281E+01 -1.37076E+01 -1.29764E+01 -1.22470E+01 -1.15322E+01
  -1.08447E+01 -1.01964E+01 -9.59909E+00 -9.06630E+00 -8.62579E+00 -8.33695E+00 -7.80988E+00 -6.76436E+00 -6.08721E+00 -5.09630E+00
  -4.43474E+00 -4.14395E+00 -3.83844E+00 -5.94850E+00 -6.63234E+00 -9.84314E+00 -1.03099E+01 -1.27279E+01 -1.24366E+01 -1.42357E+01
  -1.27886E+01 -1.48514E+01 -1.28809E+01 -1.50822E+01 -1.34669E+01 -1.50564E+01 -1.35124E+01 -1.53503E+01 -1.39776E+01 -1.58812E+01
  -1.50736E+01 -1.64010E+01 -1.59181E+01 -1.62948E+01 -1.57687E+01 -1.65693E+01 -1.65866E+01 -1.77133E+01 -1.83130E+01 -1.94399E+01
  -2.03135E+01 -2.09789E+01 -2.15416E+01 -2.20354E+01 -2.24735E+01 -2.28613E+01 -2.32008E+01 -2.34923E+01 -2.37351E+01 -2.39280E+01
  -2.40697E+01 -2.41586E+01 -2.41932E+01 -2.41722E+01 -2.40945E+01 -2.39593E+01 -2.37666E+01 -2.35169E+01 -2.32117E+01 -2.28535E+01
  -2.24463E+01 -2.19952E+01 -2.15073E+01 -2.09909E+01 -2.04561E+01 -1.99143E+01 -1.93783E+01 -1.88617E+01 -1.83787E+01 -1.79434E+01
  -1.75694E+01 -1.72691E+01 -1.70533E+01 -1.69307E+01 -1.69075E+01 -1.69867E+01 -1.71687E+01 -1.74505E+01 -1.78267E+01 -1.82891E+01
  -1.88274E+01 -1.94297E+01 -2.00832E+01 -2.07744E+01 -2.14900E+01 -2.22173E+01 -2.29444E+01 -2.36609E+01 -2.43578E+01 -2.50276E+01
  -2.56649E+01 -2.62654E+01 -2.68266E+01 -2.73473E+01 -2.78272E+01 -2.82672E+01 -2.86688E+01 -2.90340E+01 -2.93651E+01 -2.96649E+01
  -2.99358E+01 -3.01806E+01 -3.04018E+01 -3.06019E+01 -3.07830E+01 -3.09472E+01 -3.10963E+01 -3.12321E+01 -3.13559E+01 -3.14691E+01
  -3.15729E+01 -3.16682E+01 -3.17559E+01 -3.18367E+01 -3.19114E+01 -3.19805E+01 -3.20446E+01 -3.21040E+01 -3.21592E+01 -3.22104E+01
  -3.22581E+01 -3.23024E+01 -3.23436E+01 -3.23819E+01 -3.24175E+01 -3.24506E+01 -3.24813E+01 -3.25099E+01 -3.25363E+01 -3.25609E+01
  -3.25837E+01 -3.26048E+01 -3.26242E+01 -3.26421E+01 -3.26586E+01 -3.26738E+01 -3.26877E+01 -3.27003E+01 -3.27118E+01 -3.27222E+01
  -3.27316E+01 -3.27399E+01 -3.27474E+01 -3.27539E+01 -3.27596E+01 -3.27645E+01 -3.27686E+01 -3.27720E+01 -3.27748E+01 -3.27768E+01
  -3.27782E+01 -3.27791E+01 -3.27794E+01 -3.27791E+01 -3.27784E+01 -3.27771E+01 -3.27755E+01 -3.27734E+01 -3.27709E+01 -3.27680E+01
  -3.27648E+01 -3.27612E+01 -3.27573E+01 -3.27532E+01 -3.27487E+01 -3.27440E+01 -3.27390E+01 -3.27337E+01
 NY background values follow
     1.077E+02    1.067E+02    1.058E+02    1.049E+02    1.040E+02    1.031E+02    1.021E+02    1.012E+02    1.003E+02    9.937E+01
     9.845E+01    9.753E+01    9.661E+01    9.569E+01    9.477E+01    9.385E+01    9.293E+01    9.202E+01    9.110E+01    9.019E+01
     8.927E+01    8.836E+01    8.745E+01    8.654E+01    8.563E+01    8.472E+01    8.382E+01    8.291E+01    8.201E+01    8.111E+01
     8.021E+01    7.931E+01    7.842E+01    7.753E+01    7.664E+01    7.575E+01    7.486E+01    7.398E+01    7.310E+01    7.222E+01
     7.135E+01    7.047E+01    6.960E+01    6.874E+01    6.787E+01    6.701E+01    6.616E+01    6.530E+01    6.445E+01    6.361E+01
     6.276E+01    6.192E+01    6.109E+01    6.025E+01    5.943E+01    5.860E+01    5.778E+01    5.696E+01    5.615E+01    5.534E+01
     5.453E+01    5.373E+01    5.293E+01    5.214E+01    5.135E+01    5.057E+01    4.979E+01    4.901E+01    4.824E+01    4.747E+01
     4.671E+01    4.595E+01    4.520E+01    4.445E+01    4.371E+01    4.297E+01    4.224E+01    4.151E+01    4.079E+01    4.007E+01
     3.936E+01    3.866E+01    3.795E+01    3.726E+01    3.657E+01    3.588E+01    3.520E+01    3.453E+01    3.386E+01    3.320E+01
     3.254E+01    3.189E+01    3.125E+01    3.061E+01    2.998E+01    2.935E+01    2.873E+01    2.812E+01    2.751E+01    2.690E+01
     2.630E+01    2.571E+01    2.512E+01    2.454E+01    2.396E+01    2.339E+01    2.283E+01    2.227E+01    2.171E+01    2.116E+01
     2.062E+01    2.008E+01    1.955E+01    1.902E+01    1.850E+01    1.798E+01    1.746E+01    1.696E+01    1.645E+01    1.596E+01
     1.546E+01    1.497E+01    1.449E+01    1.401E+01    1.354E+01    1.307E+01    1.260E+01    1.214E+01    1.169E+01    1.124E+01
     1.079E+01    1.035E+01    9.913E+00    9.481E+00    9.053E+00    8.629E+00    8.210E+00    7.795E+00    7.384E+00    6.978E+00
     6.575E+00    6.177E+00    5.783E+00    5.393E+00    5.007E+00    4.625E+00    4.247E+00    3.872E+00    3.502E+00    3.135E+00
     2.772E+00    2.413E+00    2.057E+00    1.705E+00    1.356E+00    1.011E+00    6.697E-01    3.315E-01   -3.397E-03   -3.350E-01
    -6.633E-01   -9.884E-01   -1.310E+00   -1.629E+00   -1.945E+00   -2.258E+00   -2.567E+00   -2.874E+00   -3.178E+00   -3.479E+00
    -3.777E+00   -4.073E+00   -4.365E+00   -4.655E+00   -4.943E+00   -5.228E+00   -5.510E+00   -5.790E+00   -6.068E+00   -6.343E+00
    -6.615E+00   -6.886E+00   -7.154E+00   -7.420E+00   -7.684E+00   -7.945E+00   -8.205E+00   -8.462E+00   -8.717E+00   -8.970E+00
    -9.221E+00   -9.469E+00   -9.716E+00   -9.960E+00   -1.020E+01   -1.044E+01   -1.068E+01   -1.092E+01   -1.115E+01   -1.138E+01
    -1.162E+01   -1.184E+01   -1.207E+01   -1.230E+01   -1.252E+01   -1.274E+01   -1.296E+01   -1.318E+01   -1.339E+01   -1.361E+01
    -1.382E+01   -1.403E+01   -1.424E+01   -1.444E+01   -1.465E+01   -1.485E+01   -1.505E+01   -1.525E+01   -1.545E+01   -1.565E+01
    -1.584E+01   -1.604E+01   -1.623E+01   -1.642E+01   -1.661E+01   -1.680E+01   -1.698E+01   -1.717E+01   -1.735E+01   -1.753E+01
    -1.771E+01   -1.789E+01   -1.807E+01   -1.824E+01   -1.842E+01   -1.859E+01   -1.876E+01   -1.893E+01   -1.910E+01   -1.927E+01
    -1.943E+01   -1.960E+01   -1.976E+01   -1.992E+01   -2.008E+01   -2.024E+01   -2.040E+01   -2.055E+01   -2.071E+01   -2.086E+01
    -2.101E+01   -2.116E+01   -2.131E+01   -2.146E+01   -2.161E+01   -2.175E+01   -2.190E+01   -2.204E+01   -2.218E+01   -2.232E+01
    -2.246E+01   -2.259E+01   -2.273E+01   -2.286E+01   -2.300E+01   -2.313E+01   -2.326E+01   -2.339E+01   -2.351E+01   -2.364E+01
    -2.376E+01   -2.389E+01   -2.401E+01   -2.413E+01   -2.425E+01   -2.437E+01   -2.449E+01   -2.460E+01   -2.472E+01   -2.483E+01
    -2.495E+01   -2.506E+01   -2.517E+01   -2.528E+01   -2.538E+01   -2.549E+01   -2.560E+01   -2.570E+01   -2.580E+01   -2.590E+01
    -2.600E+01   -2.610E+01   -2.620E+01   -2.630E+01   -2.640E+01   -2.649E+01   -2.659E+01   -2.668E+01   -2.677E+01   -2.686E+01
    -2.695E+01   -2.704E+01   -2.713E+01   -2.722E+01   -2.730E+01   -2.739E+01   -2.747E+01   -2.755E+01   -2.763E+01   -2.771E+01
    -2.779E+01   -2.787E+01   -2.795E+01   -2.803E+01   -2.810E+01   -2.818E+01   -2.825E+01   -2.833E+01   -2.840E+01   -2.847E+01
    -2.854E+01   -2.861E+01   -2.868E+01   -2.875E+01   -2.881E+01   -2.888E+01   -2.895E+01   -2.901E+01   -2.907E+01   -2.914E+01
    -2.920E+01   -2.926E+01   -2.932E+01   -2.938E+01   -2.944E+01   -2.950E+01   -2.956E+01   -2.961E+01   -2.967E+01   -2.973E+01
    -2.978E+01   -2.984E+01   -2.989E+01   -2.994E+01   -2.999E+01   -3.005E+01   -3.010E+01   -3.015E+01   -3.020E+01   -3.025E+01
    -3.029E+01   -3.034E+01   -3.039E+01   -3.044E+01   -3.048E+01   -3.053E+01   -3.058E+01   -3.062E+01   -3.066E+01   -3.071E+01
    -3.075E+01   -3.079E+01   -3.084E+01   -3.088E+01   -3.092E+01   -3.096E+01   -3.100E+01   -3.104E+01   -3.108E+01   -3.112E+01
    -3.116E+01   -3.120E+01   -3.124E+01   -3.127E+01   -3.131E+01   -3.135E+01   -3.138E+01   -3.142E+01   -3.146E+01   -3.149E+01
    -3.153E+01   -3.156E+01   -3.159E+01   -3.163E+01   -3.166E+01   -3.170E+01   -3.173E+01   -3.176E+01   -3.179E+01   -3.182E+01
    -3.186E+01   -3.189E+01   -3.192E+01   -3.195E+01   -3.198E+01   -3.201E+01   -3.204E+01   -3.207E+01   -3.210E+01   -3.212E+01
    -3.215E+01   -3.218E+01   -3.221E+01   -3.224E+01   -3.226E+01   -3.229E+01   -3.232E+01   -3.234E+01   -3.237E+01   -3.240E+01
    -3.242E+01   -3.245E+01   -3.247E+01   -3.250E+01   -3.252E+01   -3.255E+01   -3.257E+01   -3.260E+01   -3.262E+01   -3.264E+01
    -3.266E+01   -3.269E+01   -3.271E+01   -3.273E+01   -3.275E+01   -3.277E+01   -3.279E+01   -3.281E+01   -3.283E+01   -3.285E+01
    -3.287E+01   -3.289E+01   -3.291E+01   -3.292E+01   -3.294E+01   -3.296E+01   -3.297E+01   -3.299E+01   -3.300E+01   -3.301E+01
    -3.303E+01   -3.304E+01   -3.305E+01   -3.306E+01   -3.308E+01   -3.309E+01   -3.310E+01   -3.311E+01   -3.311E+01   -3.312E+01
    -3.313E+01   -3.314E+01   -3.314E+01   -3.315E+01   -3.315E+01   -3.316E+01   -3.316E+01   -3.316E+01   -3.316E+01   -3.317E+01
    -3.317E+01   -3.317E+01   -3.317E+01   -3.317E+01   -3.316E+01   -3.316E+01   -3.316E+01   -3.316E+01   -3.316E+01   -3.315E+01
    -3.315E+01   -3.314E+01   -3.314E+01   -3.313E+01   -3.313E+01   -3.312E+01   -3.312E+01   -3.311E+01   -3.310E+01   -3.310E+01
    -3.309E+01   -3.308E+01   -3.307E+01   -3.307E+01   -3.306E+01   -3.305E+01   -3.304E+01   -3.303E+01   -3.302E+01   -3.302E+01
    -3.301E+01   -3.300E+01   -3.299E+01   -3.298E+01   -3.297E+01   -3.296E+01   -3.295E+01   -3.294E+01
 Asp      Conc. = 4.07E+01
