 LCModel (Version 6.3-1L) Copyright: S.W. Provencher.          Ref.: Magn. Reson. Med. 30:672-679 (1993).                
 Slice#3 Row#12 Col#4  PD_24_press_2_raw_act
 36 lines in following concentration table = NCONC+1
    Conc.  %SD /Cr+PCr  Metabolite                                         
   98.703  42%   1.361 Ala                                                 
    9.164  76%   0.126 Asp                                                 
   72.530  28%   1.000 Cr                                                  
    0.000 999%   0.000 PCr                                                 
    4.932  84% 6.8E-02 GABA                                                
    4.844  86% 6.7E-02 Glc                                                 
   67.467 106%   0.930 Gln                                                 
  137.909  59%   1.901 Glu                                                 
    3.063 246% 4.2E-02 GPC                                                 
    0.000 999%   0.000 PCh                                                 
    3.572 750% 4.9E-02 GSH                                                 
   38.082 220%   0.525 Ins                                                 
    6.554 723% 9.0E-02 Lac                                                 
   83.019  29%   1.145 NAA                                                 
    0.000 999%   0.000 NAAG                                                
    1.568  88% 2.2E-02 Scyllo                                              
    7.916  87%   0.109 Tau                                                 
    5.483 203% 7.6E-02 -CrCH2                                              
    3.063 246% 4.2E-02 GPC+PCh                                             
   83.019  29%   1.145 NAA+NAAG                                            
   72.530  28%   1.000 Cr+PCr                                              
  205.376  51%   2.832 Glu+Gln                                             
  897.445  34%  12.373 Lip13a                                              
  579.141  30%   7.985 Lip13b                                              
  113.711  82%   1.568 Lip09                                               
    0.000 999%   0.000 MM09                                                
  299.510  37%   4.129 Lip20                                               
   13.234 396%   0.182 MM20                                                
    2.185 671% 3.0E-02 MM12                                                
    0.000 999%   0.000 MM14                                                
    0.000 999%   0.000 MM17                                                
 1.48E+03  14%  20.358 Lip13a+Lip13b                                       
 1.48E+03  13%  20.388 MM14+Lip13a+Lip13b+MM12                             
  113.711  82%   1.568 MM09+Lip09                                          
  312.745  37%   4.312 MM20+Lip20                                          
   6 lines in following misc. output table
  FWHM = 0.038 ppm    S/N =   2                                            
  Data shift =-0.008 ppm                                                   
  Ph:  24 deg      59.3 deg/ppm                                            
  alphaB,S = 8.5E+01,   2.6E+01                                            
   14 spline knots.   Ns = 5(1)                                            
  ( 9) 4 infls.   (11) 1 extrs.                                            
  498 points on ppm-axis = NY
      4.000000     3.992357     3.984714     3.977070     3.969427     3.961784     3.954141     3.946497     3.938854     3.931211
      3.923568     3.915925     3.908281     3.900638     3.892995     3.885352     3.877708     3.870065     3.862422     3.854779
      3.847136     3.839492     3.831849     3.824206     3.816563     3.808919     3.801276     3.793633     3.785990     3.778347
      3.770703     3.763060     3.755417     3.747774     3.740130     3.732487     3.724844     3.717201     3.709558     3.701914
      3.694271     3.686628     3.678985     3.671341     3.663698     3.656055     3.648412     3.640769     3.633125     3.625482
      3.617839     3.610196     3.602552     3.594909     3.587266     3.579623     3.571980     3.564336     3.556693     3.549050
      3.541407     3.533763     3.526120     3.518477     3.510834     3.503191     3.495547     3.487904     3.480261     3.472618
      3.464974     3.457331     3.449688     3.442045     3.434402     3.426758     3.419115     3.411472     3.403829     3.396185
      3.388542     3.380899     3.373256     3.365613     3.357969     3.350326     3.342683     3.335040     3.327396     3.319753
      3.312110     3.304467     3.296824     3.289180     3.281537     3.273894     3.266251     3.258607     3.250964     3.243321
      3.235678     3.228034     3.220391     3.212748     3.205105     3.197462     3.189818     3.182175     3.174532     3.166889
      3.159245     3.151602     3.143959     3.136316     3.128673     3.121029     3.113386     3.105743     3.098100     3.090456
      3.082813     3.075170     3.067527     3.059884     3.052240     3.044597     3.036954     3.029311     3.021667     3.014024
      3.006381     2.998738     2.991095     2.983451     2.975808     2.968165     2.960522     2.952878     2.945235     2.937592
      2.929949     2.922306     2.914662     2.907019     2.899376     2.891733     2.884089     2.876446     2.868803     2.861160
      2.853517     2.845873     2.838230     2.830587     2.822944     2.815300     2.807657     2.800014     2.792371     2.784728
      2.777084     2.769441     2.761798     2.754155     2.746511     2.738868     2.731225     2.723582     2.715939     2.708295
      2.700652     2.693009     2.685366     2.677722     2.670079     2.662436     2.654793     2.647150     2.639506     2.631863
      2.624220     2.616577     2.608933     2.601290     2.593647     2.586004     2.578361     2.570717     2.563074     2.555431
      2.547788     2.540144     2.532501     2.524858     2.517215     2.509572     2.501928     2.494285     2.486642     2.478999
      2.471355     2.463712     2.456069     2.448426     2.440783     2.433139     2.425496     2.417853     2.410210     2.402566
      2.394923     2.387280     2.379637     2.371994     2.364350     2.356707     2.349064     2.341421     2.333777     2.326134
      2.318491     2.310848     2.303205     2.295561     2.287918     2.280275     2.272632     2.264988     2.257345     2.249702
      2.242059     2.234416     2.226772     2.219129     2.211486     2.203843     2.196199     2.188556     2.180913     2.173270
      2.165627     2.157983     2.150340     2.142697     2.135054     2.127410     2.119767     2.112124     2.104481     2.096838
      2.089194     2.081551     2.073908     2.066265     2.058621     2.050978     2.043335     2.035692     2.028049     2.020405
      2.012762     2.005119     1.997476     1.989833     1.982190     1.974546     1.966903     1.959260     1.951617     1.943974
      1.936331     1.928688     1.921045     1.913402     1.905759     1.898115     1.890472     1.882829     1.875186     1.867543
      1.859900     1.852257     1.844614     1.836971     1.829327     1.821684     1.814041     1.806398     1.798755     1.791112
      1.783469     1.775826     1.768183     1.760540     1.752896     1.745253     1.737610     1.729967     1.722324     1.714681
      1.707038     1.699395     1.691752     1.684108     1.676465     1.668822     1.661179     1.653536     1.645893     1.638250
      1.630607     1.622964     1.615321     1.607677     1.600034     1.592391     1.584748     1.577105     1.569462     1.561819
      1.554176     1.546533     1.538890     1.531246     1.523603     1.515960     1.508317     1.500674     1.493031     1.485388
      1.477745     1.470102     1.462458     1.454815     1.447172     1.439529     1.431886     1.424243     1.416600     1.408957
      1.401314     1.393671     1.386027     1.378384     1.370741     1.363098     1.355455     1.347812     1.340169     1.332526
      1.324883     1.317240     1.309596     1.301953     1.294310     1.286667     1.279024     1.271381     1.263738     1.256095
      1.248452     1.240808     1.233165     1.225522     1.217879     1.210236     1.202593     1.194950     1.187307     1.179664
      1.172021     1.164377     1.156734     1.149091     1.141448     1.133805     1.126162     1.118519     1.110876     1.103233
      1.095590     1.087946     1.080303     1.072660     1.065017     1.057374     1.049731     1.042088     1.034445     1.026802
      1.019158     1.011515     1.003872     0.996229     0.988586     0.980943     0.973300     0.965657     0.958014     0.950371
      0.942727     0.935084     0.927441     0.919798     0.912155     0.904512     0.896869     0.889226     0.881583     0.873940
      0.866296     0.858653     0.851010     0.843367     0.835724     0.828081     0.820438     0.812795     0.805152     0.797508
      0.789865     0.782222     0.774579     0.766936     0.759293     0.751650     0.744007     0.736364     0.728721     0.721077
      0.713434     0.705791     0.698148     0.690505     0.682862     0.675219     0.667576     0.659933     0.652290     0.644646
      0.637003     0.629360     0.621717     0.614074     0.606431     0.598788     0.591145     0.583502     0.575858     0.568215
      0.560572     0.552929     0.545286     0.537643     0.530000     0.522357     0.514714     0.507071     0.499427     0.491784
      0.484141     0.476498     0.468855     0.461212     0.453569     0.445925     0.438282     0.430639     0.422996     0.415353
      0.407710     0.400067     0.392424     0.384780     0.377137     0.369494     0.361851     0.354208     0.346565     0.338922
      0.331278     0.323635     0.315992     0.308349     0.300706     0.293063     0.285420     0.277777     0.270133     0.262490
      0.254847     0.247204     0.239561     0.231918     0.224275     0.216631     0.208988     0.201345
 NY phased data points follow
   6.39186E+00  5.20640E+00  5.74603E+00  4.06938E+00  5.72001E+00  1.58949E+00  4.69845E+00  1.28553E+00  6.36311E+00  3.87703E+00
   4.57611E+00  3.41402E+00  7.71032E+00  6.45965E+00  7.14730E+00  4.55130E+00  8.82482E+00  3.64260E+00  7.04871E+00  1.77002E+00
   3.12383E+00  2.94437E+00  3.02231E+00  3.28001E+00  2.31233E+00  3.34425E+00  4.35303E+00  6.63433E-01  3.47099E+00  3.24594E+00
   3.34898E+00  2.63286E+00  3.92901E+00  3.63912E+00  2.81853E+00  3.42531E+00  3.07938E+00  1.64765E+00  1.79718E+00  2.19414E+00
   4.24653E+00  3.89972E+00  2.46437E+00  3.09320E+00  2.81873E+00 -5.11607E-01  1.72142E+00  4.92538E+00  2.18917E+00  4.90851E+00
   7.57857E+00  4.52227E+00  2.16884E+00  3.72864E-01  2.50077E+00  2.89446E+00  2.44157E+00  7.85687E-01  1.30459E+00  8.52374E-01
   1.89969E+00  2.70511E+00  8.85568E-01  1.10696E+00  1.36705E+00  2.35120E+00  2.07203E+00  5.85420E-01 -1.90397E+00 -7.34829E-01
   3.37832E+00  2.45748E+00  4.20847E+00  1.18661E+00  3.97142E+00  6.68369E-01  4.22551E+00  8.40832E-01  2.48081E+00 -5.91934E-02
   1.80883E+00  1.21746E+00 -7.92202E-01  8.47659E-01  1.90491E+00  3.34645E+00  1.06588E+00  1.55016E+00  9.76875E-03 -1.24408E+00
   3.82869E+00 -2.15369E+00  1.26146E-01  1.40366E+00  1.11918E+00  5.66540E-01 -2.71765E-01  8.28135E-01  4.36574E+00 -1.28038E+00
   2.58971E+00  4.38072E-01  4.24143E-01 -7.32981E-01  1.83787E+00  3.69636E+00  4.04558E+00  2.09618E+00  1.02532E+00  2.00376E+00
   3.41522E+00 -8.56156E-01  1.73531E+00 -3.27669E+00  2.27571E+00 -1.86159E+00  7.32711E-01 -3.54322E+00 -1.38132E-01  1.38198E+00
   9.88311E-01 -2.12731E+00  6.20389E-01 -7.66500E-01  4.23721E-01  1.01119E-01  2.02025E+00  1.69626E+00  6.61838E+00  3.95705E+00
   3.03840E+00  1.75179E+00  3.73130E-01  1.38846E+00  7.92023E-01 -7.79578E-01 -3.09839E-02 -3.66550E-01 -6.33905E-01 -1.78499E+00
  -3.69772E-01 -3.46553E+00 -2.39888E+00  2.53281E-01 -1.25339E+00 -6.43873E-01 -5.40310E-01 -2.10917E+00 -1.01082E+00  1.63861E+00
   3.49698E-01 -3.02778E+00 -4.11319E-01 -8.87993E-01 -5.69684E-01 -2.70626E+00 -3.15103E-01 -3.72303E-01 -5.16854E-01 -9.90314E-01
  -8.85626E-01 -2.84503E+00 -4.19744E-01 -2.56408E+00 -1.68213E+00 -3.37743E+00 -2.77100E+00 -2.17250E+00  2.62314E-01 -1.38477E+00
   1.61696E+00 -1.27907E-01 -7.23887E-01 -2.98247E+00 -1.04159E+00 -3.19160E+00 -2.55997E+00 -1.11071E+00 -2.22528E+00 -1.85420E+00
  -4.25741E-01  1.23378E+00 -1.34217E-01  1.14863E+00 -1.79853E+00  6.64078E-01  1.87341E+00  2.05282E-01  7.44117E-02  5.74962E-01
   5.41937E-01 -6.09708E-01 -1.80557E+00  1.34582E+00  2.48218E+00  9.16498E-01 -4.38351E-01 -5.57269E-01  5.61287E-01 -1.11025E+00
  -2.47417E+00 -2.16245E+00 -4.39591E-01  2.94955E-01  1.46453E+00  2.57879E+00 -1.77956E+00 -8.43051E-01 -6.35776E-01 -1.71157E+00
  -7.89469E-01 -2.52143E+00 -6.31278E-01  1.13663E+00  3.68424E+00 -2.85419E+00  3.20231E+00  1.22031E+00  2.01003E+00 -1.69495E+00
   7.73205E-01 -1.26952E+00 -2.73664E+00 -1.74773E+00  1.46065E+00  3.75099E-01  2.91157E+00  1.69411E-01 -9.66798E-01  2.23900E+00
  -1.17622E-01 -1.41062E+00 -1.17702E+00 -1.60916E-01 -5.71228E-01  1.27166E-02 -7.95012E-01  5.57212E-01  2.32666E+00  2.60423E-01
   1.63959E+00  9.49996E-01 -1.06394E+00 -2.16778E+00  2.48019E+00 -1.38951E+00  6.35674E-01 -3.95661E-01 -1.44815E+00  1.38988E+00
  -2.49258E-01  2.48429E-01  2.35530E-01 -9.84850E-02 -1.90557E+00 -2.61387E+00 -3.56101E+00 -1.35354E+00  1.07381E+00  3.96953E+00
   8.79702E+00  2.79959E+00  1.24271E+00 -5.59617E+00 -7.28005E-01  3.09303E-02  5.89941E-01 -3.70747E-01  1.29152E+00 -1.11282E+00
  -1.98916E+00  9.45508E-01  6.39547E-01  6.50022E-01 -7.71913E-01 -1.72752E-01 -3.67290E-01 -3.05569E+00 -1.51617E+00  1.33551E+00
   1.29353E+00 -2.33895E+00  3.49683E-01 -1.83935E+00  7.22528E-01 -2.94381E+00  2.41478E-01  4.40979E-01  8.81333E-01  7.45142E-02
   5.09460E-01 -2.34136E+00 -6.62734E-01 -2.47940E+00  3.28136E-01 -2.69005E+00  5.81527E-01 -8.73737E-01 -2.72037E+00 -6.82199E-01
  -2.90459E-02 -1.66962E+00 -4.04708E-01 -2.63198E+00 -1.99131E-01 -5.11566E-01  5.25991E-01  1.50900E-01 -8.21304E-01 -1.20142E+00
  -1.36914E-01 -3.34371E+00 -2.83023E+00 -1.57739E+00 -1.77249E+00 -3.57451E+00 -2.25125E+00 -2.98728E+00 -4.17949E+00 -3.77564E+00
  -4.05509E+00 -9.67647E-01 -2.64791E+00 -4.67331E+00 -3.07153E+00 -4.66190E+00 -3.54038E+00 -4.43678E+00 -5.55295E+00 -8.59844E+00
  -8.53022E+00 -9.04833E+00 -8.18204E+00 -8.56045E+00 -7.02486E+00 -8.73358E+00 -5.46023E+00 -4.71386E+00 -4.29260E+00 -3.60765E+00
  -2.02544E+00 -3.50198E+00 -1.97619E+00 -2.10460E+00  9.91331E-01  1.56849E+00  4.66532E+00  1.62223E+00  6.44010E+00  4.30300E+00
   7.84530E+00  7.09520E+00  4.93581E+00  6.17342E+00  2.94569E+00  2.93501E+00  1.19558E+00  2.19475E+00  2.89805E+00  7.02259E-01
   3.09831E+00  2.01587E+00  7.13099E-01  1.44078E+00  3.91333E+00  3.06119E+00  4.47538E+00  3.29906E-01  1.85475E+00  1.81507E+00
   3.30895E+00  2.56743E+00  4.39984E+00  3.59561E+00  2.86943E+00  1.01123E+00  3.18197E+00  3.17430E+00  3.10758E+00  2.05379E+00
   1.17531E+00 -2.26348E-02  3.23847E+00  2.79587E+00  4.24085E+00  3.32136E-01  5.08236E+00  1.08194E+00  2.34643E+00  2.07003E+00
   1.18750E+00  2.01493E+00  2.75618E+00  2.47098E+00  1.46725E-01  2.17222E+00  4.43035E+00  2.29994E+00  1.86041E+00 -8.63304E-01
   8.61977E-01  5.73733E-01  1.07496E+00 -1.22160E+00  7.35400E-01  6.82739E-01  9.64005E-01 -9.41465E-01  1.55597E-01  4.38285E-01
   5.62490E-01  6.48222E-01 -1.50625E-01  4.19740E+00  1.08903E+00 -6.56101E-01  1.39653E+00  2.35062E+00  1.62451E+00 -2.32237E+00
   1.40297E+00  9.06979E-01  4.01574E-02  1.36325E+00  3.15859E+00 -8.97340E-01  2.60017E+00  6.66784E-01 -4.43747E-01  3.82748E-01
   3.69074E-01 -1.00796E+00  5.26630E-01  2.96293E-01  2.41664E+00 -5.12372E-01 -1.07528E+00 -3.45821E-01 -7.52160E-01  7.31740E-01
  -1.17286E+00 -1.95858E+00 -3.31738E-01  2.89562E-01 -2.09370E-01  6.47743E-01  3.65930E-01 -2.27877E+00  1.30994E+00 -1.49420E+00
   6.25931E-01 -3.47629E-02 -5.14594E-01 -7.10528E-01  4.23400E-01 -2.13568E+00  1.15818E+00  3.05220E-01  2.33719E+00 -8.18540E-01
   3.21357E-01 -8.07478E-01  1.50490E+00 -4.12418E-01 -1.97808E+00  1.57069E+00 -5.68780E-01  6.60759E-01  1.77574E+00  3.56679E-01
   4.65017E-01  2.80667E+00  3.23238E+00  1.48205E+00  4.49731E-01 -1.41407E+00 -7.35556E-01 -9.29671E-02 -1.17509E+00  1.25126E+00
   2.15409E+00  3.22618E-01  9.07148E-01 -1.42959E+00 -5.76880E-01  7.09777E-01 -2.80510E-01 -5.66008E-01 -1.55093E-01  1.03743E+00
   1.40814E+00  1.32404E+00  1.61085E+00  1.42829E-01  8.60911E-02  7.24624E-01 -2.73940E+00 -2.52492E+00
 NY points of the fit to the data follow
   3.20551E+00  3.16756E+00  3.13477E+00  3.09648E+00  3.03106E+00  2.93268E+00  2.85477E+00  3.01435E+00  3.51285E+00  4.20167E+00
   4.85153E+00  5.23276E+00  5.18502E+00  4.71861E+00  4.06148E+00  3.49671E+00  3.16661E+00  3.05002E+00  3.07371E+00  3.17901E+00
   3.35508E+00  3.54630E+00  3.65003E+00  3.56808E+00  3.27160E+00  2.81975E+00  2.33540E+00  1.99708E+00  1.97840E+00  2.31053E+00
   2.85059E+00  3.37610E+00  3.69207E+00  3.68868E+00  3.39133E+00  2.95999E+00  2.57590E+00  2.35486E+00  2.30882E+00  2.37095E+00
   2.45317E+00  2.50267E+00  2.52492E+00  2.56245E+00  2.63748E+00  2.73171E+00  2.80341E+00  2.81174E+00  2.73793E+00  2.59697E+00
   2.43544E+00  2.30335E+00  2.22351E+00  2.18446E+00  2.16684E+00  2.16384E+00  2.17428E+00  2.19707E+00  2.22304E+00  2.23655E+00
   2.22287E+00  2.17639E+00  2.10757E+00  2.03576E+00  1.97933E+00  1.94613E+00  1.92904E+00  1.92162E+00  1.91984E+00  1.91719E+00
   1.91303E+00  1.91230E+00  1.91265E+00  1.90616E+00  1.88687E+00  1.85267E+00  1.80418E+00  1.74814E+00  1.69617E+00  1.65645E+00
   1.63103E+00  1.62516E+00  1.63650E+00  1.64556E+00  1.63300E+00  1.59049E+00  1.52097E+00  1.43905E+00  1.36625E+00  1.31880E+00
   1.29701E+00  1.28736E+00  1.27688E+00  1.25795E+00  1.23397E+00  1.20678E+00  1.17259E+00  1.13413E+00  1.12649E+00  1.17207E+00
   1.25283E+00  1.33757E+00  1.38869E+00  1.37643E+00  1.29674E+00  1.18038E+00  1.07028E+00  9.89761E-01  9.34977E-01  8.92934E-01
   8.52916E-01  8.11694E-01  7.70059E-01  7.26983E-01  6.81351E-01  6.30571E-01  5.72649E-01  5.07111E-01  4.32074E-01  3.43956E-01
   2.37960E-01  1.07613E-01  2.39885E-03  2.33225E-01  9.68764E-01  2.02346E+00  3.08001E+00  3.80178E+00  3.93369E+00  3.46176E+00
   2.66482E+00  1.92370E+00  1.44468E+00  1.20025E+00  1.08360E+00  1.00312E+00  9.33386E-01  8.83441E-01  8.49959E-01  8.26044E-01
   8.05433E-01  7.85697E-01  7.68281E-01  7.53797E-01  7.41698E-01  7.29954E-01  7.15922E-01  6.99060E-01  6.81855E-01  6.67335E-01
   6.56763E-01  6.49293E-01  6.44119E-01  6.41136E-01  6.40872E-01  6.41155E-01  6.28649E-01  5.94160E-01  5.42004E-01  4.85845E-01
   4.49695E-01  4.45718E-01  4.66553E-01  4.93314E-01  5.03519E-01  4.84724E-01  4.41557E-01  3.89517E-01  3.42860E-01  3.04624E-01
   2.69287E-01  2.25095E-01  1.62189E-01  9.33809E-02  3.55803E-02 -1.24855E-03 -2.27834E-02 -4.21611E-02 -6.94860E-02 -1.10483E-01
  -1.57994E-01 -1.99452E-01 -2.36640E-01 -2.76180E-01 -3.15753E-01 -3.49664E-01 -3.65729E-01 -3.54583E-01 -3.22394E-01 -2.95484E-01
  -2.97895E-01 -3.35615E-01 -3.99536E-01 -4.77795E-01 -5.61671E-01 -6.45298E-01 -7.18424E-01 -7.57121E-01 -7.37345E-01 -6.48459E-01
  -4.95595E-01 -2.98828E-01 -1.12421E-01  3.08211E-03  1.46342E-02 -1.45489E-01 -5.02223E-01 -9.68336E-01 -1.42719E+00 -1.76199E+00
  -1.87142E+00 -1.65689E+00 -1.15095E+00 -5.35124E-01  3.20208E-03  3.32138E-01  3.70674E-01  8.50265E-02 -4.77787E-01 -1.15206E+00
  -1.72704E+00 -2.07390E+00 -2.13024E+00 -1.90896E+00 -1.51343E+00 -1.10050E+00 -8.03924E-01 -6.69089E-01 -6.61233E-01 -7.18871E-01
  -7.91970E-01 -8.74417E-01 -9.68000E-01 -1.05151E+00 -1.10485E+00 -1.11585E+00 -1.07023E+00 -9.55040E-01 -8.43195E-01 -8.07024E-01
  -8.62899E-01 -9.84871E-01 -1.13641E+00 -1.26275E+00 -1.32528E+00 -1.34327E+00 -1.36484E+00 -1.41754E+00 -1.49050E+00 -1.55952E+00
  -1.59917E+00 -1.60480E+00 -1.60237E+00 -1.66303E+00 -1.86256E+00 -2.00661E+00 -1.64906E+00 -7.21276E-01  5.55576E-01  1.82856E+00
   2.68848E+00  2.83580E+00  2.32606E+00  1.53900E+00  8.60807E-01  4.28548E-01  1.87808E-01  3.39524E-02 -1.11996E-01 -2.48968E-01
  -3.63810E-01 -4.48696E-01 -5.02855E-01 -5.33587E-01 -5.57119E-01 -5.88976E-01 -6.38152E-01 -7.03225E-01 -7.77566E-01 -8.54487E-01
  -9.28834E-01 -9.96814E-01 -1.05648E+00 -1.10902E+00 -1.15764E+00 -1.20468E+00 -1.25126E+00 -1.29830E+00 -1.34571E+00 -1.39312E+00
  -1.44032E+00 -1.48738E+00 -1.53436E+00 -1.58119E+00 -1.62773E+00 -1.67392E+00 -1.71981E+00 -1.76565E+00 -1.81161E+00 -1.85771E+00
  -1.90398E+00 -1.95048E+00 -1.99734E+00 -2.04478E+00 -2.09307E+00 -2.14242E+00 -2.19290E+00 -2.24453E+00 -2.29738E+00 -2.35153E+00
  -2.40712E+00 -2.46428E+00 -2.52311E+00 -2.58374E+00 -2.64622E+00 -2.71055E+00 -2.77656E+00 -2.84376E+00 -2.91101E+00 -2.97539E+00
  -3.02779E+00 -3.02519E+00 -2.81097E+00 -2.35208E+00 -1.86574E+00 -1.59073E+00 -1.70324E+00 -2.27612E+00 -3.23557E+00 -4.42209E+00
  -5.57269E+00 -6.35919E+00 -6.66914E+00 -6.53877E+00 -6.08472E+00 -5.50110E+00 -5.02404E+00 -4.80173E+00 -4.76708E+00 -4.70812E+00
  -4.44122E+00 -3.87943E+00 -3.01360E+00 -1.88600E+00 -5.69239E-01  8.33769E-01  2.20557E+00  3.43245E+00  4.42426E+00  5.12793E+00
   5.53781E+00  5.69346E+00  5.64810E+00  5.45896E+00  5.18279E+00  4.86573E+00  4.53951E+00  4.22497E+00  3.94052E+00  3.70174E+00
   3.51446E+00  3.37399E+00  3.26973E+00  3.18935E+00  3.12325E+00  3.06414E+00  3.00666E+00  2.94714E+00  2.88328E+00  2.81382E+00
   2.73830E+00  2.65683E+00  2.56988E+00  2.47821E+00  2.38271E+00  2.28435E+00  2.18411E+00  2.08292E+00  1.98169E+00  1.88122E+00
   1.78225E+00  1.68541E+00  1.59125E+00  1.50024E+00  1.41280E+00  1.32928E+00  1.24998E+00  1.17517E+00  1.10509E+00  1.03997E+00
   9.80023E-01  9.25425E-01  8.76339E-01  8.32895E-01  7.95189E-01  7.63266E-01  7.37116E-01  7.16644E-01  7.01679E-01  6.91953E-01
   6.87113E-01  6.86703E-01  6.90183E-01  6.96920E-01  7.06223E-01  7.17350E-01  7.29542E-01  7.42035E-01  7.54095E-01  7.65030E-01
   7.74229E-01  7.81171E-01  7.85447E-01  7.86753E-01  7.84909E-01  7.79839E-01  7.71586E-01  7.60280E-01  7.46138E-01  7.29430E-01
   7.10476E-01  6.89617E-01  6.67215E-01  6.43624E-01  6.19187E-01  5.94216E-01  5.68994E-01  5.43769E-01  5.18761E-01  4.94146E-01
   4.70071E-01  4.46644E-01  4.23951E-01  4.02048E-01  3.80977E-01  3.60757E-01  3.41396E-01  3.22884E-01  3.05210E-01  2.88354E-01
   2.72297E-01  2.57012E-01  2.42471E-01  2.28643E-01  2.15500E-01  2.03014E-01  1.91162E-01  1.79913E-01  1.69242E-01  1.59123E-01
   1.49535E-01  1.40457E-01  1.31873E-01  1.23758E-01  1.16096E-01  1.08868E-01  1.02063E-01  9.56634E-02  8.96567E-02  8.40247E-02
   7.87559E-02  7.38382E-02  6.92647E-02  6.50234E-02  6.11052E-02  5.74960E-02  5.41883E-02  5.11727E-02  4.84442E-02  4.59923E-02
   4.38097E-02  4.18857E-02  4.02168E-02  3.87964E-02  3.76207E-02  3.66802E-02  3.59682E-02  3.54763E-02  3.52022E-02  3.51395E-02
   3.52846E-02  3.56277E-02  3.61638E-02  3.68856E-02  3.77921E-02  3.88762E-02  4.01331E-02  4.15526E-02  4.31294E-02  4.48566E-02
   4.67314E-02  4.87450E-02  5.08895E-02  5.31526E-02  5.55272E-02  5.80034E-02  6.05737E-02  6.32230E-02
 NY background values follow
     3.463E+00    3.443E+00    3.423E+00    3.403E+00    3.382E+00    3.362E+00    3.342E+00    3.322E+00    3.302E+00    3.282E+00
     3.262E+00    3.241E+00    3.221E+00    3.201E+00    3.181E+00    3.161E+00    3.141E+00    3.121E+00    3.101E+00    3.081E+00
     3.061E+00    3.041E+00    3.021E+00    3.001E+00    2.981E+00    2.962E+00    2.942E+00    2.922E+00    2.902E+00    2.882E+00
     2.862E+00    2.843E+00    2.823E+00    2.803E+00    2.784E+00    2.764E+00    2.744E+00    2.725E+00    2.705E+00    2.685E+00
     2.666E+00    2.646E+00    2.627E+00    2.607E+00    2.588E+00    2.568E+00    2.549E+00    2.530E+00    2.510E+00    2.491E+00
     2.472E+00    2.452E+00    2.433E+00    2.414E+00    2.395E+00    2.375E+00    2.356E+00    2.337E+00    2.318E+00    2.299E+00
     2.280E+00    2.261E+00    2.242E+00    2.223E+00    2.204E+00    2.185E+00    2.166E+00    2.147E+00    2.128E+00    2.109E+00
     2.091E+00    2.072E+00    2.053E+00    2.035E+00    2.016E+00    1.997E+00    1.979E+00    1.960E+00    1.942E+00    1.923E+00
     1.905E+00    1.886E+00    1.868E+00    1.850E+00    1.831E+00    1.813E+00    1.795E+00    1.776E+00    1.758E+00    1.740E+00
     1.722E+00    1.704E+00    1.686E+00    1.668E+00    1.650E+00    1.632E+00    1.614E+00    1.596E+00    1.578E+00    1.561E+00
     1.543E+00    1.525E+00    1.507E+00    1.490E+00    1.472E+00    1.455E+00    1.437E+00    1.420E+00    1.402E+00    1.385E+00
     1.367E+00    1.350E+00    1.333E+00    1.316E+00    1.298E+00    1.281E+00    1.264E+00    1.247E+00    1.230E+00    1.213E+00
     1.196E+00    1.179E+00    1.162E+00    1.145E+00    1.129E+00    1.112E+00    1.095E+00    1.079E+00    1.062E+00    1.045E+00
     1.029E+00    1.012E+00    9.959E-01    9.795E-01    9.632E-01    9.469E-01    9.306E-01    9.144E-01    8.982E-01    8.821E-01
     8.661E-01    8.500E-01    8.341E-01    8.181E-01    8.023E-01    7.864E-01    7.706E-01    7.549E-01    7.392E-01    7.236E-01
     7.080E-01    6.924E-01    6.769E-01    6.615E-01    6.461E-01    6.308E-01    6.155E-01    6.002E-01    5.850E-01    5.699E-01
     5.548E-01    5.397E-01    5.248E-01    5.098E-01    4.949E-01    4.801E-01    4.653E-01    4.506E-01    4.359E-01    4.213E-01
     4.067E-01    3.922E-01    3.777E-01    3.633E-01    3.489E-01    3.346E-01    3.204E-01    3.062E-01    2.920E-01    2.779E-01
     2.639E-01    2.499E-01    2.360E-01    2.221E-01    2.083E-01    1.946E-01    1.809E-01    1.672E-01    1.536E-01    1.401E-01
     1.266E-01    1.132E-01    9.983E-02    8.653E-02    7.328E-02    6.010E-02    4.696E-02    3.389E-02    2.088E-02    7.923E-03
    -4.974E-03   -1.781E-02   -3.059E-02   -4.331E-02   -5.597E-02   -6.857E-02   -8.111E-02   -9.359E-02   -1.060E-01   -1.184E-01
    -1.307E-01   -1.429E-01   -1.551E-01   -1.672E-01   -1.793E-01   -1.912E-01   -2.032E-01   -2.151E-01   -2.269E-01   -2.386E-01
    -2.503E-01   -2.619E-01   -2.735E-01   -2.850E-01   -2.964E-01   -3.078E-01   -3.191E-01   -3.303E-01   -3.415E-01   -3.526E-01
    -3.637E-01   -3.746E-01   -3.856E-01   -3.964E-01   -4.072E-01   -4.179E-01   -4.286E-01   -4.392E-01   -4.497E-01   -4.602E-01
    -4.706E-01   -4.809E-01   -4.912E-01   -5.014E-01   -5.115E-01   -5.216E-01   -5.316E-01   -5.415E-01   -5.514E-01   -5.612E-01
    -5.709E-01   -5.806E-01   -5.902E-01   -5.997E-01   -6.092E-01   -6.186E-01   -6.279E-01   -6.372E-01   -6.464E-01   -6.555E-01
    -6.645E-01   -6.735E-01   -6.824E-01   -6.913E-01   -7.000E-01   -7.087E-01   -7.174E-01   -7.259E-01   -7.344E-01   -7.429E-01
    -7.512E-01   -7.595E-01   -7.677E-01   -7.759E-01   -7.839E-01   -7.919E-01   -7.999E-01   -8.077E-01   -8.155E-01   -8.232E-01
    -8.309E-01   -8.384E-01   -8.459E-01   -8.533E-01   -8.607E-01   -8.680E-01   -8.752E-01   -8.823E-01   -8.894E-01   -8.964E-01
    -9.033E-01   -9.101E-01   -9.169E-01   -9.236E-01   -9.302E-01   -9.368E-01   -9.432E-01   -9.496E-01   -9.560E-01   -9.622E-01
    -9.684E-01   -9.745E-01   -9.805E-01   -9.865E-01   -9.924E-01   -9.982E-01   -1.004E+00   -1.010E+00   -1.015E+00   -1.021E+00
    -1.026E+00   -1.031E+00   -1.037E+00   -1.042E+00   -1.047E+00   -1.052E+00   -1.057E+00   -1.062E+00   -1.067E+00   -1.071E+00
    -1.076E+00   -1.081E+00   -1.085E+00   -1.090E+00   -1.094E+00   -1.098E+00   -1.103E+00   -1.107E+00   -1.111E+00   -1.115E+00
    -1.119E+00   -1.122E+00   -1.126E+00   -1.130E+00   -1.133E+00   -1.137E+00   -1.140E+00   -1.144E+00   -1.147E+00   -1.150E+00
    -1.153E+00   -1.156E+00   -1.159E+00   -1.162E+00   -1.165E+00   -1.167E+00   -1.170E+00   -1.173E+00   -1.175E+00   -1.178E+00
    -1.180E+00   -1.182E+00   -1.184E+00   -1.186E+00   -1.188E+00   -1.190E+00   -1.192E+00   -1.194E+00   -1.195E+00   -1.197E+00
    -1.199E+00   -1.200E+00   -1.201E+00   -1.203E+00   -1.204E+00   -1.205E+00   -1.206E+00   -1.207E+00   -1.208E+00   -1.209E+00
    -1.209E+00   -1.210E+00   -1.210E+00   -1.211E+00   -1.211E+00   -1.212E+00   -1.212E+00   -1.212E+00   -1.212E+00   -1.212E+00
    -1.212E+00   -1.212E+00   -1.211E+00   -1.211E+00   -1.210E+00   -1.210E+00   -1.209E+00   -1.209E+00   -1.208E+00   -1.207E+00
    -1.206E+00   -1.205E+00   -1.204E+00   -1.203E+00   -1.202E+00   -1.200E+00   -1.199E+00   -1.197E+00   -1.196E+00   -1.194E+00
    -1.192E+00   -1.190E+00   -1.188E+00   -1.186E+00   -1.184E+00   -1.182E+00   -1.180E+00   -1.177E+00   -1.175E+00   -1.172E+00
    -1.170E+00   -1.167E+00   -1.164E+00   -1.162E+00   -1.159E+00   -1.156E+00   -1.152E+00   -1.149E+00   -1.146E+00   -1.143E+00
    -1.139E+00   -1.136E+00   -1.132E+00   -1.128E+00   -1.125E+00   -1.121E+00   -1.117E+00   -1.113E+00   -1.109E+00   -1.104E+00
    -1.100E+00   -1.096E+00   -1.091E+00   -1.087E+00   -1.082E+00   -1.077E+00   -1.073E+00   -1.068E+00   -1.063E+00   -1.058E+00
    -1.053E+00   -1.047E+00   -1.042E+00   -1.037E+00   -1.031E+00   -1.026E+00   -1.020E+00   -1.014E+00   -1.009E+00   -1.003E+00
    -9.967E-01   -9.907E-01   -9.845E-01   -9.783E-01   -9.720E-01   -9.656E-01   -9.591E-01   -9.526E-01   -9.459E-01   -9.392E-01
    -9.323E-01   -9.254E-01   -9.184E-01   -9.114E-01   -9.042E-01   -8.970E-01   -8.896E-01   -8.822E-01   -8.747E-01   -8.671E-01
    -8.595E-01   -8.517E-01   -8.439E-01   -8.359E-01   -8.279E-01   -8.198E-01   -8.117E-01   -8.034E-01   -7.951E-01   -7.866E-01
    -7.781E-01   -7.695E-01   -7.608E-01   -7.521E-01   -7.432E-01   -7.343E-01   -7.252E-01   -7.161E-01   -7.069E-01   -6.977E-01
    -6.883E-01   -6.789E-01   -6.693E-01   -6.597E-01   -6.500E-01   -6.402E-01   -6.304E-01   -6.204E-01
 Ala      Conc. = 9.87E+01
