 LCModel (Version 6.3-1L) Copyright: S.W. Provencher.          Ref.: Magn. Reson. Med. 30:672-679 (1993).                
 Slice#1 Row#5 Col#8  PD_24_press_2_raw_act
 36 lines in following concentration table = NCONC+1
    Conc.  %SD /Cr+PCr  Metabolite                                         
    0.000 999%   0.000 Ala                                                 
  137.916 171%   0.112 Asp                                                 
 1.02E+03  37%   0.833 Cr                                                  
  205.505 187%   0.167 PCr                                                 
  194.477  74%   0.158 GABA                                                
  176.475  82%   0.144 Glc                                                 
    0.000 999%   0.000 Gln                                                 
 2.25E+03  24%   1.834 Glu                                                 
  556.019   8%   0.453 GPC                                                 
    0.000 999%   0.000 PCh                                                 
  482.751  31%   0.393 GSH                                                 
 1.32E+03  37%   1.073 Ins                                                 
    0.000 999%   0.000 Lac                                                 
 1.84E+03  10%   1.499 NAA                                                 
  693.434  30%   0.565 NAAG                                                
   44.480  87% 3.6E-02 Scyllo                                              
  172.290 131%   0.140 Tau                                                 
    0.000 999%   0.000 -CrCH2                                              
  556.019   8%   0.453 GPC+PCh                                             
 2.53E+03   7%   2.064 NAA+NAAG                                            
 1.23E+03   9%   1.000 Cr+PCr                                              
 2.25E+03  24%   1.834 Glu+Gln                                             
 4.81E+03  22%   3.920 Lip13a                                              
    0.000 999%   0.000 Lip13b                                              
    0.000 999%   0.000 Lip09                                               
 2.95E+03  13%   2.403 MM09                                                
  768.458  71%   0.626 Lip20                                               
 6.04E+03  13%   4.923 MM20                                                
  933.851  35%   0.761 MM12                                                
 3.57E+03  22%   2.908 MM14                                                
 1.70E+03  26%   1.384 MM17                                                
 4.81E+03  22%   3.920 Lip13a+Lip13b                                       
 9.31E+03   9%   7.589 MM14+Lip13a+Lip13b+MM12                             
 2.95E+03  13%   2.403 MM09+Lip09                                          
 6.81E+03  12%   5.549 MM20+Lip20                                          
   6 lines in following misc. output table
  FWHM = 0.054 ppm    S/N =   6                                            
  Data shift = 0.023 ppm                                                   
  Ph:  10 deg      19.3 deg/ppm                                            
  alphaB,S = 2.3E+00,   1.0E+02                                            
   14 spline knots.   Ns = 6(1)                                            
  ( 7) 4 infls.   ( 5) 1 extrs.                                            
  498 points on ppm-axis = NY
      4.000000     3.992357     3.984714     3.977070     3.969427     3.961784     3.954141     3.946497     3.938854     3.931211
      3.923568     3.915925     3.908281     3.900638     3.892995     3.885352     3.877708     3.870065     3.862422     3.854779
      3.847136     3.839492     3.831849     3.824206     3.816563     3.808919     3.801276     3.793633     3.785990     3.778347
      3.770703     3.763060     3.755417     3.747774     3.740130     3.732487     3.724844     3.717201     3.709558     3.701914
      3.694271     3.686628     3.678985     3.671341     3.663698     3.656055     3.648412     3.640769     3.633125     3.625482
      3.617839     3.610196     3.602552     3.594909     3.587266     3.579623     3.571980     3.564336     3.556693     3.549050
      3.541407     3.533763     3.526120     3.518477     3.510834     3.503191     3.495547     3.487904     3.480261     3.472618
      3.464974     3.457331     3.449688     3.442045     3.434402     3.426758     3.419115     3.411472     3.403829     3.396185
      3.388542     3.380899     3.373256     3.365613     3.357969     3.350326     3.342683     3.335040     3.327396     3.319753
      3.312110     3.304467     3.296824     3.289180     3.281537     3.273894     3.266251     3.258607     3.250964     3.243321
      3.235678     3.228034     3.220391     3.212748     3.205105     3.197462     3.189818     3.182175     3.174532     3.166889
      3.159245     3.151602     3.143959     3.136316     3.128673     3.121029     3.113386     3.105743     3.098100     3.090456
      3.082813     3.075170     3.067527     3.059884     3.052240     3.044597     3.036954     3.029311     3.021667     3.014024
      3.006381     2.998738     2.991095     2.983451     2.975808     2.968165     2.960522     2.952878     2.945235     2.937592
      2.929949     2.922306     2.914662     2.907019     2.899376     2.891733     2.884089     2.876446     2.868803     2.861160
      2.853517     2.845873     2.838230     2.830587     2.822944     2.815300     2.807657     2.800014     2.792371     2.784728
      2.777084     2.769441     2.761798     2.754155     2.746511     2.738868     2.731225     2.723582     2.715939     2.708295
      2.700652     2.693009     2.685366     2.677722     2.670079     2.662436     2.654793     2.647150     2.639506     2.631863
      2.624220     2.616577     2.608933     2.601290     2.593647     2.586004     2.578361     2.570717     2.563074     2.555431
      2.547788     2.540144     2.532501     2.524858     2.517215     2.509572     2.501928     2.494285     2.486642     2.478999
      2.471355     2.463712     2.456069     2.448426     2.440783     2.433139     2.425496     2.417853     2.410210     2.402566
      2.394923     2.387280     2.379637     2.371994     2.364350     2.356707     2.349064     2.341421     2.333777     2.326134
      2.318491     2.310848     2.303205     2.295561     2.287918     2.280275     2.272632     2.264988     2.257345     2.249702
      2.242059     2.234416     2.226772     2.219129     2.211486     2.203843     2.196199     2.188556     2.180913     2.173270
      2.165627     2.157983     2.150340     2.142697     2.135054     2.127410     2.119767     2.112124     2.104481     2.096838
      2.089194     2.081551     2.073908     2.066265     2.058621     2.050978     2.043335     2.035692     2.028049     2.020405
      2.012762     2.005119     1.997476     1.989833     1.982190     1.974546     1.966903     1.959260     1.951617     1.943974
      1.936331     1.928688     1.921045     1.913402     1.905759     1.898115     1.890472     1.882829     1.875186     1.867543
      1.859900     1.852257     1.844614     1.836971     1.829327     1.821684     1.814041     1.806398     1.798755     1.791112
      1.783469     1.775826     1.768183     1.760540     1.752896     1.745253     1.737610     1.729967     1.722324     1.714681
      1.707038     1.699395     1.691752     1.684108     1.676465     1.668822     1.661179     1.653536     1.645893     1.638250
      1.630607     1.622964     1.615321     1.607677     1.600034     1.592391     1.584748     1.577105     1.569462     1.561819
      1.554176     1.546533     1.538890     1.531246     1.523603     1.515960     1.508317     1.500674     1.493031     1.485388
      1.477745     1.470102     1.462458     1.454815     1.447172     1.439529     1.431886     1.424243     1.416600     1.408957
      1.401314     1.393671     1.386027     1.378384     1.370741     1.363098     1.355455     1.347812     1.340169     1.332526
      1.324883     1.317240     1.309596     1.301953     1.294310     1.286667     1.279024     1.271381     1.263738     1.256095
      1.248452     1.240808     1.233165     1.225522     1.217879     1.210236     1.202593     1.194950     1.187307     1.179664
      1.172021     1.164377     1.156734     1.149091     1.141448     1.133805     1.126162     1.118519     1.110876     1.103233
      1.095590     1.087946     1.080303     1.072660     1.065017     1.057374     1.049731     1.042088     1.034445     1.026802
      1.019158     1.011515     1.003872     0.996229     0.988586     0.980943     0.973300     0.965657     0.958014     0.950371
      0.942727     0.935084     0.927441     0.919798     0.912155     0.904512     0.896869     0.889226     0.881583     0.873940
      0.866296     0.858653     0.851010     0.843367     0.835724     0.828081     0.820438     0.812795     0.805152     0.797508
      0.789865     0.782222     0.774579     0.766936     0.759293     0.751650     0.744007     0.736364     0.728721     0.721077
      0.713434     0.705791     0.698148     0.690505     0.682862     0.675219     0.667576     0.659933     0.652290     0.644646
      0.637003     0.629360     0.621717     0.614074     0.606431     0.598788     0.591145     0.583502     0.575858     0.568215
      0.560572     0.552929     0.545286     0.537643     0.530000     0.522357     0.514714     0.507071     0.499427     0.491784
      0.484141     0.476498     0.468855     0.461212     0.453569     0.445925     0.438282     0.430639     0.422996     0.415353
      0.407710     0.400067     0.392424     0.384780     0.377137     0.369494     0.361851     0.354208     0.346565     0.338922
      0.331278     0.323635     0.315992     0.308349     0.300706     0.293063     0.285420     0.277777     0.270133     0.262490
      0.254847     0.247204     0.239561     0.231918     0.224275     0.216631     0.208988     0.201345
 NY phased data points follow
   4.47448E+01  3.37671E+01  3.88199E+01  3.64318E+01  4.39639E+01  4.73164E+01  3.97904E+01  4.57830E+01  4.78371E+01  5.76510E+01
   5.80918E+01  5.87118E+01  4.34360E+01  5.78605E+01  4.64325E+01  5.31123E+01  4.56503E+01  4.67960E+01  2.92491E+01  3.69520E+01
   4.73037E+01  3.59838E+01  2.41964E+01  3.07468E+01  1.91565E+01  3.71568E+01  3.64138E+01  3.70929E+01  3.51523E+01  4.01697E+01
   3.85035E+01  3.65390E+01  2.68422E+01  4.19946E+01  3.62552E+01  4.06144E+01  3.07732E+01  3.12576E+01  3.74852E+01  3.15672E+01
   2.56774E+01  4.45846E+01  1.68077E+01  4.43709E+01  2.50891E+01  3.35973E+01  1.92704E+01  3.12992E+01  2.80793E+01  2.74215E+01
   2.48471E+01  3.50156E+01  2.64004E+01  4.23422E+01  2.26528E+01  2.28657E+01  3.19769E+01  2.89601E+01  3.32161E+01  3.56920E+01
   2.56551E+01  1.47467E+01  2.48361E+01  2.52571E+01  2.64536E+01  2.51135E+01  1.81689E+01  2.88772E+01  5.18337E+00  2.02529E+01
   1.45786E+01  1.25493E+01  6.98245E+00  2.56287E+01  1.29078E+01  2.06999E+01  1.83790E+01  1.12359E+01  1.81607E+01  2.20387E+01
   1.15298E+01  1.06488E+01  1.64930E+01  2.91555E+01  8.63946E+00  7.08592E+00  3.08845E+00  2.60458E+01  2.14185E+01  1.12091E+01
   1.54527E+01  1.34574E+01  1.51836E+01  2.07720E+01  1.16715E+01  1.83449E+01  1.18491E+01  4.65494E+00  2.40850E+01  2.13716E+01
   2.80560E+01  4.72386E+01  7.72990E+01  6.83782E+01  6.33860E+01  4.71572E+01  3.49732E+01  4.49576E+01  3.34366E+01  3.17988E+01
   3.33857E+01  1.91527E+01  1.14955E+01  1.40648E+01  9.33511E+00  1.25944E+01  1.18916E+01  1.61087E+01  9.20874E+00  1.93280E+01
   1.06312E+01  2.33495E+00 -6.34635E-01  1.80004E+01  3.54345E+01  5.33197E+01  6.35208E+01  5.64124E+01  5.05804E+01  4.23535E+01
   3.57444E+01  2.08219E+01  2.19443E+01  1.68209E+01  1.13207E+01  1.82191E+01  4.88087E+00  6.78453E+00  6.27261E+00  7.23248E+00
   7.06925E+00  1.93876E+01 -2.37076E+00 -2.59142E+00  4.58373E+00  1.72185E+00  1.94824E+01  1.08686E+01  6.49305E+00  2.45632E+00
   3.16311E+00  7.95662E+00  1.34496E+01  7.27899E+00  8.19215E+00  4.52260E+00  7.68715E+00  6.25290E+00  5.25768E+00  1.13631E+01
   4.29181E+00 -2.12302E+00 -7.35625E+00 -6.75120E-01  9.69776E+00  2.20063E+00 -1.14860E+01  5.47441E+00 -8.62100E+00  3.43618E+00
  -6.17488E+00 -6.63833E+00 -8.84449E+00 -1.00885E+01 -8.22566E+00 -1.05534E+01 -2.13484E+01 -2.37189E+01 -1.27599E+01 -5.93070E+00
  -1.53245E+01 -9.33455E+00 -1.03426E+01 -4.36566E+00 -1.25014E+01  4.03928E+00 -1.50447E+01 -1.95037E+01 -1.13857E+01 -1.51369E+00
  -9.07023E-01 -3.34630E+00 -1.09890E+01 -1.50065E+00 -1.15329E+01 -3.71355E+00 -1.05257E+00 -5.14074E+00 -1.28016E+01 -6.15163E+00
  -1.93977E+01 -7.09013E+00 -1.44374E+01  8.40295E+00 -1.76307E+00 -1.01694E+01  4.70387E-01 -6.03109E+00 -2.86869E+00 -4.79716E-01
  -8.94254E+00  1.07726E+01  4.07025E-02  4.72134E+00  9.41893E+00  9.30661E+00  1.20504E+01  7.97502E+00  6.98180E+00 -1.33973E+00
  -8.18572E+00 -2.16695E+01 -2.61590E+00 -3.60320E+00 -5.68973E+00 -6.05601E+00  2.48710E+00  1.10744E+01  1.19103E+01  5.46261E-01
   5.74813E+00  1.87169E+00  7.16017E+00  1.50621E+01  4.36480E+00  3.23424E+00 -2.56768E+00  2.12240E+01  5.81772E+00  9.32878E+00
   1.28880E+01  1.21374E+01  5.84422E+00  1.54391E+01  7.72435E+00  2.27752E+01  2.57168E+01  2.60470E+01  2.75477E+01  2.84331E+01
   3.47045E+01  3.28694E+01  3.43435E+01  3.48231E+01  3.83763E+01  4.97706E+01  6.24176E+01  6.96574E+01  8.02415E+01  8.77102E+01
   9.48377E+01  9.20509E+01  6.73545E+01  4.28928E+01  3.50242E+01  2.43999E+01  2.32914E+01  1.81038E+01  1.11659E+01  1.28472E+01
   2.22040E+00 -7.67669E+00 -3.34109E+00  7.34200E+00  2.65580E+00  3.42771E+00 -3.39504E+00  5.20095E+00 -6.15007E+00 -4.06454E+00
   5.72452E-01 -4.89213E+00  8.55793E-01 -8.80828E+00 -1.19127E+01  3.73781E+00 -4.23493E+00 -2.88697E+00  4.74080E+00  1.30551E+01
   1.40846E+01  1.74869E+01 -1.70279E+00 -9.56750E-02  7.50722E+00  5.75441E+00 -1.16993E+00  3.64887E+00 -6.84316E+00 -4.97329E+00
   2.88383E-01 -1.40408E+01 -1.66167E+01  3.27619E+00 -6.84038E+00 -6.92024E+00  2.98166E+00 -4.05919E+00 -1.50773E+00 -8.87930E+00
  -7.68290E+00  1.01914E+01 -3.13919E+00 -1.35820E+01 -1.00992E+01 -1.71364E+01 -7.24742E+00 -4.63317E+00 -1.90787E+01  5.43374E-01
  -4.94260E-01  3.78269E+00 -1.80564E+00 -1.32753E+00 -2.40061E+00  1.35534E+00 -8.06139E+00  8.36030E+00  4.49161E+00  1.67299E+01
   3.57719E+00  1.56097E+01  2.11279E+01  1.19237E+01  7.80954E+00  2.10875E+00 -2.63769E+00  2.07738E+00  1.37939E+01  6.03989E+00
   1.33600E+01  1.08148E+01  1.84864E+01  2.30455E+01  1.00576E+00  1.51530E+01  7.93096E+00  2.09244E+01  2.04134E+01  1.66677E+01
   1.80860E+01  1.84940E+01  1.20741E+01  2.59890E+01  1.00791E+01  1.01381E+01  2.19514E+01  1.10148E+01  1.32550E+01  1.82261E+01
   1.89941E+01  9.85468E+00  1.49598E+01  3.37720E+00  1.68576E+01  5.07916E+00  5.89862E+00  4.77320E+00  9.78365E+00  1.28991E+01
   8.88449E+00  3.77431E+00  1.12084E+01  8.05851E+00 -5.74031E+00 -8.50742E+00 -5.96705E+00 -5.68309E-01 -1.40430E+01 -1.44592E+01
  -6.17850E+00 -1.37768E+01 -9.53640E+00 -1.09594E+00 -1.22605E+01 -2.71762E+01 -9.26052E+00 -1.54595E+01  2.34563E+00  4.40106E+00
  -4.46068E+00  1.87952E+00 -2.09090E+01 -9.46317E+00  5.89669E+00 -1.07330E+01 -5.77966E+00  1.88667E+01  2.22545E+01  7.41662E+00
   5.08090E+00  8.89376E+00  1.21289E+01  7.10964E+00  6.81751E+00  1.93276E+01  2.05479E+01  6.90865E+00  2.64943E+00  4.95822E+00
   7.53024E+00  7.68216E+00  1.74294E+00 -4.57858E+00 -7.99499E+00 -2.56046E+00 -1.84393E+01 -1.27135E+01 -4.42679E+00 -1.05113E+01
  -2.19277E+01 -1.12537E+01 -1.18644E+01 -1.21344E+01 -1.29889E+01 -5.78002E+00 -2.24448E+01 -1.64682E+01 -1.88452E+01 -1.95517E+01
  -2.22099E+01 -1.11241E+01 -2.86066E+01 -1.74594E+01 -2.29451E+01 -2.23674E+01 -1.88337E+01 -1.59770E+01 -1.32589E+01 -2.11012E+01
  -1.86320E+01 -1.38298E+01 -2.22209E+01 -1.78623E+01 -2.18921E+01 -9.57233E+00 -7.01418E+00 -8.45420E+00 -2.65061E+01 -1.86862E+01
  -4.47558E+00 -1.82018E+01 -3.53166E+01 -2.10844E+01 -1.30885E+01 -2.13072E+01 -1.80451E+01 -1.45195E+01 -2.00154E+01 -1.17759E+01
  -4.31608E+00 -1.24543E+01 -1.78521E+01 -2.92193E+01 -1.46423E+01 -1.81058E+01 -1.56096E+01 -1.24916E+01 -3.38543E+01 -1.46490E+01
  -1.65491E+01 -2.04443E+01 -1.03432E+01 -9.90581E+00 -1.16960E+01 -9.63406E+00 -1.37676E+01 -1.93638E+01 -8.64795E+00 -2.69414E+01
  -3.44613E+01 -2.02118E+01 -2.01103E+01 -1.98759E+01 -8.21191E+00 -2.00493E+01 -8.69361E+00 -2.69021E+01 -2.66123E+01 -2.56315E+01
  -1.53459E+01 -1.28981E+01 -1.35105E+01 -2.70890E+01 -9.52216E+00 -1.66301E+01 -1.28362E+01 -1.25445E+01
 NY points of the fit to the data follow
   3.28526E+01  3.25394E+01  3.25797E+01  3.31164E+01  3.43585E+01  3.65992E+01  4.02594E+01  4.51296E+01  5.04730E+01  5.51390E+01
   5.78632E+01  5.78738E+01  5.53443E+01  5.12413E+01  4.67588E+01  4.26422E+01  3.90105E+01  3.57524E+01  3.27895E+01  3.07920E+01
   3.01249E+01  2.99174E+01  2.97217E+01  2.94539E+01  2.94460E+01  2.99895E+01  3.11995E+01  3.30769E+01  3.53837E+01  3.76094E+01
   3.91079E+01  3.94534E+01  3.85817E+01  3.67447E+01  3.43800E+01  3.17933E+01  2.90742E+01  2.67898E+01  2.56293E+01  2.52592E+01
   2.52517E+01  2.57844E+01  2.70632E+01  2.89907E+01  3.11371E+01  3.30540E+01  3.41152E+01  3.38344E+01  3.24248E+01  3.03535E+01
   2.81238E+01  2.61866E+01  2.46289E+01  2.32690E+01  2.22107E+01  2.18620E+01  2.22516E+01  2.29200E+01  2.34544E+01  2.36675E+01
   2.34051E+01  2.26880E+01  2.17098E+01  2.07667E+01  2.00723E+01  1.96299E+01  1.93891E+01  1.93670E+01  1.95463E+01  1.98683E+01
   2.02676E+01  2.06085E+01  2.07941E+01  2.07649E+01  2.05099E+01  2.00693E+01  1.94844E+01  1.88445E+01  1.82135E+01  1.76927E+01
   1.74124E+01  1.73037E+01  1.72068E+01  1.70034E+01  1.65929E+01  1.58977E+01  1.50005E+01  1.41169E+01  1.34676E+01  1.31640E+01
   1.31727E+01  1.33388E+01  1.35251E+01  1.37367E+01  1.40586E+01  1.44419E+01  1.49329E+01  1.63784E+01  2.07137E+01  2.87670E+01
   3.99215E+01  5.20624E+01  6.18703E+01  6.62800E+01  6.42923E+01  5.73944E+01  4.85204E+01  4.00924E+01  3.26925E+01  2.57315E+01
   1.89541E+01  1.38258E+01  1.20265E+01  1.16872E+01  1.16185E+01  1.16079E+01  1.16263E+01  1.16583E+01  1.17404E+01  1.19857E+01
   1.27173E+01  1.50152E+01  2.00238E+01  2.77591E+01  3.72037E+01  4.62797E+01  5.24328E+01  5.39791E+01  5.10578E+01  4.53792E+01
   3.89895E+01  3.29043E+01  2.69148E+01  2.05779E+01  1.44470E+01  1.04000E+01  8.83219E+00  8.38370E+00  8.53022E+00  8.93589E+00
   9.32302E+00  9.58255E+00  9.68985E+00  9.57151E+00  9.25146E+00  8.76962E+00  8.13623E+00  7.42572E+00  6.70460E+00  5.99050E+00
   5.33174E+00  4.71043E+00  4.16936E+00  3.77838E+00  3.54769E+00  3.36418E+00  3.08127E+00  2.61093E+00  1.96536E+00  1.31392E+00
   8.49281E-01  6.49310E-01  6.11556E-01  5.27487E-01  2.32852E-01 -2.87319E-01 -8.84277E-01 -1.37526E+00 -1.72283E+00 -2.03965E+00
  -2.43535E+00 -2.97596E+00 -3.61132E+00 -4.19271E+00 -4.63227E+00 -4.87204E+00 -4.93743E+00 -4.98215E+00 -5.14085E+00 -5.38327E+00
  -5.56686E+00 -5.58781E+00 -5.43688E+00 -5.21171E+00 -4.97935E+00 -4.55425E+00 -3.64358E+00 -2.24479E+00 -6.50299E-01  6.86357E-01
   1.46651E+00  1.65065E+00  1.34282E+00  6.93602E-01 -1.29590E-01 -9.93548E-01 -1.69264E+00 -2.03623E+00 -1.93423E+00 -1.39453E+00
  -5.22328E-01  4.40842E-01  1.24019E+00  1.71423E+00  1.68204E+00  1.01832E+00 -2.89740E-01 -1.92475E+00 -3.45539E+00 -4.48205E+00
  -4.46456E+00 -3.01760E+00 -2.57841E-01  3.11538E+00  6.06591E+00  7.48332E+00  6.66045E+00  3.65512E+00 -8.07308E-01 -5.45600E+00
  -9.19913E+00 -1.12989E+01 -1.12911E+01 -9.22567E+00 -5.59106E+00 -1.65787E+00  1.44177E+00  3.53883E+00  4.88838E+00  5.74388E+00
   6.18550E+00  6.49062E+00  7.22345E+00  8.54688E+00  9.97617E+00  1.10422E+01  1.14707E+01  1.11805E+01  1.03520E+01  9.33609E+00
   8.68733E+00  8.92227E+00  1.02001E+01  1.23230E+01  1.48152E+01  1.71468E+01  1.89180E+01  1.99788E+01  2.04818E+01  2.09816E+01
   2.25436E+01  2.57259E+01  3.04927E+01  3.63278E+01  4.32597E+01  5.17546E+01  6.16538E+01  7.23508E+01  8.21399E+01  8.81331E+01
   8.76836E+01  8.02950E+01  6.80955E+01  5.48757E+01  4.35931E+01  3.38312E+01  2.42265E+01  1.50010E+01  8.63611E+00  5.81979E+00
   4.28333E+00  3.31574E+00  2.74407E+00  2.35099E+00  1.92156E+00  1.42147E+00  8.46163E-01  2.30284E-01 -3.76056E-01 -9.18878E-01
  -1.37216E+00 -1.69656E+00 -1.84882E+00 -1.83813E+00 -1.71462E+00 -1.53034E+00 -1.30446E+00 -1.03599E+00 -7.31664E-01 -4.13232E-01
  -8.87563E-02  2.26998E-01  4.99017E-01  6.90911E-01  7.91543E-01  7.94465E-01  6.97866E-01  5.08629E-01  2.35208E-01 -1.10755E-01
  -5.07065E-01 -9.44866E-01 -1.42379E+00 -1.93566E+00 -2.46544E+00 -2.99570E+00 -3.51276E+00 -4.00717E+00 -4.46102E+00 -4.85825E+00
  -5.18740E+00 -5.43798E+00 -5.60186E+00 -5.67363E+00 -5.64951E+00 -5.52738E+00 -5.30662E+00 -4.98808E+00 -4.57404E+00 -4.06818E+00
  -3.47549E+00 -2.80253E+00 -2.05743E+00 -1.24952E+00 -3.89298E-01  5.11495E-01  1.44015E+00  2.38339E+00  3.32791E+00  4.26074E+00
   5.16974E+00  6.04398E+00  6.87427E+00  7.65374E+00  8.37823E+00  9.04639E+00  9.65969E+00  1.02222E+01  1.07404E+01  1.12225E+01
   1.16781E+01  1.21171E+01  1.25489E+01  1.29812E+01  1.34197E+01  1.38671E+01  1.43227E+01  1.47819E+01  1.52360E+01  1.56730E+01
   1.60773E+01  1.64314E+01  1.67162E+01  1.69124E+01  1.70011E+01  1.69657E+01  1.67926E+01  1.64720E+01  1.59984E+01  1.53713E+01
   1.45948E+01  1.36777E+01  1.26333E+01  1.14779E+01  1.02311E+01  8.91373E+00  7.54786E+00  6.15554E+00  4.75823E+00  3.37605E+00
   2.02727E+00  7.28050E-01 -5.07660E-01 -1.66805E+00 -2.74330E+00 -3.72543E+00 -4.60792E+00 -5.38536E+00 -6.05299E+00 -6.60626E+00
  -7.04063E+00 -7.35133E+00 -7.53329E+00 -7.58108E+00 -7.48905E+00 -7.25171E+00 -6.86428E+00 -6.32344E+00 -5.62809E+00 -4.78026E+00
  -3.78595E+00 -2.65601E+00 -1.40695E+00 -6.13304E-02  1.35222E+00  2.79934E+00  4.24082E+00  5.63382E+00  6.93353E+00  8.09525E+00
   9.07673E+00  9.84043E+00  1.03556E+01  1.06003E+01  1.05621E+01  1.02394E+01  9.64125E+00  8.78669E+00  7.70342E+00  6.42605E+00
   4.99396E+00  3.44912E+00  1.83384E+00  1.88714E-01 -1.44915E+00 -3.04750E+00 -4.57974E+00 -6.02531E+00 -7.36969E+00 -8.60401E+00
  -9.72450E+00 -1.07317E+01 -1.16295E+01 -1.24244E+01 -1.31243E+01 -1.37382E+01 -1.42756E+01 -1.47458E+01 -1.51575E+01 -1.55188E+01
  -1.58370E+01 -1.61186E+01 -1.63691E+01 -1.65934E+01 -1.67954E+01 -1.69786E+01 -1.71457E+01 -1.72991E+01 -1.74408E+01 -1.75724E+01
  -1.76952E+01 -1.78104E+01 -1.79188E+01 -1.80213E+01 -1.81185E+01 -1.82110E+01 -1.82994E+01 -1.83839E+01 -1.84649E+01 -1.85428E+01
  -1.86180E+01 -1.86905E+01 -1.87606E+01 -1.88285E+01 -1.88943E+01 -1.89583E+01 -1.90206E+01 -1.90812E+01 -1.91404E+01 -1.91980E+01
  -1.92544E+01 -1.93096E+01 -1.93637E+01 -1.94167E+01 -1.94686E+01 -1.95195E+01 -1.95696E+01 -1.96189E+01 -1.96674E+01 -1.97151E+01
  -1.97621E+01 -1.98083E+01 -1.98540E+01 -1.98991E+01 -1.99436E+01 -1.99875E+01 -2.00309E+01 -2.00739E+01 -2.01163E+01 -2.01584E+01
  -2.02000E+01 -2.02413E+01 -2.02821E+01 -2.03226E+01 -2.03628E+01 -2.04027E+01 -2.04422E+01 -2.04815E+01 -2.05205E+01 -2.05593E+01
  -2.05979E+01 -2.06363E+01 -2.06744E+01 -2.07123E+01 -2.07501E+01 -2.07878E+01 -2.08254E+01 -2.08628E+01
 NY background values follow
     2.724E+01    2.706E+01    2.688E+01    2.670E+01    2.652E+01    2.634E+01    2.616E+01    2.598E+01    2.580E+01    2.562E+01
     2.544E+01    2.526E+01    2.508E+01    2.490E+01    2.472E+01    2.454E+01    2.436E+01    2.418E+01    2.400E+01    2.382E+01
     2.364E+01    2.346E+01    2.328E+01    2.310E+01    2.292E+01    2.274E+01    2.257E+01    2.239E+01    2.221E+01    2.203E+01
     2.185E+01    2.167E+01    2.149E+01    2.131E+01    2.113E+01    2.095E+01    2.077E+01    2.059E+01    2.041E+01    2.023E+01
     2.006E+01    1.988E+01    1.970E+01    1.952E+01    1.934E+01    1.916E+01    1.898E+01    1.880E+01    1.863E+01    1.845E+01
     1.827E+01    1.809E+01    1.791E+01    1.774E+01    1.756E+01    1.738E+01    1.720E+01    1.702E+01    1.685E+01    1.667E+01
     1.649E+01    1.632E+01    1.614E+01    1.596E+01    1.579E+01    1.561E+01    1.543E+01    1.526E+01    1.508E+01    1.491E+01
     1.473E+01    1.456E+01    1.438E+01    1.421E+01    1.403E+01    1.386E+01    1.368E+01    1.351E+01    1.334E+01    1.316E+01
     1.299E+01    1.282E+01    1.265E+01    1.247E+01    1.230E+01    1.213E+01    1.196E+01    1.179E+01    1.162E+01    1.144E+01
     1.127E+01    1.110E+01    1.093E+01    1.076E+01    1.060E+01    1.043E+01    1.026E+01    1.009E+01    9.922E+00    9.754E+00
     9.587E+00    9.420E+00    9.253E+00    9.087E+00    8.921E+00    8.755E+00    8.590E+00    8.425E+00    8.261E+00    8.096E+00
     7.933E+00    7.769E+00    7.606E+00    7.443E+00    7.281E+00    7.119E+00    6.958E+00    6.796E+00    6.636E+00    6.475E+00
     6.315E+00    6.156E+00    5.997E+00    5.838E+00    5.680E+00    5.522E+00    5.364E+00    5.207E+00    5.051E+00    4.895E+00
     4.739E+00    4.584E+00    4.429E+00    4.274E+00    4.120E+00    3.967E+00    3.814E+00    3.662E+00    3.509E+00    3.358E+00
     3.207E+00    3.056E+00    2.906E+00    2.756E+00    2.607E+00    2.458E+00    2.310E+00    2.163E+00    2.015E+00    1.869E+00
     1.723E+00    1.577E+00    1.432E+00    1.287E+00    1.143E+00    9.994E-01    8.564E-01    7.138E-01    5.718E-01    4.304E-01
     2.894E-01    1.491E-01    9.221E-03   -1.301E-01   -2.688E-01   -4.070E-01   -5.446E-01   -6.817E-01   -8.182E-01   -9.541E-01
    -1.089E+00   -1.224E+00   -1.358E+00   -1.492E+00   -1.625E+00   -1.758E+00   -1.889E+00   -2.021E+00   -2.151E+00   -2.282E+00
    -2.411E+00   -2.540E+00   -2.668E+00   -2.796E+00   -2.923E+00   -3.049E+00   -3.175E+00   -3.301E+00   -3.425E+00   -3.549E+00
    -3.673E+00   -3.796E+00   -3.918E+00   -4.040E+00   -4.161E+00   -4.281E+00   -4.401E+00   -4.521E+00   -4.640E+00   -4.758E+00
    -4.875E+00   -4.993E+00   -5.109E+00   -5.225E+00   -5.340E+00   -5.455E+00   -5.570E+00   -5.683E+00   -5.796E+00   -5.909E+00
    -6.021E+00   -6.133E+00   -6.244E+00   -6.354E+00   -6.464E+00   -6.573E+00   -6.682E+00   -6.790E+00   -6.898E+00   -7.005E+00
    -7.112E+00   -7.218E+00   -7.323E+00   -7.428E+00   -7.533E+00   -7.637E+00   -7.740E+00   -7.843E+00   -7.946E+00   -8.048E+00
    -8.149E+00   -8.250E+00   -8.350E+00   -8.450E+00   -8.549E+00   -8.648E+00   -8.747E+00   -8.845E+00   -8.942E+00   -9.039E+00
    -9.135E+00   -9.231E+00   -9.326E+00   -9.421E+00   -9.516E+00   -9.609E+00   -9.703E+00   -9.796E+00   -9.888E+00   -9.980E+00
    -1.007E+01   -1.016E+01   -1.025E+01   -1.034E+01   -1.043E+01   -1.052E+01   -1.061E+01   -1.070E+01   -1.079E+01   -1.087E+01
    -1.096E+01   -1.105E+01   -1.113E+01   -1.122E+01   -1.130E+01   -1.139E+01   -1.147E+01   -1.156E+01   -1.164E+01   -1.172E+01
    -1.180E+01   -1.189E+01   -1.197E+01   -1.205E+01   -1.213E+01   -1.221E+01   -1.229E+01   -1.237E+01   -1.245E+01   -1.253E+01
    -1.260E+01   -1.268E+01   -1.276E+01   -1.283E+01   -1.291E+01   -1.299E+01   -1.306E+01   -1.314E+01   -1.321E+01   -1.329E+01
    -1.336E+01   -1.343E+01   -1.351E+01   -1.358E+01   -1.365E+01   -1.372E+01   -1.379E+01   -1.386E+01   -1.394E+01   -1.401E+01
    -1.408E+01   -1.414E+01   -1.421E+01   -1.428E+01   -1.435E+01   -1.442E+01   -1.449E+01   -1.455E+01   -1.462E+01   -1.469E+01
    -1.475E+01   -1.482E+01   -1.488E+01   -1.495E+01   -1.501E+01   -1.507E+01   -1.514E+01   -1.520E+01   -1.526E+01   -1.533E+01
    -1.539E+01   -1.545E+01   -1.551E+01   -1.557E+01   -1.563E+01   -1.569E+01   -1.575E+01   -1.581E+01   -1.587E+01   -1.593E+01
    -1.599E+01   -1.605E+01   -1.610E+01   -1.616E+01   -1.622E+01   -1.628E+01   -1.633E+01   -1.639E+01   -1.644E+01   -1.650E+01
    -1.655E+01   -1.661E+01   -1.666E+01   -1.672E+01   -1.677E+01   -1.682E+01   -1.688E+01   -1.693E+01   -1.698E+01   -1.703E+01
    -1.708E+01   -1.714E+01   -1.719E+01   -1.724E+01   -1.729E+01   -1.734E+01   -1.739E+01   -1.744E+01   -1.749E+01   -1.754E+01
    -1.758E+01   -1.763E+01   -1.768E+01   -1.773E+01   -1.777E+01   -1.782E+01   -1.787E+01   -1.791E+01   -1.796E+01   -1.801E+01
    -1.805E+01   -1.810E+01   -1.814E+01   -1.819E+01   -1.823E+01   -1.827E+01   -1.832E+01   -1.836E+01   -1.841E+01   -1.845E+01
    -1.849E+01   -1.853E+01   -1.857E+01   -1.862E+01   -1.866E+01   -1.870E+01   -1.874E+01   -1.878E+01   -1.882E+01   -1.886E+01
    -1.890E+01   -1.894E+01   -1.898E+01   -1.902E+01   -1.906E+01   -1.910E+01   -1.913E+01   -1.917E+01   -1.921E+01   -1.925E+01
    -1.929E+01   -1.932E+01   -1.936E+01   -1.940E+01   -1.943E+01   -1.947E+01   -1.950E+01   -1.954E+01   -1.957E+01   -1.961E+01
    -1.964E+01   -1.968E+01   -1.971E+01   -1.975E+01   -1.978E+01   -1.981E+01   -1.985E+01   -1.988E+01   -1.991E+01   -1.995E+01
    -1.998E+01   -2.001E+01   -2.004E+01   -2.007E+01   -2.011E+01   -2.014E+01   -2.017E+01   -2.020E+01   -2.023E+01   -2.026E+01
    -2.029E+01   -2.032E+01   -2.035E+01   -2.038E+01   -2.041E+01   -2.044E+01   -2.047E+01   -2.050E+01   -2.053E+01   -2.056E+01
    -2.059E+01   -2.062E+01   -2.065E+01   -2.068E+01   -2.071E+01   -2.073E+01   -2.076E+01   -2.079E+01   -2.082E+01   -2.085E+01
    -2.088E+01   -2.090E+01   -2.093E+01   -2.096E+01   -2.099E+01   -2.101E+01   -2.104E+01   -2.107E+01   -2.110E+01   -2.112E+01
    -2.115E+01   -2.118E+01   -2.120E+01   -2.123E+01   -2.126E+01   -2.128E+01   -2.131E+01   -2.134E+01   -2.136E+01   -2.139E+01
    -2.142E+01   -2.144E+01   -2.147E+01   -2.150E+01   -2.152E+01   -2.155E+01   -2.158E+01   -2.160E+01   -2.163E+01   -2.165E+01
    -2.168E+01   -2.171E+01   -2.173E+01   -2.176E+01   -2.178E+01   -2.181E+01   -2.184E+01   -2.186E+01   -2.189E+01   -2.191E+01
    -2.194E+01   -2.197E+01   -2.199E+01   -2.202E+01   -2.204E+01   -2.207E+01   -2.210E+01   -2.212E+01
 Asp      Conc. = 1.38E+02
