 LCModel (Version 6.3-1L) Copyright: S.W. Provencher.          Ref.: Magn. Reson. Med. 30:672-679 (1993).                
 Slice#1 Row#5 Col#2  PD_24_press_2_raw_act
 36 lines in following concentration table = NCONC+1
    Conc.  %SD /Cr+PCr  Metabolite                                         
  873.198  56%   0.658 Ala                                                 
  100.989 334% 7.6E-02 Asp                                                 
    0.000 999%   0.000 Cr                                                  
 1.33E+03  10%   1.000 PCr                                                 
   44.963 495% 3.4E-02 GABA                                                
  199.596 108%   0.150 Glc                                                 
 4.34E+03  27%   3.266 Gln                                                 
 5.55E+03  24%   4.177 Glu                                                 
  588.020   9%   0.443 GPC                                                 
    0.000 999%   0.000 PCh                                                 
  630.592  34%   0.475 GSH                                                 
 1.51E+03  46%   1.138 Ins                                                 
    0.000 999%   0.000 Lac                                                 
 2.66E+03   6%   2.001 NAA                                                 
    0.000 999%   0.000 NAAG                                                
  199.063  27%   0.150 Scyllo                                              
  721.044  46%   0.543 Tau                                                 
  304.171  85%   0.229 -CrCH2                                              
  588.020   9%   0.443 GPC+PCh                                             
 2.66E+03   6%   2.001 NAA+NAAG                                            
 1.33E+03  10%   1.000 Cr+PCr                                              
 9.88E+03  23%   7.444 Glu+Gln                                             
    0.000 999%   0.000 Lip13a                                              
  918.638  23%   0.692 Lip13b                                              
  245.238  23%   0.185 Lip09                                               
 1.54E+03  21%   1.158 MM09                                                
  137.787  23%   0.104 Lip20                                               
 1.96E+03  37%   1.477 MM20                                                
    0.000 999%   0.000 MM12                                                
 5.48E+03  17%   4.126 MM14                                                
 3.42E+03  23%   2.575 MM17                                                
  918.638  23%   0.692 Lip13a+Lip13b                                       
 6.40E+03  14%   4.818 MM14+Lip13a+Lip13b+MM12                             
 1.78E+03  18%   1.342 MM09+Lip09                                          
 2.10E+03  34%   1.581 MM20+Lip20                                          
   6 lines in following misc. output table
  FWHM = 0.092 ppm    S/N =   5                                            
  Data shift =-0.046 ppm                                                   
  Ph: -73 deg     -29.9 deg/ppm                                            
  alphaB,S = 3.6E-01,   1.8E+02                                            
   14 spline knots.   Ns =11(1)                                            
  (18) 4 infls.   (21) 1 extrs.                                            
  498 points on ppm-axis = NY
      4.000000     3.992357     3.984714     3.977070     3.969427     3.961784     3.954141     3.946497     3.938854     3.931211
      3.923568     3.915925     3.908281     3.900638     3.892995     3.885352     3.877708     3.870065     3.862422     3.854779
      3.847136     3.839492     3.831849     3.824206     3.816563     3.808919     3.801276     3.793633     3.785990     3.778347
      3.770703     3.763060     3.755417     3.747774     3.740130     3.732487     3.724844     3.717201     3.709558     3.701914
      3.694271     3.686628     3.678985     3.671341     3.663698     3.656055     3.648412     3.640769     3.633125     3.625482
      3.617839     3.610196     3.602552     3.594909     3.587266     3.579623     3.571980     3.564336     3.556693     3.549050
      3.541407     3.533763     3.526120     3.518477     3.510834     3.503191     3.495547     3.487904     3.480261     3.472618
      3.464974     3.457331     3.449688     3.442045     3.434402     3.426758     3.419115     3.411472     3.403829     3.396185
      3.388542     3.380899     3.373256     3.365613     3.357969     3.350326     3.342683     3.335040     3.327396     3.319753
      3.312110     3.304467     3.296824     3.289180     3.281537     3.273894     3.266251     3.258607     3.250964     3.243321
      3.235678     3.228034     3.220391     3.212748     3.205105     3.197462     3.189818     3.182175     3.174532     3.166889
      3.159245     3.151602     3.143959     3.136316     3.128673     3.121029     3.113386     3.105743     3.098100     3.090456
      3.082813     3.075170     3.067527     3.059884     3.052240     3.044597     3.036954     3.029311     3.021667     3.014024
      3.006381     2.998738     2.991095     2.983451     2.975808     2.968165     2.960522     2.952878     2.945235     2.937592
      2.929949     2.922306     2.914662     2.907019     2.899376     2.891733     2.884089     2.876446     2.868803     2.861160
      2.853517     2.845873     2.838230     2.830587     2.822944     2.815300     2.807657     2.800014     2.792371     2.784728
      2.777084     2.769441     2.761798     2.754155     2.746511     2.738868     2.731225     2.723582     2.715939     2.708295
      2.700652     2.693009     2.685366     2.677722     2.670079     2.662436     2.654793     2.647150     2.639506     2.631863
      2.624220     2.616577     2.608933     2.601290     2.593647     2.586004     2.578361     2.570717     2.563074     2.555431
      2.547788     2.540144     2.532501     2.524858     2.517215     2.509572     2.501928     2.494285     2.486642     2.478999
      2.471355     2.463712     2.456069     2.448426     2.440783     2.433139     2.425496     2.417853     2.410210     2.402566
      2.394923     2.387280     2.379637     2.371994     2.364350     2.356707     2.349064     2.341421     2.333777     2.326134
      2.318491     2.310848     2.303205     2.295561     2.287918     2.280275     2.272632     2.264988     2.257345     2.249702
      2.242059     2.234416     2.226772     2.219129     2.211486     2.203843     2.196199     2.188556     2.180913     2.173270
      2.165627     2.157983     2.150340     2.142697     2.135054     2.127410     2.119767     2.112124     2.104481     2.096838
      2.089194     2.081551     2.073908     2.066265     2.058621     2.050978     2.043335     2.035692     2.028049     2.020405
      2.012762     2.005119     1.997476     1.989833     1.982190     1.974546     1.966903     1.959260     1.951617     1.943974
      1.936331     1.928688     1.921045     1.913402     1.905759     1.898115     1.890472     1.882829     1.875186     1.867543
      1.859900     1.852257     1.844614     1.836971     1.829327     1.821684     1.814041     1.806398     1.798755     1.791112
      1.783469     1.775826     1.768183     1.760540     1.752896     1.745253     1.737610     1.729967     1.722324     1.714681
      1.707038     1.699395     1.691752     1.684108     1.676465     1.668822     1.661179     1.653536     1.645893     1.638250
      1.630607     1.622964     1.615321     1.607677     1.600034     1.592391     1.584748     1.577105     1.569462     1.561819
      1.554176     1.546533     1.538890     1.531246     1.523603     1.515960     1.508317     1.500674     1.493031     1.485388
      1.477745     1.470102     1.462458     1.454815     1.447172     1.439529     1.431886     1.424243     1.416600     1.408957
      1.401314     1.393671     1.386027     1.378384     1.370741     1.363098     1.355455     1.347812     1.340169     1.332526
      1.324883     1.317240     1.309596     1.301953     1.294310     1.286667     1.279024     1.271381     1.263738     1.256095
      1.248452     1.240808     1.233165     1.225522     1.217879     1.210236     1.202593     1.194950     1.187307     1.179664
      1.172021     1.164377     1.156734     1.149091     1.141448     1.133805     1.126162     1.118519     1.110876     1.103233
      1.095590     1.087946     1.080303     1.072660     1.065017     1.057374     1.049731     1.042088     1.034445     1.026802
      1.019158     1.011515     1.003872     0.996229     0.988586     0.980943     0.973300     0.965657     0.958014     0.950371
      0.942727     0.935084     0.927441     0.919798     0.912155     0.904512     0.896869     0.889226     0.881583     0.873940
      0.866296     0.858653     0.851010     0.843367     0.835724     0.828081     0.820438     0.812795     0.805152     0.797508
      0.789865     0.782222     0.774579     0.766936     0.759293     0.751650     0.744007     0.736364     0.728721     0.721077
      0.713434     0.705791     0.698148     0.690505     0.682862     0.675219     0.667576     0.659933     0.652290     0.644646
      0.637003     0.629360     0.621717     0.614074     0.606431     0.598788     0.591145     0.583502     0.575858     0.568215
      0.560572     0.552929     0.545286     0.537643     0.530000     0.522357     0.514714     0.507071     0.499427     0.491784
      0.484141     0.476498     0.468855     0.461212     0.453569     0.445925     0.438282     0.430639     0.422996     0.415353
      0.407710     0.400067     0.392424     0.384780     0.377137     0.369494     0.361851     0.354208     0.346565     0.338922
      0.331278     0.323635     0.315992     0.308349     0.300706     0.293063     0.285420     0.277777     0.270133     0.262490
      0.254847     0.247204     0.239561     0.231918     0.224275     0.216631     0.208988     0.201345
 NY phased data points follow
  -5.90916E+01 -5.01466E+01 -4.94230E+01 -4.47214E+01 -4.32153E+01 -4.42068E+01 -4.10469E+01 -3.66760E+01 -3.97361E+01 -3.53530E+01
  -3.23898E+01 -3.26465E+01 -3.64374E+01 -3.04276E+01 -3.27299E+01 -2.67297E+01 -3.49695E+01 -4.32316E+01 -4.87433E+01 -3.64746E+01
  -4.36145E+01 -4.46602E+01 -3.47898E+01 -3.78437E+01 -4.07618E+01 -3.40402E+01 -3.08513E+01 -3.21572E+01 -2.82484E+01 -3.17184E+01
  -3.64983E+01 -2.63179E+01 -2.53460E+01 -2.38325E+01 -3.54579E+01 -2.57251E+01 -2.53248E+01 -2.60901E+01 -2.30823E+01 -2.52021E+01
  -3.18556E+01 -2.88235E+01 -3.11192E+01 -3.74793E+01 -2.92708E+01 -2.31045E+01 -2.01233E+01 -2.51383E+01 -1.54815E+01 -2.54424E+01
  -1.94625E+01 -3.16701E+01 -2.17865E+01 -3.09002E+01 -3.10739E+01 -2.98692E+01 -3.15673E+01 -2.49549E+01 -2.72849E+01 -2.25502E+01
  -2.65919E+01 -2.89565E+01 -2.98688E+01 -2.28663E+01 -2.89738E+01 -2.24405E+01 -2.22257E+01 -2.73563E+01 -2.96596E+01 -1.84786E+01
  -2.27401E+01 -2.85925E+01 -2.47044E+01 -2.83506E+01 -2.67387E+01 -2.34874E+01 -2.24178E+01 -1.26465E+01 -2.30606E+01 -1.09640E+01
  -2.61490E+01 -2.75983E+01 -2.26512E+01 -1.63417E+01 -2.03344E+01 -1.33992E+01 -1.06707E+01 -1.33026E+01 -1.52459E+01 -1.18489E+01
  -2.15788E+01 -1.18522E+01 -1.72780E+01 -1.62830E+01 -9.50126E+00 -1.36201E+01 -8.17726E+00 -5.50691E+00 -1.01169E-01  2.81148E+00
   3.08552E+00  8.26991E+00  1.95586E+01  2.93987E+01  1.53842E+01  1.38228E+01  1.44252E+01  8.25239E+00  6.35970E+00  4.34672E-01
  -7.09193E+00 -1.35490E+01 -1.25147E+01 -3.86107E+00 -7.77694E+00 -3.93569E+00 -1.22318E+01 -1.15945E+01 -9.19465E+00 -1.00864E+01
  -1.74630E+01  1.12150E+00 -1.04815E+01 -6.39274E+00  8.25707E+00  9.78296E+00  1.14495E+01  8.88921E+00  1.47856E+01  1.87302E+01
   8.52637E+00  8.00786E+00  1.61831E+01  8.55849E+00  6.57015E+00  2.42421E+00  3.13393E-01 -5.15868E+00 -2.23660E+00 -8.85543E+00
  -1.00094E+01 -1.20358E+01 -7.78480E+00 -8.82111E+00 -1.53635E+00 -7.63992E+00 -8.78338E+00 -1.05868E+01 -1.01875E+01 -1.11828E+01
  -1.00027E+01 -1.33639E+01 -1.27563E+01 -1.73559E+01 -1.50257E+01 -9.51322E+00 -5.32401E+00 -1.68519E+01 -6.43475E+00 -7.95922E+00
  -8.01124E+00 -1.00510E+01 -7.69161E+00 -1.24681E+01 -1.10601E+01 -1.18177E+01 -9.78898E+00 -1.53356E+01 -1.45932E+01 -9.55221E+00
  -2.18701E+01 -1.25380E+01 -1.38296E+01 -2.02926E+01 -2.39666E+01 -2.55661E+01 -2.37658E+01 -2.08864E+01 -1.90637E+01 -1.95233E+01
  -1.41560E+01 -8.03052E+00 -1.37598E+01 -1.08848E+01 -1.24589E+01 -1.87572E+01 -1.28370E+01 -7.16436E+00 -1.28532E+01 -7.34569E+00
  -9.65099E+00 -4.14646E+00 -7.48453E+00 -5.55126E+00 -8.05911E+00 -1.07999E+01 -6.75432E+00 -7.65305E+00 -9.45120E-01  4.55614E-01
  -1.07041E+01 -6.25541E-01 -6.73043E-01  6.25528E-01 -4.56030E+00 -4.17516E+00 -5.67049E+00  6.95380E+00  2.04963E+00  6.31895E+00
   5.51573E+00 -3.10299E-01  4.65781E-01  9.10391E+00  3.76646E+00  4.31503E+00  5.35488E+00  5.17929E+00  5.22686E+00  8.08167E+00
  -5.78150E-01  4.89254E+00  4.25559E+00 -2.94470E+00 -4.55426E+00  4.19543E+00  7.65428E+00  3.63654E+00  7.74435E+00  3.98082E+00
   2.18723E+00  1.09464E+01  9.04098E+00  1.41270E+01  1.22819E+01  7.76583E+00  5.99531E+00  7.32267E+00  2.12090E+00  1.35047E+01
   3.39671E-01  1.40767E+01  3.40928E+00  5.28374E+00  7.47946E+00  2.98954E+00 -2.77840E+00  2.40790E+00  9.87341E+00  1.55596E+00
  -2.48816E+00  9.79340E+00  9.06826E-01  1.48595E+01  2.50346E+01  2.54811E+01  3.39711E+01  4.62166E+01  5.10241E+01  6.68746E+01
   6.77611E+01  6.64823E+01  6.32351E+01  6.02940E+01  6.15606E+01  5.95498E+01  5.06736E+01  4.44172E+01  3.53916E+01  2.74962E+01
   2.83517E+01  2.02930E+01  2.51339E+01  1.29598E+01  1.05323E+01  2.30421E+01  1.54180E+01  1.21173E+01  1.84903E+01  2.91947E+01
   1.21088E+01  1.24037E+01  1.32483E+00  1.34306E+01  8.83752E+00  1.63612E+01  7.67639E+00  1.26764E+01  2.92847E+00  1.17869E+01
   1.50640E+01  9.21568E+00  7.51312E+00  8.05874E+00  8.74113E+00  1.43101E+01  5.12604E+00  1.51694E+01  7.88017E+00  1.52274E+01
   1.63090E+01  9.92212E+00  1.37780E+01  1.63192E+01  1.28219E+01  1.94924E+01  2.52151E+01  2.21341E+01  3.03608E+01  3.12263E+01
   3.57560E+01  2.80731E+01  3.89640E+01  3.79943E+01  4.34129E+01  5.05283E+01  4.61244E+01  5.11021E+01  4.88907E+01  4.55862E+01
   4.64627E+01  4.47809E+01  4.35564E+01  5.39072E+01  4.79489E+01  4.95360E+01  4.78779E+01  4.37757E+01  3.38317E+01  3.47795E+01
   3.59193E+01  3.32346E+01  2.96349E+01  3.94464E+01  2.05070E+01  2.68186E+01  1.01527E+01  1.47187E+01  1.20275E+01  1.18910E+01
   1.84563E+01  1.27357E+01  1.25600E+01  1.16057E+01  1.29832E+01  1.38349E+01  1.73467E+01  1.05420E+01  1.05527E+01  1.56005E+01
   1.08328E+01  8.37075E+00  1.20737E+01  8.34332E+00  7.97525E+00  1.17229E+01 -1.40107E+00  1.04767E+00 -7.60458E+00 -6.90189E+00
  -3.28149E+00  1.82124E-01 -1.33442E+01 -5.52549E+00 -1.83512E+01 -6.70059E+00 -1.13088E+01 -1.62851E+01 -1.80478E+01 -1.67403E+01
  -1.67162E+01 -1.31660E+01 -1.47641E+01 -1.68505E+01 -1.78819E+01 -1.08271E+01 -1.84687E+01 -7.42372E+00 -1.51386E+01 -1.57365E+01
  -1.38479E+01 -5.61846E+00 -1.00054E+01 -1.20805E+01 -3.00774E+00 -1.40343E+00 -4.30351E+00 -5.15226E+00  3.76214E+00  9.40727E+00
   1.28231E+00 -3.51974E+00  6.02288E+00  8.24980E+00  1.06498E+01  1.55291E+01  4.70187E+00  5.79840E+00  5.11852E+00  8.40234E+00
  -9.15784E-02  3.12014E+00  7.10321E+00  5.65098E+00  6.76177E+00  3.46519E+00  1.00524E+01  1.00604E+01  7.11162E+00  1.02870E+01
   7.55886E+00  8.97051E+00  1.04099E+01  1.16758E+01  1.61570E+01  6.63851E+00  5.37335E+00  9.28013E+00  1.80811E+00  6.55160E+00
   1.41260E+01  8.84446E+00  1.23845E+01  3.93372E+00  1.25724E+01  1.19329E+01  1.04923E+01  3.78938E+00  3.84913E+00  9.47713E+00
   8.43604E+00  1.62988E+01  6.45267E+00  7.83701E+00  1.22203E+01  7.26056E+00  6.97039E+00  8.42086E+00  5.81353E+00  3.88955E+00
   8.65717E+00 -9.34084E-01  8.12327E+00  7.52781E+00  8.35141E+00  7.89931E+00  2.88330E+00  3.64830E-01  4.03876E+00  6.18404E+00
   2.72876E+00  6.05094E+00  7.43702E+00  1.76103E+01  1.22374E+01  1.22692E+01  1.15294E+01  1.00963E+01  2.73652E+00  8.52209E+00
   3.26927E+00  9.67297E+00  4.70557E-01  1.25577E+00  8.37923E+00  2.12034E+00  7.05996E+00  6.68592E+00 -2.70853E-02  6.71638E+00
   4.91228E+00  6.98157E+00  4.51348E+00  3.15037E+00  3.81255E+00  1.42329E+01  1.45565E+01  3.76432E+00  5.01274E+00  1.28308E+01
   2.96026E+00  8.74624E+00  1.41592E+01  1.04750E+01  6.09401E+00  7.29236E+00  3.45628E+00  5.57679E+00  7.41685E+00  2.82029E+00
   1.08523E+01 -2.12941E+00  2.89219E+00  5.08666E-01  5.99145E+00  1.07023E+01  5.46445E+00  1.01929E+01
 NY points of the fit to the data follow
  -5.07577E+01 -4.99030E+01 -4.87045E+01 -4.72446E+01 -4.55957E+01 -4.36855E+01 -4.14790E+01 -3.92156E+01 -3.71561E+01 -3.54504E+01
  -3.42235E+01 -3.34866E+01 -3.31353E+01 -3.30803E+01 -3.33213E+01 -3.38595E+01 -3.46213E+01 -3.54574E+01 -3.62472E+01 -3.70311E+01
  -3.78841E+01 -3.86400E+01 -3.87976E+01 -3.83244E+01 -3.75021E+01 -3.63858E+01 -3.50273E+01 -3.34595E+01 -3.16690E+01 -2.96797E+01
  -2.77082E+01 -2.60924E+01 -2.50181E+01 -2.44655E+01 -2.43175E+01 -2.44868E+01 -2.49897E+01 -2.57705E+01 -2.65306E+01 -2.71708E+01
  -2.79239E+01 -2.87642E+01 -2.93125E+01 -2.92556E+01 -2.87487E+01 -2.77701E+01 -2.64726E+01 -2.52484E+01 -2.43902E+01 -2.39882E+01
  -2.40519E+01 -2.45809E+01 -2.52999E+01 -2.60061E+01 -2.67426E+01 -2.74366E+01 -2.79918E+01 -2.83654E+01 -2.85501E+01 -2.85978E+01
  -2.85262E+01 -2.82994E+01 -2.79538E+01 -2.75880E+01 -2.72406E+01 -2.69021E+01 -2.65753E+01 -2.62515E+01 -2.59022E+01 -2.55070E+01
  -2.50861E+01 -2.46737E+01 -2.42518E+01 -2.38171E+01 -2.34077E+01 -2.30379E+01 -2.26902E+01 -2.23085E+01 -2.18543E+01 -2.13308E+01
  -2.07777E+01 -2.02179E+01 -1.95977E+01 -1.89494E+01 -1.83375E+01 -1.77937E+01 -1.74222E+01 -1.73070E+01 -1.73621E+01 -1.74641E+01
  -1.76101E+01 -1.77474E+01 -1.75971E+01 -1.68269E+01 -1.51843E+01 -1.26271E+01 -9.44195E+00 -5.86284E+00 -1.83456E+00  2.71622E+00
   7.35697E+00  1.13690E+01  1.42667E+01  1.58219E+01  1.61013E+01  1.54019E+01  1.39127E+01  1.15573E+01  8.19500E+00  3.96945E+00
  -5.04584E-01 -4.48905E+00 -7.81744E+00 -1.09110E+01 -1.37038E+01 -1.52147E+01 -1.54842E+01 -1.50454E+01 -1.38535E+01 -1.19149E+01
  -9.42064E+00 -6.56283E+00 -3.37351E+00  2.06893E-01  4.03327E+00  7.72561E+00  1.08499E+01  1.30618E+01  1.42033E+01  1.43591E+01
   1.37557E+01  1.24974E+01  1.04929E+01  7.64222E+00  4.14840E+00  5.81104E-01 -2.52552E+00 -5.13719E+00 -7.51309E+00 -9.48655E+00
  -1.03781E+01 -1.05578E+01 -1.05266E+01 -1.03974E+01 -1.02412E+01 -1.01052E+01 -9.98166E+00 -9.87436E+00 -9.84798E+00 -9.90777E+00
  -1.00252E+01 -1.01965E+01 -1.04027E+01 -1.06158E+01 -1.08075E+01 -1.09314E+01 -1.10039E+01 -1.10520E+01 -1.10980E+01 -1.11480E+01
  -1.11890E+01 -1.11977E+01 -1.11652E+01 -1.11179E+01 -1.10909E+01 -1.11065E+01 -1.11707E+01 -1.12783E+01 -1.14077E+01 -1.15422E+01
  -1.16936E+01 -1.18840E+01 -1.21116E+01 -1.23430E+01 -1.25589E+01 -1.27460E+01 -1.28764E+01 -1.29556E+01 -1.29677E+01 -1.29105E+01
  -1.27960E+01 -1.25699E+01 -1.21885E+01 -1.16636E+01 -1.10600E+01 -1.04368E+01 -9.81736E+00 -9.20022E+00 -8.61966E+00 -8.18550E+00
  -7.98589E+00 -7.92709E+00 -7.85779E+00 -7.65095E+00 -7.24401E+00 -6.58350E+00 -5.58508E+00 -4.22502E+00 -2.55507E+00 -7.83889E-01
   7.19045E-01  1.68264E+00  2.04423E+00  1.83291E+00  1.17345E+00  1.58403E-01 -1.10662E+00 -2.44304E+00 -3.50974E+00 -4.10645E+00
  -4.11941E+00 -3.47424E+00 -2.39840E+00 -1.31641E+00 -3.80981E-01  5.12343E-01  1.34183E+00  1.89662E+00  1.97902E+00  1.49279E+00
   6.15737E-01 -2.02080E-01 -9.67415E-01 -1.91850E+00 -2.50647E+00 -2.21713E+00 -1.35479E+00 -1.22675E-01  1.72604E+00  4.31896E+00
   6.85118E+00  8.82852E+00  1.02240E+01  1.11882E+01  1.16557E+01  1.13710E+01  1.06294E+01  1.00313E+01  9.64709E+00  9.19277E+00
   8.57314E+00  7.83320E+00  7.13346E+00  6.57835E+00  6.08184E+00  5.56887E+00  5.15294E+00  5.02572E+00  5.21411E+00  5.64843E+00
   6.82902E+00  9.44374E+00  1.35471E+01  1.89192E+01  2.52193E+01  3.19049E+01  3.86984E+01  4.58467E+01  5.29552E+01  5.91111E+01
   6.35719E+01  6.59666E+01  6.61711E+01  6.44809E+01  6.14740E+01  5.73697E+01  5.19649E+01  4.51499E+01  3.75344E+01  3.02953E+01
   2.41462E+01  1.87473E+01  1.37162E+01  9.91318E+00  8.41731E+00  7.92495E+00  7.68889E+00  7.59720E+00  7.50884E+00  7.38942E+00
   7.24923E+00  7.07755E+00  6.89391E+00  6.71783E+00  6.53849E+00  6.35866E+00  6.23085E+00  6.19252E+00  6.23437E+00  6.34398E+00
   6.52239E+00  6.77740E+00  7.11397E+00  7.52840E+00  8.03084E+00  8.64098E+00  9.37086E+00  1.02290E+01  1.12243E+01  1.23640E+01
   1.36501E+01  1.50782E+01  1.66439E+01  1.83396E+01  2.01507E+01  2.20594E+01  2.40464E+01  2.60887E+01  2.81609E+01  3.02370E+01
   3.22916E+01  3.43010E+01  3.62441E+01  3.81025E+01  3.98627E+01  4.15197E+01  4.30846E+01  4.45884E+01  4.60228E+01  4.73003E+01
   4.83032E+01  4.89283E+01  4.91419E+01  4.89279E+01  4.82011E+01  4.68791E+01  4.49995E+01  4.26773E+01  4.00577E+01  3.72577E+01
   3.43843E+01  3.15571E+01  2.88668E+01  2.63617E+01  2.40972E+01  2.21414E+01  2.04837E+01  1.89862E+01  1.75388E+01  1.62334E+01
   1.52431E+01  1.44024E+01  1.34151E+01  1.23524E+01  1.14278E+01  1.08139E+01  1.04783E+01  1.02649E+01  1.02073E+01  1.04120E+01
   1.06295E+01  1.06334E+01  1.02828E+01  9.50934E+00  8.31649E+00  6.77272E+00  4.99425E+00  3.12085E+00  1.29048E+00 -3.82056E-01
  -1.81821E+00 -2.97966E+00 -3.86410E+00 -4.49617E+00 -4.91612E+00 -5.16953E+00 -5.29958E+00 -5.34271E+00 -5.32686E+00 -5.27195E+00
  -5.19103E+00 -5.09206E+00 -4.97939E+00 -4.85511E+00 -4.71995E+00 -4.57394E+00 -4.41657E+00 -4.24709E+00 -4.06443E+00 -3.86744E+00
  -3.65477E+00 -3.42503E+00 -3.17658E+00 -2.90761E+00 -2.61611E+00 -2.29998E+00 -1.95707E+00 -1.58524E+00 -1.18233E+00 -7.46337E-01
  -2.75518E-01  2.31328E-01  7.74782E-01  1.35455E+00  1.96940E+00  2.61686E+00  3.29308E+00  3.99262E+00  4.70847E+00  5.43202E+00
   6.15329E+00  6.86099E+00  7.54286E+00  8.18601E+00  8.77752E+00  9.30491E+00  9.75684E+00  1.01235E+01  1.03971E+01  1.05725E+01
   1.06473E+01  1.06220E+01  1.05005E+01  1.02890E+01  9.99644E+00  9.63375E+00  9.21345E+00  8.74899E+00  8.25420E+00  7.74260E+00
   7.22699E+00  6.71893E+00  6.22862E+00  5.76449E+00  5.33319E+00  4.93951E+00  4.58655E+00  4.27585E+00  4.00769E+00  3.78118E+00
   3.59459E+00  3.44547E+00  3.33098E+00  3.24805E+00  3.19357E+00  3.16441E+00  3.15757E+00  3.17018E+00  3.19967E+00  3.24367E+00
   3.30015E+00  3.36720E+00  3.44321E+00  3.52668E+00  3.61640E+00  3.71130E+00  3.81048E+00  3.91311E+00  4.01847E+00  4.12591E+00
   4.23494E+00  4.34509E+00  4.45598E+00  4.56723E+00  4.67864E+00  4.78999E+00  4.90122E+00  5.01220E+00  5.12285E+00  5.23305E+00
   5.34275E+00  5.45189E+00  5.56048E+00  5.66849E+00  5.77590E+00  5.88266E+00  5.98878E+00  6.09426E+00  6.19916E+00  6.30348E+00
   6.40723E+00  6.51038E+00  6.61301E+00  6.71512E+00  6.81681E+00  6.91806E+00  7.01892E+00  7.11938E+00  7.21954E+00  7.31943E+00
   7.41914E+00  7.51867E+00  7.61806E+00  7.71736E+00  7.81666E+00  7.91602E+00  8.01552E+00  8.11517E+00  8.21506E+00  8.31524E+00
   8.41584E+00  8.51692E+00  8.61858E+00  8.72087E+00  8.82391E+00  8.92780E+00  9.03271E+00  9.13876E+00
 NY background values follow
    -5.611E+01   -5.574E+01   -5.538E+01   -5.501E+01   -5.465E+01   -5.428E+01   -5.392E+01   -5.355E+01   -5.318E+01   -5.282E+01
    -5.245E+01   -5.208E+01   -5.172E+01   -5.135E+01   -5.098E+01   -5.062E+01   -5.025E+01   -4.988E+01   -4.952E+01   -4.915E+01
    -4.878E+01   -4.842E+01   -4.805E+01   -4.769E+01   -4.732E+01   -4.695E+01   -4.659E+01   -4.622E+01   -4.586E+01   -4.550E+01
    -4.513E+01   -4.477E+01   -4.441E+01   -4.404E+01   -4.368E+01   -4.332E+01   -4.296E+01   -4.260E+01   -4.224E+01   -4.188E+01
    -4.152E+01   -4.116E+01   -4.081E+01   -4.045E+01   -4.009E+01   -3.974E+01   -3.939E+01   -3.903E+01   -3.868E+01   -3.833E+01
    -3.798E+01   -3.763E+01   -3.728E+01   -3.693E+01   -3.659E+01   -3.624E+01   -3.590E+01   -3.555E+01   -3.521E+01   -3.487E+01
    -3.453E+01   -3.419E+01   -3.386E+01   -3.352E+01   -3.319E+01   -3.286E+01   -3.252E+01   -3.219E+01   -3.187E+01   -3.154E+01
    -3.122E+01   -3.089E+01   -3.057E+01   -3.025E+01   -2.994E+01   -2.962E+01   -2.931E+01   -2.899E+01   -2.868E+01   -2.838E+01
    -2.807E+01   -2.777E+01   -2.746E+01   -2.716E+01   -2.687E+01   -2.657E+01   -2.628E+01   -2.599E+01   -2.570E+01   -2.541E+01
    -2.513E+01   -2.484E+01   -2.456E+01   -2.429E+01   -2.401E+01   -2.374E+01   -2.347E+01   -2.320E+01   -2.294E+01   -2.267E+01
    -2.241E+01   -2.215E+01   -2.190E+01   -2.164E+01   -2.139E+01   -2.114E+01   -2.089E+01   -2.065E+01   -2.040E+01   -2.016E+01
    -1.992E+01   -1.968E+01   -1.945E+01   -1.921E+01   -1.898E+01   -1.875E+01   -1.852E+01   -1.830E+01   -1.807E+01   -1.785E+01
    -1.763E+01   -1.741E+01   -1.720E+01   -1.698E+01   -1.677E+01   -1.656E+01   -1.635E+01   -1.614E+01   -1.594E+01   -1.573E+01
    -1.553E+01   -1.533E+01   -1.513E+01   -1.493E+01   -1.474E+01   -1.454E+01   -1.435E+01   -1.416E+01   -1.397E+01   -1.378E+01
    -1.359E+01   -1.341E+01   -1.322E+01   -1.304E+01   -1.286E+01   -1.268E+01   -1.250E+01   -1.232E+01   -1.214E+01   -1.197E+01
    -1.179E+01   -1.162E+01   -1.145E+01   -1.128E+01   -1.111E+01   -1.094E+01   -1.077E+01   -1.060E+01   -1.044E+01   -1.027E+01
    -1.011E+01   -9.944E+00   -9.781E+00   -9.619E+00   -9.457E+00   -9.296E+00   -9.136E+00   -8.976E+00   -8.817E+00   -8.658E+00
    -8.500E+00   -8.343E+00   -8.185E+00   -8.029E+00   -7.872E+00   -7.716E+00   -7.560E+00   -7.405E+00   -7.250E+00   -7.095E+00
    -6.940E+00   -6.785E+00   -6.631E+00   -6.477E+00   -6.323E+00   -6.169E+00   -6.016E+00   -5.863E+00   -5.710E+00   -5.558E+00
    -5.407E+00   -5.256E+00   -5.105E+00   -4.956E+00   -4.807E+00   -4.659E+00   -4.512E+00   -4.365E+00   -4.220E+00   -4.075E+00
    -3.932E+00   -3.789E+00   -3.648E+00   -3.508E+00   -3.369E+00   -3.232E+00   -3.095E+00   -2.961E+00   -2.827E+00   -2.695E+00
    -2.565E+00   -2.436E+00   -2.308E+00   -2.182E+00   -2.058E+00   -1.936E+00   -1.816E+00   -1.697E+00   -1.581E+00   -1.466E+00
    -1.353E+00   -1.242E+00   -1.134E+00   -1.027E+00   -9.229E-01   -8.208E-01   -7.210E-01   -6.236E-01   -5.284E-01   -4.357E-01
    -3.453E-01   -2.574E-01   -1.718E-01   -8.871E-02   -8.048E-03    7.015E-02    1.459E-01    2.191E-01    2.898E-01    3.579E-01
     4.235E-01    4.865E-01    5.470E-01    6.048E-01    6.600E-01    7.126E-01    7.625E-01    8.097E-01    8.543E-01    8.961E-01
     9.352E-01    9.716E-01    1.005E+00    1.036E+00    1.064E+00    1.089E+00    1.112E+00    1.131E+00    1.148E+00    1.162E+00
     1.173E+00    1.181E+00    1.186E+00    1.188E+00    1.187E+00    1.183E+00    1.177E+00    1.167E+00    1.154E+00    1.138E+00
     1.119E+00    1.097E+00    1.072E+00    1.044E+00    1.012E+00    9.784E-01    9.414E-01    9.016E-01    8.590E-01    8.137E-01
     7.658E-01    7.152E-01    6.621E-01    6.066E-01    5.486E-01    4.882E-01    4.255E-01    3.606E-01    2.934E-01    2.242E-01
     1.528E-01    7.936E-02    3.962E-03   -7.335E-02   -1.525E-01   -2.335E-01   -3.163E-01   -4.007E-01   -4.868E-01   -5.744E-01
    -6.636E-01   -7.543E-01   -8.463E-01   -9.398E-01   -1.034E+00   -1.130E+00   -1.228E+00   -1.326E+00   -1.425E+00   -1.526E+00
    -1.627E+00   -1.729E+00   -1.832E+00   -1.936E+00   -2.041E+00   -2.146E+00   -2.252E+00   -2.359E+00   -2.466E+00   -2.573E+00
    -2.681E+00   -2.788E+00   -2.896E+00   -3.003E+00   -3.110E+00   -3.217E+00   -3.323E+00   -3.428E+00   -3.533E+00   -3.636E+00
    -3.739E+00   -3.840E+00   -3.940E+00   -4.038E+00   -4.135E+00   -4.230E+00   -4.324E+00   -4.415E+00   -4.504E+00   -4.591E+00
    -4.676E+00   -4.758E+00   -4.837E+00   -4.914E+00   -4.988E+00   -5.058E+00   -5.126E+00   -5.191E+00   -5.252E+00   -5.309E+00
    -5.363E+00   -5.413E+00   -5.459E+00   -5.501E+00   -5.539E+00   -5.573E+00   -5.603E+00   -5.627E+00   -5.647E+00   -5.663E+00
    -5.673E+00   -5.678E+00   -5.679E+00   -5.674E+00   -5.664E+00   -5.649E+00   -5.628E+00   -5.604E+00   -5.574E+00   -5.540E+00
    -5.501E+00   -5.458E+00   -5.410E+00   -5.358E+00   -5.301E+00   -5.241E+00   -5.176E+00   -5.108E+00   -5.036E+00   -4.959E+00
    -4.880E+00   -4.796E+00   -4.709E+00   -4.619E+00   -4.525E+00   -4.427E+00   -4.327E+00   -4.224E+00   -4.117E+00   -4.008E+00
    -3.895E+00   -3.780E+00   -3.663E+00   -3.542E+00   -3.419E+00   -3.294E+00   -3.167E+00   -3.037E+00   -2.905E+00   -2.771E+00
    -2.635E+00   -2.497E+00   -2.357E+00   -2.215E+00   -2.072E+00   -1.927E+00   -1.781E+00   -1.633E+00   -1.484E+00   -1.334E+00
    -1.183E+00   -1.030E+00   -8.767E-01   -7.223E-01   -5.670E-01   -4.109E-01   -2.541E-01   -9.665E-02    6.138E-02    2.199E-01
     3.789E-01    5.382E-01    6.978E-01    8.575E-01    1.017E+00    1.177E+00    1.337E+00    1.497E+00    1.657E+00    1.816E+00
     1.976E+00    2.134E+00    2.293E+00    2.450E+00    2.608E+00    2.764E+00    2.920E+00    3.075E+00    3.229E+00    3.382E+00
     3.534E+00    3.685E+00    3.835E+00    3.983E+00    4.130E+00    4.276E+00    4.420E+00    4.563E+00    4.704E+00    4.843E+00
     4.981E+00    5.117E+00    5.250E+00    5.382E+00    5.512E+00    5.640E+00    5.767E+00    5.891E+00    6.014E+00    6.135E+00
     6.255E+00    6.373E+00    6.489E+00    6.604E+00    6.718E+00    6.830E+00    6.941E+00    7.051E+00    7.160E+00    7.267E+00
     7.374E+00    7.479E+00    7.583E+00    7.687E+00    7.789E+00    7.891E+00    7.992E+00    8.092E+00    8.192E+00    8.291E+00
     8.389E+00    8.487E+00    8.584E+00    8.681E+00    8.777E+00    8.874E+00    8.970E+00    9.065E+00    9.161E+00    9.256E+00
     9.352E+00    9.447E+00    9.542E+00    9.638E+00    9.734E+00    9.829E+00    9.925E+00    1.002E+01
 Ala      Conc. = 8.73E+02
