 LCModel (Version 6.3-1L) Copyright: S.W. Provencher.          Ref.: Magn. Reson. Med. 30:672-679 (1993).                
 Slice#2 Row#4 Col#8  PD_24_press_2_raw_act
 36 lines in following concentration table = NCONC+1
    Conc.  %SD /Cr+PCr  Metabolite                                         
  180.212 190% 6.5E-02 Ala                                                 
    0.000 999%   0.000 Asp                                                 
 1.64E+03  36%   0.590 Cr                                                  
 1.14E+03  53%   0.410 PCr                                                 
   25.090 999% 9.0E-03 GABA                                                
   50.567 709% 1.8E-02 Glc                                                 
 2.14E+03  33%   0.770 Gln                                                 
 2.16E+03  38%   0.778 Glu                                                 
 1.42E+03   5%   0.511 GPC                                                 
    0.000 999%   0.000 PCh                                                 
 1.00E+03  21%   0.360 GSH                                                 
 3.75E+03  21%   1.351 Ins                                                 
  427.527  89%   0.154 Lac                                                 
 4.25E+03   7%   1.531 NAA                                                 
  664.543  51%   0.239 NAAG                                                
  454.692  18%   0.164 Scyllo                                              
  802.274  66%   0.289 Tau                                                 
  571.566  52%   0.206 -CrCH2                                              
 1.42E+03   5%   0.511 GPC+PCh                                             
 4.92E+03   5%   1.770 NAA+NAAG                                            
 2.78E+03   6%   1.000 Cr+PCr                                              
 4.30E+03  29%   1.549 Glu+Gln                                             
    0.000 999%   0.000 Lip13a                                              
    0.000 999%   0.000 Lip13b                                              
    0.000 999%   0.000 Lip09                                               
 3.67E+03  16%   1.320 MM09                                                
    5.935 999% 2.1E-03 Lip20                                               
 6.62E+03  16%   2.382 MM20                                                
 1.44E+03  36%   0.517 MM12                                                
 1.76E+03  42%   0.633 MM14                                                
 1.49E+03  36%   0.537 MM17                                                
    0.000 999%   0.000 Lip13a+Lip13b                                       
 3.19E+03  32%   1.150 MM14+Lip13a+Lip13b+MM12                             
 3.67E+03  16%   1.320 MM09+Lip09                                          
 6.63E+03  16%   2.384 MM20+Lip20                                          
   6 lines in following misc. output table
  FWHM = 0.054 ppm    S/N =  10                                            
  Data shift = 0.023 ppm                                                   
  Ph: -62 deg     -15.1 deg/ppm                                            
  alphaB,S = 8.4E-01,   5.1E+01                                            
   14 spline knots.   Ns = 9(1)                                            
  (15) 5 infls.   (15) 1 extrs.                                            
  498 points on ppm-axis = NY
      4.000000     3.992357     3.984714     3.977070     3.969427     3.961784     3.954141     3.946497     3.938854     3.931211
      3.923568     3.915925     3.908281     3.900638     3.892995     3.885352     3.877708     3.870065     3.862422     3.854779
      3.847136     3.839492     3.831849     3.824206     3.816563     3.808919     3.801276     3.793633     3.785990     3.778347
      3.770703     3.763060     3.755417     3.747774     3.740130     3.732487     3.724844     3.717201     3.709558     3.701914
      3.694271     3.686628     3.678985     3.671341     3.663698     3.656055     3.648412     3.640769     3.633125     3.625482
      3.617839     3.610196     3.602552     3.594909     3.587266     3.579623     3.571980     3.564336     3.556693     3.549050
      3.541407     3.533763     3.526120     3.518477     3.510834     3.503191     3.495547     3.487904     3.480261     3.472618
      3.464974     3.457331     3.449688     3.442045     3.434402     3.426758     3.419115     3.411472     3.403829     3.396185
      3.388542     3.380899     3.373256     3.365613     3.357969     3.350326     3.342683     3.335040     3.327396     3.319753
      3.312110     3.304467     3.296824     3.289180     3.281537     3.273894     3.266251     3.258607     3.250964     3.243321
      3.235678     3.228034     3.220391     3.212748     3.205105     3.197462     3.189818     3.182175     3.174532     3.166889
      3.159245     3.151602     3.143959     3.136316     3.128673     3.121029     3.113386     3.105743     3.098100     3.090456
      3.082813     3.075170     3.067527     3.059884     3.052240     3.044597     3.036954     3.029311     3.021667     3.014024
      3.006381     2.998738     2.991095     2.983451     2.975808     2.968165     2.960522     2.952878     2.945235     2.937592
      2.929949     2.922306     2.914662     2.907019     2.899376     2.891733     2.884089     2.876446     2.868803     2.861160
      2.853517     2.845873     2.838230     2.830587     2.822944     2.815300     2.807657     2.800014     2.792371     2.784728
      2.777084     2.769441     2.761798     2.754155     2.746511     2.738868     2.731225     2.723582     2.715939     2.708295
      2.700652     2.693009     2.685366     2.677722     2.670079     2.662436     2.654793     2.647150     2.639506     2.631863
      2.624220     2.616577     2.608933     2.601290     2.593647     2.586004     2.578361     2.570717     2.563074     2.555431
      2.547788     2.540144     2.532501     2.524858     2.517215     2.509572     2.501928     2.494285     2.486642     2.478999
      2.471355     2.463712     2.456069     2.448426     2.440783     2.433139     2.425496     2.417853     2.410210     2.402566
      2.394923     2.387280     2.379637     2.371994     2.364350     2.356707     2.349064     2.341421     2.333777     2.326134
      2.318491     2.310848     2.303205     2.295561     2.287918     2.280275     2.272632     2.264988     2.257345     2.249702
      2.242059     2.234416     2.226772     2.219129     2.211486     2.203843     2.196199     2.188556     2.180913     2.173270
      2.165627     2.157983     2.150340     2.142697     2.135054     2.127410     2.119767     2.112124     2.104481     2.096838
      2.089194     2.081551     2.073908     2.066265     2.058621     2.050978     2.043335     2.035692     2.028049     2.020405
      2.012762     2.005119     1.997476     1.989833     1.982190     1.974546     1.966903     1.959260     1.951617     1.943974
      1.936331     1.928688     1.921045     1.913402     1.905759     1.898115     1.890472     1.882829     1.875186     1.867543
      1.859900     1.852257     1.844614     1.836971     1.829327     1.821684     1.814041     1.806398     1.798755     1.791112
      1.783469     1.775826     1.768183     1.760540     1.752896     1.745253     1.737610     1.729967     1.722324     1.714681
      1.707038     1.699395     1.691752     1.684108     1.676465     1.668822     1.661179     1.653536     1.645893     1.638250
      1.630607     1.622964     1.615321     1.607677     1.600034     1.592391     1.584748     1.577105     1.569462     1.561819
      1.554176     1.546533     1.538890     1.531246     1.523603     1.515960     1.508317     1.500674     1.493031     1.485388
      1.477745     1.470102     1.462458     1.454815     1.447172     1.439529     1.431886     1.424243     1.416600     1.408957
      1.401314     1.393671     1.386027     1.378384     1.370741     1.363098     1.355455     1.347812     1.340169     1.332526
      1.324883     1.317240     1.309596     1.301953     1.294310     1.286667     1.279024     1.271381     1.263738     1.256095
      1.248452     1.240808     1.233165     1.225522     1.217879     1.210236     1.202593     1.194950     1.187307     1.179664
      1.172021     1.164377     1.156734     1.149091     1.141448     1.133805     1.126162     1.118519     1.110876     1.103233
      1.095590     1.087946     1.080303     1.072660     1.065017     1.057374     1.049731     1.042088     1.034445     1.026802
      1.019158     1.011515     1.003872     0.996229     0.988586     0.980943     0.973300     0.965657     0.958014     0.950371
      0.942727     0.935084     0.927441     0.919798     0.912155     0.904512     0.896869     0.889226     0.881583     0.873940
      0.866296     0.858653     0.851010     0.843367     0.835724     0.828081     0.820438     0.812795     0.805152     0.797508
      0.789865     0.782222     0.774579     0.766936     0.759293     0.751650     0.744007     0.736364     0.728721     0.721077
      0.713434     0.705791     0.698148     0.690505     0.682862     0.675219     0.667576     0.659933     0.652290     0.644646
      0.637003     0.629360     0.621717     0.614074     0.606431     0.598788     0.591145     0.583502     0.575858     0.568215
      0.560572     0.552929     0.545286     0.537643     0.530000     0.522357     0.514714     0.507071     0.499427     0.491784
      0.484141     0.476498     0.468855     0.461212     0.453569     0.445925     0.438282     0.430639     0.422996     0.415353
      0.407710     0.400067     0.392424     0.384780     0.377137     0.369494     0.361851     0.354208     0.346565     0.338922
      0.331278     0.323635     0.315992     0.308349     0.300706     0.293063     0.285420     0.277777     0.270133     0.262490
      0.254847     0.247204     0.239561     0.231918     0.224275     0.216631     0.208988     0.201345
 NY phased data points follow
  -1.88460E+02 -1.82033E+02 -1.66799E+02 -1.65129E+02 -1.57898E+02 -1.46441E+02 -1.35503E+02 -1.35790E+02 -1.14819E+02 -1.14473E+02
  -1.12040E+02 -1.17509E+02 -1.23709E+02 -1.18531E+02 -1.32255E+02 -1.23075E+02 -1.31689E+02 -1.36519E+02 -1.45411E+02 -1.44676E+02
  -1.47672E+02 -1.42722E+02 -1.43291E+02 -1.35066E+02 -1.30204E+02 -1.25095E+02 -1.23774E+02 -1.27592E+02 -1.26740E+02 -1.23315E+02
  -1.07998E+02 -1.05738E+02 -1.13096E+02 -1.07352E+02 -1.13228E+02 -1.12002E+02 -1.11349E+02 -1.10016E+02 -1.11487E+02 -1.04228E+02
  -8.36030E+01 -1.06443E+02 -9.14268E+01 -9.34623E+01 -9.87479E+01 -8.48315E+01 -9.00068E+01 -8.64944E+01 -8.97477E+01 -8.42253E+01
  -8.60055E+01 -8.53839E+01 -8.67897E+01 -9.04647E+01 -9.33440E+01 -8.91339E+01 -9.06243E+01 -8.91312E+01 -9.57803E+01 -9.04305E+01
  -9.70225E+01 -8.95629E+01 -9.07069E+01 -9.77222E+01 -9.07896E+01 -8.96012E+01 -9.15339E+01 -8.82845E+01 -8.03437E+01 -7.39711E+01
  -8.63046E+01 -7.91614E+01 -7.41968E+01 -7.58220E+01 -8.89240E+01 -8.05326E+01 -7.83189E+01 -7.10195E+01 -6.96091E+01 -6.43855E+01
  -7.16782E+01 -6.90713E+01 -5.54316E+01 -6.55979E+01 -6.39927E+01 -6.27772E+01 -5.17499E+01 -5.64066E+01 -5.23330E+01 -4.90262E+01
  -5.84002E+01 -5.20280E+01 -3.27297E+01 -3.01549E+01 -3.72638E+01 -3.44569E+01 -1.86076E+01 -1.39929E+01 -8.09546E+00  3.65001E-01
   1.34847E+01  5.60586E+01  3.47659E+01  5.16195E+01  2.63919E+01  2.35001E+01 -1.50623E+00 -8.13025E+00 -7.95107E+00 -2.88971E+01
  -5.54848E+01 -3.65930E+01 -5.09357E+01 -4.40036E+01 -4.64928E+01 -4.35734E+01 -4.72727E+01 -2.94930E+01 -2.81259E+01 -2.85251E+01
  -3.22246E+01 -2.15285E+01 -2.36453E+01 -3.39920E+00 -5.29444E+00  2.64859E+01  4.09535E+01  4.12975E+01  3.35653E+01  1.19478E+01
  -1.83266E+00  1.09212E+00 -1.13906E+01 -2.32804E+01 -2.80391E+01 -3.01925E+01 -3.89198E+01 -4.23366E+01 -3.70600E+01 -4.24578E+01
  -3.65464E+01 -2.18228E+01 -3.36329E+01 -2.59027E+01 -4.54964E+01 -3.72445E+01 -3.66990E+01 -2.81204E+01 -3.10966E+01 -3.65358E+01
  -3.08255E+01 -3.99356E+01 -3.03951E+01 -3.13664E+01 -2.75218E+01 -3.95161E+01 -3.27624E+01 -4.25493E+01 -3.98373E+01 -3.87650E+01
  -4.17314E+01 -3.28117E+01 -2.74246E+01 -3.90572E+01 -3.73949E+01 -3.18291E+01 -2.54887E+01 -4.11120E+01 -3.06378E+01 -3.93008E+01
  -3.94330E+01 -4.65826E+01 -4.44673E+01 -4.20303E+01 -4.99961E+01 -4.32735E+01 -5.96653E+01 -5.42887E+01 -4.80431E+01 -4.18684E+01
  -4.44824E+01 -4.63985E+01 -3.73170E+01 -3.69138E+01 -3.92993E+01 -4.23151E+01 -3.82655E+01 -3.53144E+01 -3.15207E+01 -1.66995E+01
  -2.16833E+01 -1.51713E+01 -1.44897E+01 -1.04860E+01 -1.06298E+01 -1.35876E+01 -2.04489E+01 -9.72727E+00 -1.51333E+01 -1.02471E+01
  -2.28969E+01 -1.61139E+01 -1.78800E+01 -1.59231E+01 -9.27537E+00 -1.11569E+01 -2.43828E+01 -2.20588E+01 -1.98018E+01 -1.74513E+01
  -1.06684E+01 -9.52812E+00 -1.18640E+01 -1.52607E+00  1.17114E+00  9.09899E+00 -3.80892E+00  2.68607E-01  1.39969E+01  7.90254E-01
  -6.96875E+00 -5.26739E+00 -7.70428E+00 -3.65244E+00  1.74800E+00 -1.35050E+01  1.07279E+00  1.41758E+01  4.80557E+00  6.56157E+00
   1.59879E+01 -7.81037E-02  3.11722E+00  2.49173E+00  1.03719E+01  1.61940E+00  1.50086E+01  1.22868E+01 -3.79047E+00  6.68749E+00
   2.40715E+00  3.18684E+00 -1.28014E+00  4.29278E+00  1.03060E+01  1.11633E+01  2.02767E+01  1.71964E+01  2.84954E+01  4.73596E+01
   4.61608E+01  4.80728E+01  4.80622E+01  6.79371E+01  7.52015E+01  8.81270E+01  8.71453E+01  1.02138E+02  1.21595E+02  1.36242E+02
   1.47981E+02  1.44602E+02  1.26012E+02  1.01351E+02  7.71701E+01  6.69690E+01  5.64304E+01  3.17696E+01  1.94338E+01  1.88785E+01
   8.88663E+00  2.26978E+01  1.40749E+01  2.32651E+01  7.80147E+00  1.15602E+01  2.71145E+01  1.59993E+01  6.61269E+00  1.45972E+01
   8.56086E+00  1.45793E+01  7.00233E-01  1.11761E+01  2.27148E+00  1.23315E+01  1.28465E+01  7.27337E+00  3.77038E+00  1.04657E+01
   7.36661E+00  1.21993E+01 -4.31190E-01  2.93514E+00 -8.05951E-02  3.34486E+00  9.92280E-02  9.25048E+00  5.65958E-01  1.08661E+01
   7.49155E+00  8.73963E+00  5.21371E+00  1.50284E+01  1.83420E+01  2.15715E+01  2.19890E+01  2.90600E+01  2.74529E+01  3.50376E+01
   1.93491E+01  3.26241E+01  2.31904E+01  3.20620E+01  1.11118E+01  2.12715E+01  3.25041E+01  3.32827E+01  2.57485E+01  3.00702E+01
   3.02153E+01  3.18950E+01  2.50410E+01  2.36172E+01  1.95558E+01  2.54014E+01  2.39259E+01  3.01519E+01  2.85090E+01  1.87685E+01
   1.77519E+01  2.42494E+01  3.30897E+01  3.91605E+01  2.55302E+01  3.42081E+01  3.02537E+01  3.61462E+01  3.47146E+01  2.43139E+01
   3.13373E+01  3.47203E+01  3.72789E+01  3.71079E+01  2.29700E+01  3.70794E+01  2.57541E+01  3.62939E+01  3.03148E+01  2.81592E+01
   3.49078E+01  3.08246E+01  2.45830E+01  2.78579E+01  2.23644E+01  3.26704E+01  3.51914E+01  3.18766E+01  2.33972E+01  3.24499E+01
   4.04729E+01  3.73162E+01  4.10052E+01  3.73219E+01  4.34638E+01  3.68965E+01  3.95892E+01  4.61692E+01  2.90311E+01  5.01839E+01
   4.34593E+01  4.37184E+01  5.28842E+01  4.46239E+01  3.80313E+01  3.30625E+01  3.25871E+01  3.37067E+01  4.18622E+01  4.06352E+01
   2.66679E+01  4.85150E+01  4.00580E+01  4.98417E+01  3.60014E+01  4.39751E+01  4.04868E+01  4.41381E+01  4.82780E+01  4.15746E+01
   5.25441E+01  5.46556E+01  2.47708E+01  4.02885E+01  5.29240E+01  4.58967E+01  5.55161E+01  4.95036E+01  6.18419E+01  5.38753E+01
   5.79414E+01  6.47509E+01  6.47235E+01  6.66209E+01  5.79037E+01  6.74392E+01  6.25714E+01  6.83767E+01  7.32864E+01  7.03407E+01
   6.21628E+01  6.58846E+01  5.72054E+01  6.26204E+01  6.00349E+01  5.99637E+01  6.16951E+01  5.90510E+01  5.98093E+01  4.76150E+01
   5.62339E+01  5.82402E+01  5.14001E+01  5.45209E+01  5.39127E+01  5.71969E+01  4.42709E+01  4.93887E+01  5.07373E+01  4.42546E+01
   4.68167E+01  4.38011E+01  4.18975E+01  5.04035E+01  5.39029E+01  4.80475E+01  5.29609E+01  4.22944E+01  5.40063E+01  4.96264E+01
   3.46463E+01  4.90151E+01  4.45452E+01  4.78393E+01  3.93433E+01  5.35410E+01  4.28022E+01  4.79708E+01  5.35088E+01  4.56034E+01
   5.16912E+01  4.48729E+01  3.90947E+01  4.69256E+01  4.84887E+01  4.42757E+01  4.26565E+01  4.29865E+01  4.28735E+01  3.85593E+01
   4.48968E+01  4.70717E+01  4.09491E+01  4.14047E+01  3.76160E+01  3.54798E+01  5.92785E+01  4.36145E+01  4.86281E+01  3.73165E+01
   4.72840E+01  4.37141E+01  3.80342E+01  4.43099E+01  3.64465E+01  4.38752E+01  4.37734E+01  4.75986E+01  3.72706E+01  3.87447E+01
   3.80266E+01  4.52150E+01  3.39051E+01  3.52489E+01  2.95585E+01  3.37460E+01  3.35727E+01  4.14438E+01  4.31689E+01  3.70831E+01
   4.35304E+01  4.12967E+01  3.70430E+01  3.54042E+01  3.58339E+01  3.55776E+01  2.88171E+01  3.72598E+01
 NY points of the fit to the data follow
  -1.68158E+02 -1.64825E+02 -1.59909E+02 -1.55481E+02 -1.51050E+02 -1.46446E+02 -1.41609E+02 -1.35320E+02 -1.27278E+02 -1.19211E+02
  -1.14153E+02 -1.13744E+02 -1.16958E+02 -1.21623E+02 -1.25666E+02 -1.28594E+02 -1.31756E+02 -1.35907E+02 -1.39689E+02 -1.41450E+02
  -1.41200E+02 -1.39306E+02 -1.36383E+02 -1.34390E+02 -1.32713E+02 -1.31258E+02 -1.29928E+02 -1.27044E+02 -1.21088E+02 -1.13582E+02
  -1.07839E+02 -1.05007E+02 -1.05022E+02 -1.07092E+02 -1.09299E+02 -1.10408E+02 -1.11294E+02 -1.12623E+02 -1.12612E+02 -1.10645E+02
  -1.08324E+02 -1.06343E+02 -1.03974E+02 -1.00894E+02 -9.68852E+01 -9.20019E+01 -8.74813E+01 -8.54285E+01 -8.68221E+01 -9.01619E+01
  -9.30596E+01 -9.46703E+01 -9.55963E+01 -9.68325E+01 -9.80076E+01 -9.81001E+01 -9.68754E+01 -9.46637E+01 -9.19473E+01 -8.95485E+01
  -8.79627E+01 -8.76770E+01 -8.80408E+01 -8.81766E+01 -8.77416E+01 -8.69262E+01 -8.57995E+01 -8.42464E+01 -8.26596E+01 -8.09889E+01
  -7.92497E+01 -7.78805E+01 -7.68680E+01 -7.59254E+01 -7.49588E+01 -7.41379E+01 -7.36342E+01 -7.33326E+01 -7.20123E+01 -7.08049E+01
  -6.94958E+01 -6.77031E+01 -6.62812E+01 -6.47092E+01 -6.17270E+01 -5.75625E+01 -5.39584E+01 -5.23721E+01 -5.31423E+01 -5.51673E+01
  -5.67580E+01 -5.68490E+01 -5.43739E+01 -4.61224E+01 -3.70568E+01 -3.04635E+01 -2.32411E+01 -1.73515E+01 -1.09153E+01  2.00208E+00
   2.25995E+01  4.29109E+01  5.24519E+01  4.83600E+01  3.42189E+01  1.64724E+01  2.30614E+00 -7.23693E+00 -1.86728E+01 -3.36119E+01
  -4.40758E+01 -4.72646E+01 -4.89898E+01 -5.04816E+01 -5.04963E+01 -4.99428E+01 -4.85710E+01 -4.38569E+01 -3.48353E+01 -2.81868E+01
  -2.26630E+01 -1.77100E+01 -1.35386E+01 -6.50659E+00  6.59364E+00  2.30049E+01  3.43687E+01  3.56884E+01  2.81733E+01  1.57548E+01
   4.30017E+00 -2.70872E+00 -8.78304E+00 -1.83724E+01 -2.85487E+01 -3.38682E+01 -3.62654E+01 -3.85275E+01 -3.89120E+01 -3.80387E+01
  -3.69235E+01 -3.59478E+01 -3.51314E+01 -3.46000E+01 -3.44692E+01 -3.45344E+01 -3.46993E+01 -3.49426E+01 -3.52382E+01 -3.55576E+01
  -3.57480E+01 -3.59024E+01 -3.63679E+01 -3.67836E+01 -3.69269E+01 -3.67604E+01 -3.61870E+01 -3.57241E+01 -3.57507E+01 -3.62841E+01
  -3.70053E+01 -3.73222E+01 -3.69205E+01 -3.60756E+01 -3.54566E+01 -3.55350E+01 -3.62529E+01 -3.71687E+01 -3.77230E+01 -3.77452E+01
  -3.76792E+01 -3.77062E+01 -3.80365E+01 -3.84798E+01 -3.89215E+01 -3.91142E+01 -3.86276E+01 -3.76915E+01 -3.69968E+01 -3.66280E+01
  -3.63120E+01 -3.56253E+01 -3.41078E+01 -3.21874E+01 -3.09035E+01 -3.03283E+01 -2.96214E+01 -2.79574E+01 -2.54332E+01 -2.30917E+01
  -2.12106E+01 -1.98269E+01 -1.91500E+01 -1.88845E+01 -1.87157E+01 -1.84429E+01 -1.83862E+01 -1.78984E+01 -1.66929E+01 -1.52927E+01
  -1.41685E+01 -1.27879E+01 -1.14365E+01 -1.10296E+01 -1.15649E+01 -1.28401E+01 -1.55346E+01 -1.85623E+01 -2.02315E+01 -1.98387E+01
  -1.82284E+01 -1.63150E+01 -1.39986E+01 -1.13403E+01 -8.27884E+00 -4.82288E+00 -2.46626E+00 -2.49857E+00 -4.06605E+00 -5.88145E+00
  -7.67265E+00 -9.24813E+00 -1.01164E+01 -9.54437E+00 -7.20081E+00 -4.21586E+00 -1.95749E+00  1.94060E-02  2.01258E+00  3.87665E+00
   5.06080E+00  5.36370E+00  5.07420E+00  4.80831E+00  5.31215E+00  6.84465E+00  9.11985E+00  1.16624E+01  1.33980E+01  1.33855E+01
   1.19053E+01  1.03443E+01  9.56567E+00  9.68064E+00  1.09443E+01  1.32014E+01  1.62071E+01  2.05116E+01  2.48268E+01  2.86430E+01
   3.34881E+01  4.42665E+01  5.85179E+01  6.93855E+01  8.00589E+01  8.84448E+01  9.39905E+01  1.03210E+02  1.20078E+02  1.38417E+02
   1.47262E+02  1.41734E+02  1.23809E+02  1.00451E+02  8.14845E+01  6.92755E+01  5.60807E+01  3.84728E+01  2.45668E+01  1.92343E+01
   1.64212E+01  1.34215E+01  1.22410E+01  1.17426E+01  1.13121E+01  1.08759E+01  1.04265E+01  9.96584E+00  9.54981E+00  9.18392E+00
   8.84984E+00  8.55211E+00  8.33957E+00  8.24199E+00  8.20675E+00  8.18115E+00  8.17274E+00  8.21508E+00  8.30434E+00  8.42548E+00
   8.59752E+00  8.85919E+00  9.20235E+00  9.60103E+00  1.00517E+01  1.05593E+01  1.11265E+01  1.17620E+01  1.24660E+01  1.32390E+01
   1.40951E+01  1.50362E+01  1.60394E+01  1.70826E+01  1.81492E+01  1.92262E+01  2.02929E+01  2.13192E+01  2.22854E+01  2.31788E+01
   2.39811E+01  2.46795E+01  2.52689E+01  2.57479E+01  2.61218E+01  2.64021E+01  2.66108E+01  2.67912E+01  2.69894E+01  2.70428E+01
   2.69565E+01  2.68542E+01  2.67389E+01  2.66833E+01  2.67390E+01  2.67976E+01  2.67912E+01  2.66540E+01  2.63767E+01  2.61691E+01
   2.61369E+01  2.62962E+01  2.66498E+01  2.72267E+01  2.80999E+01  2.92175E+01  3.03088E+01  3.11694E+01  3.19609E+01  3.25735E+01
   3.28184E+01  3.29359E+01  3.27939E+01  3.25803E+01  3.26404E+01  3.27896E+01  3.28274E+01  3.23840E+01  3.13502E+01  3.02614E+01
   2.94275E+01  2.90452E+01  2.92607E+01  3.00569E+01  3.13785E+01  3.31332E+01  3.48716E+01  3.59691E+01  3.64619E+01  3.68624E+01
   3.73604E+01  3.77147E+01  3.76504E+01  3.74614E+01  3.74991E+01  3.76113E+01  3.76938E+01  3.78109E+01  3.79374E+01  3.80580E+01
   3.81688E+01  3.82700E+01  3.83646E+01  3.84571E+01  3.85533E+01  3.86595E+01  3.87826E+01  3.89290E+01  3.91057E+01  3.93195E+01
   3.95773E+01  3.98855E+01  4.02501E+01  4.06770E+01  4.11722E+01  4.17412E+01  4.23894E+01  4.31213E+01  4.39406E+01  4.48501E+01
   4.58515E+01  4.69447E+01  4.81272E+01  4.93937E+01  5.07358E+01  5.21419E+01  5.35971E+01  5.50826E+01  5.65762E+01  5.80521E+01
   5.94827E+01  6.08387E+01  6.20908E+01  6.32098E+01  6.41690E+01  6.49445E+01  6.55176E+01  6.58749E+01  6.60097E+01  6.59212E+01
   6.56158E+01  6.51057E+01  6.44097E+01  6.35508E+01  6.25558E+01  6.14533E+01  6.02730E+01  5.90442E+01  5.77951E+01  5.65510E+01
   5.53343E+01  5.41633E+01  5.30526E+01  5.20130E+01  5.10521E+01  5.01735E+01  4.93782E+01  4.86645E+01  4.80293E+01  4.74676E+01
   4.69744E+01  4.65433E+01  4.61680E+01  4.58418E+01  4.55590E+01  4.53140E+01  4.51016E+01  4.49171E+01  4.47561E+01  4.46148E+01
   4.44901E+01  4.43791E+01  4.42798E+01  4.41895E+01  4.41064E+01  4.40289E+01  4.39559E+01  4.38862E+01  4.38189E+01  4.37526E+01
   4.36869E+01  4.36208E+01  4.35542E+01  4.34864E+01  4.34173E+01  4.33461E+01  4.32730E+01  4.31978E+01  4.31207E+01  4.30412E+01
   4.29595E+01  4.28751E+01  4.27884E+01  4.26993E+01  4.26080E+01  4.25143E+01  4.24182E+01  4.23196E+01  4.22188E+01  4.21159E+01
   4.20111E+01  4.19042E+01  4.17952E+01  4.16842E+01  4.15715E+01  4.14573E+01  4.13416E+01  4.12243E+01  4.11055E+01  4.09853E+01
   4.08643E+01  4.07422E+01  4.06193E+01  4.04954E+01  4.03708E+01  4.02456E+01  4.01203E+01  3.99948E+01  3.98691E+01  3.97431E+01
   3.96174E+01  3.94920E+01  3.93673E+01  3.92431E+01  3.91197E+01  3.89970E+01  3.88756E+01  3.87555E+01
 NY background values follow
    -1.813E+02   -1.799E+02   -1.785E+02   -1.771E+02   -1.757E+02   -1.743E+02   -1.729E+02   -1.716E+02   -1.702E+02   -1.688E+02
    -1.674E+02   -1.660E+02   -1.646E+02   -1.632E+02   -1.618E+02   -1.605E+02   -1.591E+02   -1.577E+02   -1.563E+02   -1.550E+02
    -1.536E+02   -1.523E+02   -1.509E+02   -1.495E+02   -1.482E+02   -1.468E+02   -1.455E+02   -1.442E+02   -1.428E+02   -1.415E+02
    -1.402E+02   -1.388E+02   -1.375E+02   -1.362E+02   -1.349E+02   -1.336E+02   -1.323E+02   -1.310E+02   -1.298E+02   -1.285E+02
    -1.272E+02   -1.260E+02   -1.247E+02   -1.235E+02   -1.222E+02   -1.210E+02   -1.198E+02   -1.186E+02   -1.174E+02   -1.162E+02
    -1.150E+02   -1.138E+02   -1.126E+02   -1.114E+02   -1.103E+02   -1.091E+02   -1.080E+02   -1.069E+02   -1.057E+02   -1.046E+02
    -1.035E+02   -1.024E+02   -1.013E+02   -1.002E+02   -9.917E+01   -9.810E+01   -9.704E+01   -9.600E+01   -9.496E+01   -9.393E+01
    -9.291E+01   -9.190E+01   -9.089E+01   -8.990E+01   -8.892E+01   -8.794E+01   -8.697E+01   -8.602E+01   -8.507E+01   -8.413E+01
    -8.320E+01   -8.228E+01   -8.137E+01   -8.047E+01   -7.958E+01   -7.870E+01   -7.782E+01   -7.696E+01   -7.611E+01   -7.526E+01
    -7.443E+01   -7.361E+01   -7.279E+01   -7.199E+01   -7.120E+01   -7.041E+01   -6.963E+01   -6.887E+01   -6.811E+01   -6.736E+01
    -6.663E+01   -6.590E+01   -6.518E+01   -6.446E+01   -6.376E+01   -6.307E+01   -6.238E+01   -6.170E+01   -6.103E+01   -6.037E+01
    -5.972E+01   -5.908E+01   -5.844E+01   -5.782E+01   -5.720E+01   -5.658E+01   -5.598E+01   -5.538E+01   -5.479E+01   -5.421E+01
    -5.364E+01   -5.307E+01   -5.251E+01   -5.196E+01   -5.142E+01   -5.088E+01   -5.035E+01   -4.982E+01   -4.931E+01   -4.880E+01
    -4.829E+01   -4.780E+01   -4.730E+01   -4.682E+01   -4.634E+01   -4.587E+01   -4.540E+01   -4.494E+01   -4.449E+01   -4.404E+01
    -4.360E+01   -4.316E+01   -4.273E+01   -4.230E+01   -4.188E+01   -4.146E+01   -4.105E+01   -4.064E+01   -4.023E+01   -3.983E+01
    -3.943E+01   -3.904E+01   -3.865E+01   -3.826E+01   -3.788E+01   -3.750E+01   -3.712E+01   -3.675E+01   -3.637E+01   -3.600E+01
    -3.564E+01   -3.527E+01   -3.491E+01   -3.454E+01   -3.418E+01   -3.382E+01   -3.347E+01   -3.311E+01   -3.275E+01   -3.240E+01
    -3.204E+01   -3.169E+01   -3.134E+01   -3.098E+01   -3.063E+01   -3.027E+01   -2.992E+01   -2.956E+01   -2.921E+01   -2.885E+01
    -2.849E+01   -2.813E+01   -2.777E+01   -2.741E+01   -2.705E+01   -2.668E+01   -2.632E+01   -2.595E+01   -2.559E+01   -2.522E+01
    -2.485E+01   -2.449E+01   -2.412E+01   -2.375E+01   -2.338E+01   -2.302E+01   -2.265E+01   -2.228E+01   -2.192E+01   -2.155E+01
    -2.119E+01   -2.082E+01   -2.046E+01   -2.010E+01   -1.974E+01   -1.938E+01   -1.902E+01   -1.867E+01   -1.831E+01   -1.796E+01
    -1.761E+01   -1.726E+01   -1.692E+01   -1.658E+01   -1.623E+01   -1.590E+01   -1.556E+01   -1.523E+01   -1.490E+01   -1.457E+01
    -1.425E+01   -1.393E+01   -1.361E+01   -1.329E+01   -1.298E+01   -1.268E+01   -1.238E+01   -1.208E+01   -1.178E+01   -1.149E+01
    -1.120E+01   -1.092E+01   -1.064E+01   -1.036E+01   -1.009E+01   -9.816E+00   -9.548E+00   -9.282E+00   -9.019E+00   -8.759E+00
    -8.500E+00   -8.245E+00   -7.991E+00   -7.740E+00   -7.490E+00   -7.242E+00   -6.996E+00   -6.752E+00   -6.509E+00   -6.267E+00
    -6.027E+00   -5.787E+00   -5.549E+00   -5.312E+00   -5.075E+00   -4.839E+00   -4.604E+00   -4.368E+00   -4.134E+00   -3.899E+00
    -3.664E+00   -3.430E+00   -3.195E+00   -2.960E+00   -2.724E+00   -2.488E+00   -2.251E+00   -2.014E+00   -1.775E+00   -1.536E+00
    -1.295E+00   -1.053E+00   -8.103E-01   -5.657E-01   -3.198E-01   -7.242E-02    1.763E-01    4.265E-01    6.781E-01    9.312E-01
     1.186E+00    1.442E+00    1.699E+00    1.958E+00    2.218E+00    2.480E+00    2.743E+00    3.008E+00    3.274E+00    3.542E+00
     3.811E+00    4.082E+00    4.355E+00    4.628E+00    4.904E+00    5.181E+00    5.460E+00    5.740E+00    6.021E+00    6.305E+00
     6.590E+00    6.876E+00    7.164E+00    7.454E+00    7.746E+00    8.039E+00    8.333E+00    8.630E+00    8.928E+00    9.227E+00
     9.529E+00    9.832E+00    1.014E+01    1.044E+01    1.075E+01    1.106E+01    1.137E+01    1.169E+01    1.200E+01    1.232E+01
     1.264E+01    1.296E+01    1.328E+01    1.360E+01    1.392E+01    1.425E+01    1.457E+01    1.490E+01    1.523E+01    1.556E+01
     1.589E+01    1.622E+01    1.655E+01    1.688E+01    1.721E+01    1.754E+01    1.788E+01    1.821E+01    1.854E+01    1.888E+01
     1.921E+01    1.954E+01    1.988E+01    2.021E+01    2.054E+01    2.088E+01    2.121E+01    2.154E+01    2.187E+01    2.220E+01
     2.253E+01    2.286E+01    2.319E+01    2.352E+01    2.385E+01    2.418E+01    2.450E+01    2.482E+01    2.515E+01    2.547E+01
     2.579E+01    2.611E+01    2.642E+01    2.674E+01    2.705E+01    2.737E+01    2.768E+01    2.799E+01    2.829E+01    2.860E+01
     2.890E+01    2.920E+01    2.950E+01    2.980E+01    3.010E+01    3.039E+01    3.068E+01    3.097E+01    3.125E+01    3.154E+01
     3.182E+01    3.210E+01    3.238E+01    3.265E+01    3.292E+01    3.319E+01    3.346E+01    3.372E+01    3.398E+01    3.424E+01
     3.450E+01    3.475E+01    3.500E+01    3.524E+01    3.549E+01    3.573E+01    3.597E+01    3.620E+01    3.643E+01    3.666E+01
     3.688E+01    3.710E+01    3.732E+01    3.753E+01    3.774E+01    3.795E+01    3.815E+01    3.835E+01    3.855E+01    3.874E+01
     3.893E+01    3.911E+01    3.929E+01    3.947E+01    3.964E+01    3.981E+01    3.997E+01    4.013E+01    4.029E+01    4.044E+01
     4.059E+01    4.073E+01    4.087E+01    4.101E+01    4.114E+01    4.126E+01    4.139E+01    4.150E+01    4.162E+01    4.172E+01
     4.183E+01    4.193E+01    4.202E+01    4.211E+01    4.219E+01    4.227E+01    4.235E+01    4.242E+01    4.248E+01    4.254E+01
     4.260E+01    4.265E+01    4.269E+01    4.273E+01    4.277E+01    4.279E+01    4.282E+01    4.284E+01    4.285E+01    4.286E+01
     4.286E+01    4.286E+01    4.285E+01    4.283E+01    4.281E+01    4.279E+01    4.276E+01    4.272E+01    4.268E+01    4.264E+01
     4.259E+01    4.253E+01    4.248E+01    4.241E+01    4.235E+01    4.228E+01    4.220E+01    4.213E+01    4.205E+01    4.196E+01
     4.187E+01    4.178E+01    4.169E+01    4.160E+01    4.150E+01    4.140E+01    4.129E+01    4.119E+01    4.108E+01    4.097E+01
     4.086E+01    4.075E+01    4.063E+01    4.052E+01    4.040E+01    4.028E+01    4.017E+01    4.005E+01    3.993E+01    3.981E+01
     3.969E+01    3.956E+01    3.944E+01    3.932E+01    3.920E+01    3.908E+01    3.896E+01    3.884E+01
 Ala      Conc. = 1.80E+02
