 LCModel (Version 6.3-1L) Copyright: S.W. Provencher.          Ref.: Magn. Reson. Med. 30:672-679 (1993).                
 Slice#3 Row#7 Col#12  PD_24_press_2_raw_act
 36 lines in following concentration table = NCONC+1
    Conc.  %SD /Cr+PCr  Metabolite                                         
    0.000 999%   0.000 Ala                                                 
   48.011  91%   0.000 Asp                                                 
    0.000 999%   0.000 Cr                                                  
    0.000 999%   0.000 PCr                                                 
   22.563 117%   0.000 GABA                                                
   25.659 102%   0.000 Glc                                                 
  308.577 133%   0.000 Gln                                                 
    0.000 999%   0.000 Glu                                                 
    0.000 999%   0.000 GPC                                                 
    0.000 999%   0.000 PCh                                                 
    0.000 999%   0.000 GSH                                                 
    0.000 999%   0.000 Ins                                                 
  322.854  74%   0.000 Lac                                                 
   40.847 489%   0.000 NAA                                                 
  839.133  21%   0.000 NAAG                                                
   11.943  70%   0.000 Scyllo                                              
   36.929 116%   0.000 Tau                                                 
    3.008 386%   0.000 -CrCH2                                              
    0.000 999%   0.000 GPC+PCh                                             
  879.980  18%   0.000 NAA+NAAG                                            
    0.000 999%   0.000 Cr+PCr                                              
  308.577 133%   0.000 Glu+Gln                                             
 4.73E+03  21%   0.000 Lip13a                                              
    0.000 999%   0.000 Lip13b                                              
 1.60E+03  20%   0.000 Lip09                                               
 1.65E+03  19%   0.000 MM09                                                
  858.572  27%   0.000 Lip20                                               
  587.069  99%   0.000 MM20                                                
  150.458 241%   0.000 MM12                                                
 3.10E+03  21%   0.000 MM14                                                
 1.07E+03  40%   0.000 MM17                                                
 4.73E+03  21%   0.000 Lip13a+Lip13b                                       
 7.98E+03   9%   0.000 MM14+Lip13a+Lip13b+MM12                             
 3.26E+03   8%   0.000 MM09+Lip09                                          
 1.45E+03  38%   0.000 MM20+Lip20                                          
   6 lines in following misc. output table
  FWHM = 0.092 ppm    S/N =   4                                            
  Data shift = 0.015 ppm                                                   
  Ph:  70 deg      20.1 deg/ppm                                            
  alphaB,S = 8.5E+01,   4.8E+01                                            
   14 spline knots.   Ns = 7(2)                                            
   2 inflections.     1 extrema                                            
  498 points on ppm-axis = NY
      4.000000     3.992357     3.984714     3.977070     3.969427     3.961784     3.954141     3.946497     3.938854     3.931211
      3.923568     3.915925     3.908281     3.900638     3.892995     3.885352     3.877708     3.870065     3.862422     3.854779
      3.847136     3.839492     3.831849     3.824206     3.816563     3.808919     3.801276     3.793633     3.785990     3.778347
      3.770703     3.763060     3.755417     3.747774     3.740130     3.732487     3.724844     3.717201     3.709558     3.701914
      3.694271     3.686628     3.678985     3.671341     3.663698     3.656055     3.648412     3.640769     3.633125     3.625482
      3.617839     3.610196     3.602552     3.594909     3.587266     3.579623     3.571980     3.564336     3.556693     3.549050
      3.541407     3.533763     3.526120     3.518477     3.510834     3.503191     3.495547     3.487904     3.480261     3.472618
      3.464974     3.457331     3.449688     3.442045     3.434402     3.426758     3.419115     3.411472     3.403829     3.396185
      3.388542     3.380899     3.373256     3.365613     3.357969     3.350326     3.342683     3.335040     3.327396     3.319753
      3.312110     3.304467     3.296824     3.289180     3.281537     3.273894     3.266251     3.258607     3.250964     3.243321
      3.235678     3.228034     3.220391     3.212748     3.205105     3.197462     3.189818     3.182175     3.174532     3.166889
      3.159245     3.151602     3.143959     3.136316     3.128673     3.121029     3.113386     3.105743     3.098100     3.090456
      3.082813     3.075170     3.067527     3.059884     3.052240     3.044597     3.036954     3.029311     3.021667     3.014024
      3.006381     2.998738     2.991095     2.983451     2.975808     2.968165     2.960522     2.952878     2.945235     2.937592
      2.929949     2.922306     2.914662     2.907019     2.899376     2.891733     2.884089     2.876446     2.868803     2.861160
      2.853517     2.845873     2.838230     2.830587     2.822944     2.815300     2.807657     2.800014     2.792371     2.784728
      2.777084     2.769441     2.761798     2.754155     2.746511     2.738868     2.731225     2.723582     2.715939     2.708295
      2.700652     2.693009     2.685366     2.677722     2.670079     2.662436     2.654793     2.647150     2.639506     2.631863
      2.624220     2.616577     2.608933     2.601290     2.593647     2.586004     2.578361     2.570717     2.563074     2.555431
      2.547788     2.540144     2.532501     2.524858     2.517215     2.509572     2.501928     2.494285     2.486642     2.478999
      2.471355     2.463712     2.456069     2.448426     2.440783     2.433139     2.425496     2.417853     2.410210     2.402566
      2.394923     2.387280     2.379637     2.371994     2.364350     2.356707     2.349064     2.341421     2.333777     2.326134
      2.318491     2.310848     2.303205     2.295561     2.287918     2.280275     2.272632     2.264988     2.257345     2.249702
      2.242059     2.234416     2.226772     2.219129     2.211486     2.203843     2.196199     2.188556     2.180913     2.173270
      2.165627     2.157983     2.150340     2.142697     2.135054     2.127410     2.119767     2.112124     2.104481     2.096838
      2.089194     2.081551     2.073908     2.066265     2.058621     2.050978     2.043335     2.035692     2.028049     2.020405
      2.012762     2.005119     1.997476     1.989833     1.982190     1.974546     1.966903     1.959260     1.951617     1.943974
      1.936331     1.928688     1.921045     1.913402     1.905759     1.898115     1.890472     1.882829     1.875186     1.867543
      1.859900     1.852257     1.844614     1.836971     1.829327     1.821684     1.814041     1.806398     1.798755     1.791112
      1.783469     1.775826     1.768183     1.760540     1.752896     1.745253     1.737610     1.729967     1.722324     1.714681
      1.707038     1.699395     1.691752     1.684108     1.676465     1.668822     1.661179     1.653536     1.645893     1.638250
      1.630607     1.622964     1.615321     1.607677     1.600034     1.592391     1.584748     1.577105     1.569462     1.561819
      1.554176     1.546533     1.538890     1.531246     1.523603     1.515960     1.508317     1.500674     1.493031     1.485388
      1.477745     1.470102     1.462458     1.454815     1.447172     1.439529     1.431886     1.424243     1.416600     1.408957
      1.401314     1.393671     1.386027     1.378384     1.370741     1.363098     1.355455     1.347812     1.340169     1.332526
      1.324883     1.317240     1.309596     1.301953     1.294310     1.286667     1.279024     1.271381     1.263738     1.256095
      1.248452     1.240808     1.233165     1.225522     1.217879     1.210236     1.202593     1.194950     1.187307     1.179664
      1.172021     1.164377     1.156734     1.149091     1.141448     1.133805     1.126162     1.118519     1.110876     1.103233
      1.095590     1.087946     1.080303     1.072660     1.065017     1.057374     1.049731     1.042088     1.034445     1.026802
      1.019158     1.011515     1.003872     0.996229     0.988586     0.980943     0.973300     0.965657     0.958014     0.950371
      0.942727     0.935084     0.927441     0.919798     0.912155     0.904512     0.896869     0.889226     0.881583     0.873940
      0.866296     0.858653     0.851010     0.843367     0.835724     0.828081     0.820438     0.812795     0.805152     0.797508
      0.789865     0.782222     0.774579     0.766936     0.759293     0.751650     0.744007     0.736364     0.728721     0.721077
      0.713434     0.705791     0.698148     0.690505     0.682862     0.675219     0.667576     0.659933     0.652290     0.644646
      0.637003     0.629360     0.621717     0.614074     0.606431     0.598788     0.591145     0.583502     0.575858     0.568215
      0.560572     0.552929     0.545286     0.537643     0.530000     0.522357     0.514714     0.507071     0.499427     0.491784
      0.484141     0.476498     0.468855     0.461212     0.453569     0.445925     0.438282     0.430639     0.422996     0.415353
      0.407710     0.400067     0.392424     0.384780     0.377137     0.369494     0.361851     0.354208     0.346565     0.338922
      0.331278     0.323635     0.315992     0.308349     0.300706     0.293063     0.285420     0.277777     0.270133     0.262490
      0.254847     0.247204     0.239561     0.231918     0.224275     0.216631     0.208988     0.201345
 NY phased data points follow
   2.85284E+00 -2.62288E+00  2.11162E+00 -2.80858E-01  6.21705E+00  1.27845E+00  4.64122E+00  3.72052E+00  1.44962E-01  6.01558E-01
   6.76281E+00 -4.00334E+00  1.52316E+00 -2.00113E+00  1.48426E+00 -5.13484E+00 -1.27448E+00 -1.75645E+00 -4.44578E-01 -1.88163E+00
   6.61512E+00 -1.63597E+00  5.91984E+00 -3.69902E+00  2.73293E+00  2.24454E+00  3.31466E+00  1.04123E+00  2.71593E+00  6.97036E+00
   3.30728E+00 -6.64294E+00 -2.76197E-01  1.11760E+00  1.77386E+00 -3.73262E-01  1.77066E+00  3.53941E+00  1.76014E+00  7.89497E-01
   4.49387E+00 -1.37670E-01  1.73865E-01  6.81215E-01  4.94266E+00  9.84619E-01 -3.42770E-01 -2.90779E+00 -9.64753E-02 -5.32260E+00
   1.01094E+00  3.03814E+00  4.68423E-01  1.87742E-02  2.44550E+00 -5.48660E-01  7.47548E+00 -2.34418E+00  1.52659E+00 -3.25627E+00
   5.44295E+00 -4.13139E-01 -1.33450E+00 -6.06184E+00 -2.87578E+00  2.22354E+00  2.10201E+00  1.86094E+00  5.54735E+00  2.46071E+00
   3.53946E+00  1.91080E-01  6.38908E+00  1.76414E+00  4.38269E+00  4.65201E+00 -5.91552E-01  1.46684E+00 -1.25700E-01  3.13025E+00
   2.58821E-01  2.98815E+00  1.59139E+00  2.01785E+00  2.09666E+00  7.95228E-01 -2.05428E+00 -1.74215E+00  4.86813E+00  9.13019E+00
   1.42575E+00 -9.66624E-01  4.71840E+00  2.29359E+00  3.77622E+00 -2.77228E-01  4.38163E+00  4.12610E+00  2.72422E+00  5.74977E+00
   3.38316E+00 -1.13563E+00  3.63999E+00 -4.42927E+00 -4.41366E+00 -1.86031E+00  2.86568E-01 -3.15587E+00 -6.87948E-01 -6.62042E+00
  -2.53538E+00 -3.66675E-01  1.28867E+00  1.51755E+00  1.82222E+00 -2.77338E+00  3.39465E+00  3.46994E+00  2.45135E+00 -9.78840E-01
  -6.35441E+00 -2.54748E+00  1.30100E+00  5.45007E+00 -4.05528E-01  5.18574E+00  7.64345E+00  5.04679E+00  4.76237E+00  1.18390E+00
  -5.43257E+00 -4.34135E+00 -1.37455E+00  1.17249E+00 -6.88523E+00  4.21761E+00  7.65073E-01  2.62731E-01  4.74786E+00  8.57196E+00
   6.79941E+00  4.22346E-01  1.52403E+00  5.39502E+00  3.66839E+00 -1.04982E+00  1.07240E+00  1.74353E+00  3.74041E+00  3.25451E+00
   3.21374E+00  1.37847E+00  3.42583E+00  1.40094E+00 -2.73030E+00 -2.90401E-01  3.79013E+00 -3.84788E-01  2.71840E+00  7.04321E+00
   1.04101E+01 -1.80425E+00  1.41935E+00 -4.41188E+00  4.61947E+00  5.70049E-01  1.38075E+00 -4.22354E-02  2.97964E+00 -1.99483E+00
  -1.25726E+00  1.03307E+00 -3.34488E-01 -1.97488E-01  4.16044E-01 -2.04535E-01  5.24197E-01  2.44785E+00 -9.75387E-01  7.39699E-01
   8.60777E-01  2.78103E+00 -1.17735E+00  2.80463E+00  7.71080E+00  1.67409E+00  3.45448E+00 -1.80554E+00  8.24114E+00  2.33097E+00
  -2.32224E+00 -6.54930E-02  4.50748E+00  4.69469E+00  8.40584E-01  5.63413E-01 -3.00183E+00 -1.85311E+00  2.04531E-01  2.19349E+00
   5.55446E-01 -1.85705E+00  3.84410E-01  7.49744E-02  2.65718E+00  5.11693E+00  5.40625E-01  6.33789E+00  7.09341E+00 -3.87978E+00
   3.46929E+00  1.31824E+00  4.65613E+00  7.79796E-01  3.28539E+00  5.75405E+00  6.80548E+00  9.33156E+00  2.48122E+00  7.32342E+00
   1.40584E+00  3.38692E+00  2.74718E+00  4.24787E+00  3.35139E+00  2.25949E+00  6.72648E+00  9.24904E+00  9.32495E+00  8.64341E+00
  -6.41611E-01  6.35798E+00  1.18295E+01  4.78488E+00  2.47818E+00  6.97875E+00  3.09166E+00  4.34519E+00 -2.70395E+00  7.90720E+00
   2.30827E+00 -5.51536E-01  2.72910E+00  7.14637E+00  7.37435E+00  2.92556E+00  4.46299E+00  4.68166E+00  7.79705E+00  6.96137E-01
   2.29206E+00  7.81764E+00  1.01722E+01  9.93922E+00  8.36824E+00  1.02159E+01  1.36170E+01  1.63343E+01  2.09637E+01  2.23851E+01
   3.27943E+01  2.94117E+01  2.68281E+01  2.07371E+01  2.54285E+01  1.61982E+01  1.23245E+01  1.92252E+01  1.16386E+01  1.04744E+01
   8.24068E+00  4.23453E+00  2.72097E+00  9.42143E+00  7.84375E+00  1.43829E+00  7.66082E+00  1.10222E+01  3.42292E+00  7.13461E+00
  -2.31715E+00  9.18114E-01  2.53669E+00  2.03906E+00  7.53206E+00 -6.74137E-01  5.25298E+00  4.15759E-01  8.83294E-01  5.82218E+00
   7.58086E+00  2.88232E+00  6.33822E+00  8.39017E-01  4.03893E+00  7.14888E+00  8.65957E+00  2.33517E+00  1.13436E+01  6.66151E+00
   2.52169E+00  1.04467E+00  5.18715E+00  6.71102E+00  9.03305E+00  8.81718E+00  1.33189E+01  1.16159E+01  1.34257E+01  7.81758E+00
   1.24456E+01  1.24987E+01  1.31186E+01  1.63756E+01  1.68081E+01  1.67817E+01  1.37505E+01  1.54608E+01  1.76267E+01  1.72268E+01
   2.32931E+01  1.90032E+01  1.82131E+01  2.29912E+01  1.64244E+01  1.92913E+01  1.90011E+01  2.25479E+01  2.09561E+01  1.94324E+01
   2.46589E+01  2.14873E+01  2.67096E+01  2.26459E+01  2.74086E+01  2.79294E+01  2.24355E+01  2.74364E+01  2.31739E+01  1.62777E+01
   2.24383E+01  2.25255E+01  2.46053E+01  2.13836E+01  2.24394E+01  1.89535E+01  2.10965E+01  2.47099E+01  1.75608E+01  2.02830E+01
   2.10936E+01  1.50279E+01  1.63508E+01  9.76543E+00  1.75174E+01  1.83307E+01  1.51468E+01  1.04495E+01  1.27663E+01  1.32250E+01
   1.53105E+01  1.26332E+01  1.24226E+01  1.36113E+01  1.54048E+01  1.53404E+01  1.07414E+01  1.58506E+01  1.54495E+01  1.08033E+01
   1.30958E+01  1.44092E+01  1.22661E+01  1.20094E+01  9.70139E+00  1.52620E+01  1.46217E+01  1.22170E+01  1.63890E+01  1.41648E+01
   1.41027E+01  1.77352E+01  1.02347E+01  1.57834E+01  2.33295E+01  1.69863E+01  1.71320E+01  1.66182E+01  1.93151E+01  1.82137E+01
   1.30881E+01  1.69340E+01  1.43892E+01  1.17535E+01  1.62336E+01  1.98150E+01  1.93494E+01  1.64408E+01  1.65495E+01  1.48244E+01
   1.38435E+01  1.15531E+01  1.34499E+01  1.26099E+01  1.18323E+01  8.61825E+00  1.19286E+01  1.67616E+01  1.30199E+01  1.03321E+01
   1.39237E+01  9.52344E+00  1.40470E+01  1.19534E+01  9.68018E+00  5.80608E+00  9.63481E+00  1.08263E+01  1.27017E+00  8.93808E+00
   7.32541E+00  1.00196E+01  3.48882E+00  3.65900E+00  2.70174E+00  9.23883E+00  8.41539E+00  8.03119E+00  4.26489E+00  1.55941E-01
   4.46259E+00  2.94911E+00  1.99182E+00  5.31410E+00  1.99718E+00  1.49046E+00  5.04117E+00  7.08327E+00  2.87372E+00  4.25668E+00
   4.65856E+00  7.78232E-02  6.43667E+00  6.37731E+00  1.46164E+00  2.92559E+00 -1.65069E+00 -2.50944E-01 -1.07893E+00 -8.74024E-01
  -8.82471E-02 -1.02103E+00  2.52331E+00  2.97328E+00  8.42035E-01  1.94399E+00 -2.93506E+00  1.33185E-01 -2.00777E+00 -4.86580E+00
  -4.02181E+00  1.92424E+00 -1.25809E-01 -5.38617E-01 -1.68466E+00  1.02680E+00 -7.03623E+00 -3.87851E+00 -3.02466E+00 -3.31063E+00
  -2.60049E+00 -6.92152E+00 -7.46858E+00 -2.06739E+00 -4.13946E+00 -6.15342E+00 -4.34791E+00 -1.70725E+00 -6.52271E+00 -1.03760E+01
  -4.40727E+00 -5.23939E+00 -1.50459E+00 -6.81313E+00 -4.50704E+00 -7.00683E+00 -2.95046E+00 -4.26474E+00 -2.27252E+00 -7.68589E+00
  -7.13664E+00 -1.93392E+00 -4.34092E+00 -1.43626E+01 -4.03896E+00 -6.28527E+00 -5.26852E+00 -1.46228E+00
 NY points of the fit to the data follow
   1.92089E+00  1.92776E+00  1.89562E+00  1.87711E+00  1.80492E+00  1.75450E+00  1.65616E+00  1.59834E+00  1.52753E+00  1.52425E+00
   1.49933E+00  1.49924E+00  1.49854E+00  1.48794E+00  1.50295E+00  1.47738E+00  1.49040E+00  1.46858E+00  1.49514E+00  1.48604E+00
   1.50953E+00  1.51229E+00  1.50735E+00  1.52423E+00  1.50735E+00  1.53918E+00  1.50837E+00  1.53724E+00  1.51722E+00  1.52167E+00
   1.52785E+00  1.50584E+00  1.59138E+00  1.56373E+00  1.70460E+00  1.65929E+00  1.77217E+00  1.68859E+00  1.68938E+00  1.60882E+00
   1.54913E+00  1.52352E+00  1.43994E+00  1.48016E+00  1.37854E+00  1.41907E+00  1.31230E+00  1.35341E+00  1.27833E+00  1.32762E+00
   1.32942E+00  1.36554E+00  1.36428E+00  1.36372E+00  1.34985E+00  1.31962E+00  1.29904E+00  1.28420E+00  1.27117E+00  1.26013E+00
   1.25066E+00  1.24425E+00  1.23648E+00  1.23491E+00  1.22614E+00  1.22799E+00  1.21572E+00  1.22669E+00  1.21052E+00  1.23368E+00
   1.21039E+00  1.24616E+00  1.21773E+00  1.25914E+00  1.23092E+00  1.27147E+00  1.24548E+00  1.28031E+00  1.26648E+00  1.28752E+00
   1.28967E+00  1.29242E+00  1.32171E+00  1.31837E+00  1.38250E+00  1.38483E+00  1.48580E+00  1.49297E+00  1.60308E+00  1.59120E+00
   1.67183E+00  1.63209E+00  1.64691E+00  1.59161E+00  1.56147E+00  1.49262E+00  1.42650E+00  1.36144E+00  1.28813E+00  1.24795E+00
   1.18119E+00  1.17638E+00  1.12938E+00  1.15633E+00  1.14737E+00  1.18026E+00  1.17190E+00  1.19951E+00  1.19797E+00  1.21990E+00
   1.23132E+00  1.24061E+00  1.25567E+00  1.25491E+00  1.27619E+00  1.27468E+00  1.30352E+00  1.31043E+00  1.33373E+00  1.34289E+00
   1.36228E+00  1.37227E+00  1.38794E+00  1.40438E+00  1.42229E+00  1.44410E+00  1.47165E+00  1.49733E+00  1.53247E+00  1.56150E+00
   1.60173E+00  1.62996E+00  1.67059E+00  1.69323E+00  1.72866E+00  1.74345E+00  1.77091E+00  1.77974E+00  1.80171E+00  1.81195E+00
   1.83385E+00  1.84844E+00  1.87135E+00  1.89598E+00  1.92728E+00  1.96371E+00  1.99488E+00  2.03035E+00  2.05064E+00  2.06777E+00
   2.06829E+00  2.05863E+00  2.04299E+00  2.00918E+00  1.97335E+00  1.91518E+00  1.86053E+00  1.79136E+00  1.74555E+00  1.69610E+00
   1.65450E+00  1.62615E+00  1.52469E+00  1.49118E+00  1.30517E+00  1.24913E+00  1.01604E+00  9.54158E-01  7.25036E-01  6.63825E-01
   4.45167E-01  3.96092E-01  1.95506E-01  1.68040E-01  5.75775E-02  6.44395E-02  2.74398E-02  4.49933E-02 -2.52439E-02 -1.77712E-02
  -8.00172E-02 -5.31403E-02 -6.81737E-02 -3.70144E-02  7.74851E-02  1.09496E-01  3.75116E-01  4.12956E-01  7.84465E-01  8.66648E-01
   1.26135E+00  1.32046E+00  1.61978E+00  1.60634E+00  1.72804E+00  1.69014E+00  1.67232E+00  1.63978E+00  1.52168E+00  1.54484E+00
   1.46943E+00  1.55304E+00  1.64027E+00  1.76518E+00  1.91254E+00  1.97091E+00  2.02604E+00  1.97976E+00  1.89663E+00  1.71962E+00
   1.52391E+00  1.27198E+00  1.04174E+00  8.73262E-01  7.74772E-01  8.12730E-01  9.39862E-01  1.15867E+00  1.47425E+00  1.79793E+00
   2.19927E+00  2.54739E+00  2.92753E+00  3.28439E+00  3.59764E+00  3.86356E+00  4.04820E+00  4.16370E+00  4.22100E+00  4.30217E+00
   4.34980E+00  4.39020E+00  4.42770E+00  4.45937E+00  4.49403E+00  4.57866E+00  4.58995E+00  4.78790E+00  4.74344E+00  5.05441E+00
   4.97092E+00  5.35473E+00  5.27172E+00  5.60568E+00  5.49309E+00  5.62424E+00  5.30765E+00  5.38667E+00  5.25676E+00  5.50603E+00
   5.99007E+00  6.61107E+00  8.25653E+00  9.13040E+00  1.19261E+01  1.29178E+01  1.71887E+01  1.77853E+01  2.28310E+01  2.22358E+01
   2.65505E+01  2.42229E+01  2.63176E+01  2.28967E+01  2.30168E+01  1.93083E+01  1.79970E+01  1.46741E+01  1.27868E+01  1.01226E+01
   7.90828E+00  6.21462E+00  4.48961E+00  3.98323E+00  3.71012E+00  3.52530E+00  3.39244E+00  3.24387E+00  3.21582E+00  3.08988E+00
   3.08685E+00  2.96633E+00  3.00332E+00  2.93004E+00  3.03414E+00  3.01262E+00  3.17590E+00  3.20175E+00  3.42841E+00  3.49895E+00
   3.79198E+00  3.91975E+00  4.27254E+00  4.46387E+00  4.86840E+00  5.10506E+00  5.56197E+00  5.86480E+00  6.35549E+00  6.71847E+00
   7.23304E+00  7.65710E+00  8.19421E+00  8.65555E+00  9.20697E+00  9.70061E+00  1.02425E+01  1.07500E+01  1.12718E+01  1.17796E+01
   1.22972E+01  1.28058E+01  1.33159E+01  1.38284E+01  1.43395E+01  1.48635E+01  1.53889E+01  1.59309E+01  1.64890E+01  1.70685E+01
   1.76662E+01  1.82828E+01  1.89106E+01  1.95452E+01  2.01757E+01  2.07933E+01  2.13850E+01  2.19399E+01  2.24448E+01  2.28890E+01
   2.32621E+01  2.35560E+01  2.37650E+01  2.38864E+01  2.39148E+01  2.38515E+01  2.37048E+01  2.34697E+01  2.32057E+01  2.29195E+01
   2.26065E+01  2.23529E+01  2.20522E+01  2.18530E+01  2.15770E+01  2.12960E+01  2.10165E+01  2.06219E+01  2.03001E+01  1.96290E+01
   1.92369E+01  1.82060E+01  1.78084E+01  1.64813E+01  1.62231E+01  1.50822E+01  1.51399E+01  1.43930E+01  1.48037E+01  1.44011E+01
   1.49968E+01  1.46174E+01  1.51323E+01  1.48033E+01  1.51452E+01  1.48708E+01  1.49194E+01  1.44519E+01  1.42920E+01  1.37373E+01
   1.34294E+01  1.29330E+01  1.26092E+01  1.24151E+01  1.23059E+01  1.22684E+01  1.22978E+01  1.23917E+01  1.25478E+01  1.27635E+01
   1.30343E+01  1.33547E+01  1.37171E+01  1.41126E+01  1.45303E+01  1.49583E+01  1.53835E+01  1.57923E+01  1.61713E+01  1.65076E+01
   1.67894E+01  1.70071E+01  1.71528E+01  1.72217E+01  1.72114E+01  1.71230E+01  1.69596E+01  1.67274E+01  1.64342E+01  1.60893E+01
   1.57030E+01  1.52858E+01  1.48474E+01  1.43972E+01  1.39427E+01  1.34901E+01  1.30437E+01  1.26062E+01  1.21783E+01  1.17595E+01
   1.13481E+01  1.09417E+01  1.05373E+01  1.01320E+01  9.72278E+00  9.30756E+00  8.88451E+00  8.45288E+00  8.01246E+00  7.56412E+00
   7.10916E+00  6.64979E+00  6.18837E+00  5.72788E+00  5.27118E+00  4.82139E+00  4.38124E+00  3.95347E+00  3.54027E+00  3.14367E+00
   2.76506E+00  2.40568E+00  2.06607E+00  1.74668E+00  1.44735E+00  1.16790E+00  9.07658E-01  6.66006E-01  4.41924E-01  2.34561E-01
   4.27392E-02 -1.34467E-01 -2.98259E-01 -4.49544E-01 -5.89468E-01 -7.18850E-01 -8.38723E-01 -9.49780E-01 -1.05293E+00 -1.14875E+00
  -1.23802E+00 -1.32120E+00 -1.39896E+00 -1.47164E+00 -1.53983E+00 -1.60377E+00 -1.66397E+00 -1.72061E+00 -1.77412E+00 -1.82462E+00
  -1.87248E+00 -1.91779E+00 -1.96088E+00 -2.00178E+00 -2.04080E+00 -2.07793E+00 -2.11344E+00 -2.14734E+00 -2.17985E+00 -2.21094E+00
  -2.24084E+00 -2.26950E+00 -2.29712E+00 -2.32366E+00 -2.34931E+00 -2.37398E+00 -2.39787E+00 -2.42091E+00 -2.44326E+00 -2.46485E+00
  -2.48583E+00 -2.50613E+00 -2.52589E+00 -2.54503E+00 -2.56371E+00 -2.58183E+00 -2.59953E+00 -2.61671E+00 -2.63352E+00 -2.64986E+00
  -2.66588E+00 -2.68146E+00 -2.69675E+00 -2.71163E+00 -2.72625E+00 -2.74049E+00 -2.75449E+00 -2.76814E+00
 NY background values follow
     1.501E+00    1.493E+00    1.485E+00    1.476E+00    1.468E+00    1.460E+00    1.451E+00    1.443E+00    1.435E+00    1.426E+00
     1.418E+00    1.410E+00    1.401E+00    1.393E+00    1.385E+00    1.376E+00    1.368E+00    1.360E+00    1.351E+00    1.343E+00
     1.335E+00    1.326E+00    1.318E+00    1.310E+00    1.301E+00    1.293E+00    1.285E+00    1.276E+00    1.268E+00    1.260E+00
     1.251E+00    1.243E+00    1.235E+00    1.226E+00    1.218E+00    1.210E+00    1.201E+00    1.193E+00    1.185E+00    1.176E+00
     1.168E+00    1.160E+00    1.151E+00    1.143E+00    1.135E+00    1.126E+00    1.118E+00    1.110E+00    1.101E+00    1.093E+00
     1.085E+00    1.076E+00    1.068E+00    1.060E+00    1.051E+00    1.043E+00    1.035E+00    1.026E+00    1.018E+00    1.010E+00
     1.001E+00    9.930E-01    9.847E-01    9.764E-01    9.680E-01    9.597E-01    9.514E-01    9.430E-01    9.347E-01    9.264E-01
     9.180E-01    9.097E-01    9.014E-01    8.930E-01    8.847E-01    8.763E-01    8.680E-01    8.597E-01    8.513E-01    8.430E-01
     8.347E-01    8.263E-01    8.180E-01    8.097E-01    8.013E-01    7.930E-01    7.847E-01    7.763E-01    7.680E-01    7.597E-01
     7.513E-01    7.430E-01    7.346E-01    7.263E-01    7.180E-01    7.096E-01    7.013E-01    6.930E-01    6.846E-01    6.763E-01
     6.680E-01    6.596E-01    6.513E-01    6.430E-01    6.346E-01    6.263E-01    6.180E-01    6.096E-01    6.013E-01    5.929E-01
     5.846E-01    5.763E-01    5.679E-01    5.596E-01    5.513E-01    5.429E-01    5.346E-01    5.263E-01    5.179E-01    5.096E-01
     5.013E-01    4.929E-01    4.846E-01    4.763E-01    4.679E-01    4.596E-01    4.513E-01    4.429E-01    4.346E-01    4.263E-01
     4.179E-01    4.096E-01    4.013E-01    3.929E-01    3.846E-01    3.763E-01    3.679E-01    3.596E-01    3.513E-01    3.429E-01
     3.346E-01    3.263E-01    3.179E-01    3.096E-01    3.013E-01    2.929E-01    2.846E-01    2.763E-01    2.679E-01    2.596E-01
     2.513E-01    2.430E-01    2.346E-01    2.263E-01    2.180E-01    2.096E-01    2.013E-01    1.930E-01    1.846E-01    1.763E-01
     1.680E-01    1.596E-01    1.513E-01    1.430E-01    1.347E-01    1.263E-01    1.180E-01    1.097E-01    1.013E-01    9.302E-02
     8.469E-02    7.636E-02    6.803E-02    5.971E-02    5.138E-02    4.305E-02    3.473E-02    2.640E-02    1.807E-02    9.746E-03
     1.419E-03   -6.907E-03   -1.523E-02   -2.356E-02   -3.188E-02   -4.021E-02   -4.853E-02   -5.686E-02   -6.518E-02   -7.351E-02
    -8.183E-02   -9.016E-02   -9.848E-02   -1.068E-01   -1.151E-01   -1.235E-01   -1.318E-01   -1.401E-01   -1.484E-01   -1.567E-01
    -1.651E-01   -1.734E-01   -1.817E-01   -1.900E-01   -1.983E-01   -2.067E-01   -2.150E-01   -2.233E-01   -2.316E-01   -2.399E-01
    -2.483E-01   -2.566E-01   -2.649E-01   -2.732E-01   -2.815E-01   -2.899E-01   -2.982E-01   -3.065E-01   -3.148E-01   -3.231E-01
    -3.314E-01   -3.398E-01   -3.481E-01   -3.564E-01   -3.647E-01   -3.730E-01   -3.813E-01   -3.897E-01   -3.980E-01   -4.063E-01
    -4.146E-01   -4.229E-01   -4.312E-01   -4.395E-01   -4.478E-01   -4.562E-01   -4.645E-01   -4.728E-01   -4.811E-01   -4.894E-01
    -4.977E-01   -5.060E-01   -5.143E-01   -5.226E-01   -5.310E-01   -5.393E-01   -5.476E-01   -5.559E-01   -5.642E-01   -5.725E-01
    -5.808E-01   -5.891E-01   -5.974E-01   -6.057E-01   -6.140E-01   -6.223E-01   -6.306E-01   -6.389E-01   -6.472E-01   -6.555E-01
    -6.639E-01   -6.722E-01   -6.805E-01   -6.888E-01   -6.971E-01   -7.054E-01   -7.137E-01   -7.220E-01   -7.303E-01   -7.386E-01
    -7.469E-01   -7.552E-01   -7.635E-01   -7.718E-01   -7.801E-01   -7.884E-01   -7.967E-01   -8.049E-01   -8.132E-01   -8.215E-01
    -8.298E-01   -8.381E-01   -8.464E-01   -8.547E-01   -8.630E-01   -8.713E-01   -8.796E-01   -8.879E-01   -8.962E-01   -9.045E-01
    -9.128E-01   -9.211E-01   -9.293E-01   -9.376E-01   -9.459E-01   -9.542E-01   -9.625E-01   -9.708E-01   -9.791E-01   -9.874E-01
    -9.956E-01   -1.004E+00   -1.012E+00   -1.020E+00   -1.029E+00   -1.037E+00   -1.045E+00   -1.054E+00   -1.062E+00   -1.070E+00
    -1.078E+00   -1.087E+00   -1.095E+00   -1.103E+00   -1.112E+00   -1.120E+00   -1.128E+00   -1.136E+00   -1.145E+00   -1.153E+00
    -1.161E+00   -1.170E+00   -1.178E+00   -1.186E+00   -1.194E+00   -1.203E+00   -1.211E+00   -1.219E+00   -1.227E+00   -1.236E+00
    -1.244E+00   -1.252E+00   -1.261E+00   -1.269E+00   -1.277E+00   -1.285E+00   -1.294E+00   -1.302E+00   -1.310E+00   -1.318E+00
    -1.327E+00   -1.335E+00   -1.343E+00   -1.351E+00   -1.360E+00   -1.368E+00   -1.376E+00   -1.385E+00   -1.393E+00   -1.401E+00
    -1.409E+00   -1.418E+00   -1.426E+00   -1.434E+00   -1.442E+00   -1.451E+00   -1.459E+00   -1.467E+00   -1.475E+00   -1.484E+00
    -1.492E+00   -1.500E+00   -1.508E+00   -1.517E+00   -1.525E+00   -1.533E+00   -1.541E+00   -1.550E+00   -1.558E+00   -1.566E+00
    -1.574E+00   -1.583E+00   -1.591E+00   -1.599E+00   -1.607E+00   -1.616E+00   -1.624E+00   -1.632E+00   -1.640E+00   -1.649E+00
    -1.657E+00   -1.665E+00   -1.673E+00   -1.681E+00   -1.690E+00   -1.698E+00   -1.706E+00   -1.714E+00   -1.723E+00   -1.731E+00
    -1.739E+00   -1.747E+00   -1.756E+00   -1.764E+00   -1.772E+00   -1.780E+00   -1.789E+00   -1.797E+00   -1.805E+00   -1.813E+00
    -1.821E+00   -1.830E+00   -1.838E+00   -1.846E+00   -1.854E+00   -1.863E+00   -1.871E+00   -1.879E+00   -1.887E+00   -1.895E+00
    -1.904E+00   -1.912E+00   -1.920E+00   -1.928E+00   -1.937E+00   -1.945E+00   -1.953E+00   -1.961E+00   -1.969E+00   -1.978E+00
    -1.986E+00   -1.994E+00   -2.002E+00   -2.010E+00   -2.019E+00   -2.027E+00   -2.035E+00   -2.043E+00   -2.051E+00   -2.060E+00
    -2.068E+00   -2.076E+00   -2.084E+00   -2.092E+00   -2.101E+00   -2.109E+00   -2.117E+00   -2.125E+00   -2.133E+00   -2.142E+00
    -2.150E+00   -2.158E+00   -2.166E+00   -2.174E+00   -2.183E+00   -2.191E+00   -2.199E+00   -2.207E+00   -2.215E+00   -2.224E+00
    -2.232E+00   -2.240E+00   -2.248E+00   -2.256E+00   -2.264E+00   -2.273E+00   -2.281E+00   -2.289E+00   -2.297E+00   -2.305E+00
    -2.314E+00   -2.322E+00   -2.330E+00   -2.338E+00   -2.346E+00   -2.354E+00   -2.363E+00   -2.371E+00   -2.379E+00   -2.387E+00
    -2.395E+00   -2.403E+00   -2.412E+00   -2.420E+00   -2.428E+00   -2.436E+00   -2.444E+00   -2.452E+00   -2.461E+00   -2.469E+00
    -2.477E+00   -2.485E+00   -2.493E+00   -2.501E+00   -2.510E+00   -2.518E+00   -2.526E+00   -2.534E+00   -2.542E+00   -2.550E+00
    -2.558E+00   -2.567E+00   -2.575E+00   -2.583E+00   -2.591E+00   -2.599E+00   -2.607E+00   -2.616E+00
 Asp      Conc. = 4.80E+01
