 LCModel (Version 6.3-1L) Copyright: S.W. Provencher.          Ref.: Magn. Reson. Med. 30:672-679 (1993).                
 Slice#3 Row#4 Col#3  PD_24_press_2_raw_act
 36 lines in following concentration table = NCONC+1
    Conc.  %SD /Cr+PCr  Metabolite                                         
    0.000 999%   0.000 Ala                                                 
   67.810 622% 2.6E-02 Asp                                                 
    0.000 999%   0.000 Cr                                                  
 2.64E+03   5%   1.000 PCr                                                 
  366.016  81%   0.139 GABA                                                
  570.384  50%   0.216 Glc                                                 
 1.17E+03  67%   0.445 Gln                                                 
 3.04E+03  30%   1.151 Glu                                                 
  845.360  37%   0.320 GPC                                                 
  247.130 131% 9.4E-02 PCh                                                 
  712.910  27%   0.270 GSH                                                 
 3.86E+03  19%   1.462 Ins                                                 
    0.000 999%   0.000 Lac                                                 
 3.14E+03   4%   1.188 NAA                                                 
    0.000 999%   0.000 NAAG                                                
  456.005  14%   0.173 Scyllo                                              
 1.20E+03  37%   0.453 Tau                                                 
  783.995  34%   0.297 -CrCH2                                              
 1.09E+03   5%   0.414 GPC+PCh                                             
 3.14E+03   4%   1.188 NAA+NAAG                                            
 2.64E+03   5%   1.000 Cr+PCr                                              
 4.21E+03  36%   1.596 Glu+Gln                                             
    0.000 999%   0.000 Lip13a                                              
    0.000 999%   0.000 Lip13b                                              
    0.000 999%   0.000 Lip09                                               
   11.334 999% 4.3E-03 MM09                                                
    0.000 999%   0.000 Lip20                                               
   16.872 999% 6.4E-03 MM20                                                
    3.284 999% 1.2E-03 MM12                                                
    9.532 999% 3.6E-03 MM14                                                
    5.615 999% 2.1E-03 MM17                                                
    0.000 999%   0.000 Lip13a+Lip13b                                       
   12.816 999% 4.9E-03 MM14+Lip13a+Lip13b+MM12                             
   11.334 999% 4.3E-03 MM09+Lip09                                          
   16.872 999% 6.4E-03 MM20+Lip20                                          
   6 lines in following misc. output table
  FWHM = 0.076 ppm    S/N =   6                                            
  Data shift = 0.031 ppm                                                   
  Ph: -71 deg     -28.4 deg/ppm                                            
  alphaB,S = 6.8E-01,   2.6E+01                                            
   14 spline knots.   Ns = 9(1)                                            
  (15) 9 infls.   (15) 1 extrs.                                            
  498 points on ppm-axis = NY
      4.000000     3.992357     3.984714     3.977070     3.969427     3.961784     3.954141     3.946497     3.938854     3.931211
      3.923568     3.915925     3.908281     3.900638     3.892995     3.885352     3.877708     3.870065     3.862422     3.854779
      3.847136     3.839492     3.831849     3.824206     3.816563     3.808919     3.801276     3.793633     3.785990     3.778347
      3.770703     3.763060     3.755417     3.747774     3.740130     3.732487     3.724844     3.717201     3.709558     3.701914
      3.694271     3.686628     3.678985     3.671341     3.663698     3.656055     3.648412     3.640769     3.633125     3.625482
      3.617839     3.610196     3.602552     3.594909     3.587266     3.579623     3.571980     3.564336     3.556693     3.549050
      3.541407     3.533763     3.526120     3.518477     3.510834     3.503191     3.495547     3.487904     3.480261     3.472618
      3.464974     3.457331     3.449688     3.442045     3.434402     3.426758     3.419115     3.411472     3.403829     3.396185
      3.388542     3.380899     3.373256     3.365613     3.357969     3.350326     3.342683     3.335040     3.327396     3.319753
      3.312110     3.304467     3.296824     3.289180     3.281537     3.273894     3.266251     3.258607     3.250964     3.243321
      3.235678     3.228034     3.220391     3.212748     3.205105     3.197462     3.189818     3.182175     3.174532     3.166889
      3.159245     3.151602     3.143959     3.136316     3.128673     3.121029     3.113386     3.105743     3.098100     3.090456
      3.082813     3.075170     3.067527     3.059884     3.052240     3.044597     3.036954     3.029311     3.021667     3.014024
      3.006381     2.998738     2.991095     2.983451     2.975808     2.968165     2.960522     2.952878     2.945235     2.937592
      2.929949     2.922306     2.914662     2.907019     2.899376     2.891733     2.884089     2.876446     2.868803     2.861160
      2.853517     2.845873     2.838230     2.830587     2.822944     2.815300     2.807657     2.800014     2.792371     2.784728
      2.777084     2.769441     2.761798     2.754155     2.746511     2.738868     2.731225     2.723582     2.715939     2.708295
      2.700652     2.693009     2.685366     2.677722     2.670079     2.662436     2.654793     2.647150     2.639506     2.631863
      2.624220     2.616577     2.608933     2.601290     2.593647     2.586004     2.578361     2.570717     2.563074     2.555431
      2.547788     2.540144     2.532501     2.524858     2.517215     2.509572     2.501928     2.494285     2.486642     2.478999
      2.471355     2.463712     2.456069     2.448426     2.440783     2.433139     2.425496     2.417853     2.410210     2.402566
      2.394923     2.387280     2.379637     2.371994     2.364350     2.356707     2.349064     2.341421     2.333777     2.326134
      2.318491     2.310848     2.303205     2.295561     2.287918     2.280275     2.272632     2.264988     2.257345     2.249702
      2.242059     2.234416     2.226772     2.219129     2.211486     2.203843     2.196199     2.188556     2.180913     2.173270
      2.165627     2.157983     2.150340     2.142697     2.135054     2.127410     2.119767     2.112124     2.104481     2.096838
      2.089194     2.081551     2.073908     2.066265     2.058621     2.050978     2.043335     2.035692     2.028049     2.020405
      2.012762     2.005119     1.997476     1.989833     1.982190     1.974546     1.966903     1.959260     1.951617     1.943974
      1.936331     1.928688     1.921045     1.913402     1.905759     1.898115     1.890472     1.882829     1.875186     1.867543
      1.859900     1.852257     1.844614     1.836971     1.829327     1.821684     1.814041     1.806398     1.798755     1.791112
      1.783469     1.775826     1.768183     1.760540     1.752896     1.745253     1.737610     1.729967     1.722324     1.714681
      1.707038     1.699395     1.691752     1.684108     1.676465     1.668822     1.661179     1.653536     1.645893     1.638250
      1.630607     1.622964     1.615321     1.607677     1.600034     1.592391     1.584748     1.577105     1.569462     1.561819
      1.554176     1.546533     1.538890     1.531246     1.523603     1.515960     1.508317     1.500674     1.493031     1.485388
      1.477745     1.470102     1.462458     1.454815     1.447172     1.439529     1.431886     1.424243     1.416600     1.408957
      1.401314     1.393671     1.386027     1.378384     1.370741     1.363098     1.355455     1.347812     1.340169     1.332526
      1.324883     1.317240     1.309596     1.301953     1.294310     1.286667     1.279024     1.271381     1.263738     1.256095
      1.248452     1.240808     1.233165     1.225522     1.217879     1.210236     1.202593     1.194950     1.187307     1.179664
      1.172021     1.164377     1.156734     1.149091     1.141448     1.133805     1.126162     1.118519     1.110876     1.103233
      1.095590     1.087946     1.080303     1.072660     1.065017     1.057374     1.049731     1.042088     1.034445     1.026802
      1.019158     1.011515     1.003872     0.996229     0.988586     0.980943     0.973300     0.965657     0.958014     0.950371
      0.942727     0.935084     0.927441     0.919798     0.912155     0.904512     0.896869     0.889226     0.881583     0.873940
      0.866296     0.858653     0.851010     0.843367     0.835724     0.828081     0.820438     0.812795     0.805152     0.797508
      0.789865     0.782222     0.774579     0.766936     0.759293     0.751650     0.744007     0.736364     0.728721     0.721077
      0.713434     0.705791     0.698148     0.690505     0.682862     0.675219     0.667576     0.659933     0.652290     0.644646
      0.637003     0.629360     0.621717     0.614074     0.606431     0.598788     0.591145     0.583502     0.575858     0.568215
      0.560572     0.552929     0.545286     0.537643     0.530000     0.522357     0.514714     0.507071     0.499427     0.491784
      0.484141     0.476498     0.468855     0.461212     0.453569     0.445925     0.438282     0.430639     0.422996     0.415353
      0.407710     0.400067     0.392424     0.384780     0.377137     0.369494     0.361851     0.354208     0.346565     0.338922
      0.331278     0.323635     0.315992     0.308349     0.300706     0.293063     0.285420     0.277777     0.270133     0.262490
      0.254847     0.247204     0.239561     0.231918     0.224275     0.216631     0.208988     0.201345
 NY phased data points follow
  -2.71488E+02 -2.61268E+02 -2.64247E+02 -2.39274E+02 -2.40388E+02 -2.25924E+02 -2.24453E+02 -2.16410E+02 -2.17434E+02 -2.12065E+02
  -2.16879E+02 -2.09003E+02 -2.14850E+02 -2.14113E+02 -2.22158E+02 -2.17414E+02 -2.25502E+02 -2.32499E+02 -2.39481E+02 -2.30277E+02
  -2.29640E+02 -2.27124E+02 -2.23178E+02 -2.13294E+02 -2.07574E+02 -2.05480E+02 -2.06337E+02 -1.93204E+02 -2.02796E+02 -1.89060E+02
  -2.04349E+02 -1.94802E+02 -2.01552E+02 -1.83309E+02 -1.90202E+02 -1.83185E+02 -1.86705E+02 -1.87157E+02 -1.91765E+02 -1.78117E+02
  -1.84449E+02 -1.75835E+02 -1.71669E+02 -1.74573E+02 -1.72414E+02 -1.64157E+02 -1.64306E+02 -1.69471E+02 -1.66122E+02 -1.53587E+02
  -1.71674E+02 -1.59518E+02 -1.53672E+02 -1.63517E+02 -1.74029E+02 -1.57221E+02 -1.67473E+02 -1.62012E+02 -1.55629E+02 -1.52803E+02
  -1.62524E+02 -1.48458E+02 -1.57714E+02 -1.57885E+02 -1.51324E+02 -1.49147E+02 -1.57933E+02 -1.55491E+02 -1.47811E+02 -1.40964E+02
  -1.40553E+02 -1.41118E+02 -1.32460E+02 -1.30467E+02 -1.30370E+02 -1.40568E+02 -1.31382E+02 -1.24070E+02 -1.24545E+02 -1.22562E+02
  -1.22071E+02 -1.16452E+02 -1.17038E+02 -1.22185E+02 -1.18192E+02 -1.10375E+02 -1.13243E+02 -1.10934E+02 -1.15109E+02 -1.07002E+02
  -1.00796E+02 -1.18019E+02 -1.10401E+02 -1.08435E+02 -1.09768E+02 -8.85120E+01 -8.57625E+01 -8.56523E+01 -6.64854E+01 -6.34431E+01
  -5.79446E+01 -4.83612E+01 -4.25597E+01 -3.76912E+01 -4.38897E+01 -5.31099E+01 -4.85354E+01 -6.28142E+01 -7.23444E+01 -8.39233E+01
  -9.55722E+01 -7.71704E+01 -9.92741E+01 -1.05325E+02 -9.79981E+01 -1.07212E+02 -1.02517E+02 -1.00381E+02 -9.22483E+01 -8.83861E+01
  -8.19366E+01 -6.77515E+01 -6.14016E+01 -4.76495E+01 -5.32553E+01 -3.85821E+01 -3.65659E+01 -3.09826E+01 -3.40246E+01 -3.09296E+01
  -3.83038E+01 -4.71222E+01 -5.74411E+01 -6.35010E+01 -6.64554E+01 -7.28548E+01 -7.25249E+01 -8.55747E+01 -8.22636E+01 -9.33234E+01
  -7.78336E+01 -8.10075E+01 -8.07927E+01 -8.67324E+01 -8.12132E+01 -7.82624E+01 -8.49665E+01 -8.19626E+01 -6.97082E+01 -7.45058E+01
  -7.10648E+01 -6.95272E+01 -7.51941E+01 -7.90325E+01 -7.28527E+01 -7.75034E+01 -8.27500E+01 -7.43974E+01 -6.43101E+01 -7.91226E+01
  -7.77127E+01 -6.47409E+01 -6.31839E+01 -6.56191E+01 -6.58859E+01 -6.44254E+01 -5.93728E+01 -5.77948E+01 -5.88507E+01 -7.61274E+01
  -6.46657E+01 -6.39693E+01 -6.33402E+01 -7.49473E+01 -5.54488E+01 -6.60552E+01 -7.79591E+01 -6.78848E+01 -5.82391E+01 -6.84732E+01
  -6.63516E+01 -6.23829E+01 -7.33375E+01 -6.20255E+01 -5.74845E+01 -5.64787E+01 -5.16518E+01 -6.26397E+01 -5.15122E+01 -4.48068E+01
  -3.60015E+01 -3.80764E+01 -3.80648E+01 -3.68794E+01 -2.85989E+01 -3.42057E+01 -3.81074E+01 -3.51989E+01 -3.54531E+01 -4.14409E+01
  -3.68605E+01 -3.28088E+01 -3.65713E+01 -4.35434E+01 -3.47250E+01 -4.13491E+01 -2.85735E+01 -4.57098E+01 -3.73537E+01 -4.31523E+01
  -3.65063E+01 -2.86849E+01 -3.10131E+01 -3.13708E+01 -2.85710E+01 -2.22160E+01 -2.08096E+01 -3.36615E+01 -2.35061E+01 -2.26575E+01
  -2.72204E+01 -4.37960E+01 -2.56528E+01 -3.42037E+01 -2.86485E+01 -3.60365E+01 -2.02504E+01 -2.21386E+01 -1.73593E+01 -1.93138E+01
  -1.68612E+01 -1.88154E+01 -2.25072E+01 -2.50854E+01 -1.53463E+01 -1.43102E+01 -1.31937E+01 -7.91918E+00 -1.10997E+01 -1.61856E+01
  -5.96188E+00 -8.02797E+00 -9.73719E+00 -2.27098E+01 -4.25993E+00 -1.45788E+01 -5.21560E+00 -1.73570E+01 -1.62021E+01 -8.84461E+00
  -8.19262E+00 -1.34337E+00 -1.57188E+00  2.65197E+01  2.04215E+01  4.08418E+01  4.20558E+01  4.46312E+01  5.32416E+01  6.98471E+01
   7.16733E+01  6.86840E+01  6.43338E+01  6.27614E+01  4.57919E+01  2.35163E+01  1.97744E+01  7.80984E+00  1.50661E+01 -1.35068E+00
   3.04554E+00 -2.67337E+00  4.13306E+00 -3.07905E+00 -5.99239E+00  1.45200E+00 -3.60397E-01  3.12205E+00 -2.56199E+00 -6.80820E+00
  -4.91844E-01  1.53270E+00  6.94808E+00 -1.48853E+00 -6.62556E+00 -5.30132E-01 -1.59545E+00 -1.28619E+00  8.33590E-01  6.37397E+00
  -2.20872E+00  6.75700E+00  3.87794E+00  1.12815E+01  7.54682E+00  9.18624E+00  8.82150E+00  6.87863E+00  1.21801E+00  1.16043E+01
   9.82504E+00  1.35731E+01  7.38530E+00  2.79393E+00  9.64455E+00  1.38236E+01  5.57151E+00  7.58288E+00  1.47088E+01  1.31232E+01
   1.37082E+01  6.57499E+00  1.84509E+01  1.01865E+01  1.54073E+01  1.18610E+01  4.53801E+00 -3.75701E+00  1.01141E+01  1.10988E+01
   1.57275E+01  2.72312E+00  7.42611E+00  3.79162E-01  8.61518E+00  9.17404E+00  7.85001E+00  3.71144E+00  1.28930E+01  6.65424E+00
   1.87901E+01  8.74019E+00  1.69907E+01 -2.73348E-02  8.85610E+00  1.54004E+01  1.72755E+01  7.22506E+00  7.65460E+00  2.69715E+00
   4.14486E+00 -2.50750E+00  7.65903E+00 -6.29373E+00  1.10942E+01  1.88572E+00  3.01412E+00 -5.39116E+00  1.40283E+00  7.14094E-01
   6.26142E+00  5.40745E+00  1.07555E+01  7.53361E+00  3.06879E+00  1.69781E-01  2.68768E+00  7.88639E+00  1.38119E+00  4.78331E-01
   1.08271E+01  2.21176E+00  2.14283E-01  4.76166E-01  6.97606E+00 -3.63256E+00 -1.95714E+00 -2.37803E+00 -5.31970E+00 -5.35941E+00
  -3.40026E+00  6.63851E+00 -9.48975E-01  4.82018E+00 -9.74144E+00  1.00176E+01  5.21941E+00  7.63781E+00  4.14785E+00  9.61118E+00
   2.27740E+00 -7.03627E+00  6.91120E+00 -1.58669E+00  3.87650E+00 -3.15317E+00  2.02773E+00 -6.41561E+00  6.44683E+00  8.45948E+00
  -1.77934E+00 -2.28345E+00  5.93468E+00  1.62806E+01  1.84161E+00  2.94535E+00  1.58878E+00  3.61015E+00  9.02455E+00  1.00728E+01
   1.32653E+01  4.07159E+00  3.94629E+00  9.43175E+00  1.55881E+01  4.56533E+00  7.60964E+00  1.20382E+01  9.14794E+00  1.50727E+01
   1.37116E+01  5.16204E+00  1.88057E+01  1.84950E+01  1.07100E+01  9.02157E+00  1.72864E+01  1.44617E+01  1.23201E+01  1.51079E+01
   1.69916E+01  3.70093E+00  1.51789E+01  1.34330E+01  2.26037E+01  6.56095E+00  1.59640E+01  1.97089E+01  1.03232E+01  1.97254E+01
   1.38275E+01  1.63820E+01  6.52482E+00  1.27548E+01  1.71561E+01  1.49204E+01  1.65496E+01  1.92715E+01  1.92220E+01  1.66976E+01
   2.26438E+01  2.23491E+01  3.27232E+01  2.03716E+01  2.46010E+01  3.46196E+01  2.55803E+01  2.18163E+01  1.28851E+01  1.96041E+01
   2.66961E+01  2.10646E+01  1.95780E+01  2.33946E+01  2.63505E+01  1.84138E+01  2.04611E+01  1.83193E+01  2.37093E+01  1.83840E+01
   2.17584E+01  2.00592E+01  2.82064E+01  2.22328E+01  3.28403E+01  2.37909E+01  2.57415E+01  1.86624E+01  2.65469E+01  2.40954E+01
   2.70290E+01  2.70589E+01  2.02062E+01  2.47940E+01  3.11118E+01  1.98411E+01  2.15621E+01  2.79617E+01  2.84781E+01  2.11166E+01
   2.23524E+01  2.03864E+01  3.02486E+01  2.99610E+01  2.14948E+01  2.62372E+01  2.41395E+01  3.16392E+01  2.37120E+01  2.08863E+01
   2.41547E+01  2.55070E+01  2.37946E+01  2.95057E+01  3.26020E+01  2.03500E+01  3.25298E+01  2.52943E+01
 NY points of the fit to the data follow
  -2.54800E+02 -2.51857E+02 -2.46789E+02 -2.41670E+02 -2.36527E+02 -2.31448E+02 -2.28497E+02 -2.24442E+02 -2.18455E+02 -2.14268E+02
  -2.13206E+02 -2.12887E+02 -2.12276E+02 -2.14113E+02 -2.18516E+02 -2.21549E+02 -2.23249E+02 -2.23390E+02 -2.22961E+02 -2.23960E+02
  -2.24124E+02 -2.22968E+02 -2.20468E+02 -2.17323E+02 -2.13749E+02 -2.09646E+02 -2.06424E+02 -2.03733E+02 -2.00201E+02 -1.96488E+02
  -1.93828E+02 -1.92062E+02 -1.89821E+02 -1.88093E+02 -1.88327E+02 -1.89141E+02 -1.90095E+02 -1.90717E+02 -1.89882E+02 -1.87778E+02
  -1.84603E+02 -1.81000E+02 -1.77627E+02 -1.74907E+02 -1.72420E+02 -1.68916E+02 -1.65616E+02 -1.63998E+02 -1.63300E+02 -1.62953E+02
  -1.63368E+02 -1.64868E+02 -1.66652E+02 -1.67167E+02 -1.66010E+02 -1.64505E+02 -1.63546E+02 -1.62514E+02 -1.60680E+02 -1.58401E+02
  -1.56431E+02 -1.54627E+02 -1.53107E+02 -1.52201E+02 -1.51225E+02 -1.50358E+02 -1.49164E+02 -1.47026E+02 -1.44610E+02 -1.42333E+02
  -1.40117E+02 -1.38195E+02 -1.36960E+02 -1.35874E+02 -1.34068E+02 -1.32495E+02 -1.31826E+02 -1.30795E+02 -1.28672E+02 -1.25996E+02
  -1.24193E+02 -1.22488E+02 -1.20700E+02 -1.19541E+02 -1.17124E+02 -1.13983E+02 -1.12509E+02 -1.12760E+02 -1.12929E+02 -1.12824E+02
  -1.13862E+02 -1.15577E+02 -1.16200E+02 -1.14810E+02 -1.08739E+02 -9.81812E+01 -8.85568E+01 -7.91616E+01 -6.93343E+01 -6.38172E+01
  -5.79205E+01 -4.78058E+01 -4.03358E+01 -3.98475E+01 -4.20990E+01 -4.42741E+01 -5.08077E+01 -6.38293E+01 -7.62319E+01 -8.48292E+01
  -8.95216E+01 -9.23730E+01 -9.76028E+01 -1.01530E+02 -1.02439E+02 -1.02063E+02 -1.01105E+02 -9.96104E+01 -9.63389E+01 -8.84880E+01
  -7.80269E+01 -6.93175E+01 -6.06544E+01 -5.39706E+01 -4.99673E+01 -4.23528E+01 -3.31569E+01 -2.95163E+01 -3.10844E+01 -3.29110E+01
  -3.61622E+01 -4.58056E+01 -5.78892E+01 -6.66309E+01 -7.22726E+01 -7.49350E+01 -7.84368E+01 -8.30938E+01 -8.49148E+01 -8.45079E+01
  -8.33618E+01 -8.19433E+01 -8.05392E+01 -7.94716E+01 -7.85723E+01 -7.78196E+01 -7.73324E+01 -7.68190E+01 -7.62622E+01 -7.57601E+01
  -7.52298E+01 -7.47234E+01 -7.42400E+01 -7.39062E+01 -7.35521E+01 -7.30478E+01 -7.24451E+01 -7.15746E+01 -7.07722E+01 -7.02733E+01
  -6.98183E+01 -6.93577E+01 -6.87703E+01 -6.80824E+01 -6.74418E+01 -6.68047E+01 -6.62272E+01 -6.57766E+01 -6.57067E+01 -6.59038E+01
  -6.56414E+01 -6.51220E+01 -6.45634E+01 -6.40784E+01 -6.39406E+01 -6.36439E+01 -6.29260E+01 -6.19989E+01 -6.12974E+01 -6.08555E+01
  -6.00570E+01 -5.88163E+01 -5.75650E+01 -5.62291E+01 -5.48305E+01 -5.32579E+01 -5.15581E+01 -4.99489E+01 -4.85250E+01 -4.72917E+01
  -4.59869E+01 -4.46334E+01 -4.36160E+01 -4.30079E+01 -4.22860E+01 -4.14586E+01 -4.05754E+01 -3.95316E+01 -3.81755E+01 -3.67807E+01
  -3.57001E+01 -3.49455E+01 -3.45892E+01 -3.43540E+01 -3.42712E+01 -3.49218E+01 -3.53574E+01 -3.51400E+01 -3.48061E+01 -3.42336E+01
  -3.33713E+01 -3.21061E+01 -3.12986E+01 -3.04579E+01 -2.87671E+01 -2.78411E+01 -2.79078E+01 -2.81271E+01 -2.83787E+01 -2.85280E+01
  -3.00473E+01 -3.21452E+01 -3.24479E+01 -3.12130E+01 -2.96169E+01 -2.81721E+01 -2.58041E+01 -2.25567E+01 -2.00516E+01 -1.87497E+01
  -1.79820E+01 -1.71498E+01 -1.58896E+01 -1.51102E+01 -1.53246E+01 -1.54441E+01 -1.48683E+01 -1.43598E+01 -1.44793E+01 -1.44087E+01
  -1.39001E+01 -1.38637E+01 -1.44524E+01 -1.46768E+01 -1.43590E+01 -1.37231E+01 -1.27135E+01 -1.11777E+01 -9.59003E+00 -8.15401E+00
  -6.56766E+00 -2.98037E+00  6.33325E+00  1.85617E+01  2.84752E+01  3.83850E+01  4.56649E+01  4.90742E+01  5.66618E+01  6.63329E+01
   6.93913E+01  6.63701E+01  6.36354E+01  5.96136E+01  4.74267E+01  3.19646E+01  2.09143E+01  1.38334E+01  1.03290E+01  5.82980E+00
  -4.13049E-02 -2.48755E+00 -2.57701E+00 -2.20452E+00 -1.72443E+00 -1.09063E+00 -4.97687E-01 -4.44150E-02  2.66639E-01  4.88078E-01
   6.31212E-01  7.78308E-01  9.49349E-01  1.10253E+00  1.30764E+00  1.59300E+00  1.87330E+00  2.16472E+00  2.48917E+00  2.78765E+00
   3.05742E+00  3.30484E+00  3.53314E+00  3.74682E+00  3.94270E+00  4.12366E+00  4.29725E+00  4.47160E+00  4.65185E+00  4.82482E+00
   4.99255E+00  5.15947E+00  5.31760E+00  5.47000E+00  5.61515E+00  5.75120E+00  5.87815E+00  5.99489E+00  6.10184E+00  6.20005E+00
   6.28968E+00  6.37147E+00  6.44475E+00  6.50892E+00  6.56502E+00  6.61285E+00  6.65221E+00  6.68319E+00  6.70608E+00  6.72116E+00
   6.72878E+00  6.72909E+00  6.72234E+00  6.70896E+00  6.68950E+00  6.66424E+00  6.63337E+00  6.59709E+00  6.55584E+00  6.50980E+00
   6.45940E+00  6.40502E+00  6.34683E+00  6.28505E+00  6.22013E+00  6.15236E+00  6.08217E+00  6.00982E+00  5.93559E+00  5.85972E+00
   5.78266E+00  5.70486E+00  5.62677E+00  5.54856E+00  5.47055E+00  5.39306E+00  5.31659E+00  5.24159E+00  5.16841E+00  5.09724E+00
   5.02846E+00  4.96244E+00  4.89967E+00  4.84047E+00  4.78514E+00  4.73388E+00  4.68706E+00  4.64506E+00  4.60835E+00  4.57715E+00
   4.55173E+00  4.53230E+00  4.51927E+00  4.51281E+00  4.51293E+00  4.51942E+00  4.53218E+00  4.55106E+00  4.57615E+00  4.60741E+00
   4.64480E+00  4.68816E+00  4.73740E+00  4.79245E+00  4.85342E+00  4.92023E+00  4.99285E+00  5.07109E+00  5.15494E+00  5.24437E+00
   5.33946E+00  5.44011E+00  5.54627E+00  5.65776E+00  5.77460E+00  5.89679E+00  6.02437E+00  6.15720E+00  6.29518E+00  6.43817E+00
   6.58618E+00  6.73916E+00  6.89705E+00  7.05964E+00  7.22676E+00  7.39822E+00  7.57400E+00  7.75392E+00  7.93783E+00  8.12544E+00
   8.31656E+00  8.51105E+00  8.70885E+00  8.90980E+00  9.11379E+00  9.32061E+00  9.53024E+00  9.74265E+00  9.95791E+00  1.01759E+01
   1.03965E+01  1.06196E+01  1.08452E+01  1.10734E+01  1.13041E+01  1.15372E+01  1.17726E+01  1.20103E+01  1.22501E+01  1.24921E+01
   1.27361E+01  1.29819E+01  1.32294E+01  1.34784E+01  1.37287E+01  1.39803E+01  1.42329E+01  1.44863E+01  1.47404E+01  1.49949E+01
   1.52497E+01  1.55047E+01  1.57597E+01  1.60144E+01  1.62687E+01  1.65224E+01  1.67754E+01  1.70276E+01  1.72788E+01  1.75287E+01
   1.77772E+01  1.80243E+01  1.82697E+01  1.85133E+01  1.87549E+01  1.89943E+01  1.92314E+01  1.94661E+01  1.96982E+01  1.99276E+01
   2.01540E+01  2.03773E+01  2.05974E+01  2.08143E+01  2.10280E+01  2.12385E+01  2.14459E+01  2.16503E+01  2.18520E+01  2.20508E+01
   2.22471E+01  2.24406E+01  2.26317E+01  2.28203E+01  2.30067E+01  2.31909E+01  2.33729E+01  2.35528E+01  2.37308E+01  2.39070E+01
   2.40814E+01  2.42542E+01  2.44254E+01  2.45950E+01  2.47633E+01  2.49304E+01  2.50963E+01  2.52610E+01  2.54248E+01  2.55876E+01
   2.57496E+01  2.59110E+01  2.60718E+01  2.62320E+01  2.63918E+01  2.65513E+01  2.67107E+01  2.68700E+01  2.70293E+01  2.71887E+01
   2.73484E+01  2.75084E+01  2.76691E+01  2.78303E+01  2.79923E+01  2.81552E+01  2.83192E+01  2.84844E+01
 NY background values follow
    -2.686E+02   -2.668E+02   -2.651E+02   -2.634E+02   -2.617E+02   -2.600E+02   -2.583E+02   -2.566E+02   -2.549E+02   -2.532E+02
    -2.515E+02   -2.498E+02   -2.481E+02   -2.464E+02   -2.447E+02   -2.430E+02   -2.413E+02   -2.396E+02   -2.379E+02   -2.362E+02
    -2.345E+02   -2.328E+02   -2.312E+02   -2.295E+02   -2.278E+02   -2.261E+02   -2.245E+02   -2.228E+02   -2.212E+02   -2.195E+02
    -2.178E+02   -2.162E+02   -2.146E+02   -2.129E+02   -2.113E+02   -2.097E+02   -2.080E+02   -2.064E+02   -2.048E+02   -2.032E+02
    -2.016E+02   -2.000E+02   -1.984E+02   -1.968E+02   -1.953E+02   -1.937E+02   -1.921E+02   -1.906E+02   -1.890E+02   -1.875E+02
    -1.860E+02   -1.844E+02   -1.829E+02   -1.814E+02   -1.799E+02   -1.784E+02   -1.769E+02   -1.755E+02   -1.740E+02   -1.725E+02
    -1.711E+02   -1.696E+02   -1.682E+02   -1.667E+02   -1.653E+02   -1.639E+02   -1.625E+02   -1.611E+02   -1.597E+02   -1.583E+02
    -1.570E+02   -1.556E+02   -1.542E+02   -1.529E+02   -1.516E+02   -1.502E+02   -1.489E+02   -1.476E+02   -1.463E+02   -1.450E+02
    -1.437E+02   -1.424E+02   -1.412E+02   -1.399E+02   -1.387E+02   -1.374E+02   -1.362E+02   -1.350E+02   -1.338E+02   -1.326E+02
    -1.314E+02   -1.302E+02   -1.291E+02   -1.279E+02   -1.268E+02   -1.256E+02   -1.245E+02   -1.234E+02   -1.223E+02   -1.212E+02
    -1.201E+02   -1.190E+02   -1.180E+02   -1.169E+02   -1.158E+02   -1.148E+02   -1.138E+02   -1.127E+02   -1.117E+02   -1.107E+02
    -1.097E+02   -1.087E+02   -1.077E+02   -1.067E+02   -1.058E+02   -1.048E+02   -1.038E+02   -1.029E+02   -1.019E+02   -1.010E+02
    -1.001E+02   -9.916E+01   -9.825E+01   -9.734E+01   -9.643E+01   -9.554E+01   -9.465E+01   -9.377E+01   -9.289E+01   -9.202E+01
    -9.115E+01   -9.029E+01   -8.944E+01   -8.859E+01   -8.775E+01   -8.691E+01   -8.607E+01   -8.525E+01   -8.442E+01   -8.361E+01
    -8.279E+01   -8.198E+01   -8.118E+01   -8.038E+01   -7.959E+01   -7.880E+01   -7.801E+01   -7.723E+01   -7.645E+01   -7.568E+01
    -7.491E+01   -7.414E+01   -7.338E+01   -7.262E+01   -7.187E+01   -7.112E+01   -7.037E+01   -6.962E+01   -6.888E+01   -6.815E+01
    -6.741E+01   -6.668E+01   -6.595E+01   -6.523E+01   -6.450E+01   -6.378E+01   -6.307E+01   -6.235E+01   -6.164E+01   -6.093E+01
    -6.022E+01   -5.952E+01   -5.881E+01   -5.811E+01   -5.741E+01   -5.672E+01   -5.602E+01   -5.533E+01   -5.464E+01   -5.395E+01
    -5.326E+01   -5.257E+01   -5.188E+01   -5.120E+01   -5.052E+01   -4.983E+01   -4.915E+01   -4.847E+01   -4.780E+01   -4.712E+01
    -4.645E+01   -4.578E+01   -4.511E+01   -4.444E+01   -4.378E+01   -4.311E+01   -4.245E+01   -4.179E+01   -4.113E+01   -4.048E+01
    -3.983E+01   -3.918E+01   -3.853E+01   -3.788E+01   -3.724E+01   -3.660E+01   -3.596E+01   -3.533E+01   -3.469E+01   -3.407E+01
    -3.344E+01   -3.282E+01   -3.219E+01   -3.158E+01   -3.096E+01   -3.035E+01   -2.974E+01   -2.914E+01   -2.853E+01   -2.794E+01
    -2.734E+01   -2.675E+01   -2.616E+01   -2.558E+01   -2.499E+01   -2.442E+01   -2.384E+01   -2.327E+01   -2.271E+01   -2.214E+01
    -2.159E+01   -2.103E+01   -2.048E+01   -1.993E+01   -1.939E+01   -1.885E+01   -1.832E+01   -1.779E+01   -1.726E+01   -1.674E+01
    -1.622E+01   -1.571E+01   -1.520E+01   -1.469E+01   -1.419E+01   -1.370E+01   -1.321E+01   -1.272E+01   -1.224E+01   -1.176E+01
    -1.129E+01   -1.082E+01   -1.036E+01   -9.903E+00   -9.450E+00   -9.002E+00   -8.559E+00   -8.122E+00   -7.689E+00   -7.261E+00
    -6.839E+00   -6.422E+00   -6.010E+00   -5.603E+00   -5.202E+00   -4.806E+00   -4.415E+00   -4.030E+00   -3.651E+00   -3.277E+00
    -2.908E+00   -2.546E+00   -2.189E+00   -1.837E+00   -1.492E+00   -1.152E+00   -8.188E-01   -4.913E-01   -1.698E-01    1.456E-01
     4.547E-01    7.575E-01    1.054E+00    1.344E+00    1.628E+00    1.905E+00    2.175E+00    2.439E+00    2.696E+00    2.946E+00
     3.190E+00    3.426E+00    3.656E+00    3.878E+00    4.093E+00    4.301E+00    4.502E+00    4.696E+00    4.882E+00    5.060E+00
     5.231E+00    5.395E+00    5.551E+00    5.699E+00    5.839E+00    5.971E+00    6.096E+00    6.212E+00    6.321E+00    6.421E+00
     6.514E+00    6.598E+00    6.673E+00    6.740E+00    6.799E+00    6.850E+00    6.891E+00    6.925E+00    6.949E+00    6.966E+00
     6.975E+00    6.976E+00    6.971E+00    6.959E+00    6.940E+00    6.915E+00    6.885E+00    6.849E+00    6.808E+00    6.763E+00
     6.713E+00    6.659E+00    6.601E+00    6.540E+00    6.476E+00    6.410E+00    6.341E+00    6.270E+00    6.197E+00    6.123E+00
     6.048E+00    5.972E+00    5.896E+00    5.820E+00    5.745E+00    5.670E+00    5.596E+00    5.523E+00    5.452E+00    5.383E+00
     5.317E+00    5.253E+00    5.192E+00    5.135E+00    5.081E+00    5.032E+00    4.986E+00    4.946E+00    4.910E+00    4.880E+00
     4.856E+00    4.837E+00    4.825E+00    4.820E+00    4.821E+00    4.828E+00    4.842E+00    4.862E+00    4.888E+00    4.920E+00
     4.958E+00    5.003E+00    5.053E+00    5.109E+00    5.170E+00    5.238E+00    5.311E+00    5.390E+00    5.474E+00    5.563E+00
     5.658E+00    5.759E+00    5.864E+00    5.975E+00    6.091E+00    6.211E+00    6.337E+00    6.468E+00    6.603E+00    6.744E+00
     6.889E+00    7.038E+00    7.193E+00    7.351E+00    7.515E+00    7.682E+00    7.854E+00    8.030E+00    8.210E+00    8.395E+00
     8.583E+00    8.776E+00    8.972E+00    9.172E+00    9.376E+00    9.584E+00    9.795E+00    1.001E+01    1.023E+01    1.045E+01
     1.067E+01    1.090E+01    1.113E+01    1.137E+01    1.160E+01    1.184E+01    1.208E+01    1.232E+01    1.257E+01    1.281E+01
     1.306E+01    1.331E+01    1.356E+01    1.382E+01    1.407E+01    1.432E+01    1.458E+01    1.483E+01    1.509E+01    1.534E+01
     1.560E+01    1.586E+01    1.611E+01    1.637E+01    1.662E+01    1.688E+01    1.713E+01    1.738E+01    1.763E+01    1.788E+01
     1.813E+01    1.838E+01    1.863E+01    1.887E+01    1.911E+01    1.935E+01    1.959E+01    1.982E+01    2.005E+01    2.028E+01
     2.051E+01    2.073E+01    2.095E+01    2.117E+01    2.138E+01    2.159E+01    2.180E+01    2.200E+01    2.220E+01    2.240E+01
     2.260E+01    2.279E+01    2.298E+01    2.317E+01    2.335E+01    2.354E+01    2.372E+01    2.390E+01    2.407E+01    2.425E+01
     2.442E+01    2.459E+01    2.476E+01    2.493E+01    2.510E+01    2.527E+01    2.543E+01    2.559E+01    2.575E+01    2.592E+01
     2.608E+01    2.623E+01    2.639E+01    2.655E+01    2.671E+01    2.686E+01    2.702E+01    2.718E+01    2.733E+01    2.749E+01
     2.764E+01    2.780E+01    2.796E+01    2.811E+01    2.827E+01    2.842E+01    2.858E+01    2.874E+01
 Asp      Conc. = 6.78E+01
