 LCModel (Version 6.3-1L) Copyright: S.W. Provencher.          Ref.: Magn. Reson. Med. 30:672-679 (1993).                
 Slice#1 Row#4 Col#5  PD_24_press_2_raw_act
 36 lines in following concentration table = NCONC+1
    Conc.  %SD /Cr+PCr  Metabolite                                         
    0.000 999%   0.000 Ala                                                 
  161.489 225%   0.104 Asp                                                 
    0.000 999%   0.000 Cr                                                  
 1.55E+03  10%   1.000 PCr                                                 
   90.695 256% 5.8E-02 GABA                                                
  264.675  85%   0.171 Glc                                                 
 1.59E+03  53%   1.025 Gln                                                 
  561.189 167%   0.362 Glu                                                 
    0.000 999%   0.000 GPC                                                 
  747.591   8%   0.482 PCh                                                 
    0.000 999%   0.000 GSH                                                 
 1.90E+03  37%   1.225 Ins                                                 
    0.000 999%   0.000 Lac                                                 
 2.98E+03   6%   1.923 NAA                                                 
    0.000 999%   0.000 NAAG                                                
  279.819  20%   0.180 Scyllo                                              
  910.576  38%   0.587 Tau                                                 
 1.56E+03  16%   1.003 -CrCH2                                              
  747.591   8%   0.482 GPC+PCh                                             
 2.98E+03   6%   1.923 NAA+NAAG                                            
 1.55E+03  10%   1.000 Cr+PCr                                              
 2.15E+03  68%   1.387 Glu+Gln                                             
 3.83E+03  20%   2.467 Lip13a                                              
    0.000 999%   0.000 Lip13b                                              
    0.000 999%   0.000 Lip09                                               
 1.87E+03  17%   1.203 MM09                                                
  947.845  45%   0.611 Lip20                                               
 3.34E+03  21%   2.152 MM20                                                
  608.027  39%   0.392 MM12                                                
 2.14E+03  27%   1.382 MM14                                                
 1.96E+03  16%   1.262 MM17                                                
 3.83E+03  20%   2.467 Lip13a+Lip13b                                       
 6.58E+03  12%   4.241 MM14+Lip13a+Lip13b+MM12                             
 1.87E+03  17%   1.203 MM09+Lip09                                          
 4.28E+03  18%   2.763 MM20+Lip20                                          
   6 lines in following misc. output table
  FWHM = 0.069 ppm    S/N =   5                                            
  Data shift = 0.023 ppm                                                   
  Ph: -75 deg     -21.8 deg/ppm                                            
  alphaB,S = 1.5E+00,   9.0E+01                                            
   14 spline knots.   Ns = 9(1)                                            
  (16) 5 infls.   (12) 1 extrs.                                            
  498 points on ppm-axis = NY
      4.000000     3.992357     3.984714     3.977070     3.969427     3.961784     3.954141     3.946497     3.938854     3.931211
      3.923568     3.915925     3.908281     3.900638     3.892995     3.885352     3.877708     3.870065     3.862422     3.854779
      3.847136     3.839492     3.831849     3.824206     3.816563     3.808919     3.801276     3.793633     3.785990     3.778347
      3.770703     3.763060     3.755417     3.747774     3.740130     3.732487     3.724844     3.717201     3.709558     3.701914
      3.694271     3.686628     3.678985     3.671341     3.663698     3.656055     3.648412     3.640769     3.633125     3.625482
      3.617839     3.610196     3.602552     3.594909     3.587266     3.579623     3.571980     3.564336     3.556693     3.549050
      3.541407     3.533763     3.526120     3.518477     3.510834     3.503191     3.495547     3.487904     3.480261     3.472618
      3.464974     3.457331     3.449688     3.442045     3.434402     3.426758     3.419115     3.411472     3.403829     3.396185
      3.388542     3.380899     3.373256     3.365613     3.357969     3.350326     3.342683     3.335040     3.327396     3.319753
      3.312110     3.304467     3.296824     3.289180     3.281537     3.273894     3.266251     3.258607     3.250964     3.243321
      3.235678     3.228034     3.220391     3.212748     3.205105     3.197462     3.189818     3.182175     3.174532     3.166889
      3.159245     3.151602     3.143959     3.136316     3.128673     3.121029     3.113386     3.105743     3.098100     3.090456
      3.082813     3.075170     3.067527     3.059884     3.052240     3.044597     3.036954     3.029311     3.021667     3.014024
      3.006381     2.998738     2.991095     2.983451     2.975808     2.968165     2.960522     2.952878     2.945235     2.937592
      2.929949     2.922306     2.914662     2.907019     2.899376     2.891733     2.884089     2.876446     2.868803     2.861160
      2.853517     2.845873     2.838230     2.830587     2.822944     2.815300     2.807657     2.800014     2.792371     2.784728
      2.777084     2.769441     2.761798     2.754155     2.746511     2.738868     2.731225     2.723582     2.715939     2.708295
      2.700652     2.693009     2.685366     2.677722     2.670079     2.662436     2.654793     2.647150     2.639506     2.631863
      2.624220     2.616577     2.608933     2.601290     2.593647     2.586004     2.578361     2.570717     2.563074     2.555431
      2.547788     2.540144     2.532501     2.524858     2.517215     2.509572     2.501928     2.494285     2.486642     2.478999
      2.471355     2.463712     2.456069     2.448426     2.440783     2.433139     2.425496     2.417853     2.410210     2.402566
      2.394923     2.387280     2.379637     2.371994     2.364350     2.356707     2.349064     2.341421     2.333777     2.326134
      2.318491     2.310848     2.303205     2.295561     2.287918     2.280275     2.272632     2.264988     2.257345     2.249702
      2.242059     2.234416     2.226772     2.219129     2.211486     2.203843     2.196199     2.188556     2.180913     2.173270
      2.165627     2.157983     2.150340     2.142697     2.135054     2.127410     2.119767     2.112124     2.104481     2.096838
      2.089194     2.081551     2.073908     2.066265     2.058621     2.050978     2.043335     2.035692     2.028049     2.020405
      2.012762     2.005119     1.997476     1.989833     1.982190     1.974546     1.966903     1.959260     1.951617     1.943974
      1.936331     1.928688     1.921045     1.913402     1.905759     1.898115     1.890472     1.882829     1.875186     1.867543
      1.859900     1.852257     1.844614     1.836971     1.829327     1.821684     1.814041     1.806398     1.798755     1.791112
      1.783469     1.775826     1.768183     1.760540     1.752896     1.745253     1.737610     1.729967     1.722324     1.714681
      1.707038     1.699395     1.691752     1.684108     1.676465     1.668822     1.661179     1.653536     1.645893     1.638250
      1.630607     1.622964     1.615321     1.607677     1.600034     1.592391     1.584748     1.577105     1.569462     1.561819
      1.554176     1.546533     1.538890     1.531246     1.523603     1.515960     1.508317     1.500674     1.493031     1.485388
      1.477745     1.470102     1.462458     1.454815     1.447172     1.439529     1.431886     1.424243     1.416600     1.408957
      1.401314     1.393671     1.386027     1.378384     1.370741     1.363098     1.355455     1.347812     1.340169     1.332526
      1.324883     1.317240     1.309596     1.301953     1.294310     1.286667     1.279024     1.271381     1.263738     1.256095
      1.248452     1.240808     1.233165     1.225522     1.217879     1.210236     1.202593     1.194950     1.187307     1.179664
      1.172021     1.164377     1.156734     1.149091     1.141448     1.133805     1.126162     1.118519     1.110876     1.103233
      1.095590     1.087946     1.080303     1.072660     1.065017     1.057374     1.049731     1.042088     1.034445     1.026802
      1.019158     1.011515     1.003872     0.996229     0.988586     0.980943     0.973300     0.965657     0.958014     0.950371
      0.942727     0.935084     0.927441     0.919798     0.912155     0.904512     0.896869     0.889226     0.881583     0.873940
      0.866296     0.858653     0.851010     0.843367     0.835724     0.828081     0.820438     0.812795     0.805152     0.797508
      0.789865     0.782222     0.774579     0.766936     0.759293     0.751650     0.744007     0.736364     0.728721     0.721077
      0.713434     0.705791     0.698148     0.690505     0.682862     0.675219     0.667576     0.659933     0.652290     0.644646
      0.637003     0.629360     0.621717     0.614074     0.606431     0.598788     0.591145     0.583502     0.575858     0.568215
      0.560572     0.552929     0.545286     0.537643     0.530000     0.522357     0.514714     0.507071     0.499427     0.491784
      0.484141     0.476498     0.468855     0.461212     0.453569     0.445925     0.438282     0.430639     0.422996     0.415353
      0.407710     0.400067     0.392424     0.384780     0.377137     0.369494     0.361851     0.354208     0.346565     0.338922
      0.331278     0.323635     0.315992     0.308349     0.300706     0.293063     0.285420     0.277777     0.270133     0.262490
      0.254847     0.247204     0.239561     0.231918     0.224275     0.216631     0.208988     0.201345
 NY phased data points follow
  -1.10787E+02 -1.02426E+02 -9.03829E+01 -1.05529E+02 -9.49039E+01 -1.08505E+02 -1.00736E+02 -1.02371E+02 -8.85579E+01 -8.87976E+01
  -7.57408E+01 -8.68667E+01 -7.70649E+01 -8.76236E+01 -8.26275E+01 -1.02926E+02 -9.42753E+01 -9.55196E+01 -9.97062E+01 -1.10277E+02
  -9.37889E+01 -9.25453E+01 -9.61033E+01 -8.58605E+01 -7.32794E+01 -9.16543E+01 -9.26380E+01 -7.93475E+01 -8.11859E+01 -8.62787E+01
  -6.38952E+01 -7.87916E+01 -6.62983E+01 -8.52037E+01 -7.72501E+01 -7.95506E+01 -6.95360E+01 -8.72661E+01 -8.37749E+01 -7.24189E+01
  -6.24209E+01 -7.23182E+01 -6.82207E+01 -7.69897E+01 -5.93598E+01 -7.69729E+01 -6.75814E+01 -5.63701E+01 -5.84566E+01 -5.58109E+01
  -6.72148E+01 -6.67145E+01 -5.51900E+01 -7.29242E+01 -5.93919E+01 -6.78355E+01 -6.65163E+01 -6.38736E+01 -5.44701E+01 -6.53798E+01
  -5.55217E+01 -6.84134E+01 -6.04368E+01 -7.05294E+01 -6.25962E+01 -6.39084E+01 -5.90332E+01 -5.42398E+01 -6.19845E+01 -6.66510E+01
  -5.21661E+01 -5.93176E+01 -4.92827E+01 -5.58068E+01 -5.66361E+01 -5.05352E+01 -3.19876E+01 -5.74261E+01 -4.71432E+01 -4.75446E+01
  -4.24618E+01 -6.25194E+01 -4.56844E+01 -4.82925E+01 -3.60811E+01 -3.79187E+01 -4.49465E+01 -4.33903E+01 -3.66020E+01 -4.63176E+01
  -3.04952E+01 -3.80525E+01 -3.55603E+01 -4.70324E+01 -3.32165E+01 -2.45376E+01 -2.02580E+01 -2.80474E+01 -1.96307E+01 -1.44588E+01
  -2.58751E+01 -1.37677E+01 -1.56254E+00  8.50074E+00  9.80770E+00  5.05827E+00 -5.20327E+00 -2.31288E+01 -3.32059E+01 -3.85024E+01
  -3.57606E+01 -2.93923E+01 -4.89368E+01 -4.45437E+01 -5.33696E+01 -3.64551E+01 -3.93081E+01 -5.07447E+01 -4.29292E+01 -3.49493E+01
  -2.12997E+01 -3.74127E+01 -2.48474E+01 -1.28376E+01 -1.60998E+01 -1.89673E+01 -7.07123E+00  9.92989E+00 -9.81065E-01 -1.73373E+01
  -9.48047E-01 -1.62961E+01 -3.00262E+01 -1.35722E+01 -3.27089E+01 -3.47371E+01 -2.75933E+01 -2.95296E+01 -3.42760E+01 -4.18102E+01
  -3.36960E+01 -4.62862E+01 -3.54219E+01 -3.25477E+01 -3.28503E+01 -4.02067E+01 -3.04797E+01 -4.48572E+01 -3.79368E+01 -3.99950E+01
  -2.88329E+01 -3.51591E+01 -3.89134E+01 -3.41868E+01 -2.98913E+01 -3.60544E+01 -4.04600E+01 -2.95531E+01 -2.85210E+01 -3.54884E+01
  -2.41168E+01 -3.38581E+01 -3.48702E+01 -2.34560E+01 -2.52419E+01 -2.61420E+01 -2.17375E+01 -3.05290E+01 -2.23965E+01 -4.05418E+01
  -3.38366E+01 -3.71381E+01 -3.92231E+01 -4.46841E+01 -4.03299E+01 -4.82307E+01 -4.20552E+01 -3.22448E+01 -4.73538E+01 -3.69749E+01
  -4.85497E+01 -3.12280E+01 -2.84731E+01 -4.22169E+01 -4.17631E+01 -2.56024E+01 -2.71654E+01 -2.06870E+01 -3.61104E+01 -3.65506E+01
  -3.54748E+01 -2.85699E+01 -3.14824E+01 -3.95975E+01 -3.79136E+01 -3.21468E+01 -1.90771E+01 -1.68075E+01 -2.35050E+01 -1.48439E+01
  -1.87601E+01 -3.26129E+01 -2.16425E+01 -1.57767E+01 -2.74441E+01 -1.74673E+01 -4.24289E-01 -2.48496E+01 -1.43705E+01 -2.30500E+01
  -1.57632E+01 -1.24417E+01 -6.03744E+00  2.57461E+00 -9.57299E+00 -7.72504E+00 -1.09630E+01 -1.76058E+01 -4.65139E+00 -1.19272E+01
  -3.06815E+00 -1.36531E+01 -1.98303E+01 -9.16824E-01 -9.03974E+00 -1.31718E+01 -2.63746E+00 -7.81757E+00 -4.02108E+00  5.89293E+00
  -1.01746E+01 -5.27545E+00 -4.19387E+00  7.01860E+00 -1.64436E+00 -6.17303E+00 -5.87887E-01  3.15404E+00 -1.00303E+01  4.90643E+00
   1.60917E+01  5.51546E+00  3.44704E-01  3.40532E+00 -4.82483E+00 -1.01396E+01 -4.85972E+00 -1.08907E+01 -1.33791E+00 -7.89350E+00
  -5.83225E+00 -2.43976E+00  3.98341E+00  2.71948E+01  2.44227E+01  4.42035E+01  4.71482E+01  5.75678E+01  7.14620E+01  6.65190E+01
   7.56225E+01  7.73558E+01  7.71336E+01  6.86659E+01  4.86612E+01  3.44869E+01  2.23440E+01  5.73229E+00 -1.53245E+00  1.32587E+01
   1.85061E+01  1.54686E+01  1.22136E+01 -2.64342E+00 -2.66578E+00  9.64053E+00 -6.35856E+00  3.67693E+00 -7.51855E+00  2.83224E+00
  -5.49863E+00 -4.69090E+00 -5.09446E+00 -1.17592E-01 -1.20195E+01 -3.87724E+00  5.41232E+00 -1.23247E+01 -8.75344E+00 -2.15447E+00
  -6.69724E+00 -6.90399E+00 -6.49353E+00 -7.69412E+00 -7.85856E+00 -1.16579E+01  8.48863E+00 -1.56622E+00 -9.17177E+00 -5.91160E+00
  -1.68977E+00 -5.30605E+00 -5.19485E-01  8.93273E+00  1.37543E+00  1.19214E+01 -8.13257E+00  1.52628E+01  9.05928E+00 -2.23434E+00
   7.42523E+00  2.27445E+01  1.06462E+01  2.76946E+01  2.38180E+01  2.35845E+01  2.69631E+01  1.48115E+01  2.52660E+01  1.76099E+01
   1.68665E+01  2.97239E+01  2.57007E+01  2.21189E+01  2.42450E+01  1.63567E+01  2.43856E+01  1.41499E+01  1.76516E+01  1.37748E+01
   2.54354E+01  1.94252E+01  2.08402E+01  1.96157E+01  2.81429E+00  2.36353E+01  7.57108E+00  1.85604E+01  1.84043E+01  1.24667E+01
   1.86465E+01  1.83683E+01  8.64092E+00  2.08220E+01  1.94421E+01  2.42504E+01  2.57346E+01  1.85127E+01  2.12239E+01  1.01406E+01
   2.84639E+01  2.33732E+01  1.98520E+01  2.43084E+01  2.66261E+01  2.75150E+01  1.91338E+01  2.95715E+01  2.23796E+01  1.97643E+01
   2.76540E+01  1.61834E+01  8.31727E+00  2.77257E+01  2.51547E+01  1.16182E+01  2.21911E+01  2.55232E+01  8.65495E+00  2.30293E+01
   2.23849E+01  1.66962E+01  1.24070E+01  1.47744E+01  1.39033E+01 -6.96381E-01  3.15343E+01  1.97503E+01  1.11417E+01  1.56426E+01
   7.01981E+00  2.13022E+01  2.01197E+01  1.00229E+01  8.83150E+00  2.02923E+01  2.35038E+01  3.23767E-01 -1.25981E-01  1.58213E+01
   2.60238E+00  2.01592E+01  1.35912E+01 -1.12662E+01 -3.94144E+00 -3.51972E+00  1.18795E+01  1.19182E+01  3.60825E+00  1.77888E+01
   7.29637E+00  1.51210E+01  9.89046E+00  2.08509E+01  2.37508E+01  2.70161E+01  3.31850E+01  2.64041E+01  2.24602E+01  2.86799E+01
   1.15156E+01  3.34704E+01  2.91025E+01  2.56075E+01  2.58497E+01  2.27286E+01  2.47536E+01  8.37065E+00  2.74052E+01  1.59201E+00
   1.60699E+01  7.82520E+00  1.37162E+01  1.91046E+01  9.36835E+00  8.24882E+00  8.12515E+00  4.87135E+00  4.66299E+00  1.59561E+01
   3.00135E+00  8.05800E+00  1.56632E+01  4.75125E+00  1.83150E+01  9.86326E+00  1.29131E+01  1.25201E+01  2.26415E+00  4.96942E+00
   1.52926E+01  7.78756E+00  8.57673E+00  1.80115E+01  1.07921E+01  4.08619E+00 -5.14136E+00  1.18246E+01  5.67711E+00  1.11285E+01
   2.37725E+01  6.62386E+00  1.34160E+01  5.16495E+00  1.87664E+01  9.16535E+00  1.50319E+01  8.49807E+00  1.66526E+01  1.77142E+01
   1.79720E+01  2.03606E+01  8.18539E+00  2.06325E+01  1.48592E+01  1.40266E+01  1.12567E+01  1.70228E+01  1.46955E+01  1.47986E+01
   2.28624E+00  1.32490E+01  1.87617E+01  2.33130E+00  2.02956E+00  1.78643E+01  1.63095E+01  1.74275E+01  3.25652E+00  1.26433E+01
   1.52559E+01  9.46204E+00  6.07262E+00  1.25247E+01  1.19391E+01  1.72170E+01  1.76460E+01  1.89260E+01  2.97002E+00  1.43362E+01
   1.59244E+01  1.39165E+01  8.21810E+00  2.32132E+01  1.40240E+01  1.16097E+01  1.57594E+01  8.32182E+00
 NY points of the fit to the data follow
  -9.41304E+01 -9.47702E+01 -9.44533E+01 -9.42387E+01 -9.41084E+01 -9.41178E+01 -9.43443E+01 -9.43309E+01 -9.33397E+01 -9.10954E+01
  -8.82147E+01 -8.55714E+01 -8.37971E+01 -8.34223E+01 -8.43103E+01 -8.56321E+01 -8.62482E+01 -8.55722E+01 -8.42493E+01 -8.41171E+01
  -8.46717E+01 -8.44680E+01 -8.39076E+01 -8.29900E+01 -8.19829E+01 -8.12290E+01 -8.07912E+01 -8.04455E+01 -7.99883E+01 -7.91562E+01
  -7.78503E+01 -7.62925E+01 -7.49390E+01 -7.42274E+01 -7.43398E+01 -7.50186E+01 -7.58223E+01 -7.62976E+01 -7.59037E+01 -7.45076E+01
  -7.27235E+01 -7.13598E+01 -7.05598E+01 -6.97712E+01 -6.87408E+01 -6.73768E+01 -6.57433E+01 -6.42258E+01 -6.34350E+01 -6.37265E+01
  -6.49438E+01 -6.65136E+01 -6.77804E+01 -6.82830E+01 -6.78897E+01 -6.68908E+01 -6.59053E+01 -6.52496E+01 -6.46195E+01 -6.37066E+01
  -6.26258E+01 -6.17779E+01 -6.14239E+01 -6.13677E+01 -6.13704E+01 -6.12966E+01 -6.08778E+01 -5.99017E+01 -5.86989E+01 -5.77318E+01
  -5.70588E+01 -5.65488E+01 -5.60926E+01 -5.55153E+01 -5.48184E+01 -5.42107E+01 -5.39033E+01 -5.36384E+01 -5.29855E+01 -5.22647E+01
  -5.16648E+01 -5.09309E+01 -4.97949E+01 -4.81832E+01 -4.64217E+01 -4.49667E+01 -4.40704E+01 -4.39385E+01 -4.47540E+01 -4.62498E+01
  -4.79096E+01 -4.93364E+01 -5.00570E+01 -4.89829E+01 -4.43795E+01 -3.76368E+01 -3.17119E+01 -2.67283E+01 -2.14394E+01 -1.58454E+01
  -9.94881E+00 -3.61246E+00  2.38674E+00  6.05197E+00  5.43263E+00  5.86942E-02 -9.08433E+00 -1.97574E+01 -2.91146E+01 -3.50814E+01
  -3.74893E+01 -3.84949E+01 -4.06742E+01 -4.38886E+01 -4.53812E+01 -4.54778E+01 -4.51515E+01 -4.42888E+01 -4.16342E+01 -3.68454E+01
  -3.18266E+01 -2.76550E+01 -2.38862E+01 -2.00409E+01 -1.58708E+01 -1.11350E+01 -6.17448E+00 -2.40062E+00 -1.54400E+00 -4.34176E+00
  -1.03033E+01 -1.79838E+01 -2.52506E+01 -3.02982E+01 -3.26330E+01 -3.33222E+01 -3.43414E+01 -3.64715E+01 -3.79472E+01 -3.81029E+01
  -3.79620E+01 -3.77682E+01 -3.75505E+01 -3.73088E+01 -3.70446E+01 -3.67660E+01 -3.64891E+01 -3.62198E+01 -3.59734E+01 -3.57489E+01
  -3.55264E+01 -3.52938E+01 -3.51162E+01 -3.50595E+01 -3.50465E+01 -3.49803E+01 -3.48082E+01 -3.45555E+01 -3.43783E+01 -3.43561E+01
  -3.44370E+01 -3.45138E+01 -3.44663E+01 -3.42156E+01 -3.37958E+01 -3.33593E+01 -3.31172E+01 -3.32328E+01 -3.37295E+01 -3.43172E+01
  -3.46480E+01 -3.46417E+01 -3.45341E+01 -3.45560E+01 -3.46710E+01 -3.47623E+01 -3.46479E+01 -3.42654E+01 -3.37720E+01 -3.32765E+01
  -3.27331E+01 -3.21431E+01 -3.15755E+01 -3.10159E+01 -3.04104E+01 -2.97212E+01 -2.89404E+01 -2.81951E+01 -2.75222E+01 -2.67564E+01
  -2.59338E+01 -2.51530E+01 -2.45024E+01 -2.40270E+01 -2.36228E+01 -2.30590E+01 -2.21095E+01 -2.09151E+01 -1.98534E+01 -1.90654E+01
  -1.85426E+01 -1.84712E+01 -1.85803E+01 -1.85700E+01 -1.87663E+01 -1.95606E+01 -2.08511E+01 -2.23550E+01 -2.37256E+01 -2.46009E+01
  -2.46096E+01 -2.35712E+01 -2.16669E+01 -1.93840E+01 -1.72741E+01 -1.56005E+01 -1.44282E+01 -1.37607E+01 -1.33592E+01 -1.29656E+01
  -1.27035E+01 -1.27376E+01 -1.25808E+01 -1.19547E+01 -1.10745E+01 -1.01958E+01 -9.48092E+00 -9.07694E+00 -8.92453E+00 -8.81810E+00
  -8.61263E+00 -8.18137E+00 -7.46314E+00 -6.74467E+00 -6.31443E+00 -5.97276E+00 -5.40636E+00 -4.55123E+00 -3.44952E+00 -2.22811E+00
  -1.21711E+00 -7.72620E-01 -9.77684E-01 -1.57093E+00 -2.05002E+00 -1.95973E+00 -1.22954E+00 -9.26323E-02  1.35509E+00  2.96946E+00
   4.82932E+00  8.52322E+00  1.65615E+01  2.65124E+01  3.47529E+01  4.12821E+01  4.73512E+01  5.36288E+01  6.07816E+01  6.89844E+01
   7.64338E+01  7.97234E+01  7.63586E+01  6.62987E+01  5.15010E+01  3.56204E+01  2.27420E+01  1.50866E+01  1.19431E+01  9.91186E+00
   5.78786E+00  9.01329E-01 -1.12667E+00 -1.76500E+00 -2.12730E+00 -2.38443E+00 -2.60617E+00 -2.83140E+00 -3.05864E+00 -3.27680E+00
  -3.47359E+00 -3.63516E+00 -3.75409E+00 -3.83377E+00 -3.87464E+00 -3.87730E+00 -3.85319E+00 -3.80549E+00 -3.73494E+00 -3.64433E+00
  -3.53397E+00 -3.39844E+00 -3.23428E+00 -3.03300E+00 -2.78818E+00 -2.49276E+00 -2.13705E+00 -1.70698E+00 -1.19307E+00 -5.86520E-01
   1.21595E-01  9.40998E-01  1.87588E+00  2.92992E+00  4.10193E+00  5.38482E+00  6.76465E+00  8.22302E+00  9.73426E+00  1.12690E+01
   1.27921E+01  1.42675E+01  1.56564E+01  1.69234E+01  1.80355E+01  1.89671E+01  1.96987E+01  2.02218E+01  2.05354E+01  2.06497E+01
   2.05823E+01  2.03598E+01  2.00123E+01  1.95749E+01  1.90819E+01  1.85680E+01  1.80634E+01  1.75950E+01  1.71830E+01  1.68429E+01
   1.65829E+01  1.64076E+01  1.63158E+01  1.63042E+01  1.63659E+01  1.64938E+01  1.66792E+01  1.69154E+01  1.71947E+01  1.75119E+01
   1.78613E+01  1.82394E+01  1.86416E+01  1.90650E+01  1.95048E+01  1.99567E+01  2.04143E+01  2.08710E+01  2.13180E+01  2.17464E+01
   2.21454E+01  2.25046E+01  2.28123E+01  2.30585E+01  2.32329E+01  2.33276E+01  2.33355E+01  2.32527E+01  2.30765E+01  2.28078E+01
   2.24491E+01  2.20064E+01  2.14864E+01  2.08990E+01  2.02541E+01  1.95642E+01  1.88408E+01  1.80968E+01  1.73437E+01  1.65935E+01
   1.58560E+01  1.51414E+01  1.44574E+01  1.38114E+01  1.32085E+01  1.26539E+01  1.21502E+01  1.17005E+01  1.13061E+01  1.09685E+01
   1.06877E+01  1.04649E+01  1.03000E+01  1.01941E+01  1.01475E+01  1.01619E+01  1.02381E+01  1.03787E+01  1.05852E+01  1.08605E+01
   1.12063E+01  1.16248E+01  1.21165E+01  1.26820E+01  1.33191E+01  1.40246E+01  1.47919E+01  1.56126E+01  1.64744E+01  1.73631E+01
   1.82608E+01  1.91479E+01  2.00022E+01  2.08016E+01  2.15228E+01  2.21449E+01  2.26481E+01  2.30168E+01  2.32387E+01  2.33075E+01
   2.32211E+01  2.29840E+01  2.26048E+01  2.20977E+01  2.14798E+01  2.07722E+01  1.99964E+01  1.91759E+01  1.83324E+01  1.74871E+01
   1.66580E+01  1.58615E+01  1.51096E+01  1.44125E+01  1.37756E+01  1.32032E+01  1.26955E+01  1.22520E+01  1.18693E+01  1.15441E+01
   1.12711E+01  1.10457E+01  1.08623E+01  1.07162E+01  1.06021E+01  1.05161E+01  1.04537E+01  1.04119E+01  1.03871E+01  1.03773E+01
   1.03795E+01  1.03926E+01  1.04143E+01  1.04439E+01  1.04797E+01  1.05214E+01  1.05677E+01  1.06183E+01  1.06724E+01  1.07299E+01
   1.07899E+01  1.08527E+01  1.09174E+01  1.09843E+01  1.10527E+01  1.11230E+01  1.11944E+01  1.12674E+01  1.13413E+01  1.14165E+01
   1.14925E+01  1.15695E+01  1.16472E+01  1.17259E+01  1.18049E+01  1.18849E+01  1.19653E+01  1.20464E+01  1.21278E+01  1.22099E+01
   1.22922E+01  1.23752E+01  1.24584E+01  1.25421E+01  1.26260E+01  1.27104E+01  1.27949E+01  1.28799E+01  1.29650E+01  1.30506E+01
   1.31362E+01  1.32223E+01  1.33084E+01  1.33950E+01  1.34815E+01  1.35686E+01  1.36556E+01  1.37431E+01  1.38305E+01  1.39184E+01
   1.40064E+01  1.40947E+01  1.41831E+01  1.42720E+01  1.43608E+01  1.44502E+01  1.45397E+01  1.46297E+01
 NY background values follow
    -9.597E+01   -9.554E+01   -9.511E+01   -9.469E+01   -9.426E+01   -9.383E+01   -9.340E+01   -9.298E+01   -9.255E+01   -9.212E+01
    -9.169E+01   -9.127E+01   -9.084E+01   -9.041E+01   -8.999E+01   -8.956E+01   -8.913E+01   -8.871E+01   -8.828E+01   -8.785E+01
    -8.743E+01   -8.700E+01   -8.657E+01   -8.615E+01   -8.572E+01   -8.530E+01   -8.487E+01   -8.445E+01   -8.402E+01   -8.360E+01
    -8.317E+01   -8.275E+01   -8.233E+01   -8.190E+01   -8.148E+01   -8.106E+01   -8.064E+01   -8.022E+01   -7.979E+01   -7.937E+01
    -7.895E+01   -7.853E+01   -7.811E+01   -7.769E+01   -7.728E+01   -7.686E+01   -7.644E+01   -7.602E+01   -7.561E+01   -7.519E+01
    -7.478E+01   -7.436E+01   -7.395E+01   -7.353E+01   -7.312E+01   -7.271E+01   -7.230E+01   -7.189E+01   -7.148E+01   -7.107E+01
    -7.066E+01   -7.025E+01   -6.984E+01   -6.944E+01   -6.903E+01   -6.862E+01   -6.822E+01   -6.782E+01   -6.741E+01   -6.701E+01
    -6.661E+01   -6.621E+01   -6.581E+01   -6.542E+01   -6.502E+01   -6.462E+01   -6.423E+01   -6.383E+01   -6.344E+01   -6.305E+01
    -6.266E+01   -6.227E+01   -6.188E+01   -6.149E+01   -6.110E+01   -6.072E+01   -6.033E+01   -5.995E+01   -5.956E+01   -5.918E+01
    -5.880E+01   -5.842E+01   -5.805E+01   -5.767E+01   -5.729E+01   -5.692E+01   -5.655E+01   -5.617E+01   -5.580E+01   -5.543E+01
    -5.507E+01   -5.470E+01   -5.433E+01   -5.397E+01   -5.360E+01   -5.324E+01   -5.288E+01   -5.252E+01   -5.216E+01   -5.180E+01
    -5.145E+01   -5.109E+01   -5.074E+01   -5.039E+01   -5.003E+01   -4.968E+01   -4.934E+01   -4.899E+01   -4.864E+01   -4.830E+01
    -4.795E+01   -4.761E+01   -4.727E+01   -4.693E+01   -4.659E+01   -4.625E+01   -4.591E+01   -4.558E+01   -4.524E+01   -4.491E+01
    -4.458E+01   -4.425E+01   -4.392E+01   -4.359E+01   -4.326E+01   -4.294E+01   -4.262E+01   -4.229E+01   -4.197E+01   -4.165E+01
    -4.133E+01   -4.101E+01   -4.070E+01   -4.038E+01   -4.007E+01   -3.975E+01   -3.944E+01   -3.913E+01   -3.882E+01   -3.851E+01
    -3.821E+01   -3.790E+01   -3.760E+01   -3.729E+01   -3.699E+01   -3.669E+01   -3.639E+01   -3.609E+01   -3.580E+01   -3.550E+01
    -3.521E+01   -3.491E+01   -3.462E+01   -3.433E+01   -3.404E+01   -3.375E+01   -3.346E+01   -3.318E+01   -3.289E+01   -3.261E+01
    -3.232E+01   -3.204E+01   -3.176E+01   -3.148E+01   -3.120E+01   -3.092E+01   -3.065E+01   -3.037E+01   -3.010E+01   -2.983E+01
    -2.956E+01   -2.928E+01   -2.902E+01   -2.875E+01   -2.848E+01   -2.821E+01   -2.795E+01   -2.769E+01   -2.742E+01   -2.716E+01
    -2.690E+01   -2.664E+01   -2.638E+01   -2.613E+01   -2.587E+01   -2.562E+01   -2.536E+01   -2.511E+01   -2.486E+01   -2.461E+01
    -2.436E+01   -2.411E+01   -2.387E+01   -2.362E+01   -2.338E+01   -2.314E+01   -2.290E+01   -2.266E+01   -2.242E+01   -2.218E+01
    -2.194E+01   -2.171E+01   -2.147E+01   -2.124E+01   -2.101E+01   -2.078E+01   -2.055E+01   -2.032E+01   -2.010E+01   -1.987E+01
    -1.965E+01   -1.943E+01   -1.920E+01   -1.898E+01   -1.876E+01   -1.855E+01   -1.833E+01   -1.812E+01   -1.790E+01   -1.769E+01
    -1.748E+01   -1.727E+01   -1.706E+01   -1.685E+01   -1.665E+01   -1.644E+01   -1.624E+01   -1.604E+01   -1.584E+01   -1.564E+01
    -1.544E+01   -1.524E+01   -1.504E+01   -1.485E+01   -1.465E+01   -1.446E+01   -1.427E+01   -1.408E+01   -1.389E+01   -1.370E+01
    -1.351E+01   -1.333E+01   -1.314E+01   -1.296E+01   -1.277E+01   -1.259E+01   -1.241E+01   -1.223E+01   -1.205E+01   -1.187E+01
    -1.170E+01   -1.152E+01   -1.135E+01   -1.117E+01   -1.100E+01   -1.083E+01   -1.066E+01   -1.049E+01   -1.032E+01   -1.015E+01
    -9.983E+00   -9.817E+00   -9.652E+00   -9.488E+00   -9.324E+00   -9.162E+00   -9.000E+00   -8.840E+00   -8.680E+00   -8.521E+00
    -8.363E+00   -8.206E+00   -8.049E+00   -7.894E+00   -7.740E+00   -7.586E+00   -7.433E+00   -7.281E+00   -7.130E+00   -6.979E+00
    -6.830E+00   -6.681E+00   -6.533E+00   -6.386E+00   -6.240E+00   -6.095E+00   -5.950E+00   -5.806E+00   -5.663E+00   -5.521E+00
    -5.379E+00   -5.238E+00   -5.098E+00   -4.959E+00   -4.821E+00   -4.683E+00   -4.546E+00   -4.409E+00   -4.274E+00   -4.139E+00
    -4.005E+00   -3.872E+00   -3.739E+00   -3.607E+00   -3.476E+00   -3.345E+00   -3.215E+00   -3.086E+00   -2.958E+00   -2.830E+00
    -2.703E+00   -2.576E+00   -2.450E+00   -2.325E+00   -2.200E+00   -2.077E+00   -1.953E+00   -1.831E+00   -1.709E+00   -1.587E+00
    -1.466E+00   -1.346E+00   -1.227E+00   -1.108E+00   -9.891E-01   -8.712E-01   -7.540E-01   -6.372E-01   -5.211E-01   -4.055E-01
    -2.905E-01   -1.760E-01   -6.207E-02    5.133E-02    1.642E-01    2.766E-01    3.884E-01    4.997E-01    6.105E-01    7.208E-01
     8.307E-01    9.400E-01    1.049E+00    1.157E+00    1.265E+00    1.373E+00    1.479E+00    1.586E+00    1.692E+00    1.798E+00
     1.903E+00    2.008E+00    2.112E+00    2.216E+00    2.319E+00    2.422E+00    2.525E+00    2.627E+00    2.729E+00    2.831E+00
     2.932E+00    3.033E+00    3.133E+00    3.234E+00    3.333E+00    3.433E+00    3.532E+00    3.631E+00    3.730E+00    3.828E+00
     3.926E+00    4.024E+00    4.121E+00    4.218E+00    4.315E+00    4.412E+00    4.508E+00    4.605E+00    4.701E+00    4.796E+00
     4.892E+00    4.987E+00    5.083E+00    5.178E+00    5.273E+00    5.367E+00    5.462E+00    5.556E+00    5.651E+00    5.745E+00
     5.839E+00    5.933E+00    6.027E+00    6.120E+00    6.214E+00    6.307E+00    6.401E+00    6.494E+00    6.588E+00    6.681E+00
     6.774E+00    6.867E+00    6.960E+00    7.053E+00    7.146E+00    7.239E+00    7.332E+00    7.425E+00    7.518E+00    7.611E+00
     7.703E+00    7.796E+00    7.888E+00    7.981E+00    8.073E+00    8.166E+00    8.258E+00    8.350E+00    8.442E+00    8.535E+00
     8.627E+00    8.719E+00    8.811E+00    8.903E+00    8.995E+00    9.087E+00    9.179E+00    9.270E+00    9.362E+00    9.454E+00
     9.546E+00    9.637E+00    9.729E+00    9.820E+00    9.912E+00    1.000E+01    1.009E+01    1.019E+01    1.028E+01    1.037E+01
     1.046E+01    1.055E+01    1.064E+01    1.073E+01    1.082E+01    1.092E+01    1.101E+01    1.110E+01    1.119E+01    1.128E+01
     1.137E+01    1.146E+01    1.155E+01    1.164E+01    1.173E+01    1.183E+01    1.192E+01    1.201E+01    1.210E+01    1.219E+01
     1.228E+01    1.237E+01    1.246E+01    1.255E+01    1.264E+01    1.273E+01    1.282E+01    1.291E+01    1.300E+01    1.309E+01
     1.318E+01    1.327E+01    1.336E+01    1.346E+01    1.355E+01    1.364E+01    1.373E+01    1.382E+01    1.391E+01    1.400E+01
     1.409E+01    1.418E+01    1.427E+01    1.436E+01    1.445E+01    1.454E+01    1.463E+01    1.472E+01
 Asp      Conc. = 1.61E+02
