 LCModel (Version 6.3-1L) Copyright: S.W. Provencher.          Ref.: Magn. Reson. Med. 30:672-679 (1993).                
 Slice#3 Row#11 Col#5  PD_24_press_2_raw_act
 36 lines in following concentration table = NCONC+1
    Conc.  %SD /Cr+PCr  Metabolite                                         
    0.000 999%   0.000 Ala                                                 
 4.52E-03 999%   0.000 Asp                                                 
    0.000 999%   0.000 Cr                                                  
    0.000 999%   0.000 PCr                                                 
    0.000 999%   0.000 GABA                                                
 1.39E-04 999%   0.000 Glc                                                 
    0.000 999%   0.000 Gln                                                 
 1.56E+03  38%   0.000 Glu                                                 
    0.000 999%   0.000 GPC                                                 
    0.000 999%   0.000 PCh                                                 
    0.000 999%   0.000 GSH                                                 
    0.000 999%   0.000 Ins                                                 
    0.000 999%   0.000 Lac                                                 
    0.000 999%   0.000 NAA                                                 
    0.000 999%   0.000 NAAG                                                
 3.01E-04 999%   0.000 Scyllo                                              
 8.03E-04 999%   0.000 Tau                                                 
    0.000 999%   0.000 -CrCH2                                              
    0.000 999%   0.000 GPC+PCh                                             
    0.000 999%   0.000 NAA+NAAG                                            
    0.000 999%   0.000 Cr+PCr                                              
 1.56E+03  38%   0.000 Glu+Gln                                             
    0.000 999%   0.000 Lip13a                                              
  230.590  31%   0.000 Lip13b                                              
    0.000 999%   0.000 Lip09                                               
  178.551  42%   0.000 MM09                                                
    0.000 999%   0.000 Lip20                                               
    0.000 999%   0.000 MM20                                                
   43.808 126%   0.000 MM12                                                
    0.000 999%   0.000 MM14                                                
 1.30E+03   7%   0.000+MM17                                                
  230.590  31%   0.000 Lip13a+Lip13b                                       
  274.399  30%   0.000 MM14+Lip13a+Lip13b+MM12                             
  178.551  42%   0.000 MM09+Lip09                                          
    0.000 999%   0.000 MM20+Lip20                                          
   6 lines in following misc. output table
  FWHM = 0.122 ppm    S/N =   2                                            
  Data shift = 0.145 ppm                                                   
  Ph:-157 deg      -3.2 deg/ppm                                            
  alphaB,S = 8.5E+01,   5.1E+01                                            
    8 spline knots.   Ns = 9(2)                                            
   2 inflections.     1 extrema                                            
  498 points on ppm-axis = NY
      4.000000     3.992357     3.984714     3.977070     3.969427     3.961784     3.954141     3.946497     3.938854     3.931211
      3.923568     3.915925     3.908281     3.900638     3.892995     3.885352     3.877708     3.870065     3.862422     3.854779
      3.847136     3.839492     3.831849     3.824206     3.816563     3.808919     3.801276     3.793633     3.785990     3.778347
      3.770703     3.763060     3.755417     3.747774     3.740130     3.732487     3.724844     3.717201     3.709558     3.701914
      3.694271     3.686628     3.678985     3.671341     3.663698     3.656055     3.648412     3.640769     3.633125     3.625482
      3.617839     3.610196     3.602552     3.594909     3.587266     3.579623     3.571980     3.564336     3.556693     3.549050
      3.541407     3.533763     3.526120     3.518477     3.510834     3.503191     3.495547     3.487904     3.480261     3.472618
      3.464974     3.457331     3.449688     3.442045     3.434402     3.426758     3.419115     3.411472     3.403829     3.396185
      3.388542     3.380899     3.373256     3.365613     3.357969     3.350326     3.342683     3.335040     3.327396     3.319753
      3.312110     3.304467     3.296824     3.289180     3.281537     3.273894     3.266251     3.258607     3.250964     3.243321
      3.235678     3.228034     3.220391     3.212748     3.205105     3.197462     3.189818     3.182175     3.174532     3.166889
      3.159245     3.151602     3.143959     3.136316     3.128673     3.121029     3.113386     3.105743     3.098100     3.090456
      3.082813     3.075170     3.067527     3.059884     3.052240     3.044597     3.036954     3.029311     3.021667     3.014024
      3.006381     2.998738     2.991095     2.983451     2.975808     2.968165     2.960522     2.952878     2.945235     2.937592
      2.929949     2.922306     2.914662     2.907019     2.899376     2.891733     2.884089     2.876446     2.868803     2.861160
      2.853517     2.845873     2.838230     2.830587     2.822944     2.815300     2.807657     2.800014     2.792371     2.784728
      2.777084     2.769441     2.761798     2.754155     2.746511     2.738868     2.731225     2.723582     2.715939     2.708295
      2.700652     2.693009     2.685366     2.677722     2.670079     2.662436     2.654793     2.647150     2.639506     2.631863
      2.624220     2.616577     2.608933     2.601290     2.593647     2.586004     2.578361     2.570717     2.563074     2.555431
      2.547788     2.540144     2.532501     2.524858     2.517215     2.509572     2.501928     2.494285     2.486642     2.478999
      2.471355     2.463712     2.456069     2.448426     2.440783     2.433139     2.425496     2.417853     2.410210     2.402566
      2.394923     2.387280     2.379637     2.371994     2.364350     2.356707     2.349064     2.341421     2.333777     2.326134
      2.318491     2.310848     2.303205     2.295561     2.287918     2.280275     2.272632     2.264988     2.257345     2.249702
      2.242059     2.234416     2.226772     2.219129     2.211486     2.203843     2.196199     2.188556     2.180913     2.173270
      2.165627     2.157983     2.150340     2.142697     2.135054     2.127410     2.119767     2.112124     2.104481     2.096838
      2.089194     2.081551     2.073908     2.066265     2.058621     2.050978     2.043335     2.035692     2.028049     2.020405
      2.012762     2.005119     1.997476     1.989833     1.982190     1.974546     1.966903     1.959260     1.951617     1.943974
      1.936331     1.928688     1.921045     1.913402     1.905759     1.898115     1.890472     1.882829     1.875186     1.867543
      1.859900     1.852257     1.844614     1.836971     1.829327     1.821684     1.814041     1.806398     1.798755     1.791112
      1.783469     1.775826     1.768183     1.760540     1.752896     1.745253     1.737610     1.729967     1.722324     1.714681
      1.707038     1.699395     1.691752     1.684108     1.676465     1.668822     1.661179     1.653536     1.645893     1.638250
      1.630607     1.622964     1.615321     1.607677     1.600034     1.592391     1.584748     1.577105     1.569462     1.561819
      1.554176     1.546533     1.538890     1.531246     1.523603     1.515960     1.508317     1.500674     1.493031     1.485388
      1.477745     1.470102     1.462458     1.454815     1.447172     1.439529     1.431886     1.424243     1.416600     1.408957
      1.401314     1.393671     1.386027     1.378384     1.370741     1.363098     1.355455     1.347812     1.340169     1.332526
      1.324883     1.317240     1.309596     1.301953     1.294310     1.286667     1.279024     1.271381     1.263738     1.256095
      1.248452     1.240808     1.233165     1.225522     1.217879     1.210236     1.202593     1.194950     1.187307     1.179664
      1.172021     1.164377     1.156734     1.149091     1.141448     1.133805     1.126162     1.118519     1.110876     1.103233
      1.095590     1.087946     1.080303     1.072660     1.065017     1.057374     1.049731     1.042088     1.034445     1.026802
      1.019158     1.011515     1.003872     0.996229     0.988586     0.980943     0.973300     0.965657     0.958014     0.950371
      0.942727     0.935084     0.927441     0.919798     0.912155     0.904512     0.896869     0.889226     0.881583     0.873940
      0.866296     0.858653     0.851010     0.843367     0.835724     0.828081     0.820438     0.812795     0.805152     0.797508
      0.789865     0.782222     0.774579     0.766936     0.759293     0.751650     0.744007     0.736364     0.728721     0.721077
      0.713434     0.705791     0.698148     0.690505     0.682862     0.675219     0.667576     0.659933     0.652290     0.644646
      0.637003     0.629360     0.621717     0.614074     0.606431     0.598788     0.591145     0.583502     0.575858     0.568215
      0.560572     0.552929     0.545286     0.537643     0.530000     0.522357     0.514714     0.507071     0.499427     0.491784
      0.484141     0.476498     0.468855     0.461212     0.453569     0.445925     0.438282     0.430639     0.422996     0.415353
      0.407710     0.400067     0.392424     0.384780     0.377137     0.369494     0.361851     0.354208     0.346565     0.338922
      0.331278     0.323635     0.315992     0.308349     0.300706     0.293063     0.285420     0.277777     0.270133     0.262490
      0.254847     0.247204     0.239561     0.231918     0.224275     0.216631     0.208988     0.201345
 NY phased data points follow
  -4.72762E+01 -4.74105E+01 -4.74054E+01 -4.52174E+01 -4.63468E+01 -4.37878E+01 -4.61150E+01 -4.15435E+01 -4.17263E+01 -4.39942E+01
  -4.54472E+01 -3.84669E+01 -4.38919E+01 -4.39929E+01 -4.59111E+01 -4.09657E+01 -4.33889E+01 -4.35207E+01 -4.05452E+01 -4.45027E+01
  -4.24121E+01 -4.42801E+01 -4.66278E+01 -4.51195E+01 -4.46167E+01 -4.57246E+01 -4.39772E+01 -4.67616E+01 -4.78047E+01 -4.52045E+01
  -4.87103E+01 -4.33882E+01 -4.85183E+01 -4.42161E+01 -4.34014E+01 -4.60899E+01 -4.65611E+01 -4.50662E+01 -4.58307E+01 -4.91047E+01
  -4.45757E+01 -4.52338E+01 -4.61421E+01 -4.46025E+01 -4.32033E+01 -4.02193E+01 -4.49033E+01 -4.14904E+01 -4.19216E+01 -4.07081E+01
  -4.12266E+01 -4.46208E+01 -4.66007E+01 -4.23088E+01 -4.39662E+01 -4.34706E+01 -4.58595E+01 -4.35235E+01 -4.46500E+01 -4.14867E+01
  -4.19416E+01 -3.93785E+01 -4.19880E+01 -4.00030E+01 -4.41179E+01 -4.20421E+01 -4.60207E+01 -4.28222E+01 -4.44768E+01 -4.09203E+01
  -4.30366E+01 -4.16357E+01 -4.01892E+01 -4.33335E+01 -4.09432E+01 -4.21166E+01 -4.18612E+01 -4.06445E+01 -4.04447E+01 -4.05858E+01
  -4.50945E+01 -4.40672E+01 -4.42556E+01 -4.18283E+01 -4.45212E+01 -4.22347E+01 -4.20888E+01 -3.93431E+01 -3.99448E+01 -3.95079E+01
  -3.88655E+01 -3.62914E+01 -4.33255E+01 -4.00862E+01 -3.98046E+01 -4.69548E+01 -4.55103E+01 -3.97678E+01 -4.26006E+01 -4.60131E+01
  -4.04259E+01 -4.18630E+01 -4.26005E+01 -4.13944E+01 -4.14681E+01 -4.04308E+01 -3.67545E+01 -3.90101E+01 -4.20130E+01 -4.30325E+01
  -3.99993E+01 -3.97192E+01 -3.97259E+01 -3.86000E+01 -4.13638E+01 -4.21756E+01 -4.23574E+01 -4.09679E+01 -3.91361E+01 -4.23300E+01
  -4.37107E+01 -4.48679E+01 -4.07510E+01 -3.91172E+01 -4.20500E+01 -4.22072E+01 -3.77769E+01 -4.10504E+01 -3.56305E+01 -4.02182E+01
  -3.97687E+01 -4.13321E+01 -3.94645E+01 -4.23620E+01 -3.84180E+01 -3.95607E+01 -3.72898E+01 -4.20857E+01 -4.12844E+01 -3.98386E+01
  -3.56047E+01 -4.05820E+01 -4.32627E+01 -4.02647E+01 -4.11005E+01 -4.15662E+01 -3.99423E+01 -3.88022E+01 -3.96110E+01 -3.72622E+01
  -4.15751E+01 -4.30430E+01 -4.34734E+01 -4.13470E+01 -4.23377E+01 -3.99841E+01 -3.82984E+01 -3.46075E+01 -3.50466E+01 -4.00084E+01
  -3.43693E+01 -3.37382E+01 -3.70165E+01 -3.28489E+01 -3.88825E+01 -3.49148E+01 -3.43580E+01 -3.68830E+01 -3.40785E+01 -3.49192E+01
  -3.25466E+01 -3.55213E+01 -3.07855E+01 -3.08601E+01 -3.42703E+01 -3.82294E+01 -3.71989E+01 -3.36601E+01 -3.63776E+01 -3.07986E+01
  -3.61512E+01 -3.66851E+01 -3.45000E+01 -3.34537E+01 -3.57516E+01 -3.43344E+01 -3.56145E+01 -3.03266E+01 -3.30239E+01 -3.66152E+01
  -3.11773E+01 -3.22354E+01 -3.43989E+01 -3.21950E+01 -3.20912E+01 -3.04526E+01 -3.24057E+01 -3.58074E+01 -3.27875E+01 -3.21647E+01
  -3.08275E+01 -3.29064E+01 -3.20177E+01 -3.11422E+01 -2.94144E+01 -3.54524E+01 -3.42288E+01 -3.68712E+01 -3.69664E+01 -3.24576E+01
  -3.41529E+01 -3.32508E+01 -3.74454E+01 -3.49297E+01 -3.54868E+01 -3.62773E+01 -3.55506E+01 -3.99443E+01 -3.40636E+01 -3.30606E+01
  -3.45756E+01 -3.31456E+01 -3.51254E+01 -3.16049E+01 -3.22833E+01 -3.21384E+01 -3.29659E+01 -3.59236E+01 -3.27692E+01 -3.14394E+01
  -3.42919E+01 -3.15713E+01 -3.26810E+01 -3.04577E+01 -3.35700E+01 -3.11291E+01 -3.37812E+01 -3.32808E+01 -3.22999E+01 -3.46958E+01
  -3.29080E+01 -3.55659E+01 -3.54869E+01 -3.52932E+01 -3.30363E+01 -3.49887E+01 -3.48006E+01 -3.17643E+01 -3.33493E+01 -3.03335E+01
  -3.42793E+01 -3.27073E+01 -3.67779E+01 -3.29189E+01 -3.14393E+01 -3.34976E+01 -3.29326E+01 -3.10286E+01 -2.90901E+01 -2.80089E+01
  -3.31040E+01 -2.98247E+01 -3.05699E+01 -3.15811E+01 -3.35096E+01 -3.26480E+01 -3.18015E+01 -3.04508E+01 -2.95018E+01 -3.13305E+01
  -3.20826E+01 -3.20288E+01 -2.86517E+01 -3.05728E+01 -2.73241E+01 -2.59709E+01 -2.68920E+01 -2.66189E+01 -2.66949E+01 -2.58445E+01
  -2.56145E+01 -2.67389E+01 -2.41239E+01 -2.61278E+01 -2.27291E+01 -1.84847E+01 -1.88160E+01 -1.89211E+01 -2.02112E+01 -1.64808E+01
  -1.36879E+01 -1.42508E+01 -1.33876E+01 -1.12718E+01 -7.50779E+00 -1.49062E+01 -1.42213E+01 -1.67706E+01 -1.84505E+01 -1.70496E+01
  -1.95228E+01 -2.06383E+01 -2.07623E+01 -2.27021E+01 -2.42691E+01 -2.58307E+01 -2.58417E+01 -2.70635E+01 -2.94806E+01 -3.36434E+01
  -3.33069E+01 -3.11358E+01 -3.34872E+01 -3.28566E+01 -3.03121E+01 -3.34798E+01 -2.99576E+01 -3.03522E+01 -3.06672E+01 -2.76302E+01
  -2.58751E+01 -2.83464E+01 -2.68549E+01 -2.68166E+01 -2.74711E+01 -2.65834E+01 -2.64582E+01 -2.65551E+01 -2.91686E+01 -2.99415E+01
  -2.71624E+01 -2.65213E+01 -2.89228E+01 -3.00874E+01 -3.19227E+01 -2.75276E+01 -3.05217E+01 -2.89519E+01 -2.84172E+01 -2.94663E+01
  -2.70145E+01 -2.87503E+01 -2.84321E+01 -2.78050E+01 -2.78346E+01 -2.60142E+01 -2.57983E+01 -2.54689E+01 -2.61863E+01 -2.62075E+01
  -2.23206E+01 -2.53082E+01 -2.17228E+01 -2.65638E+01 -2.12786E+01 -2.23345E+01 -1.98528E+01 -2.39314E+01 -2.24620E+01 -2.15180E+01
  -1.90667E+01 -2.36317E+01 -2.45452E+01 -2.35736E+01 -2.25295E+01 -2.41592E+01 -2.32326E+01 -2.37976E+01 -2.01855E+01 -2.47935E+01
  -2.46084E+01 -2.75415E+01 -2.27419E+01 -2.49766E+01 -2.51888E+01 -2.63829E+01 -2.33255E+01 -2.28286E+01 -2.26971E+01 -2.40191E+01
  -2.35849E+01 -2.49526E+01 -2.39867E+01 -2.40216E+01 -2.38737E+01 -2.41054E+01 -2.41195E+01 -2.09767E+01 -2.01017E+01 -2.42485E+01
  -2.28893E+01 -2.34647E+01 -2.29182E+01 -2.38619E+01 -2.54518E+01 -2.46330E+01 -2.43768E+01 -2.30829E+01 -2.05289E+01 -2.29893E+01
  -2.37899E+01 -1.95263E+01 -2.19967E+01 -2.01707E+01 -1.73133E+01 -1.91154E+01 -1.98930E+01 -2.01572E+01 -1.98505E+01 -2.00617E+01
  -1.79039E+01 -2.26329E+01 -2.34640E+01 -2.57569E+01 -2.29090E+01 -2.50695E+01 -2.13675E+01 -2.30059E+01 -2.49174E+01 -1.90670E+01
  -2.22296E+01 -2.63899E+01 -1.94141E+01 -1.72826E+01 -1.88184E+01 -1.59733E+01 -1.80226E+01 -2.09281E+01 -1.63934E+01 -2.05396E+01
  -2.00855E+01 -1.80964E+01 -2.07007E+01 -1.98828E+01 -2.06339E+01 -2.09594E+01 -1.65461E+01 -2.24857E+01 -2.08947E+01 -1.86267E+01
  -2.02133E+01 -1.86721E+01 -1.66534E+01 -1.89485E+01 -1.83751E+01 -1.80055E+01 -2.11027E+01 -2.23384E+01 -1.87025E+01 -2.12933E+01
  -2.03278E+01 -1.76677E+01 -1.92344E+01 -1.80379E+01 -1.66538E+01 -1.83678E+01 -1.80982E+01 -1.98248E+01 -1.88349E+01 -2.00171E+01
  -1.65181E+01 -1.86341E+01 -1.59435E+01 -1.60871E+01 -1.69036E+01 -2.07298E+01 -1.74942E+01 -1.73239E+01 -1.28311E+01 -1.82328E+01
  -1.48644E+01 -1.19715E+01 -1.47721E+01 -1.31521E+01 -1.58257E+01 -1.83665E+01 -1.99872E+01 -1.66596E+01 -1.66219E+01 -1.98740E+01
  -1.22712E+01 -1.65068E+01 -1.45700E+01 -2.14815E+01 -1.84295E+01 -1.61467E+01 -2.15116E+01 -1.74682E+01 -2.10113E+01 -1.86270E+01
  -1.87625E+01 -1.49667E+01 -1.99282E+01 -1.93155E+01 -1.90480E+01 -2.20319E+01 -1.96156E+01 -2.16163E+01
 NY points of the fit to the data follow
  -4.65532E+01 -4.64651E+01 -4.63781E+01 -4.62781E+01 -4.61753E+01 -4.60537E+01 -4.59190E+01 -4.57452E+01 -4.55216E+01 -4.53590E+01
  -4.53333E+01 -4.52161E+01 -4.54440E+01 -4.52803E+01 -4.54796E+01 -4.50500E+01 -4.50506E+01 -4.44693E+01 -4.45417E+01 -4.40602E+01
  -4.44609E+01 -4.41449E+01 -4.45802E+01 -4.42789E+01 -4.44732E+01 -4.41610E+01 -4.41904E+01 -4.39645E+01 -4.39793E+01 -4.39234E+01
  -4.39475E+01 -4.40012E+01 -4.39501E+01 -4.40339E+01 -4.38611E+01 -4.39515E+01 -4.37746E+01 -4.38783E+01 -4.37317E+01 -4.38448E+01
  -4.37484E+01 -4.38362E+01 -4.37693E+01 -4.38192E+01 -4.37630E+01 -4.37712E+01 -4.37411E+01 -4.37187E+01 -4.36792E+01 -4.36458E+01
  -4.36294E+01 -4.36002E+01 -4.35956E+01 -4.35740E+01 -4.35583E+01 -4.35195E+01 -4.34743E+01 -4.34217E+01 -4.33585E+01 -4.33022E+01
  -4.32523E+01 -4.32013E+01 -4.31500E+01 -4.30985E+01 -4.30461E+01 -4.29945E+01 -4.29410E+01 -4.28891E+01 -4.28344E+01 -4.27817E+01
  -4.27261E+01 -4.26727E+01 -4.26165E+01 -4.25622E+01 -4.25056E+01 -4.24505E+01 -4.23938E+01 -4.23380E+01 -4.22811E+01 -4.22248E+01
  -4.21679E+01 -4.21112E+01 -4.20544E+01 -4.19975E+01 -4.19407E+01 -4.18836E+01 -4.18268E+01 -4.17695E+01 -4.17125E+01 -4.16552E+01
  -4.15980E+01 -4.15406E+01 -4.14833E+01 -4.14258E+01 -4.13684E+01 -4.13109E+01 -4.12534E+01 -4.11959E+01 -4.11383E+01 -4.10807E+01
  -4.10231E+01 -4.09654E+01 -4.09077E+01 -4.08500E+01 -4.07922E+01 -4.07345E+01 -4.06767E+01 -4.06189E+01 -4.05611E+01 -4.05033E+01
  -4.04454E+01 -4.03876E+01 -4.03297E+01 -4.02718E+01 -4.02139E+01 -4.01560E+01 -4.00980E+01 -4.00401E+01 -3.99822E+01 -3.99242E+01
  -3.98662E+01 -3.98083E+01 -3.97503E+01 -3.96923E+01 -3.96343E+01 -3.95763E+01 -3.95182E+01 -3.94602E+01 -3.94022E+01 -3.93442E+01
  -3.92861E+01 -3.92281E+01 -3.91700E+01 -3.91119E+01 -3.90538E+01 -3.89957E+01 -3.89377E+01 -3.88797E+01 -3.88216E+01 -3.87636E+01
  -3.87055E+01 -3.86474E+01 -3.85893E+01 -3.85312E+01 -3.84730E+01 -3.84149E+01 -3.83568E+01 -3.82986E+01 -3.82404E+01 -3.81821E+01
  -3.81239E+01 -3.80653E+01 -3.80065E+01 -3.79478E+01 -3.78887E+01 -3.78302E+01 -3.77710E+01 -3.77119E+01 -3.76527E+01 -3.75931E+01
  -3.75340E+01 -3.74747E+01 -3.74163E+01 -3.73578E+01 -3.72992E+01 -3.72410E+01 -3.71815E+01 -3.71231E+01 -3.70634E+01 -3.70055E+01
  -3.69440E+01 -3.68858E+01 -3.68214E+01 -3.67626E+01 -3.66950E+01 -3.66345E+01 -3.65633E+01 -3.65001E+01 -3.64257E+01 -3.63570E+01
  -3.62756E+01 -3.61967E+01 -3.61092E+01 -3.60186E+01 -3.59236E+01 -3.58154E+01 -3.56993E+01 -3.55504E+01 -3.53910E+01 -3.52883E+01
  -3.51232E+01 -3.50993E+01 -3.51123E+01 -3.51191E+01 -3.53084E+01 -3.52261E+01 -3.53299E+01 -3.49456E+01 -3.44578E+01 -3.40771E+01
  -3.33345E+01 -3.33068E+01 -3.27731E+01 -3.32689E+01 -3.33098E+01 -3.42669E+01 -3.43396E+01 -3.52476E+01 -3.50507E+01 -3.56781E+01
  -3.53754E+01 -3.58330E+01 -3.57045E+01 -3.60456E+01 -3.60368E+01 -3.61771E+01 -3.61320E+01 -3.59125E+01 -3.56862E+01 -3.51341E+01
  -3.48896E+01 -3.42417E+01 -3.41524E+01 -3.35714E+01 -3.36005E+01 -3.32510E+01 -3.32097E+01 -3.29711E+01 -3.27192E+01 -3.26136E+01
  -3.22325E+01 -3.23641E+01 -3.20350E+01 -3.24670E+01 -3.22350E+01 -3.27942E+01 -3.25254E+01 -3.29602E+01 -3.25697E+01 -3.28443E+01
  -3.25689E+01 -3.27184E+01 -3.25481E+01 -3.25161E+01 -3.24552E+01 -3.22510E+01 -3.21789E+01 -3.18613E+01 -3.18547E+01 -3.14708E+01
  -3.15885E+01 -3.11702E+01 -3.13706E+01 -3.09592E+01 -3.11899E+01 -3.08065E+01 -3.10022E+01 -3.06509E+01 -3.08021E+01 -3.05050E+01
  -3.06321E+01 -3.03789E+01 -3.04910E+01 -3.02973E+01 -3.03772E+01 -3.02297E+01 -3.02555E+01 -3.01159E+01 -3.00718E+01 -2.99263E+01
  -2.98207E+01 -2.96427E+01 -2.94619E+01 -2.92407E+01 -2.89639E+01 -2.86517E+01 -2.82468E+01 -2.78104E+01 -2.72578E+01 -2.66846E+01
  -2.60078E+01 -2.53033E+01 -2.45157E+01 -2.37104E+01 -2.28669E+01 -2.20230E+01 -2.11937E+01 -2.04123E+01 -1.97013E+01 -1.90862E+01
  -1.85935E+01 -1.82360E+01 -1.80340E+01 -1.79901E+01 -1.81085E+01 -1.83757E+01 -1.87824E+01 -1.93065E+01 -1.99276E+01 -2.06190E+01
  -2.13541E+01 -2.21082E+01 -2.28572E+01 -2.35802E+01 -2.42597E+01 -2.48830E+01 -2.54406E+01 -2.59283E+01 -2.63442E+01 -2.66905E+01
  -2.69709E+01 -2.71914E+01 -2.73584E+01 -2.74793E+01 -2.75609E+01 -2.76102E+01 -2.76333E+01 -2.76354E+01 -2.76212E+01 -2.75945E+01
  -2.75585E+01 -2.75155E+01 -2.74675E+01 -2.74159E+01 -2.73616E+01 -2.73055E+01 -2.72481E+01 -2.71897E+01 -2.71306E+01 -2.70711E+01
  -2.70111E+01 -2.69507E+01 -2.68900E+01 -2.68290E+01 -2.67676E+01 -2.67059E+01 -2.66436E+01 -2.65806E+01 -2.65164E+01 -2.64503E+01
  -2.63808E+01 -2.63058E+01 -2.62217E+01 -2.61236E+01 -2.60046E+01 -2.58558E+01 -2.56673E+01 -2.54294E+01 -2.51340E+01 -2.47779E+01
  -2.43650E+01 -2.39086E+01 -2.34321E+01 -2.29672E+01 -2.25507E+01 -2.22189E+01 -2.20016E+01 -2.19160E+01 -2.19642E+01 -2.21322E+01
  -2.23928E+01 -2.27110E+01 -2.30496E+01 -2.33757E+01 -2.36639E+01 -2.38989E+01 -2.40749E+01 -2.41937E+01 -2.42623E+01 -2.42902E+01
  -2.42874E+01 -2.42627E+01 -2.42231E+01 -2.41738E+01 -2.41182E+01 -2.40585E+01 -2.39958E+01 -2.39307E+01 -2.38632E+01 -2.37932E+01
  -2.37205E+01 -2.36448E+01 -2.35656E+01 -2.34825E+01 -2.33953E+01 -2.33036E+01 -2.32070E+01 -2.31054E+01 -2.29986E+01 -2.28866E+01
  -2.27697E+01 -2.26480E+01 -2.25221E+01 -2.23928E+01 -2.22610E+01 -2.21280E+01 -2.19951E+01 -2.18638E+01 -2.17359E+01 -2.16130E+01
  -2.14968E+01 -2.13888E+01 -2.12906E+01 -2.12032E+01 -2.11274E+01 -2.10637E+01 -2.10123E+01 -2.09727E+01 -2.09443E+01 -2.09261E+01
  -2.09167E+01 -2.09147E+01 -2.09185E+01 -2.09263E+01 -2.09365E+01 -2.09475E+01 -2.09579E+01 -2.09665E+01 -2.09723E+01 -2.09744E+01
  -2.09723E+01 -2.09657E+01 -2.09544E+01 -2.09383E+01 -2.09175E+01 -2.08924E+01 -2.08631E+01 -2.08300E+01 -2.07934E+01 -2.07537E+01
  -2.07112E+01 -2.06663E+01 -2.06192E+01 -2.05703E+01 -2.05197E+01 -2.04677E+01 -2.04145E+01 -2.03602E+01 -2.03050E+01 -2.02491E+01
  -2.01924E+01 -2.01351E+01 -2.00773E+01 -2.00190E+01 -1.99603E+01 -1.99012E+01 -1.98418E+01 -1.97821E+01 -1.97222E+01 -1.96620E+01
  -1.96016E+01 -1.95410E+01 -1.94802E+01 -1.94193E+01 -1.93583E+01 -1.92971E+01 -1.92358E+01 -1.91744E+01 -1.91129E+01 -1.90512E+01
  -1.89896E+01 -1.89278E+01 -1.88660E+01 -1.88040E+01 -1.87421E+01 -1.86801E+01 -1.86180E+01 -1.85559E+01 -1.84937E+01 -1.84315E+01
  -1.83692E+01 -1.83069E+01 -1.82446E+01 -1.81822E+01 -1.81199E+01 -1.80575E+01 -1.79950E+01 -1.79326E+01 -1.78701E+01 -1.78076E+01
  -1.77451E+01 -1.76825E+01 -1.76200E+01 -1.75574E+01 -1.74948E+01 -1.74322E+01 -1.73696E+01 -1.73070E+01 -1.72443E+01 -1.71817E+01
  -1.71190E+01 -1.70563E+01 -1.69936E+01 -1.69308E+01 -1.68680E+01 -1.68052E+01 -1.67423E+01 -1.66793E+01
 NY background values follow
    -4.670E+01   -4.665E+01   -4.659E+01   -4.653E+01   -4.647E+01   -4.641E+01   -4.636E+01   -4.630E+01   -4.624E+01   -4.618E+01
    -4.613E+01   -4.607E+01   -4.601E+01   -4.595E+01   -4.589E+01   -4.584E+01   -4.578E+01   -4.572E+01   -4.566E+01   -4.560E+01
    -4.555E+01   -4.549E+01   -4.543E+01   -4.537E+01   -4.531E+01   -4.526E+01   -4.520E+01   -4.514E+01   -4.508E+01   -4.502E+01
    -4.497E+01   -4.491E+01   -4.485E+01   -4.479E+01   -4.473E+01   -4.467E+01   -4.462E+01   -4.456E+01   -4.450E+01   -4.444E+01
    -4.438E+01   -4.433E+01   -4.427E+01   -4.421E+01   -4.415E+01   -4.409E+01   -4.404E+01   -4.398E+01   -4.392E+01   -4.386E+01
    -4.380E+01   -4.374E+01   -4.369E+01   -4.363E+01   -4.357E+01   -4.351E+01   -4.345E+01   -4.340E+01   -4.334E+01   -4.328E+01
    -4.322E+01   -4.316E+01   -4.310E+01   -4.305E+01   -4.299E+01   -4.293E+01   -4.287E+01   -4.281E+01   -4.275E+01   -4.270E+01
    -4.264E+01   -4.258E+01   -4.252E+01   -4.246E+01   -4.240E+01   -4.235E+01   -4.229E+01   -4.223E+01   -4.217E+01   -4.211E+01
    -4.205E+01   -4.199E+01   -4.194E+01   -4.188E+01   -4.182E+01   -4.176E+01   -4.170E+01   -4.164E+01   -4.158E+01   -4.153E+01
    -4.147E+01   -4.141E+01   -4.135E+01   -4.129E+01   -4.123E+01   -4.117E+01   -4.111E+01   -4.106E+01   -4.100E+01   -4.094E+01
    -4.088E+01   -4.082E+01   -4.076E+01   -4.070E+01   -4.064E+01   -4.059E+01   -4.053E+01   -4.047E+01   -4.041E+01   -4.035E+01
    -4.029E+01   -4.023E+01   -4.017E+01   -4.011E+01   -4.005E+01   -4.000E+01   -3.994E+01   -3.988E+01   -3.982E+01   -3.976E+01
    -3.970E+01   -3.964E+01   -3.958E+01   -3.952E+01   -3.946E+01   -3.940E+01   -3.935E+01   -3.929E+01   -3.923E+01   -3.917E+01
    -3.911E+01   -3.905E+01   -3.899E+01   -3.893E+01   -3.887E+01   -3.881E+01   -3.875E+01   -3.869E+01   -3.863E+01   -3.858E+01
    -3.852E+01   -3.846E+01   -3.840E+01   -3.834E+01   -3.828E+01   -3.822E+01   -3.816E+01   -3.810E+01   -3.804E+01   -3.798E+01
    -3.792E+01   -3.786E+01   -3.780E+01   -3.775E+01   -3.769E+01   -3.763E+01   -3.757E+01   -3.751E+01   -3.745E+01   -3.739E+01
    -3.733E+01   -3.727E+01   -3.721E+01   -3.715E+01   -3.709E+01   -3.703E+01   -3.697E+01   -3.692E+01   -3.686E+01   -3.680E+01
    -3.674E+01   -3.668E+01   -3.662E+01   -3.656E+01   -3.650E+01   -3.644E+01   -3.638E+01   -3.632E+01   -3.626E+01   -3.620E+01
    -3.614E+01   -3.609E+01   -3.603E+01   -3.597E+01   -3.591E+01   -3.585E+01   -3.579E+01   -3.573E+01   -3.567E+01   -3.561E+01
    -3.555E+01   -3.549E+01   -3.543E+01   -3.538E+01   -3.532E+01   -3.526E+01   -3.520E+01   -3.514E+01   -3.508E+01   -3.502E+01
    -3.496E+01   -3.490E+01   -3.484E+01   -3.479E+01   -3.473E+01   -3.467E+01   -3.461E+01   -3.455E+01   -3.449E+01   -3.443E+01
    -3.437E+01   -3.431E+01   -3.426E+01   -3.420E+01   -3.414E+01   -3.408E+01   -3.402E+01   -3.396E+01   -3.390E+01   -3.384E+01
    -3.378E+01   -3.373E+01   -3.367E+01   -3.361E+01   -3.355E+01   -3.349E+01   -3.343E+01   -3.337E+01   -3.331E+01   -3.325E+01
    -3.320E+01   -3.314E+01   -3.308E+01   -3.302E+01   -3.296E+01   -3.290E+01   -3.284E+01   -3.278E+01   -3.272E+01   -3.267E+01
    -3.261E+01   -3.255E+01   -3.249E+01   -3.243E+01   -3.237E+01   -3.231E+01   -3.225E+01   -3.219E+01   -3.214E+01   -3.208E+01
    -3.202E+01   -3.196E+01   -3.190E+01   -3.184E+01   -3.178E+01   -3.172E+01   -3.166E+01   -3.160E+01   -3.155E+01   -3.149E+01
    -3.143E+01   -3.137E+01   -3.131E+01   -3.125E+01   -3.119E+01   -3.113E+01   -3.107E+01   -3.101E+01   -3.095E+01   -3.089E+01
    -3.083E+01   -3.078E+01   -3.072E+01   -3.066E+01   -3.060E+01   -3.054E+01   -3.048E+01   -3.042E+01   -3.036E+01   -3.030E+01
    -3.024E+01   -3.018E+01   -3.012E+01   -3.006E+01   -3.000E+01   -2.994E+01   -2.988E+01   -2.982E+01   -2.976E+01   -2.970E+01
    -2.964E+01   -2.958E+01   -2.952E+01   -2.946E+01   -2.940E+01   -2.934E+01   -2.928E+01   -2.922E+01   -2.916E+01   -2.910E+01
    -2.904E+01   -2.898E+01   -2.892E+01   -2.886E+01   -2.880E+01   -2.874E+01   -2.868E+01   -2.862E+01   -2.856E+01   -2.850E+01
    -2.844E+01   -2.838E+01   -2.832E+01   -2.826E+01   -2.820E+01   -2.813E+01   -2.807E+01   -2.801E+01   -2.795E+01   -2.789E+01
    -2.783E+01   -2.777E+01   -2.771E+01   -2.765E+01   -2.759E+01   -2.753E+01   -2.746E+01   -2.740E+01   -2.734E+01   -2.728E+01
    -2.722E+01   -2.716E+01   -2.710E+01   -2.704E+01   -2.697E+01   -2.691E+01   -2.685E+01   -2.679E+01   -2.673E+01   -2.667E+01
    -2.661E+01   -2.654E+01   -2.648E+01   -2.642E+01   -2.636E+01   -2.630E+01   -2.624E+01   -2.617E+01   -2.611E+01   -2.605E+01
    -2.599E+01   -2.593E+01   -2.587E+01   -2.580E+01   -2.574E+01   -2.568E+01   -2.562E+01   -2.556E+01   -2.549E+01   -2.543E+01
    -2.537E+01   -2.531E+01   -2.525E+01   -2.518E+01   -2.512E+01   -2.506E+01   -2.500E+01   -2.493E+01   -2.487E+01   -2.481E+01
    -2.475E+01   -2.469E+01   -2.462E+01   -2.456E+01   -2.450E+01   -2.444E+01   -2.437E+01   -2.431E+01   -2.425E+01   -2.419E+01
    -2.412E+01   -2.406E+01   -2.400E+01   -2.394E+01   -2.387E+01   -2.381E+01   -2.375E+01   -2.368E+01   -2.362E+01   -2.356E+01
    -2.350E+01   -2.343E+01   -2.337E+01   -2.331E+01   -2.324E+01   -2.318E+01   -2.312E+01   -2.306E+01   -2.299E+01   -2.293E+01
    -2.287E+01   -2.280E+01   -2.274E+01   -2.268E+01   -2.262E+01   -2.255E+01   -2.249E+01   -2.243E+01   -2.236E+01   -2.230E+01
    -2.224E+01   -2.217E+01   -2.211E+01   -2.205E+01   -2.198E+01   -2.192E+01   -2.186E+01   -2.179E+01   -2.173E+01   -2.167E+01
    -2.160E+01   -2.154E+01   -2.148E+01   -2.141E+01   -2.135E+01   -2.129E+01   -2.122E+01   -2.116E+01   -2.110E+01   -2.103E+01
    -2.097E+01   -2.091E+01   -2.084E+01   -2.078E+01   -2.072E+01   -2.065E+01   -2.059E+01   -2.053E+01   -2.046E+01   -2.040E+01
    -2.034E+01   -2.027E+01   -2.021E+01   -2.015E+01   -2.008E+01   -2.002E+01   -1.996E+01   -1.989E+01   -1.983E+01   -1.977E+01
    -1.970E+01   -1.964E+01   -1.957E+01   -1.951E+01   -1.945E+01   -1.938E+01   -1.932E+01   -1.926E+01   -1.919E+01   -1.913E+01
    -1.907E+01   -1.900E+01   -1.894E+01   -1.888E+01   -1.881E+01   -1.875E+01   -1.869E+01   -1.862E+01   -1.856E+01   -1.850E+01
    -1.843E+01   -1.837E+01   -1.831E+01   -1.824E+01   -1.818E+01   -1.812E+01   -1.805E+01   -1.799E+01   -1.793E+01   -1.786E+01
    -1.780E+01   -1.774E+01   -1.767E+01   -1.761E+01   -1.755E+01   -1.748E+01   -1.742E+01   -1.736E+01   -1.729E+01   -1.723E+01
    -1.717E+01   -1.710E+01   -1.704E+01   -1.698E+01   -1.691E+01   -1.685E+01   -1.679E+01   -1.672E+01
 Asp      Conc. = 4.52E-03
