 LCModel (Version 6.3-1L) Copyright: S.W. Provencher.          Ref.: Magn. Reson. Med. 30:672-679 (1993).                
 Slice#2 Row#1 Col#5  PD_24_press_2_raw_act
 36 lines in following concentration table = NCONC+1
    Conc.  %SD /Cr+PCr  Metabolite                                         
  207.800  88%   0.557 Ala                                                 
   61.668  41%   0.165 Asp                                                 
  129.024 206%   0.346 Cr                                                  
  243.957 107%   0.654 PCr                                                 
   35.938  42% 9.6E-02 GABA                                                
   37.612  41%   0.101 Glc                                                 
   19.961 999% 5.4E-02 Gln                                                 
    0.000 999%   0.000 Glu                                                 
  142.281 156%   0.381 GPC                                                 
   29.195 762% 7.8E-02 PCh                                                 
   34.500 355% 9.2E-02 GSH                                                 
  944.972  42%   2.534 Ins                                                 
  294.415  67%   0.789 Lac                                                 
    0.000 999%   0.000 NAA                                                 
  344.773  27%   0.924 NAAG                                                
   12.592  40% 3.4E-02 Scyllo                                              
   61.654  41%   0.165 Tau                                                 
   44.114  73%   0.118 -CrCH2                                              
  171.476  20%   0.460 GPC+PCh                                             
  344.773  27%   0.924 NAA+NAAG                                            
  372.981  25%   1.000 Cr+PCr                                              
   19.961 999% 5.4E-02 Glu+Gln                                             
  297.402 148%   0.797 Lip13a                                              
    0.000 999%   0.000 Lip13b                                              
   41.512 412%   0.111 Lip09                                               
 1.24E+03  20%   3.332 MM09                                                
    0.000 999%   0.000 Lip20                                               
    0.000 999%   0.000 MM20                                                
  457.729  37%   1.227 MM12                                                
 3.39E+03  14%   9.095 MM14                                                
 1.35E+03  26%   3.622 MM17                                                
  297.402 148%   0.797 Lip13a+Lip13b                                       
 4.15E+03  12%  11.120 MM14+Lip13a+Lip13b+MM12                             
 1.28E+03  19%   3.443 MM09+Lip09                                          
    0.000 999%   0.000 MM20+Lip20                                          
   6 lines in following misc. output table
  FWHM = 0.046 ppm    S/N =   2                                            
  Data shift = 0.008 ppm                                                   
  Ph:-119 deg      33.6 deg/ppm                                            
  alphaB,S = 8.5E+01,   5.1E+01                                            
   14 spline knots.   Ns = 6(1)                                            
   2 inflections.     1 extrema                                            
  498 points on ppm-axis = NY
      4.000000     3.992357     3.984714     3.977070     3.969427     3.961784     3.954141     3.946497     3.938854     3.931211
      3.923568     3.915925     3.908281     3.900638     3.892995     3.885352     3.877708     3.870065     3.862422     3.854779
      3.847136     3.839492     3.831849     3.824206     3.816563     3.808919     3.801276     3.793633     3.785990     3.778347
      3.770703     3.763060     3.755417     3.747774     3.740130     3.732487     3.724844     3.717201     3.709558     3.701914
      3.694271     3.686628     3.678985     3.671341     3.663698     3.656055     3.648412     3.640769     3.633125     3.625482
      3.617839     3.610196     3.602552     3.594909     3.587266     3.579623     3.571980     3.564336     3.556693     3.549050
      3.541407     3.533763     3.526120     3.518477     3.510834     3.503191     3.495547     3.487904     3.480261     3.472618
      3.464974     3.457331     3.449688     3.442045     3.434402     3.426758     3.419115     3.411472     3.403829     3.396185
      3.388542     3.380899     3.373256     3.365613     3.357969     3.350326     3.342683     3.335040     3.327396     3.319753
      3.312110     3.304467     3.296824     3.289180     3.281537     3.273894     3.266251     3.258607     3.250964     3.243321
      3.235678     3.228034     3.220391     3.212748     3.205105     3.197462     3.189818     3.182175     3.174532     3.166889
      3.159245     3.151602     3.143959     3.136316     3.128673     3.121029     3.113386     3.105743     3.098100     3.090456
      3.082813     3.075170     3.067527     3.059884     3.052240     3.044597     3.036954     3.029311     3.021667     3.014024
      3.006381     2.998738     2.991095     2.983451     2.975808     2.968165     2.960522     2.952878     2.945235     2.937592
      2.929949     2.922306     2.914662     2.907019     2.899376     2.891733     2.884089     2.876446     2.868803     2.861160
      2.853517     2.845873     2.838230     2.830587     2.822944     2.815300     2.807657     2.800014     2.792371     2.784728
      2.777084     2.769441     2.761798     2.754155     2.746511     2.738868     2.731225     2.723582     2.715939     2.708295
      2.700652     2.693009     2.685366     2.677722     2.670079     2.662436     2.654793     2.647150     2.639506     2.631863
      2.624220     2.616577     2.608933     2.601290     2.593647     2.586004     2.578361     2.570717     2.563074     2.555431
      2.547788     2.540144     2.532501     2.524858     2.517215     2.509572     2.501928     2.494285     2.486642     2.478999
      2.471355     2.463712     2.456069     2.448426     2.440783     2.433139     2.425496     2.417853     2.410210     2.402566
      2.394923     2.387280     2.379637     2.371994     2.364350     2.356707     2.349064     2.341421     2.333777     2.326134
      2.318491     2.310848     2.303205     2.295561     2.287918     2.280275     2.272632     2.264988     2.257345     2.249702
      2.242059     2.234416     2.226772     2.219129     2.211486     2.203843     2.196199     2.188556     2.180913     2.173270
      2.165627     2.157983     2.150340     2.142697     2.135054     2.127410     2.119767     2.112124     2.104481     2.096838
      2.089194     2.081551     2.073908     2.066265     2.058621     2.050978     2.043335     2.035692     2.028049     2.020405
      2.012762     2.005119     1.997476     1.989833     1.982190     1.974546     1.966903     1.959260     1.951617     1.943974
      1.936331     1.928688     1.921045     1.913402     1.905759     1.898115     1.890472     1.882829     1.875186     1.867543
      1.859900     1.852257     1.844614     1.836971     1.829327     1.821684     1.814041     1.806398     1.798755     1.791112
      1.783469     1.775826     1.768183     1.760540     1.752896     1.745253     1.737610     1.729967     1.722324     1.714681
      1.707038     1.699395     1.691752     1.684108     1.676465     1.668822     1.661179     1.653536     1.645893     1.638250
      1.630607     1.622964     1.615321     1.607677     1.600034     1.592391     1.584748     1.577105     1.569462     1.561819
      1.554176     1.546533     1.538890     1.531246     1.523603     1.515960     1.508317     1.500674     1.493031     1.485388
      1.477745     1.470102     1.462458     1.454815     1.447172     1.439529     1.431886     1.424243     1.416600     1.408957
      1.401314     1.393671     1.386027     1.378384     1.370741     1.363098     1.355455     1.347812     1.340169     1.332526
      1.324883     1.317240     1.309596     1.301953     1.294310     1.286667     1.279024     1.271381     1.263738     1.256095
      1.248452     1.240808     1.233165     1.225522     1.217879     1.210236     1.202593     1.194950     1.187307     1.179664
      1.172021     1.164377     1.156734     1.149091     1.141448     1.133805     1.126162     1.118519     1.110876     1.103233
      1.095590     1.087946     1.080303     1.072660     1.065017     1.057374     1.049731     1.042088     1.034445     1.026802
      1.019158     1.011515     1.003872     0.996229     0.988586     0.980943     0.973300     0.965657     0.958014     0.950371
      0.942727     0.935084     0.927441     0.919798     0.912155     0.904512     0.896869     0.889226     0.881583     0.873940
      0.866296     0.858653     0.851010     0.843367     0.835724     0.828081     0.820438     0.812795     0.805152     0.797508
      0.789865     0.782222     0.774579     0.766936     0.759293     0.751650     0.744007     0.736364     0.728721     0.721077
      0.713434     0.705791     0.698148     0.690505     0.682862     0.675219     0.667576     0.659933     0.652290     0.644646
      0.637003     0.629360     0.621717     0.614074     0.606431     0.598788     0.591145     0.583502     0.575858     0.568215
      0.560572     0.552929     0.545286     0.537643     0.530000     0.522357     0.514714     0.507071     0.499427     0.491784
      0.484141     0.476498     0.468855     0.461212     0.453569     0.445925     0.438282     0.430639     0.422996     0.415353
      0.407710     0.400067     0.392424     0.384780     0.377137     0.369494     0.361851     0.354208     0.346565     0.338922
      0.331278     0.323635     0.315992     0.308349     0.300706     0.293063     0.285420     0.277777     0.270133     0.262490
      0.254847     0.247204     0.239561     0.231918     0.224275     0.216631     0.208988     0.201345
 NY phased data points follow
  -1.02287E+01 -1.54685E+01 -1.37388E+01 -8.98160E+00 -2.21136E+00  2.06103E+00 -1.48584E+01 -1.54127E+01 -9.46276E+00 -1.21637E+01
   2.07699E+00  5.52859E+00 -1.99447E+01 -5.54400E+00 -7.33636E+00 -8.99765E+00 -1.05783E+01 -1.62780E+01 -6.25510E+00 -1.54152E+01
   7.47605E+00 -1.54557E+01  1.63797E+00 -1.12590E+01 -1.09378E+01 -1.40289E+01 -7.14598E+00 -7.04168E+00 -7.21224E+00  6.15920E-01
  -4.42888E+00 -8.50935E+00 -1.70072E+01 -9.36965E+00 -6.30437E+00 -1.93143E+01 -1.19666E+01 -1.90785E+00 -1.61846E+00 -1.21137E+01
  -1.64410E+01 -7.88874E+00 -1.45393E+01 -5.79019E+00 -1.37493E+01  7.94708E+00 -3.65888E+00 -7.60640E+00 -5.10766E+00 -3.21005E+00
  -1.61698E+01 -1.25497E+00 -7.07352E+00 -1.05814E+01 -2.31493E+01  8.04368E-01 -3.64147E+00 -6.24599E+00 -1.08026E+01  1.45188E+00
  -9.62255E+00 -6.38649E+00 -3.92744E+00 -1.72641E+01 -1.00292E+01 -1.44239E+01 -1.73466E-01 -1.03077E+01 -8.30865E+00 -3.05347E+00
  -3.66979E+00 -9.50907E+00 -2.12994E+00 -4.89700E+00 -6.13543E+00 -6.24476E+00  5.37999E+00 -5.17449E+00 -9.68182E+00 -6.11859E+00
  -1.66147E+01 -1.29689E+01 -1.25148E+01 -9.78589E+00 -8.84823E+00  3.86873E-01 -1.55741E+01 -2.80701E+00 -7.21858E+00 -1.34705E+01
  -7.53903E+00 -4.87844E+00 -1.03687E+01 -6.47885E+00 -2.04069E+01 -2.53640E+00 -4.57816E+00 -1.16262E+01 -1.65272E+01  9.11430E+00
   1.25131E+01  5.59088E+00  3.98340E+00  1.09852E+01  8.94246E+00  1.72476E+00 -1.30012E+00 -1.26409E+01 -2.12378E+01 -5.39827E+00
  -1.06084E+01 -1.61604E+01 -1.89276E+01 -8.51213E+00 -1.35247E+01 -2.20982E+01 -1.15909E+01 -2.21838E-01 -8.39408E+00 -6.59458E+00
   1.41677E+00 -4.38854E-01 -5.24341E+00  7.34216E+00 -2.01342E-01  1.23221E+01  1.22674E+00  1.33181E+01  2.97753E+00  1.50888E+00
  -8.81361E+00 -1.32646E+01 -1.67018E+01 -2.22307E+01 -1.32874E+01 -6.43875E+00 -9.97701E-01  1.68616E+00 -1.96338E+01 -5.54752E+00
  -8.13320E+00 -1.02048E+01 -1.27428E+01 -8.18723E+00  1.18932E+00 -1.30275E+01 -3.92581E+00 -3.37105E+00 -4.73446E+00 -5.35484E+00
  -3.63199E+00 -3.60101E+00 -1.47580E+01 -9.16140E+00 -8.84421E+00 -3.58722E+00 -1.92209E+01 -1.07650E+01 -6.13572E+00 -1.10648E+01
  -3.26478E+00 -2.31734E+01 -4.64322E+00 -1.98445E+00 -1.52772E+01 -5.77136E+00 -1.14455E+01 -5.68674E+00 -7.19949E+00 -1.21750E+01
  -2.04316E+01 -8.87842E+00 -1.41665E+01 -8.58027E+00 -1.40798E+01 -4.18695E+00 -1.08199E+01 -6.12393E+00 -3.24138E+00 -6.43276E+00
  -2.48988E+00 -3.98216E+00 -9.96637E+00 -1.80599E+00 -1.56831E+01  2.64363E+00  6.39130E+00 -3.88073E+00 -4.18871E+00 -1.20331E+00
  -1.54007E+01 -1.90314E+00  9.14160E-01 -1.07057E+00 -2.17858E+00 -5.27980E+00 -1.13503E+00  3.18768E-01 -6.51997E+00 -1.31218E+01
  -9.01762E+00 -1.98652E+01 -1.33066E+01 -3.87209E+00 -8.51153E+00 -2.10522E+01 -1.92107E+01 -1.06624E+01 -1.36025E+01 -1.16676E+01
  -4.41892E+00 -2.65562E+00 -1.32871E+01 -7.52110E+00 -2.74561E+00 -3.31173E+00 -1.32424E+01 -2.33549E+01 -8.50884E+00  5.85896E+00
  -4.87280E+00 -1.29703E+01 -4.31137E+00 -1.66433E+01 -1.15113E+01 -1.17417E+01  1.27238E+00  2.45692E-01 -9.50832E+00 -3.36735E+00
  -1.14479E+01 -1.36554E+01 -7.09546E+00  1.43857E+00 -1.19464E+01 -1.31610E+01 -2.30817E+01 -1.32339E+01 -2.04463E+00 -1.06193E+01
  -3.91272E+00 -1.34631E+01 -8.81839E+00 -1.06144E+01 -1.28350E+01 -1.12579E+01 -6.35417E+00 -7.59957E+00  5.33258E-01 -6.61220E+00
  -4.14266E+00  9.93449E-01  4.20348E+00  2.38368E+00  1.48328E+01  8.40475E+00  4.49067E+00  1.76421E-01  4.80376E+00  1.34422E-01
   6.81067E+00  1.62404E+00 -7.82833E+00 -1.21761E+01 -2.46024E+01 -2.55050E+01 -2.37105E+01 -1.34589E+01 -2.08444E+01 -8.03675E+00
  -1.64042E+01 -5.24122E+00 -1.10191E+01 -7.01375E+00 -2.03709E+01 -1.16579E+01 -1.59619E+01 -8.26951E+00 -5.50014E+00 -4.88652E+00
   5.16924E+00 -5.77103E+00 -1.00986E+01 -7.00765E+00 -9.41811E-01 -2.15650E+00 -1.03718E+01  5.77392E+00 -4.91416E+00 -7.46336E+00
  -8.12589E+00  3.59620E+00  1.61951E+00 -7.56531E+00 -3.29545E+00  5.41186E+00  1.88527E+01  6.72103E+00  3.04864E+00 -4.82018E+00
   7.07716E+00  6.19219E+00  8.16775E+00  6.23705E-01  3.55564E+00  8.23215E+00  1.30317E+01  6.24630E+00  1.28109E+01  4.84347E+00
   1.15013E+01 -1.55511E+00  9.76356E+00  3.86979E+00  1.13451E+01  7.21491E+00  6.67917E+00  1.49881E+01  1.67793E+00  1.18635E+01
   1.74331E+01  1.57779E+01  1.70016E+01  1.90172E+01  1.61415E+01  1.73528E+01  1.63511E+01  1.34820E+01  2.98407E+01  2.29170E+01
   1.87172E+01  1.87246E+01  1.95531E+01  2.66376E+01  1.46687E+01  3.09026E+01  2.62430E+01  2.49441E+01  3.01994E+01  1.80263E+01
   2.43323E+01  2.11023E+01  2.49270E+01  2.12577E+01  2.60469E+01  6.35081E+00  7.52705E+00  2.12076E+01  1.48705E+01  5.12064E+00
   1.89798E+00 -1.43386E+00  4.95517E+00 -1.79466E-01  5.76558E+00 -1.85111E+00  3.24151E+00  1.63397E+00  4.90921E+00 -4.51684E-03
   1.13725E+01  1.48487E+01 -1.15889E+00 -6.30858E+00  6.71038E+00  5.91196E+00  1.93938E-01  8.03581E+00  5.44019E+00  2.12309E+00
   1.36273E+01  1.08066E+01  6.81125E+00  4.15660E+00  1.24586E+01  6.23081E+00 -6.21979E-01  1.71347E+01  8.78621E+00  2.11728E+01
   3.83856E+00  3.67189E+00  8.27536E+00  2.08478E+01  1.02964E+01 -3.80693E+00  1.34558E+01  1.09897E+01  1.56062E+01  2.42046E+01
   6.86169E+00 -1.28031E-01  1.43012E+01  1.23815E+01  1.93659E+01  1.94212E+01  1.26209E+01  1.30777E+01 -2.61627E+00  1.04093E+01
   1.45258E+01 -3.88078E-01  6.25619E+00  9.87679E+00 -7.87427E-01 -3.79072E+00  5.45785E+00  1.38120E+01  1.28077E+01 -2.13903E+00
   1.01692E+01  3.30863E+00 -2.38425E+00  3.79391E+00  3.50730E+00  5.33272E+00 -5.20755E+00  2.65970E+00  7.49346E+00  1.92435E+00
   8.44094E+00 -1.67852E+00  1.67522E+00  3.75247E+00  2.46306E+00  2.31708E+00  5.34129E+00  5.45579E+00  1.53010E+00 -6.22044E+00
  -1.42906E-01  2.83641E-01  3.40598E+00  1.64954E+01  8.14350E+00  1.83919E+01  5.10547E+00  1.10064E+01  8.62245E+00 -6.54494E+00
   1.64013E+00  1.99897E-01  1.50809E+01  1.89578E+00  2.12438E-01  6.73631E-01 -2.95389E+00  1.23009E+01  9.93354E+00 -1.61198E+00
   3.06012E+00 -8.82261E-01  7.02057E+00  9.15602E+00 -1.03544E+00 -1.50816E+01 -1.86931E+00 -2.01878E+00  6.89871E+00 -4.16620E+00
   1.12974E+01  5.52631E+00 -1.27744E+01 -1.31070E+00  6.68084E+00 -6.42377E+00  7.22309E+00  1.48923E+01  1.29919E+01 -1.38728E+00
  -1.00720E+00  7.14652E-01  7.36228E+00 -2.14470E+00  4.97201E+00  1.35186E+01 -6.79459E+00  1.17285E+01  2.51491E-01  1.15258E+00
   1.21562E+00  2.82813E+00  1.08009E+01 -8.95137E+00  5.44533E+00 -1.11671E+01 -4.10578E+00 -3.72864E+00  6.61958E+00  6.99018E-01
   5.15214E+00  1.40719E+00 -1.13776E+00  6.10009E+00  1.48271E+00  2.38513E+00  6.93963E+00  6.70396E+00
 NY points of the fit to the data follow
  -1.14031E+01 -1.15096E+01 -1.12147E+01 -1.02630E+01 -8.90343E+00 -7.31874E+00 -5.68020E+00 -4.30913E+00 -3.47909E+00 -3.33124E+00
  -3.85165E+00 -4.89997E+00 -6.28797E+00 -7.76042E+00 -9.04221E+00 -9.93342E+00 -1.04362E+01 -1.06853E+01 -1.06874E+01 -1.05626E+01
  -1.04383E+01 -1.03577E+01 -1.03516E+01 -1.04230E+01 -1.05037E+01 -1.05575E+01 -1.05961E+01 -1.06023E+01 -1.05094E+01 -1.02907E+01
  -9.96504E+00 -9.55418E+00 -9.06185E+00 -8.59265E+00 -8.30713E+00 -8.32844E+00 -8.64728E+00 -9.15026E+00 -9.75900E+00 -1.03813E+01
  -1.07913E+01 -1.05611E+01 -9.32496E+00 -7.25422E+00 -5.00176E+00 -3.27429E+00 -2.48478E+00 -2.67570E+00 -3.68765E+00 -5.29347E+00
  -7.20262E+00 -9.03681E+00 -1.03880E+01 -1.08852E+01 -1.04455E+01 -9.42369E+00 -8.27948E+00 -7.32813E+00 -6.72109E+00 -6.52839E+00
  -6.74873E+00 -7.27217E+00 -7.94880E+00 -8.60841E+00 -9.11070E+00 -9.33288E+00 -9.13408E+00 -8.59550E+00 -7.94103E+00 -7.36004E+00
  -6.96214E+00 -6.76224E+00 -6.74652E+00 -6.87955E+00 -7.12001E+00 -7.42969E+00 -7.74439E+00 -8.00876E+00 -8.17807E+00 -8.24390E+00
  -8.23893E+00 -8.25480E+00 -8.42562E+00 -8.84732E+00 -9.47570E+00 -1.01644E+01 -1.07583E+01 -1.11521E+01 -1.12761E+01 -1.11172E+01
  -1.06901E+01 -1.00803E+01 -9.47918E+00 -9.07659E+00 -8.99481E+00 -9.14070E+00 -8.95947E+00 -7.09146E+00 -3.40496E+00  9.84951E-01
   4.85529E+00  7.41562E+00  8.40130E+00  7.78263E+00  5.62048E+00  2.22775E+00 -1.71909E+00 -5.31947E+00 -7.74555E+00 -8.65505E+00
  -8.52319E+00 -8.36390E+00 -8.39913E+00 -8.47183E+00 -8.56372E+00 -8.66657E+00 -8.77308E+00 -8.87104E+00 -8.94062E+00 -8.90419E+00
  -8.29574E+00 -6.26045E+00 -3.03075E+00  4.55592E-01  3.30084E+00  5.00693E+00  5.44518E+00  4.65026E+00  2.74904E+00  3.20795E-02
  -2.97159E+00 -5.59046E+00 -7.27295E+00 -7.86664E+00 -7.82403E+00 -7.81004E+00 -7.85427E+00 -7.86249E+00 -7.82865E+00 -7.76374E+00
  -7.67916E+00 -7.59967E+00 -7.55264E+00 -7.54126E+00 -7.55794E+00 -7.58639E+00 -7.61161E+00 -7.63504E+00 -7.68130E+00 -7.77016E+00
  -7.87964E+00 -7.97017E+00 -8.00813E+00 -7.97463E+00 -7.90600E+00 -7.83814E+00 -7.78501E+00 -7.75316E+00 -7.75081E+00 -7.78966E+00
  -7.87220E+00 -7.97187E+00 -8.04670E+00 -8.07864E+00 -8.09714E+00 -8.10618E+00 -8.08138E+00 -8.01362E+00 -7.89748E+00 -7.77034E+00
  -7.68268E+00 -7.63459E+00 -7.60752E+00 -7.59032E+00 -7.58928E+00 -7.61856E+00 -7.68372E+00 -7.77109E+00 -7.80505E+00 -7.74666E+00
  -7.61581E+00 -7.44484E+00 -7.26126E+00 -7.06604E+00 -6.85190E+00 -6.63206E+00 -6.41614E+00 -6.24186E+00 -6.15787E+00 -6.17041E+00
  -6.24983E+00 -6.36965E+00 -6.54201E+00 -6.73582E+00 -6.87274E+00 -6.90796E+00 -6.83330E+00 -6.67089E+00 -6.46310E+00 -6.25913E+00
  -6.10677E+00 -6.02744E+00 -6.03249E+00 -6.14582E+00 -6.34300E+00 -6.55412E+00 -6.70858E+00 -6.78537E+00 -6.79862E+00 -6.75564E+00
  -6.66576E+00 -6.54434E+00 -6.41400E+00 -6.30066E+00 -6.22513E+00 -6.19229E+00 -6.18193E+00 -6.15265E+00 -6.08107E+00 -5.96856E+00
  -5.83301E+00 -5.69413E+00 -5.58041E+00 -5.50932E+00 -5.48983E+00 -5.54795E+00 -5.68006E+00 -5.84476E+00 -5.98562E+00 -6.03526E+00
  -5.96238E+00 -5.78879E+00 -5.56886E+00 -5.35450E+00 -5.18824E+00 -5.10487E+00 -5.14859E+00 -5.33129E+00 -5.58591E+00 -5.80905E+00
  -5.93117E+00 -5.93149E+00 -5.82984E+00 -5.68176E+00 -5.52948E+00 -5.39774E+00 -5.29736E+00 -5.22912E+00 -5.16331E+00 -4.81441E+00
  -3.27892E+00 -4.88080E-01  2.74167E+00  5.52328E+00  7.29834E+00  7.89564E+00  7.34175E+00  5.74138E+00  3.33891E+00  5.87933E-01
  -1.90169E+00 -3.57729E+00 -4.20941E+00 -4.12523E+00 -4.04387E+00 -4.10932E+00 -4.18095E+00 -4.21997E+00 -4.21716E+00 -4.17133E+00
  -4.09522E+00 -4.01940E+00 -3.97037E+00 -3.95887E+00 -3.98468E+00 -4.03916E+00 -4.10499E+00 -4.15315E+00 -4.15355E+00 -4.10037E+00
  -3.99871E+00 -3.86070E+00 -3.70545E+00 -3.55099E+00 -3.40463E+00 -3.25914E+00 -3.09341E+00 -2.88703E+00 -2.62614E+00 -2.30276E+00
  -1.91655E+00 -1.47486E+00 -9.87640E-01 -4.68157E-01  7.02656E-02  6.23214E-01  1.19093E+00  1.77489E+00  2.37562E+00  2.98731E+00
   3.59212E+00  4.17216E+00  4.71145E+00  5.19419E+00  5.60689E+00  5.94148E+00  6.19840E+00  6.38673E+00  6.51654E+00  6.60065E+00
   6.65651E+00  6.70472E+00  6.76861E+00  6.87318E+00  7.04399E+00  7.30605E+00  7.68298E+00  8.19683E+00  8.86946E+00  9.72836E+00
   1.08300E+01  1.22857E+01  1.39584E+01  1.54823E+01  1.66325E+01  1.73591E+01  1.77255E+01  1.77985E+01  1.76150E+01  1.74206E+01
   1.76604E+01  1.85145E+01  1.98852E+01  2.14713E+01  2.28981E+01  2.38441E+01  2.42219E+01  2.40664E+01  2.33922E+01  2.23132E+01
   2.10873E+01  2.01301E+01  1.96048E+01  1.89967E+01  1.78273E+01  1.60060E+01  1.36630E+01  1.09650E+01  8.04969E+00  5.37101E+00
   3.57746E+00  2.93900E+00  3.36654E+00  4.50113E+00  5.85783E+00  6.94778E+00  7.53021E+00  7.64453E+00  7.29572E+00  6.58383E+00
   5.73946E+00  5.04599E+00  4.68324E+00  4.53416E+00  4.41084E+00  4.30189E+00  4.20905E+00  4.13013E+00  4.06337E+00  4.00815E+00
   3.96486E+00  3.93489E+00  3.92048E+00  3.92454E+00  3.95043E+00  4.00168E+00  4.08186E+00  4.19442E+00  4.34258E+00  4.52912E+00
   4.75598E+00  5.02413E+00  5.33332E+00  5.68200E+00  6.06713E+00  6.48410E+00  6.92658E+00  7.38665E+00  7.85492E+00  8.32088E+00
   8.77318E+00  9.20009E+00  9.58987E+00  9.93137E+00  1.02146E+01  1.04311E+01  1.05746E+01  1.06410E+01  1.06289E+01  1.05390E+01
   1.03750E+01  1.01424E+01  9.84887E+00  9.50337E+00  9.11578E+00  8.69651E+00  8.25593E+00  7.80405E+00  7.35005E+00  6.90202E+00
   6.46681E+00  6.04996E+00  5.65573E+00  5.28709E+00  4.94583E+00  4.63275E+00  4.34775E+00  4.09013E+00  3.85869E+00  3.65190E+00
   3.46794E+00  3.30491E+00  3.16087E+00  3.03399E+00  2.92250E+00  2.82475E+00  2.73920E+00  2.66445E+00  2.59927E+00  2.54257E+00
   2.49341E+00  2.45092E+00  2.41432E+00  2.38297E+00  2.35628E+00  2.33378E+00  2.31504E+00  2.29967E+00  2.28730E+00  2.27765E+00
   2.27046E+00  2.26553E+00  2.26265E+00  2.26163E+00  2.26229E+00  2.26451E+00  2.26817E+00  2.27317E+00  2.27939E+00  2.28674E+00
   2.29512E+00  2.30447E+00  2.31474E+00  2.32586E+00  2.33778E+00  2.35042E+00  2.36374E+00  2.37772E+00  2.39232E+00  2.40750E+00
   2.42321E+00  2.43942E+00  2.45611E+00  2.47327E+00  2.49086E+00  2.50886E+00  2.52724E+00  2.54597E+00  2.56506E+00  2.58449E+00
   2.60424E+00  2.62428E+00  2.64459E+00  2.66518E+00  2.68603E+00  2.70714E+00  2.72849E+00  2.75005E+00  2.77181E+00  2.79379E+00
   2.81597E+00  2.83835E+00  2.86089E+00  2.88360E+00  2.90647E+00  2.92951E+00  2.95270E+00  2.97604E+00  2.99950E+00  3.02308E+00
   3.04679E+00  3.07063E+00  3.09458E+00  3.11863E+00  3.14277E+00  3.16700E+00  3.19133E+00  3.21575E+00
 NY background values follow
    -1.223E+01   -1.220E+01   -1.217E+01   -1.214E+01   -1.211E+01   -1.208E+01   -1.205E+01   -1.202E+01   -1.199E+01   -1.196E+01
    -1.193E+01   -1.190E+01   -1.187E+01   -1.184E+01   -1.181E+01   -1.178E+01   -1.175E+01   -1.172E+01   -1.169E+01   -1.166E+01
    -1.163E+01   -1.160E+01   -1.157E+01   -1.154E+01   -1.151E+01   -1.148E+01   -1.145E+01   -1.142E+01   -1.139E+01   -1.136E+01
    -1.133E+01   -1.130E+01   -1.127E+01   -1.124E+01   -1.121E+01   -1.118E+01   -1.115E+01   -1.112E+01   -1.109E+01   -1.106E+01
    -1.103E+01   -1.100E+01   -1.097E+01   -1.094E+01   -1.091E+01   -1.088E+01   -1.085E+01   -1.082E+01   -1.079E+01   -1.076E+01
    -1.073E+01   -1.070E+01   -1.067E+01   -1.064E+01   -1.061E+01   -1.058E+01   -1.055E+01   -1.052E+01   -1.049E+01   -1.046E+01
    -1.043E+01   -1.040E+01   -1.037E+01   -1.034E+01   -1.031E+01   -1.028E+01   -1.025E+01   -1.022E+01   -1.019E+01   -1.016E+01
    -1.013E+01   -1.010E+01   -1.007E+01   -1.004E+01   -1.001E+01   -9.980E+00   -9.950E+00   -9.920E+00   -9.890E+00   -9.860E+00
    -9.830E+00   -9.800E+00   -9.770E+00   -9.740E+00   -9.710E+00   -9.680E+00   -9.650E+00   -9.620E+00   -9.590E+00   -9.560E+00
    -9.530E+00   -9.500E+00   -9.470E+00   -9.440E+00   -9.410E+00   -9.380E+00   -9.350E+00   -9.320E+00   -9.289E+00   -9.259E+00
    -9.229E+00   -9.199E+00   -9.169E+00   -9.139E+00   -9.109E+00   -9.079E+00   -9.049E+00   -9.019E+00   -8.989E+00   -8.959E+00
    -8.929E+00   -8.899E+00   -8.869E+00   -8.839E+00   -8.809E+00   -8.779E+00   -8.749E+00   -8.719E+00   -8.689E+00   -8.659E+00
    -8.629E+00   -8.599E+00   -8.569E+00   -8.538E+00   -8.508E+00   -8.478E+00   -8.448E+00   -8.418E+00   -8.388E+00   -8.358E+00
    -8.328E+00   -8.298E+00   -8.268E+00   -8.238E+00   -8.208E+00   -8.178E+00   -8.148E+00   -8.118E+00   -8.088E+00   -8.058E+00
    -8.028E+00   -7.997E+00   -7.967E+00   -7.937E+00   -7.907E+00   -7.877E+00   -7.847E+00   -7.817E+00   -7.787E+00   -7.757E+00
    -7.727E+00   -7.697E+00   -7.667E+00   -7.637E+00   -7.607E+00   -7.576E+00   -7.546E+00   -7.516E+00   -7.486E+00   -7.456E+00
    -7.426E+00   -7.396E+00   -7.366E+00   -7.336E+00   -7.306E+00   -7.276E+00   -7.246E+00   -7.215E+00   -7.185E+00   -7.155E+00
    -7.125E+00   -7.095E+00   -7.065E+00   -7.035E+00   -7.005E+00   -6.975E+00   -6.945E+00   -6.915E+00   -6.884E+00   -6.854E+00
    -6.824E+00   -6.794E+00   -6.764E+00   -6.734E+00   -6.704E+00   -6.674E+00   -6.644E+00   -6.614E+00   -6.583E+00   -6.553E+00
    -6.523E+00   -6.493E+00   -6.463E+00   -6.433E+00   -6.403E+00   -6.373E+00   -6.343E+00   -6.313E+00   -6.282E+00   -6.252E+00
    -6.222E+00   -6.192E+00   -6.162E+00   -6.132E+00   -6.102E+00   -6.072E+00   -6.042E+00   -6.011E+00   -5.981E+00   -5.951E+00
    -5.921E+00   -5.891E+00   -5.861E+00   -5.831E+00   -5.801E+00   -5.770E+00   -5.740E+00   -5.710E+00   -5.680E+00   -5.650E+00
    -5.620E+00   -5.590E+00   -5.560E+00   -5.529E+00   -5.499E+00   -5.469E+00   -5.439E+00   -5.409E+00   -5.379E+00   -5.349E+00
    -5.318E+00   -5.288E+00   -5.258E+00   -5.228E+00   -5.198E+00   -5.168E+00   -5.138E+00   -5.108E+00   -5.077E+00   -5.047E+00
    -5.017E+00   -4.987E+00   -4.957E+00   -4.927E+00   -4.897E+00   -4.866E+00   -4.836E+00   -4.806E+00   -4.776E+00   -4.746E+00
    -4.716E+00   -4.685E+00   -4.655E+00   -4.625E+00   -4.595E+00   -4.565E+00   -4.535E+00   -4.505E+00   -4.474E+00   -4.444E+00
    -4.414E+00   -4.384E+00   -4.354E+00   -4.324E+00   -4.293E+00   -4.263E+00   -4.233E+00   -4.203E+00   -4.173E+00   -4.143E+00
    -4.112E+00   -4.082E+00   -4.052E+00   -4.022E+00   -3.992E+00   -3.962E+00   -3.931E+00   -3.901E+00   -3.871E+00   -3.841E+00
    -3.811E+00   -3.781E+00   -3.750E+00   -3.720E+00   -3.690E+00   -3.660E+00   -3.630E+00   -3.600E+00   -3.569E+00   -3.539E+00
    -3.509E+00   -3.479E+00   -3.449E+00   -3.418E+00   -3.388E+00   -3.358E+00   -3.328E+00   -3.298E+00   -3.268E+00   -3.237E+00
    -3.207E+00   -3.177E+00   -3.147E+00   -3.117E+00   -3.086E+00   -3.056E+00   -3.026E+00   -2.996E+00   -2.966E+00   -2.936E+00
    -2.905E+00   -2.875E+00   -2.845E+00   -2.815E+00   -2.785E+00   -2.754E+00   -2.724E+00   -2.694E+00   -2.664E+00   -2.634E+00
    -2.603E+00   -2.573E+00   -2.543E+00   -2.513E+00   -2.483E+00   -2.452E+00   -2.422E+00   -2.392E+00   -2.362E+00   -2.332E+00
    -2.301E+00   -2.271E+00   -2.241E+00   -2.211E+00   -2.180E+00   -2.150E+00   -2.120E+00   -2.090E+00   -2.060E+00   -2.029E+00
    -1.999E+00   -1.969E+00   -1.939E+00   -1.909E+00   -1.878E+00   -1.848E+00   -1.818E+00   -1.788E+00   -1.757E+00   -1.727E+00
    -1.697E+00   -1.667E+00   -1.637E+00   -1.606E+00   -1.576E+00   -1.546E+00   -1.516E+00   -1.485E+00   -1.455E+00   -1.425E+00
    -1.395E+00   -1.365E+00   -1.334E+00   -1.304E+00   -1.274E+00   -1.244E+00   -1.213E+00   -1.183E+00   -1.153E+00   -1.123E+00
    -1.093E+00   -1.062E+00   -1.032E+00   -1.002E+00   -9.716E-01   -9.413E-01   -9.111E-01   -8.809E-01   -8.506E-01   -8.204E-01
    -7.901E-01   -7.599E-01   -7.297E-01   -6.994E-01   -6.692E-01   -6.389E-01   -6.087E-01   -5.784E-01   -5.482E-01   -5.180E-01
    -4.877E-01   -4.575E-01   -4.272E-01   -3.970E-01   -3.667E-01   -3.365E-01   -3.062E-01   -2.760E-01   -2.457E-01   -2.155E-01
    -1.852E-01   -1.550E-01   -1.247E-01   -9.446E-02   -6.420E-02   -3.395E-02   -3.692E-03    2.656E-02    5.682E-02    8.708E-02
     1.173E-01    1.476E-01    1.779E-01    2.081E-01    2.384E-01    2.686E-01    2.989E-01    3.292E-01    3.594E-01    3.897E-01
     4.200E-01    4.502E-01    4.805E-01    5.107E-01    5.410E-01    5.713E-01    6.015E-01    6.318E-01    6.621E-01    6.924E-01
     7.226E-01    7.529E-01    7.832E-01    8.134E-01    8.437E-01    8.740E-01    9.043E-01    9.345E-01    9.648E-01    9.951E-01
     1.025E+00    1.056E+00    1.086E+00    1.116E+00    1.146E+00    1.177E+00    1.207E+00    1.237E+00    1.268E+00    1.298E+00
     1.328E+00    1.358E+00    1.389E+00    1.419E+00    1.449E+00    1.480E+00    1.510E+00    1.540E+00    1.570E+00    1.601E+00
     1.631E+00    1.661E+00    1.692E+00    1.722E+00    1.752E+00    1.782E+00    1.813E+00    1.843E+00    1.873E+00    1.904E+00
     1.934E+00    1.964E+00    1.995E+00    2.025E+00    2.055E+00    2.085E+00    2.116E+00    2.146E+00    2.176E+00    2.207E+00
     2.237E+00    2.267E+00    2.297E+00    2.328E+00    2.358E+00    2.388E+00    2.419E+00    2.449E+00    2.479E+00    2.510E+00
     2.540E+00    2.570E+00    2.601E+00    2.631E+00    2.661E+00    2.691E+00    2.722E+00    2.752E+00
 Ala      Conc. = 2.08E+02
