 LCModel (Version 6.3-1L) Copyright: S.W. Provencher.          Ref.: Magn. Reson. Med. 30:672-679 (1993).                
 Slice#2 Row#12 Col#5  PD_24_press_2_raw_act
 36 lines in following concentration table = NCONC+1
    Conc.  %SD /Cr+PCr  Metabolite                                         
   26.751  61%   0.814 Ala                                                 
    4.568 217%   0.139 Asp                                                 
    8.938 213%   0.272 Cr                                                  
   23.942  86%   0.728 PCr                                                 
    2.555 230% 7.8E-02 GABA                                                
    3.681 163%   0.112 Glc                                                 
   18.044 159%   0.549 Gln                                                 
    3.833 813%   0.117 Glu                                                 
    0.000 999%   0.000 GPC                                                 
    9.509  45%   0.289 PCh                                                 
    0.000 999%   0.000 GSH                                                 
   49.285  81%   1.499 Ins                                                 
   16.325  99%   0.497 Lac                                                 
   55.961  28%   1.702 NAA                                                 
    0.000 999%   0.000 NAAG                                                
    1.636 117% 5.0E-02 Scyllo                                              
    6.601 148%   0.201 Tau                                                 
   19.833  76%   0.603 -CrCH2                                              
    9.509  45%   0.289 GPC+PCh                                             
   55.961  28%   1.702 NAA+NAAG                                            
   32.880  37%   1.000 Cr+PCr                                              
   21.877 170%   0.665 Glu+Gln                                             
  229.217  38%   6.971 Lip13a                                              
    0.000 999%   0.000 Lip13b                                              
   26.093 148%   0.794 Lip09                                               
    0.000 999%   0.000 MM09                                                
   16.325 180%   0.497 Lip20                                               
    0.000 999%   0.000 MM20                                                
    0.000 999%   0.000 MM12                                                
    0.000 999%   0.000 MM14                                                
   43.876 114%   1.334 MM17                                                
  229.217  38%   6.971 Lip13a+Lip13b                                       
  229.217  38%   6.971 MM14+Lip13a+Lip13b+MM12                             
   26.093 148%   0.794 MM09+Lip09                                          
   16.325 180%   0.497 MM20+Lip20                                          
   6 lines in following misc. output table
  FWHM = 0.031 ppm    S/N =   1                                            
  Data shift =-0.023 ppm                                                   
  Ph:-120 deg      27.1 deg/ppm                                            
  alphaB,S = 8.5E+01,   3.6E+00                                            
   14 spline knots.   Ns = 5(1)                                            
  ( 7) 1 infls.   ( 6) 2 extrs.                                            
  498 points on ppm-axis = NY
      4.000000     3.992357     3.984714     3.977070     3.969427     3.961784     3.954141     3.946497     3.938854     3.931211
      3.923568     3.915925     3.908281     3.900638     3.892995     3.885352     3.877708     3.870065     3.862422     3.854779
      3.847136     3.839492     3.831849     3.824206     3.816563     3.808919     3.801276     3.793633     3.785990     3.778347
      3.770703     3.763060     3.755417     3.747774     3.740130     3.732487     3.724844     3.717201     3.709558     3.701914
      3.694271     3.686628     3.678985     3.671341     3.663698     3.656055     3.648412     3.640769     3.633125     3.625482
      3.617839     3.610196     3.602552     3.594909     3.587266     3.579623     3.571980     3.564336     3.556693     3.549050
      3.541407     3.533763     3.526120     3.518477     3.510834     3.503191     3.495547     3.487904     3.480261     3.472618
      3.464974     3.457331     3.449688     3.442045     3.434402     3.426758     3.419115     3.411472     3.403829     3.396185
      3.388542     3.380899     3.373256     3.365613     3.357969     3.350326     3.342683     3.335040     3.327396     3.319753
      3.312110     3.304467     3.296824     3.289180     3.281537     3.273894     3.266251     3.258607     3.250964     3.243321
      3.235678     3.228034     3.220391     3.212748     3.205105     3.197462     3.189818     3.182175     3.174532     3.166889
      3.159245     3.151602     3.143959     3.136316     3.128673     3.121029     3.113386     3.105743     3.098100     3.090456
      3.082813     3.075170     3.067527     3.059884     3.052240     3.044597     3.036954     3.029311     3.021667     3.014024
      3.006381     2.998738     2.991095     2.983451     2.975808     2.968165     2.960522     2.952878     2.945235     2.937592
      2.929949     2.922306     2.914662     2.907019     2.899376     2.891733     2.884089     2.876446     2.868803     2.861160
      2.853517     2.845873     2.838230     2.830587     2.822944     2.815300     2.807657     2.800014     2.792371     2.784728
      2.777084     2.769441     2.761798     2.754155     2.746511     2.738868     2.731225     2.723582     2.715939     2.708295
      2.700652     2.693009     2.685366     2.677722     2.670079     2.662436     2.654793     2.647150     2.639506     2.631863
      2.624220     2.616577     2.608933     2.601290     2.593647     2.586004     2.578361     2.570717     2.563074     2.555431
      2.547788     2.540144     2.532501     2.524858     2.517215     2.509572     2.501928     2.494285     2.486642     2.478999
      2.471355     2.463712     2.456069     2.448426     2.440783     2.433139     2.425496     2.417853     2.410210     2.402566
      2.394923     2.387280     2.379637     2.371994     2.364350     2.356707     2.349064     2.341421     2.333777     2.326134
      2.318491     2.310848     2.303205     2.295561     2.287918     2.280275     2.272632     2.264988     2.257345     2.249702
      2.242059     2.234416     2.226772     2.219129     2.211486     2.203843     2.196199     2.188556     2.180913     2.173270
      2.165627     2.157983     2.150340     2.142697     2.135054     2.127410     2.119767     2.112124     2.104481     2.096838
      2.089194     2.081551     2.073908     2.066265     2.058621     2.050978     2.043335     2.035692     2.028049     2.020405
      2.012762     2.005119     1.997476     1.989833     1.982190     1.974546     1.966903     1.959260     1.951617     1.943974
      1.936331     1.928688     1.921045     1.913402     1.905759     1.898115     1.890472     1.882829     1.875186     1.867543
      1.859900     1.852257     1.844614     1.836971     1.829327     1.821684     1.814041     1.806398     1.798755     1.791112
      1.783469     1.775826     1.768183     1.760540     1.752896     1.745253     1.737610     1.729967     1.722324     1.714681
      1.707038     1.699395     1.691752     1.684108     1.676465     1.668822     1.661179     1.653536     1.645893     1.638250
      1.630607     1.622964     1.615321     1.607677     1.600034     1.592391     1.584748     1.577105     1.569462     1.561819
      1.554176     1.546533     1.538890     1.531246     1.523603     1.515960     1.508317     1.500674     1.493031     1.485388
      1.477745     1.470102     1.462458     1.454815     1.447172     1.439529     1.431886     1.424243     1.416600     1.408957
      1.401314     1.393671     1.386027     1.378384     1.370741     1.363098     1.355455     1.347812     1.340169     1.332526
      1.324883     1.317240     1.309596     1.301953     1.294310     1.286667     1.279024     1.271381     1.263738     1.256095
      1.248452     1.240808     1.233165     1.225522     1.217879     1.210236     1.202593     1.194950     1.187307     1.179664
      1.172021     1.164377     1.156734     1.149091     1.141448     1.133805     1.126162     1.118519     1.110876     1.103233
      1.095590     1.087946     1.080303     1.072660     1.065017     1.057374     1.049731     1.042088     1.034445     1.026802
      1.019158     1.011515     1.003872     0.996229     0.988586     0.980943     0.973300     0.965657     0.958014     0.950371
      0.942727     0.935084     0.927441     0.919798     0.912155     0.904512     0.896869     0.889226     0.881583     0.873940
      0.866296     0.858653     0.851010     0.843367     0.835724     0.828081     0.820438     0.812795     0.805152     0.797508
      0.789865     0.782222     0.774579     0.766936     0.759293     0.751650     0.744007     0.736364     0.728721     0.721077
      0.713434     0.705791     0.698148     0.690505     0.682862     0.675219     0.667576     0.659933     0.652290     0.644646
      0.637003     0.629360     0.621717     0.614074     0.606431     0.598788     0.591145     0.583502     0.575858     0.568215
      0.560572     0.552929     0.545286     0.537643     0.530000     0.522357     0.514714     0.507071     0.499427     0.491784
      0.484141     0.476498     0.468855     0.461212     0.453569     0.445925     0.438282     0.430639     0.422996     0.415353
      0.407710     0.400067     0.392424     0.384780     0.377137     0.369494     0.361851     0.354208     0.346565     0.338922
      0.331278     0.323635     0.315992     0.308349     0.300706     0.293063     0.285420     0.277777     0.270133     0.262490
      0.254847     0.247204     0.239561     0.231918     0.224275     0.216631     0.208988     0.201345
 NY phased data points follow
  -1.26123E+01 -7.97665E+00 -1.31383E+01 -1.14493E+01 -1.17822E+01 -9.80221E+00 -1.12998E+01 -8.28886E+00 -1.22875E+01 -7.98211E+00
  -1.04141E+01 -8.77791E+00 -8.69040E+00 -1.00991E+01 -1.38793E+01 -9.02903E+00 -1.20559E+01 -9.59486E+00 -1.26710E+01 -9.32368E+00
  -1.20605E+01 -9.66674E+00 -1.18641E+01 -1.01688E+01 -1.13932E+01 -7.42924E+00 -8.36590E+00 -7.81228E+00 -1.24008E+01 -6.92854E+00
  -6.84649E+00 -8.05287E+00 -1.10056E+01 -8.32090E+00 -9.04878E+00 -8.05644E+00 -1.03995E+01 -8.92142E+00 -9.36515E+00 -5.89642E+00
  -8.68656E+00 -8.56454E+00 -8.47522E+00 -8.13756E+00 -7.52821E+00 -5.86769E+00 -7.18089E+00 -6.82587E+00 -8.73048E+00 -6.76284E+00
  -7.22387E+00 -6.51079E+00 -8.69355E+00 -5.85994E+00 -8.34832E+00 -5.13279E+00 -6.61199E+00 -7.51558E+00 -9.96331E+00 -5.85916E+00
  -5.26232E+00 -6.78508E+00 -6.42874E+00 -5.90834E+00 -1.02396E+01 -7.99501E+00 -7.71169E+00 -6.83670E+00 -9.21339E+00 -5.07324E+00
  -6.89176E+00 -5.15803E+00 -6.80085E+00 -5.89174E+00 -7.74809E+00 -4.83146E+00 -9.16775E+00 -4.91803E+00 -6.90250E+00 -5.67524E+00
  -7.87393E+00 -6.00017E+00 -7.63335E+00 -6.05861E+00 -6.42746E+00 -5.77729E+00 -6.24933E+00 -4.85351E+00 -8.70442E+00 -6.58328E+00
  -8.22758E+00 -5.29024E+00 -8.05424E+00 -5.63980E+00 -5.70958E+00 -7.45703E+00 -7.19948E+00 -5.32219E+00 -5.94640E+00 -7.78021E+00
  -7.87774E+00 -4.32076E+00 -7.44048E+00 -3.18672E+00 -4.18895E+00 -3.37793E+00 -5.80217E+00 -4.15156E+00 -4.49908E+00 -6.66613E+00
  -4.65285E+00 -6.41078E+00 -9.34995E+00 -7.71744E+00 -8.18290E+00 -6.80327E+00 -3.91387E+00 -5.44130E+00 -5.58682E+00 -6.11546E+00
  -8.69192E+00 -5.43893E+00 -7.78852E+00 -6.10556E+00 -6.74785E+00 -2.38867E+00 -3.21047E+00 -2.77235E+00 -2.74540E+00 -3.14746E+00
  -3.85143E+00 -4.26591E+00 -2.22865E+00 -6.36301E+00 -6.36101E+00 -5.42716E+00 -5.94803E+00 -2.77850E+00 -5.78534E+00 -2.04962E+00
  -7.59375E+00 -4.59421E+00 -6.30826E+00 -5.71545E+00 -5.05851E+00 -3.28758E+00 -5.29695E+00 -5.33882E+00 -6.23668E+00 -3.24681E+00
  -3.04207E+00 -5.21143E+00 -5.61344E+00 -3.58279E+00 -4.76521E+00 -4.22699E+00 -5.51151E+00 -4.25354E+00 -3.89256E+00 -6.10296E+00
  -5.46094E+00 -2.88382E+00 -5.48076E+00 -3.08919E+00 -3.91874E+00 -3.22994E+00 -5.43861E+00 -5.68375E+00 -5.08894E+00 -3.21147E+00
  -3.71907E+00 -2.28999E+00 -4.99008E+00 -4.91068E+00 -5.93961E+00 -4.39328E+00 -4.02617E+00 -5.89803E+00 -4.26860E+00 -2.28290E+00
  -4.80745E+00 -1.13051E+00 -7.83547E-01 -4.72685E+00 -6.84645E+00 -3.18353E+00 -5.31842E+00 -2.66174E+00 -7.54260E+00 -3.44257E+00
  -4.53119E+00 -4.32900E+00 -5.15014E+00 -3.25688E+00 -2.65722E+00 -3.07765E+00 -2.99207E+00  4.93568E-02 -5.31982E+00 -3.21591E+00
  -6.21108E+00 -3.93638E+00 -3.17674E+00 -3.43586E+00 -3.63231E+00 -5.06614E+00 -4.11089E+00 -3.82206E+00 -3.78266E+00 -3.56553E+00
  -6.72078E+00 -2.81711E+00 -2.46024E+00 -1.47811E+00 -3.89219E+00 -1.55743E+00 -2.62411E+00  2.83433E-01 -2.75464E+00 -3.77973E+00
  -4.15562E+00 -1.78327E+00 -4.18977E+00 -2.16428E+00 -3.48993E+00 -2.33759E+00 -3.54334E+00 -4.09679E+00 -2.78043E+00 -3.31771E+00
  -1.73832E+00 -1.39070E+00 -4.17684E+00 -2.80515E+00 -2.37375E+00 -3.22086E+00 -5.98160E+00 -4.52626E+00 -4.64696E+00 -4.40109E+00
  -4.97891E+00 -3.84975E+00 -4.34157E+00 -4.35216E+00 -5.07066E+00 -8.80010E-02 -7.15299E+00 -2.69056E+00 -5.21488E+00 -4.54987E+00
  -3.77401E+00 -3.15662E+00 -2.14775E+00 -9.58929E-01 -1.60944E+00 -4.35654E+00 -5.07193E+00 -4.92096E+00 -9.32767E-01 -4.85553E-01
  -4.23970E-02  4.40900E+00  1.16657E+00  4.16857E-01 -3.16149E+00 -1.63327E+00 -4.30492E+00 -5.42062E+00 -2.92061E+00 -5.08022E+00
  -2.27590E+00 -4.10171E+00 -7.38200E-01 -1.36389E+00 -2.33234E+00  1.59261E-01 -5.09028E+00 -2.89453E-02 -4.36524E+00 -4.25247E-02
  -2.16146E+00 -3.50545E+00 -3.87983E+00  7.71448E-01 -3.31518E+00 -3.35823E+00 -4.73623E+00 -3.66049E+00 -5.54109E+00 -2.06585E+00
  -1.77994E+00 -1.32681E+00 -2.14386E+00 -2.55313E+00 -2.68601E+00 -8.26185E-01 -1.32701E+00  1.71744E+00 -2.24020E+00 -1.29884E+00
   7.46939E-01 -3.07606E+00 -1.37636E+00 -1.48682E+00 -1.48307E+00  1.15043E+00  6.95812E-01 -1.27563E+00  2.10304E+00 -5.74150E-01
   3.21601E+00  1.46547E-01  6.48349E-01  6.03007E-01 -1.05389E-01  1.83719E+00 -6.60036E-01  2.38053E+00 -1.00721E+00  2.96627E-01
  -2.99508E+00 -1.37570E+00 -2.90523E+00 -2.13440E+00 -4.29198E+00 -4.25783E+00 -4.45641E+00 -3.05663E+00 -4.25414E+00 -3.52418E+00
  -4.42657E+00 -3.77065E+00 -5.69748E+00 -7.85577E+00 -6.48958E+00 -4.79788E+00 -5.44985E+00 -3.80828E+00  1.97607E-02 -4.33189E+00
  -1.34393E+00 -2.20638E+00  9.40877E-01 -3.45273E-01  6.16784E-02  1.10099E+00  2.35644E+00  2.17343E+00  1.64089E-01  7.03195E-01
  -7.19478E-01  6.56434E-01  9.70547E-01 -7.71032E-01 -1.42288E-01  1.26750E+00  6.11901E-02 -6.40096E-01 -2.05972E+00  2.28286E+00
  -1.56803E+00  6.82660E-01  1.17420E+00 -8.29145E-02  1.06165E+00 -5.00952E-01  8.13534E-01  1.32835E+00 -9.72062E-01  8.82595E-01
   2.43924E-01 -1.41600E+00  9.23534E-01  3.21289E+00  2.29773E+00  8.62111E-01  7.78027E-01  2.54806E-01  6.44040E-01  7.53362E-01
   5.18897E-02 -9.46476E-03  1.62857E+00  1.83297E+00  1.07085E-01 -1.24216E+00 -8.32932E-01  7.53670E-01 -1.45899E+00 -8.16488E-02
  -1.05568E+00 -1.53405E-01  3.17762E-01  7.35620E-02  6.12729E-01 -2.85881E-01 -4.54779E-01  1.12702E+00  1.15976E-01  1.26138E+00
  -2.02176E+00 -1.26048E+00 -8.44547E-01 -3.27159E-01  1.95945E+00 -1.42737E+00 -2.50190E-01 -8.84942E-01  1.13424E+00  3.21867E-01
  -2.61359E-01 -1.99942E+00 -1.79495E-01  2.71538E-01 -4.19834E-01  1.06365E-01  3.26436E-01  4.89352E-01 -1.14041E+00  4.91328E-02
  -6.21714E-01 -2.08574E-01  1.92432E+00  7.57115E-01 -8.76755E-01  6.90893E-01  9.54901E-01 -1.26232E+00  1.71042E+00  7.40256E-01
  -1.23920E+00 -3.89827E-01 -1.77823E+00 -1.98981E+00  1.15254E+00 -1.47469E+00 -1.66152E+00 -1.91451E+00  4.82177E-01  4.64414E-01
  -1.84014E-03 -2.80989E-01 -9.56947E-01 -3.60035E-01 -2.53358E-01  6.71196E-02  1.27220E+00 -9.42790E-02 -2.11479E+00 -3.27058E-01
   7.49108E-01 -2.01374E+00  1.08302E+00 -1.68664E+00  5.74104E-01 -8.47862E-01 -2.16661E+00 -9.90392E-01 -2.37631E+00 -4.71309E-01
   1.76035E+00  1.80887E-01 -1.01974E+00  8.17577E-01  8.20565E-01 -8.93935E-01  9.41074E-01 -1.25611E+00 -1.76366E+00 -3.52902E-01
  -2.77205E+00  7.84736E-01 -8.44326E-01 -4.91818E-01  1.13301E+00  1.41310E+00  5.61144E-01  4.99734E-01 -3.63089E-01  2.31632E-01
  -2.45086E+00 -4.98293E-01 -2.64891E-01  1.64222E+00 -4.39405E-01 -1.85841E-01  4.56573E-01 -5.52804E-01  2.44612E-01  1.58160E+00
  -9.55098E-01 -1.77826E+00  7.31336E-01  3.05003E-01 -6.64075E-01  1.12907E+00  1.84954E+00  3.71083E-01
 NY points of the fit to the data follow
  -9.32725E+00 -9.29938E+00 -9.22862E+00 -9.16774E+00 -9.15154E+00 -9.16865E+00 -9.14731E+00 -9.04060E+00 -8.79871E+00 -8.50721E+00
  -8.31239E+00 -8.28831E+00 -8.42445E+00 -8.65373E+00 -8.87164E+00 -9.01153E+00 -9.04889E+00 -9.01936E+00 -8.92355E+00 -8.84152E+00
  -8.74872E+00 -8.61609E+00 -8.43706E+00 -8.30993E+00 -8.31739E+00 -8.42673E+00 -8.59422E+00 -8.77509E+00 -8.85389E+00 -8.80421E+00
  -8.65930E+00 -8.42385E+00 -8.18949E+00 -8.07038E+00 -8.01815E+00 -7.99959E+00 -8.03010E+00 -8.10388E+00 -8.18251E+00 -8.27523E+00
  -8.34376E+00 -8.37747E+00 -8.41488E+00 -8.39720E+00 -8.14514E+00 -7.67366E+00 -7.21757E+00 -6.96316E+00 -7.00591E+00 -7.34661E+00
  -7.80086E+00 -8.14635E+00 -8.29325E+00 -8.20944E+00 -8.00024E+00 -7.83926E+00 -7.72571E+00 -7.60583E+00 -7.45718E+00 -7.29580E+00
  -7.20107E+00 -7.22521E+00 -7.34607E+00 -7.49502E+00 -7.61924E+00 -7.64206E+00 -7.55548E+00 -7.45084E+00 -7.33868E+00 -7.22869E+00
  -7.15149E+00 -7.11185E+00 -7.06860E+00 -7.02228E+00 -7.00915E+00 -7.00303E+00 -7.01179E+00 -7.05976E+00 -7.09032E+00 -7.09080E+00
  -7.07701E+00 -7.05357E+00 -6.97192E+00 -6.83256E+00 -6.72271E+00 -6.70462E+00 -6.77530E+00 -6.91240E+00 -7.04795E+00 -7.09459E+00
  -7.03763E+00 -6.93133E+00 -6.79693E+00 -6.68408E+00 -6.64728E+00 -6.65110E+00 -6.66065E+00 -6.69887E+00 -6.84999E+00 -7.14677E+00
  -6.93889E+00 -6.06938E+00 -5.07635E+00 -4.30799E+00 -4.02513E+00 -4.46224E+00 -5.34832E+00 -6.11799E+00 -6.60986E+00 -6.78659E+00
  -6.48621E+00 -6.25888E+00 -6.18046E+00 -6.14616E+00 -6.12042E+00 -6.10267E+00 -6.09401E+00 -6.09247E+00 -6.09246E+00 -6.09334E+00
  -6.10184E+00 -6.16667E+00 -6.46683E+00 -6.51502E+00 -5.72038E+00 -4.51631E+00 -3.46934E+00 -2.84422E+00 -3.00507E+00 -3.91851E+00
  -4.93918E+00 -5.66521E+00 -6.08301E+00 -5.93777E+00 -5.58629E+00 -5.45898E+00 -5.40212E+00 -5.35682E+00 -5.31781E+00 -5.28713E+00
  -5.26524E+00 -5.25044E+00 -5.23235E+00 -5.20298E+00 -5.16751E+00 -5.13087E+00 -5.09967E+00 -5.07612E+00 -5.06119E+00 -5.04710E+00
  -5.02625E+00 -5.00018E+00 -4.96963E+00 -4.93725E+00 -4.90761E+00 -4.87374E+00 -4.82384E+00 -4.78385E+00 -4.79198E+00 -4.83387E+00
  -4.88714E+00 -4.90229E+00 -4.83504E+00 -4.71856E+00 -4.61015E+00 -4.53916E+00 -4.52271E+00 -4.56264E+00 -4.60503E+00 -4.61354E+00
  -4.60029E+00 -4.55204E+00 -4.50810E+00 -4.53150E+00 -4.57891E+00 -4.59188E+00 -4.55167E+00 -4.47270E+00 -4.39896E+00 -4.36088E+00
  -4.36158E+00 -4.36652E+00 -4.34431E+00 -4.31787E+00 -4.30574E+00 -4.30375E+00 -4.28407E+00 -4.25262E+00 -4.18606E+00 -4.07388E+00
  -3.98676E+00 -3.94893E+00 -3.95050E+00 -3.97215E+00 -3.96885E+00 -3.92735E+00 -3.90004E+00 -3.90048E+00 -3.91710E+00 -3.93216E+00
  -3.89952E+00 -3.78923E+00 -3.63249E+00 -3.47501E+00 -3.36901E+00 -3.33099E+00 -3.39822E+00 -3.59128E+00 -3.78766E+00 -3.91580E+00
  -3.98149E+00 -3.95426E+00 -3.82286E+00 -3.66531E+00 -3.52257E+00 -3.39199E+00 -3.33136E+00 -3.32731E+00 -3.32118E+00 -3.34899E+00
  -3.39241E+00 -3.39890E+00 -3.36843E+00 -3.31576E+00 -3.25560E+00 -3.19947E+00 -3.16089E+00 -3.14374E+00 -3.15009E+00 -3.16850E+00
  -3.17234E+00 -3.13690E+00 -3.09984E+00 -3.10619E+00 -3.14151E+00 -3.17881E+00 -3.20256E+00 -3.17103E+00 -3.03980E+00 -2.88192E+00
  -2.77783E+00 -2.73713E+00 -2.79049E+00 -2.91549E+00 -3.02826E+00 -3.09448E+00 -3.13116E+00 -3.13231E+00 -3.08936E+00 -3.05416E+00
  -3.01896E+00 -2.98354E+00 -2.96970E+00 -2.99558E+00 -3.07564E+00 -3.51061E+00 -4.34574E+00 -4.10644E+00 -2.47349E+00 -4.48316E-01
   1.38627E+00  2.38523E+00  1.85615E+00  3.22545E-01 -1.15373E+00 -2.30885E+00 -2.84051E+00 -2.39823E+00 -2.10437E+00 -2.01874E+00
  -1.98886E+00 -1.97274E+00 -1.96048E+00 -1.94579E+00 -1.92648E+00 -1.90700E+00 -1.89243E+00 -1.88192E+00 -1.87659E+00 -1.87545E+00
  -1.87470E+00 -1.87402E+00 -1.87189E+00 -1.86434E+00 -1.85279E+00 -1.83889E+00 -1.82205E+00 -1.80345E+00 -1.78553E+00 -1.76719E+00
  -1.74833E+00 -1.72894E+00 -1.70835E+00 -1.68586E+00 -1.66238E+00 -1.63733E+00 -1.61030E+00 -1.58136E+00 -1.55176E+00 -1.52118E+00
  -1.49077E+00 -1.46074E+00 -1.43156E+00 -1.40330E+00 -1.37664E+00 -1.35170E+00 -1.32902E+00 -1.30852E+00 -1.29060E+00 -1.27507E+00
  -1.26221E+00 -1.25174E+00 -1.24374E+00 -1.23770E+00 -1.23363E+00 -1.23104E+00 -1.22998E+00 -1.22992E+00 -1.23079E+00 -1.23206E+00
  -1.23408E+00 -1.23916E+00 -1.26962E+00 -1.33463E+00 -1.17203E+00 -7.47751E-01 -3.76417E-01 -2.19995E-01 -3.26980E-01 -7.34076E-01
  -1.25965E+00 -1.82175E+00 -2.36421E+00 -2.58361E+00 -2.31646E+00 -1.86472E+00 -1.31769E+00 -7.97100E-01 -5.43935E-01 -5.41919E-01
  -6.71116E-01 -9.14376E-01 -1.07539E+00 -1.04640E+00 -8.04596E-01 -4.57879E-01 -1.91424E-01 -5.87086E-02 -1.02923E-01 -3.10516E-01
  -6.04463E-01 -9.10552E-01 -1.05717E+00 -9.12993E-01 -5.37529E-01 -1.17150E-01  2.95588E-01  5.62881E-01  6.55050E-01  6.48311E-01
   5.60243E-01  4.84813E-01  5.11837E-01  5.45950E-01  5.67613E-01  5.79126E-01  5.82041E-01  5.77928E-01  5.67761E-01  5.52874E-01
   5.34124E-01  5.12729E-01  4.89388E-01  4.65108E-01  4.40354E-01  4.15900E-01  3.91990E-01  3.69183E-01  3.47523E-01  3.27382E-01
   3.08654E-01  2.91593E-01  2.76004E-01  2.62070E-01  2.49553E-01  2.38610E-01  2.28992E-01  2.20859E-01  2.13975E-01  2.08513E-01
   2.04257E-01  2.01397E-01  1.99738E-01  1.99477E-01  2.00422E-01  2.02764E-01  2.06305E-01  2.11217E-01  2.17270E-01  2.24597E-01
   2.32924E-01  2.42337E-01  2.52521E-01  2.63515E-01  2.74959E-01  2.86850E-01  2.98808E-01  3.10820E-01  3.22513E-01  3.33883E-01
   3.44580E-01  3.54638E-01  3.63760E-01  3.72041E-01  3.79248E-01  3.85530E-01  3.90712E-01  3.95000E-01  3.98273E-01  4.00778E-01
   4.02426E-01  4.03476E-01  4.03850E-01  4.03815E-01  4.03296E-01  4.02551E-01  4.01485E-01  4.00331E-01  3.98978E-01  3.97642E-01
   3.96200E-01  3.94847E-01  3.93438E-01  3.92150E-01  3.90830E-01  3.89647E-01  3.88448E-01  3.87387E-01  3.86298E-01  3.85333E-01
   3.84331E-01  3.83445E-01  3.82513E-01  3.81678E-01  3.80779E-01  3.79959E-01  3.79064E-01  3.78242E-01  3.77335E-01  3.76481E-01
   3.75525E-01  3.74612E-01  3.73594E-01  3.72613E-01  3.71517E-01  3.70444E-01  3.69245E-01  3.68063E-01  3.66756E-01  3.65461E-01
   3.64031E-01  3.62599E-01  3.61028E-01  3.59456E-01  3.57745E-01  3.56027E-01  3.54161E-01  3.52277E-01  3.50244E-01  3.48197E-01
   3.46000E-01  3.43780E-01  3.41400E-01  3.38992E-01  3.36429E-01  3.33839E-01  3.31091E-01  3.28306E-01  3.25354E-01  3.22364E-01
   3.19213E-01  3.16024E-01  3.12667E-01  3.09260E-01  3.05680E-01  3.02053E-01  2.98258E-01  2.94411E-01  2.90385E-01  2.86295E-01
   2.82025E-01  2.77696E-01  2.73187E-01  2.68606E-01  2.63830E-01  2.58973E-01  2.53922E-01  2.48788E-01
 NY background values follow
    -9.259E+00   -9.233E+00   -9.207E+00   -9.180E+00   -9.154E+00   -9.127E+00   -9.100E+00   -9.074E+00   -9.047E+00   -9.020E+00
    -8.994E+00   -8.967E+00   -8.940E+00   -8.913E+00   -8.886E+00   -8.859E+00   -8.832E+00   -8.805E+00   -8.778E+00   -8.751E+00
    -8.724E+00   -8.696E+00   -8.669E+00   -8.642E+00   -8.615E+00   -8.587E+00   -8.560E+00   -8.532E+00   -8.505E+00   -8.477E+00
    -8.450E+00   -8.422E+00   -8.395E+00   -8.367E+00   -8.339E+00   -8.312E+00   -8.284E+00   -8.256E+00   -8.228E+00   -8.201E+00
    -8.173E+00   -8.145E+00   -8.117E+00   -8.089E+00   -8.061E+00   -8.033E+00   -8.005E+00   -7.977E+00   -7.949E+00   -7.921E+00
    -7.893E+00   -7.865E+00   -7.837E+00   -7.809E+00   -7.781E+00   -7.753E+00   -7.724E+00   -7.696E+00   -7.668E+00   -7.640E+00
    -7.611E+00   -7.583E+00   -7.555E+00   -7.526E+00   -7.498E+00   -7.470E+00   -7.441E+00   -7.413E+00   -7.385E+00   -7.356E+00
    -7.328E+00   -7.299E+00   -7.271E+00   -7.243E+00   -7.214E+00   -7.186E+00   -7.157E+00   -7.129E+00   -7.100E+00   -7.072E+00
    -7.043E+00   -7.015E+00   -6.986E+00   -6.958E+00   -6.929E+00   -6.901E+00   -6.872E+00   -6.844E+00   -6.815E+00   -6.787E+00
    -6.758E+00   -6.729E+00   -6.701E+00   -6.672E+00   -6.644E+00   -6.615E+00   -6.587E+00   -6.558E+00   -6.530E+00   -6.501E+00
    -6.473E+00   -6.444E+00   -6.416E+00   -6.387E+00   -6.359E+00   -6.330E+00   -6.302E+00   -6.273E+00   -6.245E+00   -6.216E+00
    -6.188E+00   -6.159E+00   -6.131E+00   -6.102E+00   -6.074E+00   -6.046E+00   -6.017E+00   -5.989E+00   -5.960E+00   -5.932E+00
    -5.904E+00   -5.875E+00   -5.847E+00   -5.819E+00   -5.790E+00   -5.762E+00   -5.734E+00   -5.706E+00   -5.677E+00   -5.649E+00
    -5.621E+00   -5.593E+00   -5.565E+00   -5.537E+00   -5.508E+00   -5.480E+00   -5.452E+00   -5.424E+00   -5.396E+00   -5.368E+00
    -5.340E+00   -5.312E+00   -5.284E+00   -5.257E+00   -5.229E+00   -5.201E+00   -5.173E+00   -5.145E+00   -5.117E+00   -5.090E+00
    -5.062E+00   -5.034E+00   -5.007E+00   -4.979E+00   -4.951E+00   -4.924E+00   -4.896E+00   -4.869E+00   -4.841E+00   -4.814E+00
    -4.787E+00   -4.759E+00   -4.732E+00   -4.705E+00   -4.677E+00   -4.650E+00   -4.623E+00   -4.596E+00   -4.569E+00   -4.541E+00
    -4.514E+00   -4.487E+00   -4.460E+00   -4.433E+00   -4.407E+00   -4.380E+00   -4.353E+00   -4.326E+00   -4.299E+00   -4.273E+00
    -4.246E+00   -4.219E+00   -4.193E+00   -4.166E+00   -4.140E+00   -4.114E+00   -4.087E+00   -4.061E+00   -4.035E+00   -4.008E+00
    -3.982E+00   -3.956E+00   -3.930E+00   -3.904E+00   -3.878E+00   -3.852E+00   -3.826E+00   -3.800E+00   -3.774E+00   -3.748E+00
    -3.723E+00   -3.697E+00   -3.672E+00   -3.646E+00   -3.620E+00   -3.595E+00   -3.570E+00   -3.544E+00   -3.519E+00   -3.494E+00
    -3.469E+00   -3.444E+00   -3.419E+00   -3.394E+00   -3.369E+00   -3.344E+00   -3.319E+00   -3.294E+00   -3.269E+00   -3.245E+00
    -3.220E+00   -3.196E+00   -3.171E+00   -3.147E+00   -3.122E+00   -3.098E+00   -3.074E+00   -3.050E+00   -3.026E+00   -3.002E+00
    -2.978E+00   -2.954E+00   -2.930E+00   -2.906E+00   -2.882E+00   -2.859E+00   -2.835E+00   -2.812E+00   -2.788E+00   -2.765E+00
    -2.742E+00   -2.718E+00   -2.695E+00   -2.672E+00   -2.649E+00   -2.626E+00   -2.603E+00   -2.580E+00   -2.558E+00   -2.535E+00
    -2.512E+00   -2.490E+00   -2.467E+00   -2.445E+00   -2.423E+00   -2.401E+00   -2.378E+00   -2.356E+00   -2.334E+00   -2.312E+00
    -2.290E+00   -2.269E+00   -2.247E+00   -2.225E+00   -2.204E+00   -2.182E+00   -2.161E+00   -2.140E+00   -2.118E+00   -2.097E+00
    -2.076E+00   -2.055E+00   -2.034E+00   -2.013E+00   -1.993E+00   -1.972E+00   -1.951E+00   -1.931E+00   -1.910E+00   -1.890E+00
    -1.870E+00   -1.850E+00   -1.829E+00   -1.809E+00   -1.790E+00   -1.770E+00   -1.750E+00   -1.730E+00   -1.711E+00   -1.691E+00
    -1.672E+00   -1.652E+00   -1.633E+00   -1.614E+00   -1.595E+00   -1.576E+00   -1.557E+00   -1.538E+00   -1.519E+00   -1.501E+00
    -1.482E+00   -1.464E+00   -1.446E+00   -1.427E+00   -1.409E+00   -1.391E+00   -1.373E+00   -1.355E+00   -1.337E+00   -1.320E+00
    -1.302E+00   -1.284E+00   -1.267E+00   -1.250E+00   -1.232E+00   -1.215E+00   -1.198E+00   -1.181E+00   -1.164E+00   -1.148E+00
    -1.131E+00   -1.114E+00   -1.098E+00   -1.081E+00   -1.065E+00   -1.049E+00   -1.033E+00   -1.017E+00   -1.001E+00   -9.851E-01
    -9.694E-01   -9.538E-01   -9.383E-01   -9.229E-01   -9.076E-01   -8.923E-01   -8.772E-01   -8.622E-01   -8.473E-01   -8.325E-01
    -8.178E-01   -8.032E-01   -7.887E-01   -7.743E-01   -7.600E-01   -7.458E-01   -7.317E-01   -7.177E-01   -7.038E-01   -6.901E-01
    -6.764E-01   -6.628E-01   -6.493E-01   -6.360E-01   -6.227E-01   -6.096E-01   -5.965E-01   -5.836E-01   -5.707E-01   -5.580E-01
    -5.454E-01   -5.328E-01   -5.204E-01   -5.081E-01   -4.959E-01   -4.838E-01   -4.718E-01   -4.600E-01   -4.482E-01   -4.365E-01
    -4.250E-01   -4.135E-01   -4.022E-01   -3.910E-01   -3.799E-01   -3.689E-01   -3.580E-01   -3.472E-01   -3.365E-01   -3.259E-01
    -3.155E-01   -3.051E-01   -2.949E-01   -2.848E-01   -2.748E-01   -2.649E-01   -2.551E-01   -2.454E-01   -2.358E-01   -2.264E-01
    -2.170E-01   -2.078E-01   -1.987E-01   -1.897E-01   -1.808E-01   -1.720E-01   -1.634E-01   -1.548E-01   -1.464E-01   -1.381E-01
    -1.299E-01   -1.218E-01   -1.138E-01   -1.059E-01   -9.819E-02   -9.056E-02   -8.304E-02   -7.564E-02   -6.835E-02   -6.118E-02
    -5.412E-02   -4.718E-02   -4.036E-02   -3.365E-02   -2.706E-02   -2.059E-02   -1.423E-02   -7.990E-03   -1.866E-03    4.142E-03
     1.003E-02    1.580E-02    2.146E-02    2.700E-02    3.242E-02    3.772E-02    4.290E-02    4.797E-02    5.292E-02    5.775E-02
     6.246E-02    6.705E-02    7.153E-02    7.588E-02    8.012E-02    8.424E-02    8.824E-02    9.212E-02    9.588E-02    9.952E-02
     1.030E-01    1.064E-01    1.097E-01    1.129E-01    1.159E-01    1.189E-01    1.217E-01    1.243E-01    1.269E-01    1.294E-01
     1.317E-01    1.339E-01    1.360E-01    1.379E-01    1.398E-01    1.415E-01    1.431E-01    1.446E-01    1.459E-01    1.472E-01
     1.483E-01    1.493E-01    1.501E-01    1.509E-01    1.515E-01    1.520E-01    1.524E-01    1.527E-01    1.528E-01    1.529E-01
     1.528E-01    1.525E-01    1.522E-01    1.517E-01    1.512E-01    1.505E-01    1.496E-01    1.487E-01    1.476E-01    1.464E-01
     1.451E-01    1.437E-01    1.421E-01    1.404E-01    1.386E-01    1.367E-01    1.346E-01    1.325E-01    1.302E-01    1.278E-01
     1.252E-01    1.226E-01    1.198E-01    1.169E-01    1.139E-01    1.107E-01    1.075E-01    1.041E-01
 Ala      Conc. = 2.68E+01
