 LCModel (Version 6.3-1L) Copyright: S.W. Provencher.          Ref.: Magn. Reson. Med. 30:672-679 (1993).                
 Slice#1 Row#7 Col#9  PD_24_press_2_raw_act
 36 lines in following concentration table = NCONC+1
    Conc.  %SD /Cr+PCr  Metabolite                                         
  256.434  46%   0.406 Ala                                                 
  212.301  81%   0.336 Asp                                                 
  108.871 200%   0.173 Cr                                                  
  522.180  43%   0.827 PCr                                                 
   74.951 142%   0.119 GABA                                                
  105.656 102%   0.167 Glc                                                 
  415.912  56%   0.659 Gln                                                 
  890.692  30%   1.411 Glu                                                 
  322.576   8%   0.511 GPC                                                 
    0.000 999%   0.000 PCh                                                 
  372.742  23%   0.591 GSH                                                 
 1.04E+03  26%   1.648 Ins                                                 
  188.189  67%   0.298 Lac                                                 
 1.56E+03   7%   2.472 NAA                                                 
  213.430  53%   0.338 NAAG                                                
   46.091  55% 7.3E-02 Scyllo                                              
  111.305 144%   0.176 Tau                                                 
  130.329  83%   0.207 -CrCH2                                              
  322.576   8%   0.511 GPC+PCh                                             
 1.77E+03   5%   2.810 NAA+NAAG                                            
  631.051  10%   1.000 Cr+PCr                                              
 1.31E+03  27%   2.071 Glu+Gln                                             
  208.666 121%   0.331 Lip13a                                              
    0.000 999%   0.000 Lip13b                                              
    0.000 999%   0.000 Lip09                                               
 1.33E+03  15%   2.105 MM09                                                
   25.976 253% 4.1E-02 Lip20                                               
 2.47E+03  15%   3.920 MM20                                                
  410.664  26%   0.651 MM12                                                
 2.05E+03  14%   3.253 MM14                                                
 1.37E+03  16%   2.170 MM17                                                
  208.666 121%   0.331 Lip13a+Lip13b                                       
 2.67E+03  12%   4.234 MM14+Lip13a+Lip13b+MM12                             
 1.33E+03  15%   2.105 MM09+Lip09                                          
 2.50E+03  14%   3.961 MM20+Lip20                                          
   6 lines in following misc. output table
  FWHM = 0.038 ppm    S/N =   7                                            
  Data shift = 0.000 ppm                                                   
  Ph: -40 deg      -4.4 deg/ppm                                            
  alphaB,S = 1.1E+00,   6.7E+01                                            
   14 spline knots.   Ns = 5(1)                                            
  ( 9) 2 infls.   ( 5) 1 extrs.                                            
  498 points on ppm-axis = NY
      4.000000     3.992357     3.984714     3.977070     3.969427     3.961784     3.954141     3.946497     3.938854     3.931211
      3.923568     3.915925     3.908281     3.900638     3.892995     3.885352     3.877708     3.870065     3.862422     3.854779
      3.847136     3.839492     3.831849     3.824206     3.816563     3.808919     3.801276     3.793633     3.785990     3.778347
      3.770703     3.763060     3.755417     3.747774     3.740130     3.732487     3.724844     3.717201     3.709558     3.701914
      3.694271     3.686628     3.678985     3.671341     3.663698     3.656055     3.648412     3.640769     3.633125     3.625482
      3.617839     3.610196     3.602552     3.594909     3.587266     3.579623     3.571980     3.564336     3.556693     3.549050
      3.541407     3.533763     3.526120     3.518477     3.510834     3.503191     3.495547     3.487904     3.480261     3.472618
      3.464974     3.457331     3.449688     3.442045     3.434402     3.426758     3.419115     3.411472     3.403829     3.396185
      3.388542     3.380899     3.373256     3.365613     3.357969     3.350326     3.342683     3.335040     3.327396     3.319753
      3.312110     3.304467     3.296824     3.289180     3.281537     3.273894     3.266251     3.258607     3.250964     3.243321
      3.235678     3.228034     3.220391     3.212748     3.205105     3.197462     3.189818     3.182175     3.174532     3.166889
      3.159245     3.151602     3.143959     3.136316     3.128673     3.121029     3.113386     3.105743     3.098100     3.090456
      3.082813     3.075170     3.067527     3.059884     3.052240     3.044597     3.036954     3.029311     3.021667     3.014024
      3.006381     2.998738     2.991095     2.983451     2.975808     2.968165     2.960522     2.952878     2.945235     2.937592
      2.929949     2.922306     2.914662     2.907019     2.899376     2.891733     2.884089     2.876446     2.868803     2.861160
      2.853517     2.845873     2.838230     2.830587     2.822944     2.815300     2.807657     2.800014     2.792371     2.784728
      2.777084     2.769441     2.761798     2.754155     2.746511     2.738868     2.731225     2.723582     2.715939     2.708295
      2.700652     2.693009     2.685366     2.677722     2.670079     2.662436     2.654793     2.647150     2.639506     2.631863
      2.624220     2.616577     2.608933     2.601290     2.593647     2.586004     2.578361     2.570717     2.563074     2.555431
      2.547788     2.540144     2.532501     2.524858     2.517215     2.509572     2.501928     2.494285     2.486642     2.478999
      2.471355     2.463712     2.456069     2.448426     2.440783     2.433139     2.425496     2.417853     2.410210     2.402566
      2.394923     2.387280     2.379637     2.371994     2.364350     2.356707     2.349064     2.341421     2.333777     2.326134
      2.318491     2.310848     2.303205     2.295561     2.287918     2.280275     2.272632     2.264988     2.257345     2.249702
      2.242059     2.234416     2.226772     2.219129     2.211486     2.203843     2.196199     2.188556     2.180913     2.173270
      2.165627     2.157983     2.150340     2.142697     2.135054     2.127410     2.119767     2.112124     2.104481     2.096838
      2.089194     2.081551     2.073908     2.066265     2.058621     2.050978     2.043335     2.035692     2.028049     2.020405
      2.012762     2.005119     1.997476     1.989833     1.982190     1.974546     1.966903     1.959260     1.951617     1.943974
      1.936331     1.928688     1.921045     1.913402     1.905759     1.898115     1.890472     1.882829     1.875186     1.867543
      1.859900     1.852257     1.844614     1.836971     1.829327     1.821684     1.814041     1.806398     1.798755     1.791112
      1.783469     1.775826     1.768183     1.760540     1.752896     1.745253     1.737610     1.729967     1.722324     1.714681
      1.707038     1.699395     1.691752     1.684108     1.676465     1.668822     1.661179     1.653536     1.645893     1.638250
      1.630607     1.622964     1.615321     1.607677     1.600034     1.592391     1.584748     1.577105     1.569462     1.561819
      1.554176     1.546533     1.538890     1.531246     1.523603     1.515960     1.508317     1.500674     1.493031     1.485388
      1.477745     1.470102     1.462458     1.454815     1.447172     1.439529     1.431886     1.424243     1.416600     1.408957
      1.401314     1.393671     1.386027     1.378384     1.370741     1.363098     1.355455     1.347812     1.340169     1.332526
      1.324883     1.317240     1.309596     1.301953     1.294310     1.286667     1.279024     1.271381     1.263738     1.256095
      1.248452     1.240808     1.233165     1.225522     1.217879     1.210236     1.202593     1.194950     1.187307     1.179664
      1.172021     1.164377     1.156734     1.149091     1.141448     1.133805     1.126162     1.118519     1.110876     1.103233
      1.095590     1.087946     1.080303     1.072660     1.065017     1.057374     1.049731     1.042088     1.034445     1.026802
      1.019158     1.011515     1.003872     0.996229     0.988586     0.980943     0.973300     0.965657     0.958014     0.950371
      0.942727     0.935084     0.927441     0.919798     0.912155     0.904512     0.896869     0.889226     0.881583     0.873940
      0.866296     0.858653     0.851010     0.843367     0.835724     0.828081     0.820438     0.812795     0.805152     0.797508
      0.789865     0.782222     0.774579     0.766936     0.759293     0.751650     0.744007     0.736364     0.728721     0.721077
      0.713434     0.705791     0.698148     0.690505     0.682862     0.675219     0.667576     0.659933     0.652290     0.644646
      0.637003     0.629360     0.621717     0.614074     0.606431     0.598788     0.591145     0.583502     0.575858     0.568215
      0.560572     0.552929     0.545286     0.537643     0.530000     0.522357     0.514714     0.507071     0.499427     0.491784
      0.484141     0.476498     0.468855     0.461212     0.453569     0.445925     0.438282     0.430639     0.422996     0.415353
      0.407710     0.400067     0.392424     0.384780     0.377137     0.369494     0.361851     0.354208     0.346565     0.338922
      0.331278     0.323635     0.315992     0.308349     0.300706     0.293063     0.285420     0.277777     0.270133     0.262490
      0.254847     0.247204     0.239561     0.231918     0.224275     0.216631     0.208988     0.201345
 NY phased data points follow
   1.43018E+01  1.32126E+01  1.33276E+01  1.67795E+01  1.01044E+01  1.27668E+01  1.19383E+01  9.43620E+00  1.76075E+01  2.50215E+01
   2.47499E+01  1.94031E+01  1.39064E+01  2.02394E+01  1.21729E+01  2.02011E+01  1.27193E+01  1.63470E+01  1.14789E+01  1.45642E+01
   7.51360E+00  1.51267E+01  1.29306E+01  1.25763E+01  1.04838E+01  1.24810E+01  1.65263E+01  1.82036E+01  9.42072E+00  1.65595E+01
   1.80491E+01  2.02495E+01  1.07495E+01  1.35230E+01  1.36800E+01  1.11465E+01  1.04619E+01  1.75954E+01  7.39439E+00  1.21740E+01
   9.27707E+00  6.63323E+00  9.58721E+00  6.17358E+00  1.17882E+01  1.09077E+01  1.56731E+01  2.30499E+01  2.02726E+01  1.82918E+01
   1.04590E+01  1.54807E+01  1.89537E+01  1.77751E+01  1.44517E+01  1.62500E+01  8.90252E+00  1.07829E+01  8.62860E+00  6.05979E+00
   7.69449E+00  7.13664E+00  4.50635E+00  1.18333E+01  5.82752E+00  1.16477E+01  6.12305E+00  8.30890E+00 -2.20070E-01  4.47622E+00
   9.74142E+00  3.71478E+00  2.16617E+00  5.92080E+00  4.39237E+00  3.66857E+00  6.37374E+00  1.44739E+01  1.02397E+01  8.19196E+00
   6.68065E+00  3.36779E+00  6.66687E+00  5.12833E+00  4.40472E+00  4.12870E+00  5.52556E+00  3.17417E+00  8.79105E+00  9.94220E+00
   1.11230E+01  3.00377E+00  7.35415E+00  8.09450E+00  5.68903E+00  8.40839E+00  5.28125E+00 -6.85251E-01  7.08538E+00  1.94382E+01
   6.66787E+00  2.32069E+01  3.67144E+01  4.02618E+01  3.80589E+01  3.38405E+01  2.30112E+01  2.38840E+01  1.88509E+01  1.45612E+01
   1.23331E+01  1.28671E+01  5.42337E+00  4.15437E+00 -5.17891E+00  6.59439E+00  3.44147E+00  3.67263E+00  2.98467E+00  1.66902E+00
   3.66173E+00  7.01261E+00  3.55146E+00  2.78237E-01  8.70394E+00  2.15593E+01  2.83778E+01  3.07918E+01  3.16537E+01  2.68222E+01
   1.98886E+01  1.89293E+01  1.58801E+01  1.57510E+01  1.00237E+01  7.96617E+00  6.51892E+00  1.30213E+00  1.72626E+00 -1.55559E+00
   3.40300E+00  8.10777E+00  7.35697E+00  2.56911E+00  7.77919E+00  3.14720E+00 -1.62661E-01  6.15921E+00  4.73935E+00  3.22073E+00
  -5.33166E+00  9.11748E-02  4.88323E+00 -6.70925E+00  2.51651E+00 -5.48940E+00 -3.76625E+00  6.63590E+00 -7.06895E-01  3.62675E+00
  -6.56162E-01  5.06795E+00 -6.89539E-01  9.91828E-01 -1.08024E+01 -2.38188E-01 -3.43905E+00 -4.47864E+00 -8.53499E+00 -7.05196E+00
   1.30762E+00 -1.00271E+00 -1.34064E+00  4.28244E+00 -7.43808E+00 -9.18075E+00 -1.27513E+01 -1.04584E+01 -3.43080E+00 -7.67908E+00
  -7.31318E+00 -4.22334E+00 -7.73983E+00 -5.29733E+00 -1.05109E+00 -7.43874E+00 -6.46779E+00 -4.16646E+00 -6.17105E+00 -2.45572E+00
   1.91174E+00  8.85473E+00  1.35086E-01  2.31114E+00 -5.39127E-01 -4.82701E+00 -4.34407E+00 -4.92245E+00 -4.71129E+00 -4.77395E+00
  -9.96118E-02  2.03164E+00  4.07920E+00  1.07953E+01  8.38404E+00  9.92956E+00  2.96841E+00  8.43873E-01 -2.84140E-01 -3.89226E+00
  -1.07622E+00  7.47008E+00  7.36608E+00  1.22436E+00  1.04595E+01  3.56869E+00 -5.91583E-01  1.45248E+01  6.86382E+00  6.46304E+00
   9.10349E+00 -2.09831E+00  1.21323E+00 -1.25873E+00 -1.04395E+00  7.75402E-01  5.80426E+00  1.06512E+00  1.15258E+01  3.49246E+00
   8.45583E+00  6.65517E+00  6.23613E+00  5.33086E+00  2.46873E+00  8.74087E+00  1.01717E+01  9.37541E+00  6.71325E+00  6.50700E+00
   1.73644E+01  4.54936E+00  7.05732E+00  7.13960E-01  4.99739E+00  1.57762E+01  1.13223E+01  1.81079E+01  9.86699E+00  2.04516E+01
   1.34151E+01  1.32914E+01  1.58420E+01  1.84562E+01  2.61839E+01  1.86948E+01  2.82958E+01  3.57301E+01  5.05042E+01  6.92164E+01
   8.38842E+01  7.05581E+01  5.49569E+01  4.85296E+01  2.85029E+01  2.42613E+01  1.34817E+01  1.35141E+01  1.82376E+00  7.20500E+00
   7.34296E+00  8.10724E+00  7.15431E+00  6.09200E+00  4.90743E+00  9.60975E+00  1.04748E+01  8.13881E+00  5.06926E+00  8.15154E+00
   1.08465E+01  1.24089E+01  1.12758E+01  1.32166E+01  1.32293E+01  7.46041E+00  1.39793E+01  1.66798E+01  1.08319E+01  1.59264E+01
   5.32490E+00  8.76722E+00  9.52871E+00  3.76942E+00  7.56781E+00  6.93266E+00  5.07666E+00  1.61831E+00  4.51752E+00  5.44534E+00
   9.86869E+00  2.39511E+00  9.48040E+00  1.65595E+01  9.41163E+00  7.84841E+00  1.65890E+01  1.60181E+01  1.23426E+01 -8.24498E-01
   1.62069E+01  5.96303E+00  1.35342E+01  6.09365E+00  1.09554E+01  1.94028E+00  5.87657E+00  1.07969E+01  1.11262E+01  9.44491E+00
   9.15773E+00  2.99621E-01  3.03689E+00  7.50042E-01  4.08880E+00  1.09990E+01 -3.52940E+00  6.75341E+00  3.66712E+00  5.04162E+00
  -7.06182E-01  4.48746E+00  9.66102E+00  1.03922E+01  1.17246E+01  1.00822E+01  8.55260E+00  1.93762E+01  2.02861E+01  2.06520E+01
   1.93275E+01  2.16775E+01  1.77036E+01  2.12771E+01  2.29154E+01  2.28057E+01  2.40052E+01  1.79178E+01  1.82001E+01  1.62074E+01
   8.84371E+00  9.26040E+00  1.10644E+01  5.64522E+00  1.14368E+01  1.27574E+01  3.49281E+00  4.34145E-01  2.63867E+00  7.33578E+00
   3.59247E+00  2.40856E+00  3.30061E+00  1.28053E+01  2.73303E+00  3.78544E+00  7.09032E-01  6.52418E+00  1.03243E+01  4.76508E+00
   1.20083E+00  9.12423E+00  6.48448E+00  4.71723E+00  2.16414E+00  4.95633E+00  8.36248E-01  3.92641E-01  1.60830E+00 -2.03002E+00
   5.02181E-01 -2.33810E+00 -1.63331E+00 -1.30150E+00 -6.67079E-01 -3.32355E+00 -4.23042E+00  1.63285E+00 -1.22769E+00  2.10476E+00
   1.76765E+00  3.46164E+00  7.40899E+00  7.51769E+00 -5.52945E+00 -1.23047E+00  7.45861E+00  7.13892E+00 -1.71412E+00  4.77364E+00
   5.53184E+00  1.19730E+01  6.14390E+00  1.26230E+01  1.05258E+01  1.63001E+01  1.72636E+00  1.28953E+01  4.87117E+00  1.69037E+01
   5.20578E+00  4.28565E+00  1.02754E+01  3.45794E+00 -1.42652E-01  4.24530E+00  5.51395E+00  7.20399E+00 -1.51806E-01  1.40349E+00
  -7.91494E+00 -2.55593E+00 -4.32974E+00 -5.98519E+00  1.07199E+00 -2.56556E+00 -8.55856E-01 -3.69133E+00  1.22654E+00 -7.45822E+00
  -7.84730E+00 -6.89603E+00  4.79437E-01  4.12995E+00  2.00492E-01  1.65721E+00 -5.12576E-01 -3.01314E-01 -2.60141E+00  2.12322E+00
  -4.89170E+00 -1.00016E+01 -1.17375E+00  2.63590E+00 -3.39051E+00  4.17070E-01 -5.73291E+00  3.28337E-01 -1.97167E+00  1.29233E+00
  -5.03149E-01  9.99661E-01 -6.02583E+00  1.34705E+00  3.30471E+00  5.13682E+00  3.67460E+00  1.36418E+00  5.08109E-01  2.51725E+00
   1.95669E+00  1.10907E+00  1.30988E+00 -7.42397E-01 -6.28787E-01  2.41645E-01 -6.89240E-01 -2.19577E+00 -1.14200E+00 -5.47495E+00
   3.75976E+00  1.97268E+00 -2.34535E+00  2.66882E+00  3.19659E+00 -3.12695E+00  2.24313E+00  2.42831E+00  3.65450E+00  7.42775E-02
  -1.60092E+00  5.25111E+00 -1.85783E+00 -7.75341E-01 -3.76371E+00  4.87972E+00  1.75102E+00  1.92884E+00 -8.06359E+00 -1.39066E+00
   4.76324E+00  7.34851E-01  6.03301E+00  1.16723E+00  4.18344E+00 -1.25520E+00  1.20396E+00 -3.60023E+00
 NY points of the fit to the data follow
   1.00726E+01  9.52347E+00  9.16106E+00  9.08159E+00  9.38644E+00  1.02710E+01  1.19816E+01  1.47005E+01  1.80272E+01  2.09050E+01
   2.22946E+01  2.19356E+01  2.03717E+01  1.83375E+01  1.62475E+01  1.41370E+01  1.22639E+01  1.10823E+01  1.03377E+01  1.00290E+01
   1.00332E+01  1.01318E+01  1.01515E+01  1.00170E+01  9.78114E+00  9.72368E+00  1.02142E+01  1.16468E+01  1.39753E+01  1.64442E+01
   1.81321E+01  1.87042E+01  1.84889E+01  1.76718E+01  1.62518E+01  1.42511E+01  1.21765E+01  1.07802E+01  9.74195E+00  8.90014E+00
   8.36538E+00  8.23930E+00  8.53222E+00  9.21023E+00  1.04766E+01  1.24940E+01  1.49164E+01  1.68415E+01  1.74112E+01  1.64593E+01
   1.45932E+01  1.25086E+01  1.05108E+01  8.76088E+00  7.52594E+00  7.03954E+00  7.19712E+00  7.79310E+00  8.67246E+00  9.59411E+00
   1.02076E+01  1.02354E+01  9.68571E+00  8.81283E+00  7.91864E+00  7.17707E+00  6.70558E+00  6.59930E+00  6.78922E+00  7.19863E+00
   7.72688E+00  8.26032E+00  8.67304E+00  8.87965E+00  8.88600E+00  8.71146E+00  8.37048E+00  7.89650E+00  7.34938E+00  6.90243E+00
   6.62593E+00  6.51724E+00  6.63027E+00  6.96328E+00  7.35807E+00  7.50531E+00  7.10656E+00  6.16011E+00  5.03494E+00  4.17605E+00
   3.74315E+00  3.61122E+00  3.64109E+00  3.87679E+00  4.29628E+00  4.63356E+00  4.77101E+00  4.87958E+00  5.85219E+00  9.06580E+00
   1.54472E+01  2.46632E+01  3.39872E+01  3.95501E+01  3.94112E+01  3.48417E+01  2.85814E+01  2.23134E+01  1.62954E+01  1.06929E+01
   7.07187E+00  5.87266E+00  5.42735E+00  5.19953E+00  5.05482E+00  4.94955E+00  4.84209E+00  4.70804E+00  4.55325E+00  4.42492E+00
   4.39795E+00  4.61597E+00  5.63249E+00  8.26477E+00  1.30295E+01  1.96112E+01  2.61163E+01  2.99465E+01  2.99186E+01  2.70486E+01
   2.31625E+01  1.92516E+01  1.51953E+01  1.08416E+01  7.33058E+00  5.29757E+00  4.06093E+00  3.54751E+00  3.67331E+00  4.21071E+00
   4.92027E+00  5.53468E+00  5.82885E+00  5.84567E+00  5.67012E+00  5.31608E+00  4.86495E+00  4.37712E+00  3.94102E+00  3.57255E+00
   3.20817E+00  2.84972E+00  2.52230E+00  2.28462E+00  2.17029E+00  2.14894E+00  2.11710E+00  1.92210E+00  1.47314E+00  8.43770E-01
   2.99694E-01  8.44190E-02  2.50797E-01  6.27183E-01  9.21552E-01  9.75221E-01  8.44339E-01  6.23570E-01  3.24280E-01  1.79296E-02
  -2.50760E-01 -5.18870E-01 -8.20131E-01 -1.25511E+00 -1.74909E+00 -2.05544E+00 -2.04024E+00 -1.82810E+00 -1.68842E+00 -1.76226E+00
  -1.91566E+00 -1.91345E+00 -1.74609E+00 -1.64412E+00 -1.68258E+00 -1.58600E+00 -1.04126E+00  9.82957E-02  1.56630E+00  2.93873E+00
   3.86936E+00  4.19299E+00  3.93961E+00  3.24286E+00  2.25237E+00  1.23559E+00  5.01338E-01  2.83701E-01  7.18759E-01  1.73466E+00
   3.04378E+00  4.40240E+00  5.63943E+00  6.48736E+00  6.65242E+00  5.88185E+00  4.33532E+00  2.33200E+00  2.78776E-01 -1.34311E+00
  -2.14133E+00 -1.89910E+00 -6.08400E-01  1.58791E+00  4.31025E+00  6.77710E+00  8.14428E+00  7.90593E+00  6.38883E+00  4.16475E+00
   1.61928E+00 -6.50223E-01 -1.89138E+00 -1.57206E+00  1.35715E-01  2.29415E+00  4.21491E+00  5.58796E+00  6.33694E+00  6.43633E+00
   6.03370E+00  5.62751E+00  5.69014E+00  6.21394E+00  7.01449E+00  7.97557E+00  8.90754E+00  9.50283E+00  9.45392E+00  8.78689E+00
   7.83575E+00  6.94960E+00  6.44562E+00  6.56896E+00  7.42823E+00  8.68552E+00  9.85040E+00  1.07400E+01  1.13721E+01  1.17723E+01
   1.20351E+01  1.26265E+01  1.40348E+01  1.63986E+01  1.94640E+01  2.36843E+01  3.03783E+01  4.07945E+01  5.46835E+01  6.78515E+01
   7.41061E+01  7.05666E+01  6.00898E+01  4.78664E+01  3.64201E+01  2.57279E+01  1.59046E+01  9.66268E+00  7.54196E+00  6.55710E+00
   5.91345E+00  5.53037E+00  5.37583E+00  5.33320E+00  5.32906E+00  5.29756E+00  5.19283E+00  5.01903E+00  4.81408E+00  4.59921E+00
   4.40333E+00  4.28026E+00  4.25892E+00  4.32693E+00  4.45743E+00  4.63016E+00  4.83555E+00  5.06912E+00  5.32184E+00  5.60007E+00
   5.91456E+00  6.25808E+00  6.61337E+00  6.96742E+00  7.30646E+00  7.61972E+00  7.89858E+00  8.13498E+00  8.32539E+00  8.47411E+00
   8.57871E+00  8.63006E+00  8.62146E+00  8.55003E+00  8.41628E+00  8.22210E+00  7.97066E+00  7.67223E+00  7.33835E+00  6.97963E+00
   6.60742E+00  6.23325E+00  5.86843E+00  5.52424E+00  5.21184E+00  4.94201E+00  4.72557E+00  4.57389E+00  4.50006E+00  4.52046E+00
   4.65915E+00  4.96129E+00  5.50679E+00  6.29339E+00  7.17580E+00  7.84716E+00  7.92978E+00  7.30734E+00  6.29608E+00  5.38530E+00
   4.92419E+00  5.07223E+00  5.95623E+00  7.77327E+00  1.04755E+01  1.33265E+01  1.55806E+01  1.70821E+01  1.80055E+01  1.85564E+01
   1.87962E+01  1.87323E+01  1.86482E+01  1.87618E+01  1.88737E+01  1.87109E+01  1.79615E+01  1.64885E+01  1.44975E+01  1.23913E+01
   1.05276E+01  9.09321E+00  8.20812E+00  7.98788E+00  8.36707E+00  8.84440E+00  8.91032E+00  8.54193E+00  7.91944E+00  7.19021E+00
   6.38066E+00  5.50218E+00  4.75908E+00  4.22703E+00  3.81560E+00  3.48123E+00  3.20324E+00  2.96881E+00  2.76916E+00  2.59790E+00
   2.45041E+00  2.32329E+00  2.21437E+00  2.12239E+00  2.04709E+00  1.98871E+00  1.94805E+00  1.92617E+00  1.92456E+00  1.94502E+00
   1.98964E+00  2.06052E+00  2.15984E+00  2.28970E+00  2.45231E+00  2.64969E+00  2.88367E+00  3.15546E+00  3.46564E+00  3.81392E+00
   4.19916E+00  4.61893E+00  5.06942E+00  5.54508E+00  6.03879E+00  6.54181E+00  7.04410E+00  7.53426E+00  7.99999E+00  8.42839E+00
   8.80671E+00  9.12289E+00  9.36626E+00  9.52788E+00  9.60110E+00  9.58192E+00  9.46940E+00  9.26569E+00  8.97592E+00  8.60779E+00
   8.17120E+00  7.67774E+00  7.14026E+00  6.57211E+00  5.98654E+00  5.39601E+00  4.81185E+00  4.24390E+00  3.70044E+00  3.18789E+00
   2.71089E+00  2.27220E+00  1.87312E+00  1.51361E+00  1.19273E+00  9.08609E-01  6.58779E-01  4.40288E-01  2.50107E-01  8.51907E-02
  -5.73078E-02 -1.80193E-01 -2.86053E-01 -3.77319E-01 -4.56023E-01 -5.23944E-01 -5.82546E-01 -6.33219E-01 -6.77144E-01 -7.15378E-01
  -7.48677E-01 -7.77691E-01 -8.02927E-01 -8.24957E-01 -8.44232E-01 -8.61158E-01 -8.75938E-01 -8.88797E-01 -8.99915E-01 -9.09582E-01
  -9.17977E-01 -9.25257E-01 -9.31431E-01 -9.36597E-01 -9.40839E-01 -9.44346E-01 -9.47181E-01 -9.49398E-01 -9.50950E-01 -9.51915E-01
  -9.52358E-01 -9.52415E-01 -9.52078E-01 -9.51347E-01 -9.50163E-01 -9.48615E-01 -9.46758E-01 -9.44690E-01 -9.42354E-01 -9.39736E-01
  -9.36793E-01 -9.33628E-01 -9.30277E-01 -9.26791E-01 -9.23083E-01 -9.19143E-01 -9.14959E-01 -9.10644E-01 -9.06209E-01 -9.01668E-01
  -8.96921E-01 -8.91981E-01 -8.86856E-01 -8.81652E-01 -8.76344E-01 -8.70915E-01 -8.65269E-01 -8.59446E-01 -8.53468E-01 -8.47419E-01
  -8.41237E-01 -8.34886E-01 -8.28283E-01 -8.21491E-01 -8.14526E-01 -8.07432E-01 -8.00107E-01 -7.92502E-01
 NY background values follow
     8.142E+00    8.095E+00    8.049E+00    8.002E+00    7.955E+00    7.908E+00    7.862E+00    7.815E+00    7.768E+00    7.721E+00
     7.674E+00    7.627E+00    7.581E+00    7.534E+00    7.487E+00    7.440E+00    7.393E+00    7.346E+00    7.299E+00    7.253E+00
     7.206E+00    7.159E+00    7.112E+00    7.065E+00    7.018E+00    6.972E+00    6.925E+00    6.878E+00    6.831E+00    6.784E+00
     6.738E+00    6.691E+00    6.644E+00    6.598E+00    6.551E+00    6.504E+00    6.458E+00    6.411E+00    6.365E+00    6.318E+00
     6.272E+00    6.225E+00    6.179E+00    6.132E+00    6.086E+00    6.040E+00    5.994E+00    5.947E+00    5.901E+00    5.855E+00
     5.809E+00    5.763E+00    5.717E+00    5.671E+00    5.625E+00    5.579E+00    5.534E+00    5.488E+00    5.442E+00    5.397E+00
     5.351E+00    5.306E+00    5.261E+00    5.215E+00    5.170E+00    5.125E+00    5.080E+00    5.035E+00    4.990E+00    4.946E+00
     4.901E+00    4.857E+00    4.812E+00    4.768E+00    4.724E+00    4.680E+00    4.636E+00    4.592E+00    4.548E+00    4.505E+00
     4.461E+00    4.418E+00    4.374E+00    4.331E+00    4.288E+00    4.245E+00    4.203E+00    4.160E+00    4.118E+00    4.075E+00
     4.033E+00    3.991E+00    3.949E+00    3.908E+00    3.866E+00    3.825E+00    3.783E+00    3.742E+00    3.701E+00    3.661E+00
     3.620E+00    3.580E+00    3.540E+00    3.500E+00    3.460E+00    3.420E+00    3.380E+00    3.341E+00    3.302E+00    3.263E+00
     3.224E+00    3.186E+00    3.148E+00    3.110E+00    3.072E+00    3.034E+00    2.997E+00    2.959E+00    2.922E+00    2.885E+00
     2.849E+00    2.812E+00    2.776E+00    2.740E+00    2.705E+00    2.669E+00    2.634E+00    2.599E+00    2.565E+00    2.530E+00
     2.496E+00    2.462E+00    2.428E+00    2.395E+00    2.362E+00    2.329E+00    2.296E+00    2.264E+00    2.232E+00    2.200E+00
     2.168E+00    2.137E+00    2.106E+00    2.075E+00    2.045E+00    2.015E+00    1.985E+00    1.955E+00    1.926E+00    1.897E+00
     1.868E+00    1.840E+00    1.811E+00    1.784E+00    1.756E+00    1.729E+00    1.702E+00    1.675E+00    1.648E+00    1.622E+00
     1.596E+00    1.571E+00    1.546E+00    1.521E+00    1.496E+00    1.472E+00    1.448E+00    1.424E+00    1.401E+00    1.378E+00
     1.355E+00    1.332E+00    1.310E+00    1.288E+00    1.267E+00    1.245E+00    1.225E+00    1.204E+00    1.184E+00    1.164E+00
     1.144E+00    1.125E+00    1.106E+00    1.087E+00    1.069E+00    1.051E+00    1.033E+00    1.016E+00    9.985E-01    9.817E-01
     9.651E-01    9.489E-01    9.329E-01    9.172E-01    9.018E-01    8.866E-01    8.717E-01    8.571E-01    8.427E-01    8.286E-01
     8.148E-01    8.012E-01    7.878E-01    7.747E-01    7.618E-01    7.491E-01    7.367E-01    7.245E-01    7.125E-01    7.007E-01
     6.891E-01    6.778E-01    6.666E-01    6.557E-01    6.449E-01    6.343E-01    6.239E-01    6.137E-01    6.037E-01    5.938E-01
     5.841E-01    5.746E-01    5.653E-01    5.561E-01    5.470E-01    5.381E-01    5.294E-01    5.208E-01    5.123E-01    5.040E-01
     4.958E-01    4.877E-01    4.798E-01    4.719E-01    4.642E-01    4.566E-01    4.491E-01    4.418E-01    4.345E-01    4.273E-01
     4.202E-01    4.133E-01    4.064E-01    3.996E-01    3.928E-01    3.862E-01    3.796E-01    3.731E-01    3.667E-01    3.603E-01
     3.540E-01    3.478E-01    3.416E-01    3.355E-01    3.294E-01    3.233E-01    3.173E-01    3.113E-01    3.054E-01    2.995E-01
     2.936E-01    2.878E-01    2.819E-01    2.761E-01    2.703E-01    2.645E-01    2.587E-01    2.530E-01    2.472E-01    2.414E-01
     2.356E-01    2.298E-01    2.239E-01    2.181E-01    2.122E-01    2.064E-01    2.005E-01    1.946E-01    1.886E-01    1.827E-01
     1.767E-01    1.708E-01    1.648E-01    1.588E-01    1.527E-01    1.467E-01    1.406E-01    1.345E-01    1.284E-01    1.223E-01
     1.161E-01    1.100E-01    1.038E-01    9.758E-02    9.135E-02    8.510E-02    7.882E-02    7.253E-02    6.621E-02    5.987E-02
     5.351E-02    4.712E-02    4.071E-02    3.428E-02    2.782E-02    2.134E-02    1.483E-02    8.303E-03    1.748E-03   -4.832E-03
    -1.144E-02   -1.807E-02   -2.473E-02   -3.141E-02   -3.812E-02   -4.486E-02   -5.162E-02   -5.841E-02   -6.523E-02   -7.207E-02
    -7.893E-02   -8.581E-02   -9.271E-02   -9.962E-02   -1.066E-01   -1.135E-01   -1.204E-01   -1.274E-01   -1.344E-01   -1.413E-01
    -1.483E-01   -1.553E-01   -1.622E-01   -1.692E-01   -1.761E-01   -1.831E-01   -1.900E-01   -1.969E-01   -2.038E-01   -2.107E-01
    -2.176E-01   -2.244E-01   -2.313E-01   -2.381E-01   -2.448E-01   -2.516E-01   -2.583E-01   -2.650E-01   -2.716E-01   -2.782E-01
    -2.848E-01   -2.913E-01   -2.978E-01   -3.042E-01   -3.106E-01   -3.169E-01   -3.232E-01   -3.295E-01   -3.356E-01   -3.418E-01
    -3.478E-01   -3.538E-01   -3.598E-01   -3.656E-01   -3.714E-01   -3.772E-01   -3.828E-01   -3.884E-01   -3.939E-01   -3.994E-01
    -4.047E-01   -4.100E-01   -4.152E-01   -4.203E-01   -4.253E-01   -4.303E-01   -4.351E-01   -4.399E-01   -4.445E-01   -4.491E-01
    -4.536E-01   -4.580E-01   -4.622E-01   -4.664E-01   -4.705E-01   -4.744E-01   -4.783E-01   -4.820E-01   -4.857E-01   -4.892E-01
    -4.926E-01   -4.959E-01   -4.990E-01   -5.021E-01   -5.050E-01   -5.078E-01   -5.105E-01   -5.130E-01   -5.154E-01   -5.177E-01
    -5.199E-01   -5.219E-01   -5.238E-01   -5.255E-01   -5.271E-01   -5.286E-01   -5.299E-01   -5.310E-01   -5.321E-01   -5.329E-01
    -5.337E-01   -5.343E-01   -5.347E-01   -5.350E-01   -5.352E-01   -5.353E-01   -5.352E-01   -5.350E-01   -5.346E-01   -5.342E-01
    -5.336E-01   -5.329E-01   -5.321E-01   -5.311E-01   -5.301E-01   -5.289E-01   -5.276E-01   -5.262E-01   -5.247E-01   -5.231E-01
    -5.214E-01   -5.196E-01   -5.177E-01   -5.157E-01   -5.136E-01   -5.114E-01   -5.092E-01   -5.068E-01   -5.043E-01   -5.018E-01
    -4.992E-01   -4.965E-01   -4.937E-01   -4.908E-01   -4.879E-01   -4.849E-01   -4.818E-01   -4.786E-01   -4.754E-01   -4.721E-01
    -4.688E-01   -4.653E-01   -4.619E-01   -4.583E-01   -4.547E-01   -4.511E-01   -4.474E-01   -4.437E-01   -4.399E-01   -4.360E-01
    -4.321E-01   -4.282E-01   -4.242E-01   -4.202E-01   -4.161E-01   -4.120E-01   -4.079E-01   -4.037E-01   -3.995E-01   -3.953E-01
    -3.910E-01   -3.867E-01   -3.824E-01   -3.780E-01   -3.737E-01   -3.693E-01   -3.649E-01   -3.604E-01   -3.560E-01   -3.515E-01
    -3.471E-01   -3.426E-01   -3.381E-01   -3.336E-01   -3.291E-01   -3.245E-01   -3.200E-01   -3.155E-01   -3.110E-01   -3.064E-01
    -3.019E-01   -2.974E-01   -2.929E-01   -2.884E-01   -2.839E-01   -2.794E-01   -2.750E-01   -2.705E-01
 Ala      Conc. = 2.56E+02
