 LCModel (Version 6.3-1L) Copyright: S.W. Provencher.          Ref.: Magn. Reson. Med. 30:672-679 (1993).                
 Slice#1 Row#6 Col#12  PD_24_press_2_raw_act
 36 lines in following concentration table = NCONC+1
    Conc.  %SD /Cr+PCr  Metabolite                                         
  234.893  65%   4.393 Ala                                                 
   82.485  76%   1.543 Asp                                                 
    0.000 999%   0.000 Cr                                                  
   53.467  87%   1.000 PCr                                                 
   38.981  98%   0.729 GABA                                                
   35.775 106%   0.669 Glc                                                 
  213.734 142%   3.998 Gln                                                 
  829.124  42%  15.507 Glu                                                 
    0.000 999%   0.000 GPC                                                 
    0.000 999%   0.000 PCh                                                 
    0.000 999%   0.000 GSH                                                 
  219.609  99%   4.107 Ins                                                 
   28.210 599%   0.528 Lac                                                 
 1.13E+03  13%  21.079 NAA                                                 
   63.596 250%   1.189 NAAG                                                
   11.844  98%   0.222 Scyllo                                              
   25.835 236%   0.483 Tau                                                 
    0.000 999%   0.000 -CrCH2                                              
    0.000 999%   0.000 GPC+PCh                                             
 1.19E+03  10%  22.269 NAA+NAAG                                            
   53.467  87%   1.000 Cr+PCr                                              
 1.04E+03  51%  19.505 Glu+Gln                                             
 4.07E+03  21%  76.097 Lip13a                                              
    0.000 999%   0.000 Lip13b                                              
 1.05E+03  35%  19.691 Lip09                                               
 1.68E+03  22%  31.514 MM09                                                
  645.913  40%  12.081 Lip20                                               
 1.39E+03  35%  26.083 MM20                                                
  633.299  43%  11.845 MM12                                                
  595.695  68%  11.141 MM14                                                
 2.74E+03  11%  51.166 MM17                                                
 4.07E+03  21%  76.097 Lip13a+Lip13b                                       
 5.30E+03  11%  99.083 MM14+Lip13a+Lip13b+MM12                             
 2.74E+03   9%  51.205 MM09+Lip09                                          
 2.04E+03  22%  38.164 MM20+Lip20                                          
   6 lines in following misc. output table
  FWHM = 0.076 ppm    S/N =   6                                            
  Data shift = 0.008 ppm                                                   
  Ph:  89 deg      31.4 deg/ppm                                            
  alphaB,S = 8.5E+01,   1.0E+02                                            
   14 spline knots.   Ns =10(1)                                            
   2 inflections.     1 extrema                                            
  498 points on ppm-axis = NY
      4.000000     3.992357     3.984714     3.977070     3.969427     3.961784     3.954141     3.946497     3.938854     3.931211
      3.923568     3.915925     3.908281     3.900638     3.892995     3.885352     3.877708     3.870065     3.862422     3.854779
      3.847136     3.839492     3.831849     3.824206     3.816563     3.808919     3.801276     3.793633     3.785990     3.778347
      3.770703     3.763060     3.755417     3.747774     3.740130     3.732487     3.724844     3.717201     3.709558     3.701914
      3.694271     3.686628     3.678985     3.671341     3.663698     3.656055     3.648412     3.640769     3.633125     3.625482
      3.617839     3.610196     3.602552     3.594909     3.587266     3.579623     3.571980     3.564336     3.556693     3.549050
      3.541407     3.533763     3.526120     3.518477     3.510834     3.503191     3.495547     3.487904     3.480261     3.472618
      3.464974     3.457331     3.449688     3.442045     3.434402     3.426758     3.419115     3.411472     3.403829     3.396185
      3.388542     3.380899     3.373256     3.365613     3.357969     3.350326     3.342683     3.335040     3.327396     3.319753
      3.312110     3.304467     3.296824     3.289180     3.281537     3.273894     3.266251     3.258607     3.250964     3.243321
      3.235678     3.228034     3.220391     3.212748     3.205105     3.197462     3.189818     3.182175     3.174532     3.166889
      3.159245     3.151602     3.143959     3.136316     3.128673     3.121029     3.113386     3.105743     3.098100     3.090456
      3.082813     3.075170     3.067527     3.059884     3.052240     3.044597     3.036954     3.029311     3.021667     3.014024
      3.006381     2.998738     2.991095     2.983451     2.975808     2.968165     2.960522     2.952878     2.945235     2.937592
      2.929949     2.922306     2.914662     2.907019     2.899376     2.891733     2.884089     2.876446     2.868803     2.861160
      2.853517     2.845873     2.838230     2.830587     2.822944     2.815300     2.807657     2.800014     2.792371     2.784728
      2.777084     2.769441     2.761798     2.754155     2.746511     2.738868     2.731225     2.723582     2.715939     2.708295
      2.700652     2.693009     2.685366     2.677722     2.670079     2.662436     2.654793     2.647150     2.639506     2.631863
      2.624220     2.616577     2.608933     2.601290     2.593647     2.586004     2.578361     2.570717     2.563074     2.555431
      2.547788     2.540144     2.532501     2.524858     2.517215     2.509572     2.501928     2.494285     2.486642     2.478999
      2.471355     2.463712     2.456069     2.448426     2.440783     2.433139     2.425496     2.417853     2.410210     2.402566
      2.394923     2.387280     2.379637     2.371994     2.364350     2.356707     2.349064     2.341421     2.333777     2.326134
      2.318491     2.310848     2.303205     2.295561     2.287918     2.280275     2.272632     2.264988     2.257345     2.249702
      2.242059     2.234416     2.226772     2.219129     2.211486     2.203843     2.196199     2.188556     2.180913     2.173270
      2.165627     2.157983     2.150340     2.142697     2.135054     2.127410     2.119767     2.112124     2.104481     2.096838
      2.089194     2.081551     2.073908     2.066265     2.058621     2.050978     2.043335     2.035692     2.028049     2.020405
      2.012762     2.005119     1.997476     1.989833     1.982190     1.974546     1.966903     1.959260     1.951617     1.943974
      1.936331     1.928688     1.921045     1.913402     1.905759     1.898115     1.890472     1.882829     1.875186     1.867543
      1.859900     1.852257     1.844614     1.836971     1.829327     1.821684     1.814041     1.806398     1.798755     1.791112
      1.783469     1.775826     1.768183     1.760540     1.752896     1.745253     1.737610     1.729967     1.722324     1.714681
      1.707038     1.699395     1.691752     1.684108     1.676465     1.668822     1.661179     1.653536     1.645893     1.638250
      1.630607     1.622964     1.615321     1.607677     1.600034     1.592391     1.584748     1.577105     1.569462     1.561819
      1.554176     1.546533     1.538890     1.531246     1.523603     1.515960     1.508317     1.500674     1.493031     1.485388
      1.477745     1.470102     1.462458     1.454815     1.447172     1.439529     1.431886     1.424243     1.416600     1.408957
      1.401314     1.393671     1.386027     1.378384     1.370741     1.363098     1.355455     1.347812     1.340169     1.332526
      1.324883     1.317240     1.309596     1.301953     1.294310     1.286667     1.279024     1.271381     1.263738     1.256095
      1.248452     1.240808     1.233165     1.225522     1.217879     1.210236     1.202593     1.194950     1.187307     1.179664
      1.172021     1.164377     1.156734     1.149091     1.141448     1.133805     1.126162     1.118519     1.110876     1.103233
      1.095590     1.087946     1.080303     1.072660     1.065017     1.057374     1.049731     1.042088     1.034445     1.026802
      1.019158     1.011515     1.003872     0.996229     0.988586     0.980943     0.973300     0.965657     0.958014     0.950371
      0.942727     0.935084     0.927441     0.919798     0.912155     0.904512     0.896869     0.889226     0.881583     0.873940
      0.866296     0.858653     0.851010     0.843367     0.835724     0.828081     0.820438     0.812795     0.805152     0.797508
      0.789865     0.782222     0.774579     0.766936     0.759293     0.751650     0.744007     0.736364     0.728721     0.721077
      0.713434     0.705791     0.698148     0.690505     0.682862     0.675219     0.667576     0.659933     0.652290     0.644646
      0.637003     0.629360     0.621717     0.614074     0.606431     0.598788     0.591145     0.583502     0.575858     0.568215
      0.560572     0.552929     0.545286     0.537643     0.530000     0.522357     0.514714     0.507071     0.499427     0.491784
      0.484141     0.476498     0.468855     0.461212     0.453569     0.445925     0.438282     0.430639     0.422996     0.415353
      0.407710     0.400067     0.392424     0.384780     0.377137     0.369494     0.361851     0.354208     0.346565     0.338922
      0.331278     0.323635     0.315992     0.308349     0.300706     0.293063     0.285420     0.277777     0.270133     0.262490
      0.254847     0.247204     0.239561     0.231918     0.224275     0.216631     0.208988     0.201345
 NY phased data points follow
   9.63067E+00  8.33788E+00  2.24966E+00  4.87741E+00  3.25857E+00  6.87839E+00  5.75435E+00  5.12729E+00  5.76070E+00  4.43081E+00
   5.69627E+00  3.16342E+00  4.00713E+00 -2.49211E+00  4.91457E+00  4.21479E+00  3.06088E-01  8.01046E+00  1.05701E+00  6.47505E+00
  -3.94775E-01 -1.26470E+00  4.54017E+00  3.90584E+00  3.84933E+00 -1.52363E+00  3.52891E+00  3.82304E+00  2.69823E+00  2.86849E+00
   5.75561E+00  3.27736E+00  6.43432E-01  2.65050E-01  3.06778E+00 -1.52519E+00 -1.51539E+00  1.24023E+00 -2.17922E+00  2.32807E+00
   3.31112E+00 -3.09278E+00  7.98421E+00  5.42682E-01 -9.04485E-01  5.03304E+00  2.06444E+00 -1.73121E+00 -2.94344E+00  4.41639E+00
  -4.86022E+00  9.34093E-01  2.80490E+00  5.11380E-01  3.28125E+00 -1.56711E+00  1.29630E+00  8.09725E-01  4.39341E+00  7.11160E-01
   5.44735E-01  2.25564E+00 -1.49490E-01 -3.92462E+00 -2.02128E+00  6.47528E+00  1.83484E+00  4.63503E+00 -2.47901E+00  2.51940E+00
   3.15957E+00  3.87819E+00  1.30560E+00 -6.57703E-02 -5.32282E-01 -2.75240E+00 -2.08317E+00 -3.43786E+00  2.90528E+00 -1.15156E-01
  -2.14124E+00  4.25978E+00  5.58103E+00  8.89700E-01  5.46575E-01 -3.51192E+00 -2.13006E+00  4.42848E+00  3.21184E+00 -2.96122E+00
  -2.82958E-01  2.70010E-01 -5.25924E+00 -3.41620E+00 -1.89073E+00  1.68165E+00  1.29729E+00 -4.03603E-01  2.48959E+00  1.71492E+00
   3.78444E-01  2.25097E+00  1.65744E+00 -6.88331E+00 -5.77537E-01 -4.94124E+00 -7.03285E+00  2.80548E+00 -6.48488E+00 -3.62775E+00
  -1.18153E+00  3.88848E+00  6.14366E-01  2.94670E-01 -1.35950E+00  1.33955E-01 -1.78972E+00 -1.35586E+00 -1.36743E+00 -4.64797E+00
   4.38322E+00  4.34462E+00  1.65675E+00 -2.05968E+00  9.48474E-01  2.05820E+00 -2.92835E+00  1.48355E+00  1.60401E+00  1.96046E-01
  -5.03148E+00 -3.31651E+00 -1.61796E+00 -1.35720E+00 -2.60200E+00 -4.65030E+00 -7.58753E+00 -4.00024E+00 -3.35776E-01 -6.21670E-02
  -1.03065E-01  6.69111E-01  2.78610E+00 -6.66045E-01 -1.10318E+00 -1.02751E+00 -1.64664E+00 -2.56438E+00  4.04452E+00  3.27066E+00
  -4.84631E+00  9.95825E-01 -3.11218E+00  1.56140E+00  8.85294E-01  5.72520E-01 -1.18478E+00 -5.82538E+00 -2.19208E+00  8.51032E-01
   8.71431E-01 -6.62461E-01 -2.75809E+00 -2.91509E-01 -4.45967E+00 -4.88566E-01 -1.00428E+00 -2.88190E+00 -8.83828E-01  1.82184E+00
  -2.55703E+00  4.11114E-01 -3.40675E+00 -3.15099E+00  1.49941E+00  1.67259E+00  1.16698E+00  1.32790E+00  2.05604E+00 -2.45576E+00
  -5.03848E+00  3.60042E+00 -1.66980E+00 -1.93117E-01 -6.99914E-01 -2.95883E+00  4.44117E+00  7.89109E-01 -8.91888E-01  2.93489E-01
  -1.99190E+00 -1.87551E+00 -1.21556E+00 -4.44468E+00  2.36250E+00 -1.64727E+00  1.10422E+00 -5.83566E+00 -1.98861E+00 -6.98617E+00
   2.64530E-01 -2.10001E+00 -2.86350E+00  1.07244E+00 -7.73566E-01 -3.35005E+00 -1.21608E+00 -2.36502E-02 -1.53305E-01 -2.25861E+00
   1.85057E-01  6.28884E+00  2.67491E+00  2.73323E+00  2.89916E+00 -4.08448E+00  4.18113E-01 -2.57242E+00 -5.08244E+00  4.64134E+00
  -1.09760E+00 -1.07575E+00  2.63481E-01  5.31267E+00  3.03162E+00 -1.57446E+00 -5.07391E-01  1.11346E+00  4.97532E+00  4.29252E+00
   7.42845E+00 -9.55479E-01  3.64447E+00 -1.50947E+00  2.60196E+00  2.94238E+00  2.34942E+00  4.29262E+00  4.64566E+00  3.91574E+00
   4.50667E+00  3.94092E+00  2.52739E+00  5.35409E+00  7.68128E+00  5.05223E+00  2.67449E+00  9.13064E+00  6.87864E+00  1.00075E+01
   5.19704E+00  1.02287E+01  1.64986E+01  1.34399E+01  2.51911E+01  2.96271E+01  3.37420E+01  3.45194E+01  3.37180E+01  3.55891E+01
   3.66672E+01  2.81879E+01  2.63562E+01  1.79508E+01  1.69513E+01  1.38667E+01  9.03626E+00  5.74427E+00  3.31225E+00  1.11805E+01
   3.41974E+00  9.63392E-01 -1.32743E+00  3.61268E-01  1.89627E+00  7.93995E-01  3.36829E+00  3.20009E+00 -2.80787E+00 -2.04486E-01
   1.81196E+00  3.18776E+00  4.58895E+00  5.37697E+00  3.22233E+00  1.38415E+00  6.67063E+00  3.13099E-01  5.73827E+00  5.08193E+00
   5.03508E+00  5.41015E+00 -9.25417E-01  7.38810E+00  9.04178E+00  1.18434E+01  8.60811E+00  1.05897E+01  7.55244E+00  1.21535E+01
   1.18330E+01  7.37932E+00  1.79288E+01  1.80453E+01  1.02815E+01  1.44057E+01  1.67862E+01  2.03894E+01  2.27680E+01  1.90334E+01
   2.08264E+01  2.02173E+01  2.07686E+01  1.57556E+01  1.73248E+01  1.46436E+01  1.38903E+01  1.60058E+01  9.92138E+00  7.40530E+00
   9.64832E+00  9.76090E+00  8.75442E+00  8.29660E+00  4.36581E+00  6.29631E+00  7.50511E+00  2.76172E+00  8.86459E+00 -2.82145E-01
   5.96474E+00 -2.50762E+00  1.08156E+01  6.94464E+00  3.91417E+00  7.06777E+00  8.47608E+00  8.89380E+00  6.96490E+00  1.16789E+01
   1.09383E+01  1.21023E+01  1.09737E+01  1.47251E+01  1.13831E+01  1.07567E+01  9.11184E+00  9.76230E+00  1.33382E+01  1.13121E+01
   8.63870E+00  1.33312E+01  8.57896E+00  1.08521E+01  1.03553E+01  1.18173E+01  8.15414E+00  3.16230E+00  1.20242E+01  1.16847E+01
   1.63995E+01  1.27568E+01  1.07447E+01  1.37959E+01  1.17673E+01  1.17820E+01  1.46028E+01  1.37990E+01  1.21987E+01  1.43752E+01
   1.06557E+01  6.45385E+00  9.17508E+00  9.79680E+00  9.27590E+00  1.20202E+01  7.55949E+00  6.81725E+00  1.27829E+01  1.19842E+01
   1.30697E+01  1.18912E+01  1.39238E+01  1.38163E+01  8.84089E+00  1.03457E+01  4.72933E+00  8.61777E+00  1.19396E+01  1.42844E+01
   9.90353E+00  1.05700E+01  1.52530E+01  9.02561E+00  1.51392E+01  9.84728E+00  1.35315E+01  1.52432E+01  1.66633E+01  1.50410E+01
   8.90535E+00  1.26425E+01  1.49303E+01  1.37060E+01  9.83021E+00  7.68857E+00  7.54294E+00  8.71332E+00  1.02798E+01  4.92224E+00
   1.35424E+01  7.90534E+00  4.86786E+00  5.81022E+00  2.03052E+00  2.56658E-01  4.30403E+00  2.71743E+00  3.27085E+00  3.20402E+00
   4.10552E+00 -2.69885E+00 -1.10588E+00  9.78758E-01 -5.93235E+00 -4.58183E+00 -2.47362E+00 -3.68995E+00  2.45705E+00 -3.29190E-01
   1.24976E+00 -1.99845E+00  1.21378E+00  2.41379E+00 -1.36625E+00 -8.23820E-01 -7.12023E+00 -1.46575E-01  2.07049E-01 -6.78812E+00
   5.11784E-01 -6.79350E+00 -1.38319E-01 -8.15034E+00 -3.04432E+00 -2.55346E+00 -8.04684E+00 -1.40089E+00  2.84074E+00 -7.43817E+00
  -1.43410E+00 -8.67883E+00 -8.67381E+00 -5.35522E+00 -6.30599E+00  9.68972E-01 -5.31633E+00 -7.56305E+00 -2.37107E+00 -8.00200E+00
  -8.39636E+00 -1.11697E+00 -6.39907E+00 -7.99894E+00 -5.88173E+00 -7.01551E+00 -8.41357E+00 -5.59181E+00 -8.97332E+00 -4.19481E+00
  -5.97801E+00 -6.98666E+00 -9.83109E+00 -4.63409E+00 -8.86606E+00 -3.82407E+00 -5.78732E+00 -7.27544E+00 -1.30783E+01 -6.29152E+00
  -1.95256E+00 -4.09788E+00 -7.07727E+00 -9.87980E+00 -7.14277E+00 -7.23081E+00 -8.86879E+00 -5.83189E+00 -5.33241E+00 -8.72423E+00
  -3.78979E+00 -7.20950E+00 -1.14462E+01 -3.62394E+00 -6.27797E+00 -7.51450E+00 -8.25152E+00 -6.01875E+00
 NY points of the fit to the data follow
   1.90059E+00  1.92624E+00  1.99112E+00  2.08338E+00  2.18052E+00  2.25257E+00  2.28766E+00  2.28749E+00  2.24458E+00  2.15378E+00
   2.02441E+00  1.87642E+00  1.73509E+00  1.62421E+00  1.56852E+00  1.59847E+00  1.72692E+00  1.91689E+00  2.09538E+00  2.20047E+00
   2.17698E+00  1.98771E+00  1.68323E+00  1.37902E+00  1.18593E+00  1.15632E+00  1.29852E+00  1.58581E+00  1.93090E+00  2.22384E+00
   2.39859E+00  2.43253E+00  2.34437E+00  2.16842E+00  1.93365E+00  1.68294E+00  1.47757E+00  1.36661E+00  1.36317E+00  1.45843E+00
   1.63489E+00  1.85518E+00  2.06769E+00  2.22570E+00  2.30277E+00  2.29568E+00  2.21122E+00  2.06568E+00  1.86915E+00  1.64118E+00
   1.42923E+00  1.27130E+00  1.17311E+00  1.12852E+00  1.12906E+00  1.15935E+00  1.19079E+00  1.19878E+00  1.18094E+00  1.14747E+00
   1.10159E+00  1.04457E+00  9.88989E-01  9.47827E-01  9.25753E-01  9.24024E-01  9.42770E-01  9.77505E-01  1.01768E+00  1.05275E+00
   1.07680E+00  1.08395E+00  1.07055E+00  1.03876E+00  9.93773E-01  9.43481E-01  9.01646E-01  8.76053E-01  8.63704E-01  8.59572E-01
   8.53532E-01  8.27170E-01  7.71139E-01  6.92937E-01  6.04135E-01  5.10961E-01  4.17966E-01  3.33133E-01  2.65050E-01  2.19108E-01
   1.88951E-01  1.61791E-01  1.31207E-01  9.77105E-02  5.93718E-02  1.02517E-02 -4.73879E-02 -1.02043E-01 -1.46825E-01 -1.80238E-01
  -2.01018E-01 -2.09135E-01 -2.05400E-01 -1.90522E-01 -1.66127E-01 -1.35741E-01 -1.02828E-01 -6.86953E-02 -3.44703E-02 -8.73260E-04
   3.05644E-02  5.79888E-02  8.22847E-02  1.03992E-01  1.23250E-01  1.43846E-01  1.83194E-01  2.76521E-01  4.37390E-01  6.64456E-01
   9.48826E-01  1.25789E+00  1.54217E+00  1.76423E+00  1.91140E+00  1.98147E+00  1.96856E+00  1.87294E+00  1.71818E+00  1.54231E+00
   1.37217E+00  1.21422E+00  1.07042E+00  9.50623E-01  8.64605E-01  8.02706E-01  7.47617E-01  7.05201E-01  6.87038E-01  6.83179E-01
   6.82137E-01  6.78206E-01  6.70230E-01  6.59057E-01  6.43881E-01  6.21972E-01  5.93960E-01  5.64428E-01  5.37365E-01  5.15286E-01
   4.94974E-01  4.57690E-01  3.85517E-01  2.73536E-01  1.25585E-01 -3.24799E-02 -1.69256E-01 -2.65655E-01 -3.18476E-01 -3.45888E-01
  -3.72646E-01 -4.11243E-01 -4.65634E-01 -5.43790E-01 -6.58751E-01 -8.16942E-01 -1.01690E+00 -1.25426E+00 -1.50944E+00 -1.76373E+00
  -1.99240E+00 -2.17593E+00 -2.31251E+00 -2.41004E+00 -2.48786E+00 -2.54551E+00 -2.56156E+00 -2.54615E+00 -2.52485E+00 -2.50153E+00
  -2.46426E+00 -2.38148E+00 -2.22762E+00 -2.01401E+00 -1.77325E+00 -1.52033E+00 -1.25643E+00 -9.90765E-01 -7.47696E-01 -5.47097E-01
  -3.92442E-01 -2.78279E-01 -2.04858E-01 -1.60467E-01 -1.05683E-01  1.19030E-03  1.82437E-01  4.12726E-01  6.46295E-01  8.26931E-01
   8.74205E-01  7.35922E-01  4.13170E-01 -6.97298E-02 -6.34796E-01 -1.13829E+00 -1.41645E+00 -1.39728E+00 -1.07665E+00 -5.10341E-01
   1.59331E-01  7.30498E-01  1.01282E+00  9.21398E-01  4.92466E-01 -1.88523E-01 -9.89339E-01 -1.70104E+00 -2.12832E+00 -2.18848E+00
  -1.93658E+00 -1.45393E+00 -7.77713E-01  1.04186E-02  7.52692E-01  1.33773E+00  1.77664E+00  2.12066E+00  2.36660E+00  2.51225E+00
   2.59639E+00  2.69360E+00  2.82187E+00  2.92471E+00  2.99250E+00  3.06118E+00  3.14171E+00  3.23662E+00  3.36165E+00  3.51852E+00
   3.69507E+00  3.87772E+00  4.06280E+00  4.25548E+00  4.46346E+00  4.71640E+00  5.06976E+00  5.54422E+00  6.12798E+00  6.87226E+00
   8.16567E+00  1.05741E+01  1.41254E+01  1.86488E+01  2.38059E+01  2.87989E+01  3.26869E+01  3.49561E+01  3.56133E+01  3.47828E+01
   3.24588E+01  2.88328E+01  2.45214E+01  2.02336E+01  1.63492E+01  1.28832E+01  9.87749E+00  7.55204E+00  5.98825E+00  4.85165E+00
   3.82405E+00  3.06866E+00  2.68432E+00  2.43153E+00  2.21107E+00  2.00734E+00  1.81619E+00  1.64323E+00  1.49514E+00  1.37681E+00
   1.29501E+00  1.25503E+00  1.25786E+00  1.30449E+00  1.40041E+00  1.55230E+00  1.76527E+00  2.04460E+00  2.39637E+00  2.82742E+00
   3.34406E+00  3.95042E+00  4.64917E+00  5.44174E+00  6.32642E+00  7.29716E+00  8.34378E+00  9.45169E+00  1.06012E+01  1.17684E+01
   1.29263E+01  1.40446E+01  1.50920E+01  1.60376E+01  1.68526E+01  1.75114E+01  1.79933E+01  1.82843E+01  1.83773E+01  1.82733E+01
   1.79808E+01  1.75161E+01  1.69022E+01  1.61684E+01  1.53491E+01  1.44844E+01  1.36243E+01  1.28339E+01  1.21305E+01  1.14750E+01
   1.08286E+01  1.01366E+01  9.33569E+00  8.40536E+00  7.37956E+00  6.34981E+00  5.43179E+00  4.70747E+00  4.27154E+00  4.20644E+00
   4.49588E+00  5.02630E+00  5.67719E+00  6.38583E+00  7.11170E+00  7.77516E+00  8.29564E+00  8.68574E+00  9.01602E+00  9.30627E+00
   9.54178E+00  9.72469E+00  9.87880E+00  1.00361E+01  1.01922E+01  1.03308E+01  1.04776E+01  1.06606E+01  1.08790E+01  1.11307E+01
   1.14059E+01  1.16864E+01  1.19550E+01  1.22022E+01  1.24197E+01  1.25952E+01  1.27176E+01  1.27870E+01  1.28109E+01  1.27905E+01
   1.27233E+01  1.26114E+01  1.24606E+01  1.22760E+01  1.20578E+01  1.18076E+01  1.15328E+01  1.12399E+01  1.09336E+01  1.06196E+01
   1.03048E+01  9.99632E+00  9.70172E+00  9.42847E+00  9.18396E+00  8.97522E+00  8.80878E+00  8.69049E+00  8.62530E+00  8.61714E+00
   8.66871E+00  8.78127E+00  8.95452E+00  9.18647E+00  9.47333E+00  9.80948E+00  1.01875E+01  1.05980E+01  1.10304E+01  1.14723E+01
   1.19108E+01  1.23320E+01  1.27221E+01  1.30675E+01  1.33555E+01  1.35750E+01  1.37165E+01  1.37726E+01  1.37386E+01  1.36121E+01
   1.33935E+01  1.30855E+01  1.26932E+01  1.22236E+01  1.16851E+01  1.10875E+01  1.04411E+01  9.75658E+00  9.04438E+00  8.31464E+00
   7.57675E+00  6.83921E+00  6.10953E+00  5.39412E+00  4.69833E+00  4.02643E+00  3.38174E+00  2.76664E+00  2.18277E+00  1.63103E+00
   1.11174E+00  6.24735E-01  1.69435E-01 -2.55054E-01 -6.49875E-01 -1.01636E+00 -1.35599E+00 -1.67031E+00 -1.96093E+00 -2.22945E+00
  -2.47747E+00 -2.70656E+00 -2.91820E+00 -3.11385E+00 -3.29485E+00 -3.46247E+00 -3.61789E+00 -3.76221E+00 -3.89644E+00 -4.02148E+00
  -4.13819E+00 -4.24732E+00 -4.34956E+00 -4.44553E+00 -4.53580E+00 -4.62089E+00 -4.70123E+00 -4.77724E+00 -4.84929E+00 -4.91772E+00
  -4.98282E+00 -5.04488E+00 -5.10411E+00 -5.16076E+00 -5.21501E+00 -5.26706E+00 -5.31707E+00 -5.36518E+00 -5.41153E+00 -5.45623E+00
  -5.49942E+00 -5.54118E+00 -5.58162E+00 -5.62082E+00 -5.65885E+00 -5.69580E+00 -5.73172E+00 -5.76669E+00 -5.80076E+00 -5.83396E+00
  -5.86637E+00 -5.89801E+00 -5.92894E+00 -5.95920E+00 -5.98881E+00 -6.01780E+00 -6.04622E+00 -6.07409E+00 -6.10143E+00 -6.12828E+00
  -6.15465E+00 -6.18056E+00 -6.20603E+00 -6.23108E+00 -6.25573E+00 -6.28000E+00 -6.30388E+00 -6.32740E+00 -6.35057E+00 -6.37340E+00
  -6.39590E+00 -6.41807E+00 -6.43991E+00 -6.46142E+00 -6.48263E+00 -6.50351E+00 -6.52407E+00 -6.54430E+00
 NY background values follow
     1.790E+00    1.774E+00    1.758E+00    1.742E+00    1.725E+00    1.709E+00    1.693E+00    1.677E+00    1.660E+00    1.644E+00
     1.628E+00    1.611E+00    1.595E+00    1.579E+00    1.563E+00    1.546E+00    1.530E+00    1.514E+00    1.497E+00    1.481E+00
     1.465E+00    1.449E+00    1.432E+00    1.416E+00    1.400E+00    1.383E+00    1.367E+00    1.351E+00    1.334E+00    1.318E+00
     1.302E+00    1.285E+00    1.269E+00    1.253E+00    1.236E+00    1.220E+00    1.203E+00    1.187E+00    1.171E+00    1.154E+00
     1.138E+00    1.122E+00    1.105E+00    1.089E+00    1.073E+00    1.056E+00    1.040E+00    1.023E+00    1.007E+00    9.906E-01
     9.742E-01    9.578E-01    9.414E-01    9.250E-01    9.086E-01    8.922E-01    8.758E-01    8.594E-01    8.429E-01    8.265E-01
     8.101E-01    7.937E-01    7.772E-01    7.608E-01    7.444E-01    7.279E-01    7.115E-01    6.951E-01    6.786E-01    6.622E-01
     6.457E-01    6.293E-01    6.128E-01    5.964E-01    5.799E-01    5.635E-01    5.470E-01    5.305E-01    5.141E-01    4.976E-01
     4.811E-01    4.646E-01    4.482E-01    4.317E-01    4.152E-01    3.987E-01    3.822E-01    3.658E-01    3.493E-01    3.328E-01
     3.163E-01    2.998E-01    2.833E-01    2.668E-01    2.503E-01    2.338E-01    2.173E-01    2.008E-01    1.843E-01    1.678E-01
     1.512E-01    1.347E-01    1.182E-01    1.017E-01    8.518E-02    6.865E-02    5.213E-02    3.560E-02    1.908E-02    2.547E-03
    -1.398E-02   -3.052E-02   -4.705E-02   -6.359E-02   -8.012E-02   -9.666E-02   -1.132E-01   -1.297E-01   -1.463E-01   -1.628E-01
    -1.794E-01   -1.959E-01   -2.125E-01   -2.290E-01   -2.456E-01   -2.621E-01   -2.787E-01   -2.953E-01   -3.118E-01   -3.284E-01
    -3.449E-01   -3.615E-01   -3.781E-01   -3.946E-01   -4.112E-01   -4.278E-01   -4.443E-01   -4.609E-01   -4.775E-01   -4.941E-01
    -5.106E-01   -5.272E-01   -5.438E-01   -5.604E-01   -5.769E-01   -5.935E-01   -6.101E-01   -6.267E-01   -6.433E-01   -6.599E-01
    -6.765E-01   -6.930E-01   -7.096E-01   -7.262E-01   -7.428E-01   -7.594E-01   -7.760E-01   -7.926E-01   -8.092E-01   -8.258E-01
    -8.424E-01   -8.590E-01   -8.756E-01   -8.922E-01   -9.088E-01   -9.254E-01   -9.420E-01   -9.586E-01   -9.752E-01   -9.918E-01
    -1.008E+00   -1.025E+00   -1.042E+00   -1.058E+00   -1.075E+00   -1.091E+00   -1.108E+00   -1.125E+00   -1.141E+00   -1.158E+00
    -1.174E+00   -1.191E+00   -1.208E+00   -1.224E+00   -1.241E+00   -1.258E+00   -1.274E+00   -1.291E+00   -1.307E+00   -1.324E+00
    -1.341E+00   -1.357E+00   -1.374E+00   -1.390E+00   -1.407E+00   -1.424E+00   -1.440E+00   -1.457E+00   -1.474E+00   -1.490E+00
    -1.507E+00   -1.523E+00   -1.540E+00   -1.557E+00   -1.573E+00   -1.590E+00   -1.606E+00   -1.623E+00   -1.640E+00   -1.656E+00
    -1.673E+00   -1.690E+00   -1.706E+00   -1.723E+00   -1.739E+00   -1.756E+00   -1.773E+00   -1.789E+00   -1.806E+00   -1.823E+00
    -1.839E+00   -1.856E+00   -1.872E+00   -1.889E+00   -1.906E+00   -1.922E+00   -1.939E+00   -1.955E+00   -1.972E+00   -1.989E+00
    -2.005E+00   -2.022E+00   -2.039E+00   -2.055E+00   -2.072E+00   -2.088E+00   -2.105E+00   -2.122E+00   -2.138E+00   -2.155E+00
    -2.171E+00   -2.188E+00   -2.205E+00   -2.221E+00   -2.238E+00   -2.254E+00   -2.271E+00   -2.288E+00   -2.304E+00   -2.321E+00
    -2.338E+00   -2.354E+00   -2.371E+00   -2.387E+00   -2.404E+00   -2.421E+00   -2.437E+00   -2.454E+00   -2.470E+00   -2.487E+00
    -2.504E+00   -2.520E+00   -2.537E+00   -2.553E+00   -2.570E+00   -2.587E+00   -2.603E+00   -2.620E+00   -2.636E+00   -2.653E+00
    -2.669E+00   -2.686E+00   -2.703E+00   -2.719E+00   -2.736E+00   -2.752E+00   -2.769E+00   -2.786E+00   -2.802E+00   -2.819E+00
    -2.835E+00   -2.852E+00   -2.868E+00   -2.885E+00   -2.902E+00   -2.918E+00   -2.935E+00   -2.951E+00   -2.968E+00   -2.984E+00
    -3.001E+00   -3.018E+00   -3.034E+00   -3.051E+00   -3.067E+00   -3.084E+00   -3.100E+00   -3.117E+00   -3.134E+00   -3.150E+00
    -3.167E+00   -3.183E+00   -3.200E+00   -3.216E+00   -3.233E+00   -3.249E+00   -3.266E+00   -3.282E+00   -3.299E+00   -3.316E+00
    -3.332E+00   -3.349E+00   -3.365E+00   -3.382E+00   -3.398E+00   -3.415E+00   -3.431E+00   -3.448E+00   -3.464E+00   -3.481E+00
    -3.497E+00   -3.514E+00   -3.530E+00   -3.547E+00   -3.563E+00   -3.580E+00   -3.596E+00   -3.613E+00   -3.629E+00   -3.646E+00
    -3.662E+00   -3.679E+00   -3.695E+00   -3.712E+00   -3.728E+00   -3.745E+00   -3.761E+00   -3.778E+00   -3.794E+00   -3.811E+00
    -3.827E+00   -3.844E+00   -3.860E+00   -3.877E+00   -3.893E+00   -3.910E+00   -3.926E+00   -3.943E+00   -3.959E+00   -3.976E+00
    -3.992E+00   -4.008E+00   -4.025E+00   -4.041E+00   -4.058E+00   -4.074E+00   -4.091E+00   -4.107E+00   -4.124E+00   -4.140E+00
    -4.156E+00   -4.173E+00   -4.189E+00   -4.206E+00   -4.222E+00   -4.239E+00   -4.255E+00   -4.271E+00   -4.288E+00   -4.304E+00
    -4.321E+00   -4.337E+00   -4.353E+00   -4.370E+00   -4.386E+00   -4.403E+00   -4.419E+00   -4.435E+00   -4.452E+00   -4.468E+00
    -4.484E+00   -4.501E+00   -4.517E+00   -4.534E+00   -4.550E+00   -4.566E+00   -4.583E+00   -4.599E+00   -4.615E+00   -4.632E+00
    -4.648E+00   -4.664E+00   -4.681E+00   -4.697E+00   -4.713E+00   -4.730E+00   -4.746E+00   -4.762E+00   -4.779E+00   -4.795E+00
    -4.811E+00   -4.828E+00   -4.844E+00   -4.860E+00   -4.877E+00   -4.893E+00   -4.909E+00   -4.926E+00   -4.942E+00   -4.958E+00
    -4.974E+00   -4.991E+00   -5.007E+00   -5.023E+00   -5.039E+00   -5.056E+00   -5.072E+00   -5.088E+00   -5.105E+00   -5.121E+00
    -5.137E+00   -5.153E+00   -5.170E+00   -5.186E+00   -5.202E+00   -5.218E+00   -5.234E+00   -5.251E+00   -5.267E+00   -5.283E+00
    -5.299E+00   -5.316E+00   -5.332E+00   -5.348E+00   -5.364E+00   -5.380E+00   -5.397E+00   -5.413E+00   -5.429E+00   -5.445E+00
    -5.461E+00   -5.477E+00   -5.494E+00   -5.510E+00   -5.526E+00   -5.542E+00   -5.558E+00   -5.574E+00   -5.590E+00   -5.607E+00
    -5.623E+00   -5.639E+00   -5.655E+00   -5.671E+00   -5.687E+00   -5.703E+00   -5.719E+00   -5.736E+00   -5.752E+00   -5.768E+00
    -5.784E+00   -5.800E+00   -5.816E+00   -5.832E+00   -5.848E+00   -5.864E+00   -5.880E+00   -5.896E+00   -5.912E+00   -5.928E+00
    -5.945E+00   -5.961E+00   -5.977E+00   -5.993E+00   -6.009E+00   -6.025E+00   -6.041E+00   -6.057E+00   -6.073E+00   -6.089E+00
    -6.105E+00   -6.121E+00   -6.137E+00   -6.153E+00   -6.169E+00   -6.185E+00   -6.201E+00   -6.217E+00   -6.233E+00   -6.249E+00
    -6.265E+00   -6.281E+00   -6.296E+00   -6.312E+00   -6.328E+00   -6.344E+00   -6.360E+00   -6.376E+00
 Ala      Conc. = 2.35E+02
