 LCModel (Version 6.3-1L) Copyright: S.W. Provencher.          Ref.: Magn. Reson. Med. 30:672-679 (1993).                
 Slice#2 Row#6 Col#5  PD_24_press_2_raw_act
 36 lines in following concentration table = NCONC+1
    Conc.  %SD /Cr+PCr  Metabolite                                         
  252.100 117%   0.104 Ala                                                 
  172.210 288% 7.1E-02 Asp                                                 
 1.43E+03  41%   0.588 Cr                                                  
  997.682  61%   0.412 PCr                                                 
   65.118 483% 2.7E-02 GABA                                                
  313.455 102%   0.129 Glc                                                 
  198.289 293% 8.2E-02 Gln                                                 
 1.76E+03  38%   0.724 Glu                                                 
  978.216   6%   0.404 GPC                                                 
    0.000 999%   0.000 PCh                                                 
  728.489  28%   0.301 GSH                                                 
 2.77E+03  26%   1.141 Ins                                                 
    0.000 999%   0.000 Lac                                                 
 4.20E+03   6%   1.732 NAA                                                 
   99.085 295% 4.1E-02 NAAG                                                
  224.894  31% 9.3E-02 Scyllo                                              
  766.330  63%   0.316 Tau                                                 
  229.835 137% 9.5E-02 -CrCH2                                              
  978.216   6%   0.404 GPC+PCh                                             
 4.30E+03   5%   1.773 NAA+NAAG                                            
 2.42E+03   7%   1.000 Cr+PCr                                              
 1.95E+03  46%   0.806 Glu+Gln                                             
 4.84E+03  43%   1.996 Lip13a                                              
  272.376 349%   0.112 Lip13b                                              
 1.06E+03  59%   0.436 Lip09                                               
 1.94E+03  34%   0.800 MM09                                                
  883.632  45%   0.365 Lip20                                               
 4.20E+03  24%   1.733 MM20                                                
  588.619  68%   0.243 MM12                                                
 4.71E+03  20%   1.944 MM14                                                
    0.000 999%   0.000 MM17                                                
 5.11E+03  30%   2.108 Lip13a+Lip13b                                       
 1.04E+04  15%   4.295 MM14+Lip13a+Lip13b+MM12                             
 3.00E+03  20%   1.237 MM09+Lip09                                          
 5.08E+03  20%   2.098 MM20+Lip20                                          
   6 lines in following misc. output table
  FWHM = 0.046 ppm    S/N =   8                                            
  Data shift = 0.015 ppm                                                   
  Ph: -42 deg      -6.6 deg/ppm                                            
  alphaB,S = 7.9E-01,   7.4E+01                                            
   14 spline knots.   Ns = 6(1)                                            
  ( 9) 2 infls.   ( 3) 1 extrs.                                            
  498 points on ppm-axis = NY
      4.000000     3.992357     3.984714     3.977070     3.969427     3.961784     3.954141     3.946497     3.938854     3.931211
      3.923568     3.915925     3.908281     3.900638     3.892995     3.885352     3.877708     3.870065     3.862422     3.854779
      3.847136     3.839492     3.831849     3.824206     3.816563     3.808919     3.801276     3.793633     3.785990     3.778347
      3.770703     3.763060     3.755417     3.747774     3.740130     3.732487     3.724844     3.717201     3.709558     3.701914
      3.694271     3.686628     3.678985     3.671341     3.663698     3.656055     3.648412     3.640769     3.633125     3.625482
      3.617839     3.610196     3.602552     3.594909     3.587266     3.579623     3.571980     3.564336     3.556693     3.549050
      3.541407     3.533763     3.526120     3.518477     3.510834     3.503191     3.495547     3.487904     3.480261     3.472618
      3.464974     3.457331     3.449688     3.442045     3.434402     3.426758     3.419115     3.411472     3.403829     3.396185
      3.388542     3.380899     3.373256     3.365613     3.357969     3.350326     3.342683     3.335040     3.327396     3.319753
      3.312110     3.304467     3.296824     3.289180     3.281537     3.273894     3.266251     3.258607     3.250964     3.243321
      3.235678     3.228034     3.220391     3.212748     3.205105     3.197462     3.189818     3.182175     3.174532     3.166889
      3.159245     3.151602     3.143959     3.136316     3.128673     3.121029     3.113386     3.105743     3.098100     3.090456
      3.082813     3.075170     3.067527     3.059884     3.052240     3.044597     3.036954     3.029311     3.021667     3.014024
      3.006381     2.998738     2.991095     2.983451     2.975808     2.968165     2.960522     2.952878     2.945235     2.937592
      2.929949     2.922306     2.914662     2.907019     2.899376     2.891733     2.884089     2.876446     2.868803     2.861160
      2.853517     2.845873     2.838230     2.830587     2.822944     2.815300     2.807657     2.800014     2.792371     2.784728
      2.777084     2.769441     2.761798     2.754155     2.746511     2.738868     2.731225     2.723582     2.715939     2.708295
      2.700652     2.693009     2.685366     2.677722     2.670079     2.662436     2.654793     2.647150     2.639506     2.631863
      2.624220     2.616577     2.608933     2.601290     2.593647     2.586004     2.578361     2.570717     2.563074     2.555431
      2.547788     2.540144     2.532501     2.524858     2.517215     2.509572     2.501928     2.494285     2.486642     2.478999
      2.471355     2.463712     2.456069     2.448426     2.440783     2.433139     2.425496     2.417853     2.410210     2.402566
      2.394923     2.387280     2.379637     2.371994     2.364350     2.356707     2.349064     2.341421     2.333777     2.326134
      2.318491     2.310848     2.303205     2.295561     2.287918     2.280275     2.272632     2.264988     2.257345     2.249702
      2.242059     2.234416     2.226772     2.219129     2.211486     2.203843     2.196199     2.188556     2.180913     2.173270
      2.165627     2.157983     2.150340     2.142697     2.135054     2.127410     2.119767     2.112124     2.104481     2.096838
      2.089194     2.081551     2.073908     2.066265     2.058621     2.050978     2.043335     2.035692     2.028049     2.020405
      2.012762     2.005119     1.997476     1.989833     1.982190     1.974546     1.966903     1.959260     1.951617     1.943974
      1.936331     1.928688     1.921045     1.913402     1.905759     1.898115     1.890472     1.882829     1.875186     1.867543
      1.859900     1.852257     1.844614     1.836971     1.829327     1.821684     1.814041     1.806398     1.798755     1.791112
      1.783469     1.775826     1.768183     1.760540     1.752896     1.745253     1.737610     1.729967     1.722324     1.714681
      1.707038     1.699395     1.691752     1.684108     1.676465     1.668822     1.661179     1.653536     1.645893     1.638250
      1.630607     1.622964     1.615321     1.607677     1.600034     1.592391     1.584748     1.577105     1.569462     1.561819
      1.554176     1.546533     1.538890     1.531246     1.523603     1.515960     1.508317     1.500674     1.493031     1.485388
      1.477745     1.470102     1.462458     1.454815     1.447172     1.439529     1.431886     1.424243     1.416600     1.408957
      1.401314     1.393671     1.386027     1.378384     1.370741     1.363098     1.355455     1.347812     1.340169     1.332526
      1.324883     1.317240     1.309596     1.301953     1.294310     1.286667     1.279024     1.271381     1.263738     1.256095
      1.248452     1.240808     1.233165     1.225522     1.217879     1.210236     1.202593     1.194950     1.187307     1.179664
      1.172021     1.164377     1.156734     1.149091     1.141448     1.133805     1.126162     1.118519     1.110876     1.103233
      1.095590     1.087946     1.080303     1.072660     1.065017     1.057374     1.049731     1.042088     1.034445     1.026802
      1.019158     1.011515     1.003872     0.996229     0.988586     0.980943     0.973300     0.965657     0.958014     0.950371
      0.942727     0.935084     0.927441     0.919798     0.912155     0.904512     0.896869     0.889226     0.881583     0.873940
      0.866296     0.858653     0.851010     0.843367     0.835724     0.828081     0.820438     0.812795     0.805152     0.797508
      0.789865     0.782222     0.774579     0.766936     0.759293     0.751650     0.744007     0.736364     0.728721     0.721077
      0.713434     0.705791     0.698148     0.690505     0.682862     0.675219     0.667576     0.659933     0.652290     0.644646
      0.637003     0.629360     0.621717     0.614074     0.606431     0.598788     0.591145     0.583502     0.575858     0.568215
      0.560572     0.552929     0.545286     0.537643     0.530000     0.522357     0.514714     0.507071     0.499427     0.491784
      0.484141     0.476498     0.468855     0.461212     0.453569     0.445925     0.438282     0.430639     0.422996     0.415353
      0.407710     0.400067     0.392424     0.384780     0.377137     0.369494     0.361851     0.354208     0.346565     0.338922
      0.331278     0.323635     0.315992     0.308349     0.300706     0.293063     0.285420     0.277777     0.270133     0.262490
      0.254847     0.247204     0.239561     0.231918     0.224275     0.216631     0.208988     0.201345
 NY phased data points follow
  -1.70365E+02 -1.88043E+02 -1.46800E+02 -1.79904E+02 -1.34572E+02 -1.62172E+02 -1.13107E+02 -1.26978E+02 -9.30321E+01 -1.07148E+02
  -7.95154E+01 -1.02168E+02 -8.45477E+01 -1.15363E+02 -9.78625E+01 -1.27505E+02 -1.17242E+02 -1.47251E+02 -1.16851E+02 -1.52229E+02
  -1.23307E+02 -1.44815E+02 -1.15506E+02 -1.42339E+02 -1.10296E+02 -1.23704E+02 -1.00106E+02 -1.23584E+02 -9.50281E+01 -1.19884E+02
  -8.65472E+01 -1.35184E+02 -9.06039E+01 -1.23154E+02 -1.02014E+02 -1.23696E+02 -9.59364E+01 -1.10945E+02 -9.43234E+01 -1.14470E+02
  -8.49395E+01 -1.14921E+02 -8.80090E+01 -9.71695E+01 -8.75228E+01 -9.46741E+01 -7.62184E+01 -8.24443E+01 -7.72695E+01 -9.50672E+01
  -8.68011E+01 -9.72445E+01 -8.03769E+01 -1.10157E+02 -7.09436E+01 -9.24156E+01 -7.39047E+01 -9.77624E+01 -7.94318E+01 -1.10415E+02
  -7.92631E+01 -9.55535E+01 -8.60226E+01 -1.01933E+02 -8.46991E+01 -1.04040E+02 -8.18294E+01 -1.11331E+02 -8.22108E+01 -9.35685E+01
  -8.04809E+01 -9.13347E+01 -5.70098E+01 -8.29195E+01 -6.76180E+01 -7.74509E+01 -7.73886E+01 -8.81630E+01 -7.18215E+01 -8.42150E+01
  -6.53455E+01 -8.63466E+01 -6.20003E+01 -7.85476E+01 -6.40958E+01 -6.87898E+01 -5.57253E+01 -7.89259E+01 -5.68180E+01 -8.40635E+01
  -5.29674E+01 -7.21346E+01 -6.69987E+01 -6.57584E+01 -5.95690E+01 -6.18073E+01 -4.68858E+01 -6.56870E+01 -3.40563E+01 -3.02170E+01
   9.98662E-01  3.71377E+00  2.63673E+01  3.24148E+01  2.90666E+01 -1.10632E+01  1.64667E+00 -4.36309E+01 -3.33652E+01 -5.78723E+01
  -3.07834E+01 -6.03553E+01 -4.26622E+01 -6.96246E+01 -5.21279E+01 -6.50333E+01 -5.92601E+01 -6.98022E+01 -4.95326E+01 -8.21791E+01
  -5.04576E+01 -5.54879E+01 -3.28511E+01 -3.36009E+01 -6.03247E+00  4.57840E+00  4.28660E+01  3.34443E+01  2.76882E+01  2.10904E+00
   1.15436E+01 -3.06265E+01 -2.56242E+01 -4.94779E+01 -2.93578E+01 -5.38186E+01 -4.12612E+01 -4.59538E+01 -4.13415E+01 -5.20821E+01
  -4.18826E+01 -5.55420E+01 -5.39599E+01 -5.57061E+01 -3.55834E+01 -6.62130E+01 -4.73865E+01 -4.86882E+01 -3.75243E+01 -6.25229E+01
  -4.33939E+01 -5.19562E+01 -4.66800E+01 -4.79232E+01 -4.60013E+01 -4.37317E+01 -5.04672E+01 -4.70017E+01 -3.61558E+01 -5.60949E+01
  -3.26069E+01 -4.54718E+01 -3.70410E+01 -5.88049E+01 -4.61043E+01 -5.16444E+01 -4.57582E+01 -5.87580E+01 -4.28292E+01 -4.50136E+01
  -3.84419E+01 -5.07746E+01 -4.86935E+01 -5.07058E+01 -3.64490E+01 -6.54523E+01 -4.71029E+01 -6.18344E+01 -5.89268E+01 -5.26611E+01
  -4.73324E+01 -4.90950E+01 -5.86800E+01 -6.80921E+01 -4.65842E+01 -5.38532E+01 -4.84943E+01 -4.42418E+01 -3.26202E+01 -4.95096E+01
  -2.77951E+01 -2.35933E+01 -1.82378E+01 -3.86460E+01 -3.86967E+01 -3.89411E+01 -3.33591E+01 -4.37336E+01 -3.22341E+01 -4.02124E+01
  -3.23237E+01 -3.52213E+01 -2.03340E+01 -4.03844E+01 -2.46787E+01 -3.49171E+01 -3.08707E+01 -4.69442E+01 -2.40979E+01 -4.37764E+01
  -2.97313E+01 -3.79305E+01 -2.41390E+01 -2.01130E+01 -1.23669E+01 -2.51593E+01 -2.15684E+01 -2.50455E+01 -8.36786E+00 -4.44085E+01
  -2.62180E+01 -3.74592E+01 -2.86302E+01 -3.77195E+01 -6.75598E+00 -3.01356E+01 -4.68000E+00 -2.18522E+01 -9.11866E+00 -2.39752E+01
  -1.20889E+01 -9.51041E+00 -1.73132E+01  2.89345E-01 -8.13586E+00 -2.04279E+01 -4.05093E+00 -1.96994E+01 -2.35593E+01 -1.92045E+01
  -1.35897E+01 -1.62772E+01 -2.44188E+01 -2.11984E+01 -1.19451E+01 -8.71469E+00 -3.76970E+00 -1.25770E+00 -6.81454E+00 -1.19163E+01
  -8.45772E+00 -1.21789E+01 -2.52067E+00 -3.55009E+00  1.59786E+01  2.41715E+01  4.72135E+01  6.88255E+01  1.01402E+02  1.33048E+02
   1.39004E+02  1.30325E+02  1.11452E+02  8.22678E+01  5.13721E+01  2.02174E+01  2.73837E+01 -6.61433E+00  2.32048E+00 -1.41187E+01
  -5.42776E+00 -7.15962E+00 -1.10477E+01 -1.80247E+01 -2.54659E+01 -2.57410E+01 -1.97233E+01 -2.19782E+01 -1.98735E+01 -3.36713E+01
  -6.16913E-01 -2.76513E+01 -8.11193E+00 -2.42435E+01 -1.68711E+01 -3.40009E+01 -2.25262E+01 -1.54623E+01 -1.16256E+01 -2.57442E+01
  -2.09168E+01 -2.92023E+01 -2.38380E+01 -3.00233E+01 -1.67027E+01 -3.36012E+01 -1.94460E+01 -3.30056E+01 -2.03487E+01 -3.31767E+01
  -9.83651E+00 -2.13370E+01 -1.23445E+01 -3.51718E+01 -1.93766E+01 -3.67263E+01 -1.62219E+01 -3.57032E+01 -2.35164E+01 -3.82062E+01
  -1.01635E+01 -3.08092E+01  5.20563E-01 -2.41558E+01 -5.61163E-01 -1.17819E+01 -4.71387E-01 -3.84335E+00  1.56466E+00 -6.25867E+00
   2.11892E+01  9.62012E+00  1.09679E+01  7.79885E+00  2.58399E+01  1.97132E+01  1.15490E+01  1.84038E+01  2.37136E+01  3.30199E+00
   2.66156E+01  1.30604E+01  1.66382E+01  8.28322E+00  1.48234E+01  8.30634E+00  1.42884E+01  2.86331E+00  1.55830E+01  5.37068E+00
   1.70238E+01  8.85209E+00  1.35199E+01  5.27950E+00  1.71905E+01  7.21370E+00  2.20366E+01  1.08657E+01  1.55754E+01  6.81693E+00
   2.13334E+01  8.98649E+00  1.69521E+01  1.30935E+01  2.21036E+01  6.43924E+00  8.08239E+00  1.87138E+01  2.89962E+00  1.61352E+01
   1.48860E+01  1.21818E+01  1.47656E+01  4.98249E+00  4.07023E+00  6.26178E+00  9.08549E+00  2.72575E-01  3.39655E+00  2.71253E+00
   1.67815E+00 -2.54274E+00  9.89623E+00 -3.40389E-01  4.29434E+00 -1.14916E+01 -1.81835E+00  5.07550E+00 -1.65248E+00 -1.05110E+01
  -2.64919E+00 -1.73078E+01  1.20837E+00 -2.77006E+00 -7.85340E+00 -6.10049E+00  2.20526E+00 -2.15792E+00  1.27707E+00 -1.16852E+00
   1.24320E+01  2.96259E-01  1.31126E+01  7.23465E+00  3.57583E+00 -8.29318E+00  7.45943E+00 -7.53046E+00 -6.54692E+00 -1.62227E+00
   1.34101E+00  1.02298E+01  1.30821E+01  7.50729E+00  1.83688E+01  8.15053E-02  1.46288E+01  1.57536E+01  1.46585E+01  8.81162E+00
   1.67792E+01 -1.05480E+00  1.59382E+01  1.21028E+01  2.29145E+00  1.42492E+01 -7.82533E-01  1.98040E+00  6.53158E+00  2.99481E+00
   1.18763E+01  1.42712E+01  1.43146E+00  3.24907E+00  9.79465E+00  9.94341E-01  1.39337E+01  3.98184E+00  2.18672E+00 -1.46199E+00
   7.98968E+00  2.77910E+00  4.21376E+00  3.95886E+00  1.35982E+01 -8.95564E-01 -1.45399E-01  9.38404E-01  7.40410E-01 -4.64215E-01
   7.69247E+00 -7.73821E+00  3.50225E+00 -6.99223E+00 -3.14301E-01 -3.83890E+00  8.29048E+00 -4.15342E+00  4.53302E+00 -4.93909E+00
  -4.28744E-01 -1.29082E+01 -7.17015E-01  3.89608E+00  1.01469E+01 -2.41495E+00  5.76043E+00 -3.95614E+00  2.83447E+00 -4.99977E+00
   8.17262E+00 -2.60206E+00 -2.16763E-01 -4.64625E+00  1.25997E+00  3.53798E+00  7.93933E+00 -2.32845E-01  5.48508E+00 -4.23295E-01
  -5.25494E-01  2.50938E+00  1.21759E+00 -5.53376E+00  5.40721E+00  7.46562E+00  1.31381E+01  7.64129E+00  2.02874E+00 -6.55292E+00
   2.26566E+00  3.76402E+00 -7.47579E+00  4.79188E+00  1.31490E+01 -2.14790E+00  6.42600E+00 -1.94242E+00  1.22251E+00 -1.90040E+00
   1.68716E+00 -1.03954E+01  3.62357E+00  1.53596E+01  1.25050E+01  1.15277E+00  8.09900E-01 -1.13416E+00
 NY points of the fit to the data follow
  -1.53538E+02 -1.52852E+02 -1.51517E+02 -1.49081E+02 -1.44776E+02 -1.38044E+02 -1.28660E+02 -1.17774E+02 -1.06790E+02 -9.74956E+01
  -9.19365E+01 -9.14344E+01 -9.57337E+01 -1.03017E+02 -1.10911E+02 -1.17779E+02 -1.23009E+02 -1.26608E+02 -1.29006E+02 -1.30185E+02
  -1.30032E+02 -1.29465E+02 -1.28877E+02 -1.27756E+02 -1.25458E+02 -1.22287E+02 -1.18408E+02 -1.13875E+02 -1.09250E+02 -1.05641E+02
  -1.03755E+02 -1.03437E+02 -1.04253E+02 -1.05798E+02 -1.07370E+02 -1.08797E+02 -1.10352E+02 -1.11538E+02 -1.11880E+02 -1.11804E+02
  -1.11004E+02 -1.08711E+02 -1.04718E+02 -9.96847E+01 -9.42601E+01 -8.90582E+01 -8.52647E+01 -8.40376E+01 -8.54530E+01 -8.87999E+01
  -9.28157E+01 -9.62416E+01 -9.84325E+01 -9.93439E+01 -9.90915E+01 -9.76139E+01 -9.51770E+01 -9.24499E+01 -8.99897E+01 -8.82669E+01
  -8.75476E+01 -8.77404E+01 -8.85486E+01 -8.93373E+01 -8.96250E+01 -8.92546E+01 -8.82569E+01 -8.68050E+01 -8.51842E+01 -8.34002E+01
  -8.14280E+01 -7.95283E+01 -7.79203E+01 -7.67335E+01 -7.60755E+01 -7.60531E+01 -7.66088E+01 -7.73581E+01 -7.80496E+01 -7.82874E+01
  -7.73639E+01 -7.52417E+01 -7.27434E+01 -7.02921E+01 -6.81545E+01 -6.69231E+01 -6.70057E+01 -6.82585E+01 -7.00546E+01 -7.16857E+01
  -7.26415E+01 -7.28778E+01 -7.26793E+01 -7.22953E+01 -7.15295E+01 -7.00297E+01 -6.67896E+01 -5.81383E+01 -4.37685E+01 -2.56860E+01
  -5.39274E+00  1.40875E+01  2.74267E+01  2.99825E+01  2.14586E+01  5.68401E+00 -1.24012E+01 -2.85220E+01 -4.04240E+01 -4.91572E+01
  -5.60890E+01 -5.95168E+01 -6.03649E+01 -6.05199E+01 -6.04633E+01 -6.03266E+01 -6.00857E+01 -5.97475E+01 -5.92374E+01 -5.83534E+01
  -5.62653E+01 -4.97702E+01 -3.76842E+01 -2.19193E+01 -3.92260E+00  1.39520E+01  2.72999E+01  3.17560E+01  2.62236E+01  1.35676E+01
  -1.95085E+00 -1.67321E+01 -2.84945E+01 -3.76310E+01 -4.54994E+01 -5.02916E+01 -5.16679E+01 -5.14876E+01 -5.03885E+01 -4.89174E+01
  -4.75852E+01 -4.66081E+01 -4.60871E+01 -4.60006E+01 -4.61525E+01 -4.64091E+01 -4.67028E+01 -4.69569E+01 -4.72075E+01 -4.73857E+01
  -4.74675E+01 -4.74662E+01 -4.73683E+01 -4.71572E+01 -4.68654E+01 -4.67066E+01 -4.68262E+01 -4.71895E+01 -4.77239E+01 -4.81904E+01
  -4.83673E+01 -4.81162E+01 -4.74124E+01 -4.65052E+01 -4.57937E+01 -4.55986E+01 -4.59575E+01 -4.65957E+01 -4.72129E+01 -4.77835E+01
  -4.84066E+01 -4.91748E+01 -4.99433E+01 -5.04910E+01 -5.07634E+01 -5.07946E+01 -5.04959E+01 -4.98481E+01 -4.91353E+01 -4.86590E+01
  -4.84439E+01 -4.84256E+01 -4.83794E+01 -4.79514E+01 -4.71048E+01 -4.58226E+01 -4.38259E+01 -4.11005E+01 -3.79717E+01 -3.51418E+01
  -3.32197E+01 -3.23492E+01 -3.24377E+01 -3.30679E+01 -3.37724E+01 -3.44003E+01 -3.48293E+01 -3.48054E+01 -3.41676E+01 -3.29723E+01
  -3.13801E+01 -2.96524E+01 -2.80341E+01 -2.68817E+01 -2.66315E+01 -2.73658E+01 -2.88882E+01 -3.09246E+01 -3.29706E+01 -3.43226E+01
  -3.43811E+01 -3.32021E+01 -3.09432E+01 -2.79654E+01 -2.50439E+01 -2.33207E+01 -2.36085E+01 -2.58601E+01 -2.92793E+01 -3.27317E+01
  -3.52360E+01 -3.61191E+01 -3.51282E+01 -3.24585E+01 -2.87117E+01 -2.50961E+01 -2.24174E+01 -2.08698E+01 -2.02420E+01 -2.00677E+01
  -1.99629E+01 -1.94904E+01 -1.83811E+01 -1.68494E+01 -1.53906E+01 -1.43992E+01 -1.42105E+01 -1.49429E+01 -1.62235E+01 -1.74762E+01
  -1.81728E+01 -1.79553E+01 -1.66742E+01 -1.45534E+01 -1.21524E+01 -9.98635E+00 -8.41273E+00 -7.55395E+00 -7.29722E+00 -7.21127E+00
  -6.73988E+00 -5.71393E+00 -4.04566E+00 -1.01152E+00  7.07447E+00  2.43477E+01  4.81532E+01  7.59221E+01  1.04775E+02  1.28363E+02
   1.38494E+02  1.31173E+02  1.09584E+02  8.10903E+01  5.27342E+01  2.97770E+01  1.32086E+01  8.22700E-02 -9.35467E+00 -1.31099E+01
  -1.46770E+01 -1.55870E+01 -1.61140E+01 -1.64592E+01 -1.67877E+01 -1.71644E+01 -1.76182E+01 -1.81387E+01 -1.86847E+01 -1.92102E+01
  -1.96889E+01 -2.00918E+01 -2.04036E+01 -2.06391E+01 -2.08195E+01 -2.09660E+01 -2.10912E+01 -2.11949E+01 -2.12790E+01 -2.13469E+01
  -2.13928E+01 -2.14136E+01 -2.14121E+01 -2.13937E+01 -2.13577E+01 -2.13025E+01 -2.12280E+01 -2.11301E+01 -2.10031E+01 -2.08441E+01
  -2.06488E+01 -2.04120E+01 -2.01301E+01 -1.97987E+01 -1.94113E+01 -1.89590E+01 -1.84312E+01 -1.78170E+01 -1.71041E+01 -1.62806E+01
  -1.53362E+01 -1.42606E+01 -1.30457E+01 -1.16855E+01 -1.01771E+01 -8.52113E+00 -6.72215E+00 -4.78795E+00 -2.72833E+00 -5.50600E-01
   1.75476E+00  4.23224E+00  6.77814E+00  9.15630E+00  1.12216E+01  1.28200E+01  1.37770E+01  1.40248E+01  1.36994E+01  1.31744E+01
   1.28725E+01  1.29355E+01  1.33816E+01  1.41226E+01  1.49783E+01  1.57557E+01  1.61627E+01  1.59878E+01  1.53213E+01  1.43501E+01
   1.33060E+01  1.23553E+01  1.15020E+01  1.07947E+01  1.03634E+01  1.01771E+01  1.02005E+01  1.04101E+01  1.07793E+01  1.12742E+01
   1.18524E+01  1.24642E+01  1.30548E+01  1.35682E+01  1.39519E+01  1.41619E+01  1.41672E+01  1.39525E+01  1.35191E+01  1.28833E+01
   1.20727E+01  1.11225E+01  1.00705E+01  8.95332E+00  7.80375E+00  6.64910E+00  5.51099E+00  4.40611E+00  3.34717E+00  2.34408E+00
   1.40456E+00  5.34827E-01 -2.60152E-01 -9.76284E-01 -1.61040E+00 -2.16014E+00 -2.62411E+00 -3.00163E+00 -3.29271E+00 -3.49761E+00
  -3.61690E+00 -3.65114E+00 -3.60106E+00 -3.46727E+00 -3.25033E+00 -2.95055E+00 -2.56836E+00 -2.10436E+00 -1.55971E+00 -9.36200E-01
  -2.36607E-01  5.35158E-01  1.37351E+00  2.27105E+00  3.21816E+00  4.20320E+00  5.21231E+00  6.22973E+00  7.23782E+00  8.21760E+00
   9.14921E+00  1.00129E+01  1.07893E+01  1.14611E+01  1.20126E+01  1.24314E+01  1.27084E+01  1.28389E+01  1.28221E+01  1.26617E+01
   1.23652E+01  1.19439E+01  1.14120E+01  1.07862E+01  1.00849E+01  9.32698E+00  8.53143E+00  7.71644E+00  6.89886E+00  6.09384E+00
   5.31432E+00  4.57092E+00  3.87178E+00  3.22285E+00  2.62792E+00  2.08900E+00  1.60632E+00  1.17884E+00  8.04361E-01  4.80077E-01
   2.02623E-01 -3.15713E-02 -2.26339E-01 -3.85452E-01 -5.12636E-01 -6.11273E-01 -6.84565E-01 -7.35376E-01 -7.66445E-01 -7.80170E-01
  -7.78743E-01 -7.63971E-01 -7.37523E-01 -7.00822E-01 -6.55253E-01 -6.01949E-01 -5.41948E-01 -4.76035E-01 -4.05000E-01 -3.29502E-01
  -2.50242E-01 -1.67730E-01 -8.24568E-02  5.26680E-03  9.50924E-02  1.86758E-01  2.79935E-01  3.74461E-01  4.70148E-01  5.66921E-01
   6.64582E-01  7.63009E-01  8.62027E-01  9.61611E-01  1.06168E+00  1.16224E+00  1.26314E+00  1.36433E+00  1.46573E+00  1.56737E+00
   1.66924E+00  1.77134E+00  1.87358E+00  1.97595E+00  2.07841E+00  2.18105E+00  2.28384E+00  2.38682E+00  2.48987E+00  2.59306E+00
   2.69638E+00  2.79993E+00  2.90368E+00  3.00766E+00  3.11181E+00  3.21620E+00  3.32086E+00  3.42588E+00  3.53123E+00  3.63696E+00
   3.74301E+00  3.84951E+00  3.95648E+00  4.06404E+00  4.17213E+00  4.28083E+00  4.39013E+00  4.50019E+00
 NY background values follow
    -1.597E+02   -1.587E+02   -1.576E+02   -1.566E+02   -1.555E+02   -1.545E+02   -1.534E+02   -1.523E+02   -1.513E+02   -1.502E+02
    -1.492E+02   -1.481E+02   -1.471E+02   -1.460E+02   -1.450E+02   -1.439E+02   -1.429E+02   -1.418E+02   -1.408E+02   -1.398E+02
    -1.387E+02   -1.377E+02   -1.366E+02   -1.356E+02   -1.346E+02   -1.336E+02   -1.326E+02   -1.315E+02   -1.305E+02   -1.295E+02
    -1.285E+02   -1.275E+02   -1.265E+02   -1.255E+02   -1.245E+02   -1.235E+02   -1.226E+02   -1.216E+02   -1.206E+02   -1.197E+02
    -1.187E+02   -1.177E+02   -1.168E+02   -1.159E+02   -1.149E+02   -1.140E+02   -1.131E+02   -1.121E+02   -1.112E+02   -1.103E+02
    -1.094E+02   -1.085E+02   -1.076E+02   -1.068E+02   -1.059E+02   -1.050E+02   -1.042E+02   -1.033E+02   -1.024E+02   -1.016E+02
    -1.008E+02   -9.993E+01   -9.911E+01   -9.829E+01   -9.748E+01   -9.668E+01   -9.588E+01   -9.509E+01   -9.430E+01   -9.353E+01
    -9.275E+01   -9.199E+01   -9.123E+01   -9.048E+01   -8.973E+01   -8.900E+01   -8.827E+01   -8.754E+01   -8.682E+01   -8.611E+01
    -8.541E+01   -8.471E+01   -8.402E+01   -8.334E+01   -8.266E+01   -8.200E+01   -8.133E+01   -8.068E+01   -8.003E+01   -7.939E+01
    -7.876E+01   -7.813E+01   -7.751E+01   -7.690E+01   -7.630E+01   -7.570E+01   -7.511E+01   -7.452E+01   -7.394E+01   -7.337E+01
    -7.281E+01   -7.225E+01   -7.170E+01   -7.115E+01   -7.061E+01   -7.008E+01   -6.955E+01   -6.903E+01   -6.852E+01   -6.801E+01
    -6.750E+01   -6.701E+01   -6.651E+01   -6.603E+01   -6.555E+01   -6.507E+01   -6.460E+01   -6.414E+01   -6.368E+01   -6.322E+01
    -6.277E+01   -6.233E+01   -6.189E+01   -6.145E+01   -6.102E+01   -6.060E+01   -6.018E+01   -5.976E+01   -5.935E+01   -5.895E+01
    -5.854E+01   -5.814E+01   -5.775E+01   -5.736E+01   -5.698E+01   -5.659E+01   -5.622E+01   -5.584E+01   -5.547E+01   -5.511E+01
    -5.474E+01   -5.438E+01   -5.403E+01   -5.368E+01   -5.333E+01   -5.298E+01   -5.264E+01   -5.230E+01   -5.196E+01   -5.163E+01
    -5.130E+01   -5.097E+01   -5.065E+01   -5.033E+01   -5.001E+01   -4.969E+01   -4.938E+01   -4.907E+01   -4.876E+01   -4.845E+01
    -4.815E+01   -4.785E+01   -4.755E+01   -4.725E+01   -4.695E+01   -4.666E+01   -4.637E+01   -4.608E+01   -4.579E+01   -4.550E+01
    -4.522E+01   -4.494E+01   -4.465E+01   -4.437E+01   -4.409E+01   -4.382E+01   -4.354E+01   -4.326E+01   -4.299E+01   -4.272E+01
    -4.244E+01   -4.217E+01   -4.190E+01   -4.163E+01   -4.136E+01   -4.109E+01   -4.083E+01   -4.056E+01   -4.030E+01   -4.003E+01
    -3.977E+01   -3.951E+01   -3.925E+01   -3.899E+01   -3.874E+01   -3.848E+01   -3.823E+01   -3.798E+01   -3.773E+01   -3.749E+01
    -3.724E+01   -3.700E+01   -3.676E+01   -3.652E+01   -3.628E+01   -3.605E+01   -3.582E+01   -3.559E+01   -3.537E+01   -3.514E+01
    -3.492E+01   -3.470E+01   -3.449E+01   -3.428E+01   -3.407E+01   -3.386E+01   -3.366E+01   -3.346E+01   -3.326E+01   -3.307E+01
    -3.288E+01   -3.269E+01   -3.251E+01   -3.233E+01   -3.215E+01   -3.198E+01   -3.181E+01   -3.165E+01   -3.149E+01   -3.133E+01
    -3.118E+01   -3.103E+01   -3.088E+01   -3.074E+01   -3.060E+01   -3.046E+01   -3.033E+01   -3.019E+01   -3.007E+01   -2.994E+01
    -2.982E+01   -2.970E+01   -2.958E+01   -2.947E+01   -2.935E+01   -2.924E+01   -2.913E+01   -2.903E+01   -2.892E+01   -2.882E+01
    -2.872E+01   -2.862E+01   -2.853E+01   -2.843E+01   -2.834E+01   -2.825E+01   -2.815E+01   -2.807E+01   -2.798E+01   -2.789E+01
    -2.780E+01   -2.772E+01   -2.763E+01   -2.755E+01   -2.747E+01   -2.738E+01   -2.730E+01   -2.722E+01   -2.714E+01   -2.706E+01
    -2.698E+01   -2.690E+01   -2.681E+01   -2.673E+01   -2.665E+01   -2.657E+01   -2.649E+01   -2.641E+01   -2.633E+01   -2.624E+01
    -2.616E+01   -2.608E+01   -2.600E+01   -2.591E+01   -2.583E+01   -2.574E+01   -2.566E+01   -2.557E+01   -2.549E+01   -2.540E+01
    -2.531E+01   -2.523E+01   -2.514E+01   -2.505E+01   -2.496E+01   -2.487E+01   -2.477E+01   -2.468E+01   -2.459E+01   -2.449E+01
    -2.440E+01   -2.430E+01   -2.420E+01   -2.410E+01   -2.400E+01   -2.390E+01   -2.380E+01   -2.370E+01   -2.359E+01   -2.348E+01
    -2.338E+01   -2.327E+01   -2.316E+01   -2.305E+01   -2.293E+01   -2.282E+01   -2.270E+01   -2.258E+01   -2.246E+01   -2.234E+01
    -2.222E+01   -2.210E+01   -2.197E+01   -2.184E+01   -2.171E+01   -2.158E+01   -2.145E+01   -2.132E+01   -2.119E+01   -2.105E+01
    -2.092E+01   -2.078E+01   -2.064E+01   -2.050E+01   -2.036E+01   -2.022E+01   -2.007E+01   -1.993E+01   -1.978E+01   -1.964E+01
    -1.949E+01   -1.934E+01   -1.919E+01   -1.904E+01   -1.889E+01   -1.874E+01   -1.858E+01   -1.843E+01   -1.827E+01   -1.812E+01
    -1.796E+01   -1.781E+01   -1.765E+01   -1.749E+01   -1.733E+01   -1.717E+01   -1.701E+01   -1.685E+01   -1.669E+01   -1.653E+01
    -1.637E+01   -1.621E+01   -1.604E+01   -1.588E+01   -1.572E+01   -1.555E+01   -1.539E+01   -1.522E+01   -1.506E+01   -1.489E+01
    -1.473E+01   -1.456E+01   -1.440E+01   -1.423E+01   -1.406E+01   -1.389E+01   -1.373E+01   -1.356E+01   -1.339E+01   -1.322E+01
    -1.305E+01   -1.288E+01   -1.271E+01   -1.254E+01   -1.237E+01   -1.220E+01   -1.203E+01   -1.186E+01   -1.169E+01   -1.152E+01
    -1.135E+01   -1.118E+01   -1.101E+01   -1.084E+01   -1.066E+01   -1.049E+01   -1.032E+01   -1.015E+01   -9.973E+00   -9.800E+00
    -9.626E+00   -9.453E+00   -9.280E+00   -9.106E+00   -8.932E+00   -8.759E+00   -8.585E+00   -8.411E+00   -8.236E+00   -8.062E+00
    -7.888E+00   -7.714E+00   -7.540E+00   -7.366E+00   -7.192E+00   -7.018E+00   -6.844E+00   -6.671E+00   -6.498E+00   -6.325E+00
    -6.153E+00   -5.981E+00   -5.809E+00   -5.638E+00   -5.467E+00   -5.297E+00   -5.127E+00   -4.958E+00   -4.789E+00   -4.622E+00
    -4.454E+00   -4.288E+00   -4.122E+00   -3.958E+00   -3.794E+00   -3.630E+00   -3.468E+00   -3.307E+00   -3.147E+00   -2.987E+00
    -2.829E+00   -2.672E+00   -2.516E+00   -2.361E+00   -2.207E+00   -2.055E+00   -1.903E+00   -1.753E+00   -1.605E+00   -1.458E+00
    -1.312E+00   -1.167E+00   -1.024E+00   -8.830E-01   -7.431E-01   -6.045E-01   -4.673E-01   -3.315E-01   -1.969E-01   -6.363E-02
     6.844E-02    1.993E-01    3.291E-01    4.577E-01    5.853E-01    7.119E-01    8.375E-01    9.621E-01    1.086E+00    1.209E+00
     1.331E+00    1.452E+00    1.572E+00    1.692E+00    1.811E+00    1.930E+00    2.048E+00    2.165E+00    2.282E+00    2.398E+00
     2.514E+00    2.630E+00    2.745E+00    2.860E+00    2.974E+00    3.089E+00    3.203E+00    3.317E+00    3.431E+00    3.545E+00
     3.658E+00    3.772E+00    3.886E+00    4.000E+00    4.114E+00    4.228E+00    4.342E+00    4.457E+00
 Ala      Conc. = 2.52E+02
