 LCModel (Version 6.3-1L) Copyright: S.W. Provencher.          Ref.: Magn. Reson. Med. 30:672-679 (1993).                
 Slice#2 Row#3 Col#11  PD_24_press_2_raw_act
 36 lines in following concentration table = NCONC+1
    Conc.  %SD /Cr+PCr  Metabolite                                         
  172.738 106%   0.625 Ala                                                 
   43.818 166%   0.158 Asp                                                 
    0.000 999%   0.000 Cr                                                  
  276.557  27%   1.000 PCr                                                 
   22.559 194% 8.2E-02 GABA                                                
   35.024 125%   0.127 Glc                                                 
  577.905  65%   2.090 Gln                                                 
  646.403  66%   2.337 Glu                                                 
  112.093  25%   0.405 GPC                                                 
    0.000 999%   0.000 PCh                                                 
  103.922 102%   0.376 GSH                                                 
  561.995  57%   2.032 Ins                                                 
  236.798  89%   0.856 Lac                                                 
  564.867  15%   2.042 NAA                                                 
    0.000 999%   0.000 NAAG                                                
   24.735  56% 8.9E-02 Scyllo                                              
   77.927  92%   0.282 Tau                                                 
  129.392  63%   0.468 -CrCH2                                              
  112.093  25%   0.405 GPC+PCh                                             
  564.867  15%   2.042 NAA+NAAG                                            
  276.557  27%   1.000 Cr+PCr                                              
 1.22E+03  51%   4.427 Glu+Gln                                             
    0.000 999%   0.000 Lip13a                                              
   59.725 314%   0.216 Lip13b                                              
    7.506 866% 2.7E-02 Lip09                                               
 1.49E+03  17%   5.375 MM09                                                
    3.530 999% 1.3E-02 Lip20                                               
    0.000 999%   0.000 MM20                                                
  574.967  43%   2.079 MM12                                                
 5.35E+03  11%  19.343 MM14                                                
 1.87E+03  25%   6.778 MM17                                                
   59.725 314%   0.216 Lip13a+Lip13b                                       
 5.98E+03  10%  21.638 MM14+Lip13a+Lip13b+MM12                             
 1.49E+03  17%   5.403 MM09+Lip09                                          
    3.530 999% 1.3E-02 MM20+Lip20                                          
   6 lines in following misc. output table
  FWHM = 0.061 ppm    S/N =   3                                            
  Data shift = 0.038 ppm                                                   
  Ph: -98 deg     -58.7 deg/ppm                                            
  alphaB,S = 8.5E+01,   7.7E+01                                            
   14 spline knots.   Ns = 8(1)                                            
  (11) 2 infls.   (15) 2 extrs.                                            
  498 points on ppm-axis = NY
      4.000000     3.992357     3.984714     3.977070     3.969427     3.961784     3.954141     3.946497     3.938854     3.931211
      3.923568     3.915925     3.908281     3.900638     3.892995     3.885352     3.877708     3.870065     3.862422     3.854779
      3.847136     3.839492     3.831849     3.824206     3.816563     3.808919     3.801276     3.793633     3.785990     3.778347
      3.770703     3.763060     3.755417     3.747774     3.740130     3.732487     3.724844     3.717201     3.709558     3.701914
      3.694271     3.686628     3.678985     3.671341     3.663698     3.656055     3.648412     3.640769     3.633125     3.625482
      3.617839     3.610196     3.602552     3.594909     3.587266     3.579623     3.571980     3.564336     3.556693     3.549050
      3.541407     3.533763     3.526120     3.518477     3.510834     3.503191     3.495547     3.487904     3.480261     3.472618
      3.464974     3.457331     3.449688     3.442045     3.434402     3.426758     3.419115     3.411472     3.403829     3.396185
      3.388542     3.380899     3.373256     3.365613     3.357969     3.350326     3.342683     3.335040     3.327396     3.319753
      3.312110     3.304467     3.296824     3.289180     3.281537     3.273894     3.266251     3.258607     3.250964     3.243321
      3.235678     3.228034     3.220391     3.212748     3.205105     3.197462     3.189818     3.182175     3.174532     3.166889
      3.159245     3.151602     3.143959     3.136316     3.128673     3.121029     3.113386     3.105743     3.098100     3.090456
      3.082813     3.075170     3.067527     3.059884     3.052240     3.044597     3.036954     3.029311     3.021667     3.014024
      3.006381     2.998738     2.991095     2.983451     2.975808     2.968165     2.960522     2.952878     2.945235     2.937592
      2.929949     2.922306     2.914662     2.907019     2.899376     2.891733     2.884089     2.876446     2.868803     2.861160
      2.853517     2.845873     2.838230     2.830587     2.822944     2.815300     2.807657     2.800014     2.792371     2.784728
      2.777084     2.769441     2.761798     2.754155     2.746511     2.738868     2.731225     2.723582     2.715939     2.708295
      2.700652     2.693009     2.685366     2.677722     2.670079     2.662436     2.654793     2.647150     2.639506     2.631863
      2.624220     2.616577     2.608933     2.601290     2.593647     2.586004     2.578361     2.570717     2.563074     2.555431
      2.547788     2.540144     2.532501     2.524858     2.517215     2.509572     2.501928     2.494285     2.486642     2.478999
      2.471355     2.463712     2.456069     2.448426     2.440783     2.433139     2.425496     2.417853     2.410210     2.402566
      2.394923     2.387280     2.379637     2.371994     2.364350     2.356707     2.349064     2.341421     2.333777     2.326134
      2.318491     2.310848     2.303205     2.295561     2.287918     2.280275     2.272632     2.264988     2.257345     2.249702
      2.242059     2.234416     2.226772     2.219129     2.211486     2.203843     2.196199     2.188556     2.180913     2.173270
      2.165627     2.157983     2.150340     2.142697     2.135054     2.127410     2.119767     2.112124     2.104481     2.096838
      2.089194     2.081551     2.073908     2.066265     2.058621     2.050978     2.043335     2.035692     2.028049     2.020405
      2.012762     2.005119     1.997476     1.989833     1.982190     1.974546     1.966903     1.959260     1.951617     1.943974
      1.936331     1.928688     1.921045     1.913402     1.905759     1.898115     1.890472     1.882829     1.875186     1.867543
      1.859900     1.852257     1.844614     1.836971     1.829327     1.821684     1.814041     1.806398     1.798755     1.791112
      1.783469     1.775826     1.768183     1.760540     1.752896     1.745253     1.737610     1.729967     1.722324     1.714681
      1.707038     1.699395     1.691752     1.684108     1.676465     1.668822     1.661179     1.653536     1.645893     1.638250
      1.630607     1.622964     1.615321     1.607677     1.600034     1.592391     1.584748     1.577105     1.569462     1.561819
      1.554176     1.546533     1.538890     1.531246     1.523603     1.515960     1.508317     1.500674     1.493031     1.485388
      1.477745     1.470102     1.462458     1.454815     1.447172     1.439529     1.431886     1.424243     1.416600     1.408957
      1.401314     1.393671     1.386027     1.378384     1.370741     1.363098     1.355455     1.347812     1.340169     1.332526
      1.324883     1.317240     1.309596     1.301953     1.294310     1.286667     1.279024     1.271381     1.263738     1.256095
      1.248452     1.240808     1.233165     1.225522     1.217879     1.210236     1.202593     1.194950     1.187307     1.179664
      1.172021     1.164377     1.156734     1.149091     1.141448     1.133805     1.126162     1.118519     1.110876     1.103233
      1.095590     1.087946     1.080303     1.072660     1.065017     1.057374     1.049731     1.042088     1.034445     1.026802
      1.019158     1.011515     1.003872     0.996229     0.988586     0.980943     0.973300     0.965657     0.958014     0.950371
      0.942727     0.935084     0.927441     0.919798     0.912155     0.904512     0.896869     0.889226     0.881583     0.873940
      0.866296     0.858653     0.851010     0.843367     0.835724     0.828081     0.820438     0.812795     0.805152     0.797508
      0.789865     0.782222     0.774579     0.766936     0.759293     0.751650     0.744007     0.736364     0.728721     0.721077
      0.713434     0.705791     0.698148     0.690505     0.682862     0.675219     0.667576     0.659933     0.652290     0.644646
      0.637003     0.629360     0.621717     0.614074     0.606431     0.598788     0.591145     0.583502     0.575858     0.568215
      0.560572     0.552929     0.545286     0.537643     0.530000     0.522357     0.514714     0.507071     0.499427     0.491784
      0.484141     0.476498     0.468855     0.461212     0.453569     0.445925     0.438282     0.430639     0.422996     0.415353
      0.407710     0.400067     0.392424     0.384780     0.377137     0.369494     0.361851     0.354208     0.346565     0.338922
      0.331278     0.323635     0.315992     0.308349     0.300706     0.293063     0.285420     0.277777     0.270133     0.262490
      0.254847     0.247204     0.239561     0.231918     0.224275     0.216631     0.208988     0.201345
 NY phased data points follow
  -6.49266E+00 -2.12280E+00 -2.39041E+00 -7.80186E+00 -4.41249E+00 -1.23119E+01  1.19821E+00 -6.01860E+00 -5.67193E+00 -6.13993E+00
  -1.46013E+00  2.55938E+00 -4.77512E+00 -4.12237E+00 -4.01663E+00 -1.12585E+01 -6.40722E+00 -1.06454E+01 -1.02453E+01 -9.22077E+00
   2.62670E+00  5.45165E-01 -9.69488E+00 -3.44119E+00 -2.38311E+00  2.94187E+00 -5.32035E+00 -5.28955E+00 -8.77193E+00 -8.33117E+00
  -4.15410E+00 -1.18982E+00  2.56972E+00 -8.08233E+00 -7.02741E+00 -6.23131E+00 -8.25779E+00  8.05638E-02 -2.85304E+00 -4.52404E+00
   5.65173E-01  1.76827E+00 -1.33385E+00 -8.84327E+00 -1.08651E+01 -1.05770E+01 -2.11944E+00 -9.37431E-01 -2.61408E-01 -2.58241E+00
   5.63434E+00 -4.95308E+00  2.31013E+00  1.32253E+00  2.90951E+00 -9.16736E+00 -4.39356E-01  2.27042E+00 -2.88035E+00 -7.35679E+00
   6.21459E-01 -3.65464E+00 -6.71456E-01 -3.08216E+00  2.57885E+00 -3.69727E+00 -3.23621E+00 -7.08180E+00  1.07486E+00 -1.09090E+01
  -3.90869E+00  4.74160E+00 -3.12548E+00 -2.34430E+00 -6.88738E+00 -3.45740E+00 -7.27410E+00 -4.14667E+00 -3.37083E+00  2.77246E+00
  -4.05495E+00  4.69892E-01 -4.97190E+00 -3.95796E+00 -3.22036E+00 -8.57106E+00 -2.34771E+00 -2.69288E+00 -4.28128E+00 -4.34793E+00
  -1.89323E+00  5.42770E+00 -4.19165E+00 -9.46639E-01  6.01014E+00 -2.48416E+00  5.82716E+00  3.20897E+00 -7.75013E+00 -1.25585E+01
  -8.61978E+00  4.54241E+00  1.07862E+01  6.07635E+00  8.35161E+00  4.91596E+00  1.06898E+01  6.71397E-01 -1.39257E+00  2.57199E+00
   6.37137E+00  1.33158E+00  3.41051E-01  4.77419E+00 -7.73573E+00  4.01589E+00  9.82906E-01 -1.38963E+00 -5.83539E-01  6.81941E-01
   6.73800E+00  1.96601E+00 -7.35771E+00  4.02488E+00 -4.16400E+00  3.58825E+00  3.02700E+00  1.13798E+01  1.28485E+01  8.49904E+00
   7.21133E+00  6.94090E+00 -2.31761E+00  8.49517E+00  8.85367E+00  4.03157E+00  4.90462E+00  5.00972E+00  9.62326E+00 -7.41467E-01
   9.97790E+00  1.08925E+01 -1.28648E+00  6.31375E+00  7.62231E+00  4.29734E+00  1.70790E+00  6.41733E+00  8.91420E+00  2.04117E+00
   8.05264E+00  8.48175E+00  2.76018E+00  3.64046E+00  3.43249E+00  2.08015E+00  5.75317E+00  1.59549E+00 -1.70143E+00  4.07137E+00
   7.34911E+00  3.91856E+00  8.11339E-02  3.76983E+00  1.71073E+00  6.50549E+00  1.79805E+00  3.40679E+00 -1.02350E+00 -1.00921E+00
   4.58657E+00  3.99839E+00 -4.19558E+00  3.91692E+00 -2.67145E+00 -7.90286E-01 -1.47797E+00 -4.28361E-01  1.17781E+00  4.04425E+00
   2.96771E+00  3.21632E-01  9.42294E-01 -3.40780E-01  5.59225E+00 -5.01594E+00 -7.57633E+00  5.75104E+00  4.39816E+00  3.19666E+00
  -5.84527E+00 -5.01125E+00  1.73489E+00  5.79557E+00  3.73301E+00  4.11237E+00  4.97640E+00  1.15460E+01 -2.27779E+00  9.24385E+00
   2.34872E+00  3.82751E+00  1.52646E+00  3.33587E+00  6.98931E+00  4.27385E+00  6.62263E+00  5.17937E+00 -1.75233E+00  2.04897E+00
  -1.14275E-01  4.15267E+00  4.34775E+00 -6.58440E-01  1.06897E+00  2.70777E+00  8.30065E+00  8.68456E+00  1.11366E+01  6.69691E+00
   4.39974E+00  5.50416E+00  3.31382E+00  7.75178E+00  6.55456E-01  2.96092E+00  3.10408E+00  3.83301E+00 -2.94704E+00  9.93535E+00
  -4.05117E+00  9.03894E+00 -2.26763E-01  8.89723E+00  4.73436E+00  1.44014E+00 -2.18112E+00  1.16133E-01  3.63891E+00 -4.00660E+00
   7.97316E-01  2.12833E+00 -6.80539E-01  5.22578E+00  3.49646E+00 -8.90024E+00  1.16546E+00 -4.27394E+00 -4.78209E-02 -5.48925E+00
   7.68610E+00  2.78669E+00  1.75530E+00  5.95070E+00  4.40774E+00  4.25490E-01  5.00566E+00  5.87375E+00  1.56979E+01  2.28714E+01
   2.51995E+01  2.48046E+01  2.83190E+01  2.08072E+01  2.14441E+01  2.02755E+01  1.65634E+01  1.50987E+01  1.50774E+01  1.41807E+01
   1.27382E+01  1.16219E+01  1.44718E+01  1.39079E+01  1.45337E+01  1.29575E+01  2.40735E+01  1.63838E+01  1.58504E+01  1.27084E+01
   1.91182E+01  1.08576E+01  1.96123E+01  1.60503E+01  8.06868E+00  1.50018E+01  1.75250E+01  2.13616E+01  1.60078E+01  1.70999E+01
   1.40912E+01  1.69743E+01  2.04895E+01  1.89700E+01  1.78764E+01  1.94402E+01  1.69317E+01  2.14173E+01  2.19869E+01  1.15563E+01
   2.09972E+01  2.10505E+01  2.75431E+01  2.34639E+01  1.51897E+01  3.10019E+01  2.50748E+01  3.18067E+01  2.70368E+01  2.60979E+01
   2.98631E+01  3.29390E+01  2.64570E+01  3.47932E+01  3.47241E+01  3.90251E+01  3.93180E+01  3.96666E+01  3.78055E+01  4.27687E+01
   3.83048E+01  2.94245E+01  3.71563E+01  3.36947E+01  3.52350E+01  3.22033E+01  2.51354E+01  3.43222E+01  2.32298E+01  2.57927E+01
   1.58191E+01  1.91134E+01  1.06794E+01  1.17251E+01  1.63765E+01  1.06737E+01  1.01274E+01  1.76954E+00  1.16543E+01  7.35936E+00
  -8.31068E+00 -5.00739E+00  7.35633E+00  3.17292E+00  1.15525E+01  7.27126E+00  1.29526E+00  2.43292E+00 -1.94673E+00 -4.43506E+00
  -1.57038E+00  5.63878E-01 -2.86950E+00 -3.23690E+00 -4.19462E+00  1.22806E+00  4.63836E-01 -9.12540E-02 -2.05090E+00 -3.64904E+00
  -1.29677E-01  4.58475E+00 -4.65132E-01 -3.81346E-01  2.04494E+00 -1.30845E+00 -3.42044E+00 -9.52238E+00  1.78729E+00  2.35657E+00
   1.56788E+00  2.04141E+00  3.75757E+00 -7.27587E-01 -9.62606E+00  1.41418E+01  2.91252E+00 -2.46528E-01  8.11658E+00  8.34621E+00
  -1.49616E+00  4.27143E+00 -4.24091E+00  3.97819E+00  5.76038E+00  5.71117E+00 -7.63022E-01 -1.25134E+01 -1.20161E+01  2.87831E-02
  -1.63273E+00  7.24943E-01  8.76192E-01  3.39483E+00  1.07923E-01 -3.01806E+00 -4.65522E+00  5.76117E+00 -5.53924E-02  9.01405E-01
  -9.99572E-01  6.84663E-01  5.37336E+00  5.47078E-01  6.92974E-01  1.34828E+00 -1.41998E-01  6.04466E+00  7.20842E+00  3.67131E+00
   2.66202E+00  5.35274E+00  5.28357E+00 -4.98116E+00 -1.49320E+00  4.31580E+00 -2.90265E+00 -3.60677E-01  1.68003E+00  8.76766E+00
   2.04914E+00 -1.87230E+00 -1.98989E+00 -4.64451E+00 -2.91901E+00 -8.92401E+00  1.15098E-01 -2.97571E+00 -7.71775E+00 -1.53305E+01
  -3.99500E+00 -1.15448E+00 -8.31394E+00 -2.74602E+00 -2.05139E+00  1.33225E+00 -1.18763E+01 -2.77189E+00 -1.04220E+01 -5.73484E+00
  -1.40148E+01 -6.69563E+00 -8.39244E+00 -1.37151E+01 -1.72092E+01 -9.79358E+00 -7.18198E+00 -1.87297E+01 -6.11391E+00 -1.45944E+01
  -1.19958E+01 -1.32580E+01 -1.71659E+01 -1.44903E+01 -8.13909E+00 -8.63978E+00 -1.11943E+01 -9.97488E+00 -1.75422E+01 -1.02385E+01
  -9.14876E+00 -9.49184E+00 -1.41424E+01 -1.57295E+01 -9.61628E+00 -7.16926E+00 -5.76171E+00 -1.59595E+01 -9.94449E+00 -1.24693E+01
  -5.99164E+00 -1.20710E+00 -9.49086E+00 -1.20400E+01 -1.09394E+01 -8.85117E+00 -8.31586E+00 -5.49542E+00 -5.48338E+00 -1.13848E+01
  -3.52146E+00 -5.33806E-01 -8.90665E+00 -7.23234E+00 -7.79381E+00 -5.24295E+00  1.89546E+00 -5.35437E+00 -8.76389E+00 -9.93175E+00
  -7.46465E+00 -5.54993E+00 -7.25836E+00 -7.53561E+00 -4.49428E+00  1.56064E+00 -8.34308E+00 -4.59955E+00
 NY points of the fit to the data follow
  -4.40523E+00 -4.48028E+00 -4.79901E+00 -5.31813E+00 -5.90876E+00 -6.43689E+00 -6.71119E+00 -6.61043E+00 -6.19176E+00 -5.61219E+00
  -5.01414E+00 -4.49070E+00 -4.06343E+00 -3.71559E+00 -3.42695E+00 -3.21611E+00 -3.14143E+00 -3.28391E+00 -3.63569E+00 -4.01450E+00
  -4.27378E+00 -4.36324E+00 -4.23551E+00 -3.95155E+00 -3.72073E+00 -3.76178E+00 -4.18127E+00 -4.88804E+00 -5.64764E+00 -6.16803E+00
  -6.22239E+00 -5.75698E+00 -4.91652E+00 -3.96540E+00 -3.14638E+00 -2.54912E+00 -2.13316E+00 -1.87910E+00 -1.79825E+00 -1.93827E+00
  -2.30166E+00 -2.88087E+00 -3.66798E+00 -4.43504E+00 -4.90737E+00 -4.85007E+00 -4.25032E+00 -3.29064E+00 -2.24664E+00 -1.35316E+00
  -7.28097E-01 -3.86500E-01 -2.71939E-01 -3.06092E-01 -4.75833E-01 -8.15075E-01 -1.30846E+00 -1.82113E+00 -2.13435E+00 -2.15051E+00
  -1.95234E+00 -1.69519E+00 -1.49331E+00 -1.40013E+00 -1.41294E+00 -1.49451E+00 -1.60690E+00 -1.72623E+00 -1.86114E+00 -2.00301E+00
  -2.10017E+00 -2.11669E+00 -2.02832E+00 -1.84817E+00 -1.62011E+00 -1.39862E+00 -1.23567E+00 -1.15335E+00 -1.14779E+00 -1.21068E+00
  -1.32785E+00 -1.46760E+00 -1.53563E+00 -1.47621E+00 -1.33610E+00 -1.20559E+00 -1.15777E+00 -1.23360E+00 -1.42538E+00 -1.68622E+00
  -1.97097E+00 -2.25319E+00 -2.52293E+00 -2.79395E+00 -3.11211E+00 -3.56916E+00 -4.24957E+00 -5.04124E+00 -5.59926E+00 -5.45682E+00
  -4.33783E+00 -2.37627E+00 -3.79982E-02  2.15935E+00  3.86830E+00  4.98519E+00  5.60325E+00  5.88018E+00  5.90897E+00  5.68565E+00
   5.06978E+00  3.98181E+00  2.70800E+00  1.81413E+00  1.24811E+00  8.11503E-01  4.34466E-01  7.32965E-02 -3.01766E-01 -7.63085E-01
  -1.39844E+00 -2.10422E+00 -2.51609E+00 -2.22105E+00 -1.04842E+00  8.02099E-01  2.87356E+00  4.71709E+00  6.08051E+00  6.93952E+00
   7.40988E+00  7.61757E+00  7.60994E+00  7.32048E+00  6.61439E+00  5.47440E+00  4.21067E+00  3.33496E+00  2.82162E+00  2.51082E+00
   2.32563E+00  2.21115E+00  2.13338E+00  2.09078E+00  2.09559E+00  2.12891E+00  2.16114E+00  2.17451E+00  2.15295E+00  2.09508E+00
   2.01807E+00  1.93410E+00  1.86344E+00  1.80931E+00  1.77730E+00  1.77069E+00  1.77500E+00  1.75781E+00  1.68873E+00  1.57175E+00
   1.44654E+00  1.36202E+00  1.34457E+00  1.38430E+00  1.44520E+00  1.49013E+00  1.50277E+00  1.48953E+00  1.47007E+00  1.46642E+00
   1.47729E+00  1.45891E+00  1.36566E+00  1.20635E+00  1.02887E+00  9.00209E-01  8.40833E-01  8.14501E-01  7.93273E-01  7.67986E-01
   7.47516E-01  7.39765E-01  7.34070E-01  7.16536E-01  6.92020E-01  6.85705E-01  7.30007E-01  8.59837E-01  1.11282E+00  1.45920E+00
   1.81126E+00  2.06713E+00  2.16621E+00  2.11665E+00  1.94970E+00  1.71391E+00  1.48011E+00  1.33673E+00  1.37726E+00  1.68250E+00
   2.26274E+00  3.06649E+00  3.98317E+00  4.84683E+00  5.41740E+00  5.46704E+00  4.88918E+00  3.79852E+00  2.46989E+00  1.23158E+00
   3.93725E-01  1.90095E-01  6.78778E-01  1.69301E+00  2.95957E+00  4.22083E+00  5.23114E+00  5.78764E+00  5.78121E+00  5.20834E+00
   4.18608E+00  3.13884E+00  2.41540E+00  2.06389E+00  2.05864E+00  2.38230E+00  2.98998E+00  3.67787E+00  4.28852E+00  4.81603E+00
   5.24423E+00  5.47744E+00  5.41268E+00  5.12775E+00  4.87017E+00  4.83325E+00  5.04627E+00  5.43683E+00  5.84009E+00  6.08852E+00
   6.09351E+00  5.86163E+00  5.50583E+00  5.18658E+00  4.97410E+00  4.81703E+00  4.65053E+00  4.55756E+00  4.61507E+00  4.85106E+00
   5.29191E+00  5.91520E+00  6.54323E+00  6.93844E+00  7.23608E+00  8.02710E+00  9.98567E+00  1.32867E+01  1.73601E+01  2.11371E+01
   2.36684E+01  2.45818E+01  2.40633E+01  2.26179E+01  2.07531E+01  1.87681E+01  1.67187E+01  1.44990E+01  1.20669E+01  9.80798E+00
   8.51244E+00  8.38886E+00  8.64690E+00  9.00445E+00  9.41329E+00  9.82993E+00  1.02340E+01  1.06391E+01  1.10480E+01  1.14643E+01
   1.18919E+01  1.23324E+01  1.27884E+01  1.32724E+01  1.37919E+01  1.43414E+01  1.49139E+01  1.55030E+01  1.61011E+01  1.66999E+01
   1.72896E+01  1.78634E+01  1.84192E+01  1.89544E+01  1.94672E+01  1.99580E+01  2.04286E+01  2.08815E+01  2.13214E+01  2.17559E+01
   2.21948E+01  2.26483E+01  2.31277E+01  2.36453E+01  2.42123E+01  2.48389E+01  2.55334E+01  2.63004E+01  2.71408E+01  2.80504E+01
   2.90194E+01  3.00326E+01  3.10692E+01  3.21035E+01  3.31050E+01  3.40395E+01  3.48714E+01  3.55643E+01  3.60834E+01  3.63990E+01
   3.65020E+01  3.64101E+01  3.61111E+01  3.55113E+01  3.44707E+01  3.28936E+01  3.07960E+01  2.82969E+01  2.55555E+01  2.27531E+01
   2.00890E+01  1.77205E+01  1.57007E+01  1.39687E+01  1.24098E+01  1.09509E+01  9.58259E+00  8.28445E+00  6.97116E+00  5.68498E+00
   4.53341E+00  3.59245E+00  2.85448E+00  2.19643E+00  1.47868E+00  6.64448E-01 -2.80502E-01 -1.33012E+00 -2.33740E+00 -3.10071E+00
  -3.42080E+00 -3.20513E+00 -2.53177E+00 -1.61693E+00 -7.00392E-01  8.75656E-02  7.37986E-01  1.24202E+00  1.47955E+00  1.46223E+00
   1.30921E+00  1.05789E+00  7.00987E-01  2.66098E-01 -1.21218E-01 -3.03630E-01 -3.53405E-01 -3.69712E-01 -3.76400E-01 -3.79911E-01
  -3.82009E-01 -3.82422E-01 -3.79784E-01 -3.72258E-01 -3.57844E-01 -3.34670E-01 -3.01060E-01 -2.55643E-01 -1.97326E-01 -1.25359E-01
  -3.92714E-02  6.11068E-02  1.75756E-01  3.04459E-01  4.46900E-01  6.02619E-01  7.71079E-01  9.51606E-01  1.14345E+00  1.34571E+00
   1.55733E+00  1.77700E+00  2.00312E+00  2.23369E+00  2.46627E+00  2.69788E+00  2.92496E+00  3.14329E+00  3.34798E+00  3.53347E+00
   3.69364E+00  3.82184E+00  3.91116E+00  3.95454E+00  3.94511E+00  3.87647E+00  3.74307E+00  3.54050E+00  3.26591E+00  2.91815E+00
   2.49817E+00  2.00901E+00  1.45595E+00  8.46311E-01  1.89373E-01 -5.04062E-01 -1.22197E+00 -1.95167E+00 -2.68024E+00 -3.39514E+00
  -4.08458E+00 -4.73811E+00 -5.34681E+00 -5.90365E+00 -6.40351E+00 -6.84335E+00 -7.22197E+00 -7.54001E+00 -7.79959E+00 -8.00409E+00
  -8.15783E+00 -8.26584E+00 -8.33345E+00 -8.36619E+00 -8.36943E+00 -8.34834E+00 -8.30764E+00 -8.25166E+00 -8.18415E+00 -8.10840E+00
  -8.02715E+00 -7.94269E+00 -7.85684E+00 -7.77110E+00 -7.68658E+00 -7.60416E+00 -7.52443E+00 -7.44786E+00 -7.37469E+00 -7.30513E+00
  -7.23923E+00 -7.17703E+00 -7.11847E+00 -7.06348E+00 -7.01195E+00 -6.96379E+00 -6.91885E+00 -6.87704E+00 -6.83819E+00 -6.80219E+00
  -6.76888E+00 -6.73819E+00 -6.70996E+00 -6.68410E+00 -6.66047E+00 -6.63901E+00 -6.61957E+00 -6.60210E+00 -6.58648E+00 -6.57265E+00
  -6.56050E+00 -6.54998E+00 -6.54099E+00 -6.53349E+00 -6.52739E+00 -6.52264E+00 -6.51916E+00 -6.51692E+00 -6.51584E+00 -6.51589E+00
  -6.51700E+00 -6.51913E+00 -6.52221E+00 -6.52623E+00 -6.53111E+00 -6.53683E+00 -6.54332E+00 -6.55057E+00 -6.55849E+00 -6.56708E+00
  -6.57627E+00 -6.58604E+00 -6.59632E+00 -6.60708E+00 -6.61824E+00 -6.62980E+00 -6.64166E+00 -6.65381E+00
 NY background values follow
    -5.091E-01   -5.008E-01   -4.923E-01   -4.835E-01   -4.746E-01   -4.654E-01   -4.560E-01   -4.464E-01   -4.366E-01   -4.265E-01
    -4.162E-01   -4.057E-01   -3.950E-01   -3.841E-01   -3.729E-01   -3.615E-01   -3.499E-01   -3.381E-01   -3.260E-01   -3.138E-01
    -3.013E-01   -2.886E-01   -2.756E-01   -2.625E-01   -2.492E-01   -2.356E-01   -2.218E-01   -2.078E-01   -1.936E-01   -1.792E-01
    -1.645E-01   -1.497E-01   -1.346E-01   -1.194E-01   -1.039E-01   -8.820E-02   -7.231E-02   -5.621E-02   -3.990E-02   -2.339E-02
    -6.677E-03    1.024E-02    2.736E-02    4.468E-02    6.220E-02    7.992E-02    9.783E-02    1.159E-01    1.343E-01    1.528E-01
     1.714E-01    1.903E-01    2.094E-01    2.287E-01    2.481E-01    2.678E-01    2.876E-01    3.076E-01    3.278E-01    3.482E-01
     3.687E-01    3.894E-01    4.103E-01    4.314E-01    4.527E-01    4.741E-01    4.957E-01    5.175E-01    5.394E-01    5.615E-01
     5.838E-01    6.062E-01    6.288E-01    6.515E-01    6.744E-01    6.975E-01    7.207E-01    7.441E-01    7.676E-01    7.912E-01
     8.151E-01    8.390E-01    8.631E-01    8.873E-01    9.117E-01    9.362E-01    9.609E-01    9.857E-01    1.011E+00    1.036E+00
     1.061E+00    1.086E+00    1.111E+00    1.137E+00    1.163E+00    1.188E+00    1.214E+00    1.240E+00    1.266E+00    1.293E+00
     1.319E+00    1.345E+00    1.372E+00    1.398E+00    1.425E+00    1.452E+00    1.479E+00    1.506E+00    1.533E+00    1.560E+00
     1.587E+00    1.615E+00    1.642E+00    1.670E+00    1.697E+00    1.725E+00    1.752E+00    1.780E+00    1.808E+00    1.836E+00
     1.864E+00    1.892E+00    1.920E+00    1.948E+00    1.976E+00    2.004E+00    2.032E+00    2.061E+00    2.089E+00    2.117E+00
     2.145E+00    2.174E+00    2.202E+00    2.231E+00    2.259E+00    2.288E+00    2.316E+00    2.345E+00    2.373E+00    2.402E+00
     2.430E+00    2.459E+00    2.487E+00    2.516E+00    2.544E+00    2.573E+00    2.601E+00    2.629E+00    2.658E+00    2.686E+00
     2.715E+00    2.743E+00    2.771E+00    2.800E+00    2.828E+00    2.856E+00    2.884E+00    2.913E+00    2.941E+00    2.969E+00
     2.997E+00    3.025E+00    3.052E+00    3.080E+00    3.108E+00    3.136E+00    3.163E+00    3.191E+00    3.218E+00    3.246E+00
     3.273E+00    3.300E+00    3.327E+00    3.354E+00    3.381E+00    3.408E+00    3.435E+00    3.461E+00    3.488E+00    3.514E+00
     3.541E+00    3.567E+00    3.593E+00    3.619E+00    3.645E+00    3.670E+00    3.696E+00    3.721E+00    3.747E+00    3.772E+00
     3.797E+00    3.822E+00    3.847E+00    3.871E+00    3.896E+00    3.920E+00    3.944E+00    3.968E+00    3.992E+00    4.015E+00
     4.039E+00    4.062E+00    4.085E+00    4.108E+00    4.131E+00    4.153E+00    4.176E+00    4.198E+00    4.220E+00    4.242E+00
     4.263E+00    4.285E+00    4.306E+00    4.327E+00    4.348E+00    4.368E+00    4.388E+00    4.409E+00    4.428E+00    4.448E+00
     4.468E+00    4.487E+00    4.506E+00    4.525E+00    4.543E+00    4.561E+00    4.579E+00    4.597E+00    4.615E+00    4.632E+00
     4.649E+00    4.666E+00    4.682E+00    4.699E+00    4.715E+00    4.730E+00    4.746E+00    4.761E+00    4.776E+00    4.791E+00
     4.805E+00    4.819E+00    4.833E+00    4.847E+00    4.860E+00    4.873E+00    4.885E+00    4.898E+00    4.910E+00    4.922E+00
     4.933E+00    4.944E+00    4.955E+00    4.966E+00    4.976E+00    4.986E+00    4.996E+00    5.005E+00    5.014E+00    5.023E+00
     5.031E+00    5.039E+00    5.047E+00    5.054E+00    5.061E+00    5.068E+00    5.074E+00    5.080E+00    5.086E+00    5.091E+00
     5.096E+00    5.101E+00    5.105E+00    5.109E+00    5.113E+00    5.116E+00    5.119E+00    5.122E+00    5.124E+00    5.126E+00
     5.127E+00    5.128E+00    5.129E+00    5.129E+00    5.129E+00    5.129E+00    5.128E+00    5.127E+00    5.126E+00    5.124E+00
     5.122E+00    5.119E+00    5.116E+00    5.113E+00    5.109E+00    5.105E+00    5.101E+00    5.096E+00    5.091E+00    5.085E+00
     5.079E+00    5.073E+00    5.066E+00    5.059E+00    5.051E+00    5.044E+00    5.035E+00    5.026E+00    5.017E+00    5.008E+00
     4.998E+00    4.988E+00    4.977E+00    4.966E+00    4.954E+00    4.942E+00    4.930E+00    4.917E+00    4.904E+00    4.891E+00
     4.877E+00    4.863E+00    4.848E+00    4.833E+00    4.817E+00    4.801E+00    4.785E+00    4.768E+00    4.751E+00    4.734E+00
     4.716E+00    4.697E+00    4.679E+00    4.660E+00    4.640E+00    4.620E+00    4.600E+00    4.579E+00    4.558E+00    4.536E+00
     4.514E+00    4.492E+00    4.469E+00    4.446E+00    4.422E+00    4.398E+00    4.374E+00    4.349E+00    4.324E+00    4.298E+00
     4.272E+00    4.245E+00    4.219E+00    4.191E+00    4.164E+00    4.136E+00    4.107E+00    4.078E+00    4.049E+00    4.019E+00
     3.989E+00    3.959E+00    3.928E+00    3.897E+00    3.865E+00    3.833E+00    3.801E+00    3.768E+00    3.735E+00    3.701E+00
     3.668E+00    3.633E+00    3.598E+00    3.563E+00    3.528E+00    3.492E+00    3.456E+00    3.419E+00    3.382E+00    3.345E+00
     3.307E+00    3.269E+00    3.230E+00    3.192E+00    3.152E+00    3.113E+00    3.073E+00    3.032E+00    2.992E+00    2.951E+00
     2.909E+00    2.868E+00    2.825E+00    2.783E+00    2.740E+00    2.697E+00    2.654E+00    2.610E+00    2.566E+00    2.521E+00
     2.476E+00    2.431E+00    2.385E+00    2.339E+00    2.293E+00    2.247E+00    2.200E+00    2.153E+00    2.105E+00    2.057E+00
     2.009E+00    1.961E+00    1.912E+00    1.863E+00    1.814E+00    1.764E+00    1.714E+00    1.664E+00    1.613E+00    1.562E+00
     1.511E+00    1.460E+00    1.408E+00    1.356E+00    1.304E+00    1.251E+00    1.198E+00    1.145E+00    1.092E+00    1.038E+00
     9.841E-01    9.299E-01    8.755E-01    8.208E-01    7.659E-01    7.107E-01    6.553E-01    5.996E-01    5.437E-01    4.876E-01
     4.312E-01    3.746E-01    3.178E-01    2.608E-01    2.035E-01    1.460E-01    8.836E-02    3.047E-02   -2.762E-02   -8.591E-02
    -1.444E-01   -2.031E-01   -2.620E-01   -3.210E-01   -3.803E-01   -4.397E-01   -4.993E-01   -5.591E-01   -6.190E-01   -6.791E-01
    -7.394E-01   -7.998E-01   -8.604E-01   -9.211E-01   -9.820E-01   -1.043E+00   -1.104E+00   -1.165E+00   -1.227E+00   -1.288E+00
    -1.350E+00   -1.412E+00   -1.474E+00   -1.536E+00   -1.598E+00   -1.660E+00   -1.722E+00   -1.785E+00   -1.847E+00   -1.910E+00
    -1.973E+00   -2.035E+00   -2.098E+00   -2.161E+00   -2.224E+00   -2.287E+00   -2.350E+00   -2.413E+00   -2.477E+00   -2.540E+00
    -2.603E+00   -2.666E+00   -2.730E+00   -2.793E+00   -2.856E+00   -2.920E+00   -2.983E+00   -3.047E+00
 Ala      Conc. = 1.73E+02
