 LCModel (Version 6.3-1L) Copyright: S.W. Provencher.          Ref.: Magn. Reson. Med. 30:672-679 (1993).                
 Slice#3 Row#2 Col#10  PD_24_press_2_raw_act
 36 lines in following concentration table = NCONC+1
    Conc.  %SD /Cr+PCr  Metabolite                                         
  136.557  63%   0.779 Ala                                                 
   40.495  72%   0.231 Asp                                                 
    0.000 999%   0.000 Cr                                                  
  175.188  32%   1.000 PCr                                                 
   22.474  78%   0.128 GABA                                                
   23.995  73%   0.137 Glc                                                 
  340.036  51%   1.941 Gln                                                 
   91.456 182%   0.522 Glu                                                 
   63.718  34%   0.364 GPC                                                 
    0.000 999%   0.000 PCh                                                 
   27.514 230%   0.157 GSH                                                 
  468.287  46%   2.673 Ins                                                 
  123.517  72%   0.705 Lac                                                 
  253.668  29%   1.448 NAA                                                 
  128.637  47%   0.734 NAAG                                                
    7.875  73% 4.5E-02 Scyllo                                              
   27.177 107%   0.155 Tau                                                 
   12.756 168% 7.3E-02 -CrCH2                                              
   63.718  34%   0.364 GPC+PCh                                             
  382.305  21%   2.182 NAA+NAAG                                            
  175.188  32%   1.000 Cr+PCr                                              
  431.492  53%   2.463 Glu+Gln                                             
 1.97E+03  22%  11.222 Lip13a                                              
    0.000 999%   0.000 Lip13b                                              
  523.956  23%   2.991 Lip09                                               
   47.759 184%   0.273 MM09                                                
  291.305  23%   1.663 Lip20                                               
    0.000 999%   0.000 MM20                                                
   15.255 309% 8.7E-02 MM12                                                
  363.592  48%   2.075 MM14                                                
    0.000 999%   0.000 MM17                                                
 1.97E+03  22%  11.222 Lip13a+Lip13b                                       
 2.34E+03  17%  13.385 MM14+Lip13a+Lip13b+MM12                             
  571.715  22%   3.263 MM09+Lip09                                          
  291.305  23%   1.663 MM20+Lip20                                          
   6 lines in following misc. output table
  FWHM = 0.038 ppm    S/N =   1                                            
  Data shift = 0.008 ppm                                                   
  Ph: -91 deg     -19.2 deg/ppm                                            
  alphaB,S = 8.5E+01,   1.3E+01                                            
   14 spline knots.   Ns = 6(1)                                            
   2 inflections.     2 extrema                                            
  498 points on ppm-axis = NY
      4.000000     3.992357     3.984714     3.977070     3.969427     3.961784     3.954141     3.946497     3.938854     3.931211
      3.923568     3.915925     3.908281     3.900638     3.892995     3.885352     3.877708     3.870065     3.862422     3.854779
      3.847136     3.839492     3.831849     3.824206     3.816563     3.808919     3.801276     3.793633     3.785990     3.778347
      3.770703     3.763060     3.755417     3.747774     3.740130     3.732487     3.724844     3.717201     3.709558     3.701914
      3.694271     3.686628     3.678985     3.671341     3.663698     3.656055     3.648412     3.640769     3.633125     3.625482
      3.617839     3.610196     3.602552     3.594909     3.587266     3.579623     3.571980     3.564336     3.556693     3.549050
      3.541407     3.533763     3.526120     3.518477     3.510834     3.503191     3.495547     3.487904     3.480261     3.472618
      3.464974     3.457331     3.449688     3.442045     3.434402     3.426758     3.419115     3.411472     3.403829     3.396185
      3.388542     3.380899     3.373256     3.365613     3.357969     3.350326     3.342683     3.335040     3.327396     3.319753
      3.312110     3.304467     3.296824     3.289180     3.281537     3.273894     3.266251     3.258607     3.250964     3.243321
      3.235678     3.228034     3.220391     3.212748     3.205105     3.197462     3.189818     3.182175     3.174532     3.166889
      3.159245     3.151602     3.143959     3.136316     3.128673     3.121029     3.113386     3.105743     3.098100     3.090456
      3.082813     3.075170     3.067527     3.059884     3.052240     3.044597     3.036954     3.029311     3.021667     3.014024
      3.006381     2.998738     2.991095     2.983451     2.975808     2.968165     2.960522     2.952878     2.945235     2.937592
      2.929949     2.922306     2.914662     2.907019     2.899376     2.891733     2.884089     2.876446     2.868803     2.861160
      2.853517     2.845873     2.838230     2.830587     2.822944     2.815300     2.807657     2.800014     2.792371     2.784728
      2.777084     2.769441     2.761798     2.754155     2.746511     2.738868     2.731225     2.723582     2.715939     2.708295
      2.700652     2.693009     2.685366     2.677722     2.670079     2.662436     2.654793     2.647150     2.639506     2.631863
      2.624220     2.616577     2.608933     2.601290     2.593647     2.586004     2.578361     2.570717     2.563074     2.555431
      2.547788     2.540144     2.532501     2.524858     2.517215     2.509572     2.501928     2.494285     2.486642     2.478999
      2.471355     2.463712     2.456069     2.448426     2.440783     2.433139     2.425496     2.417853     2.410210     2.402566
      2.394923     2.387280     2.379637     2.371994     2.364350     2.356707     2.349064     2.341421     2.333777     2.326134
      2.318491     2.310848     2.303205     2.295561     2.287918     2.280275     2.272632     2.264988     2.257345     2.249702
      2.242059     2.234416     2.226772     2.219129     2.211486     2.203843     2.196199     2.188556     2.180913     2.173270
      2.165627     2.157983     2.150340     2.142697     2.135054     2.127410     2.119767     2.112124     2.104481     2.096838
      2.089194     2.081551     2.073908     2.066265     2.058621     2.050978     2.043335     2.035692     2.028049     2.020405
      2.012762     2.005119     1.997476     1.989833     1.982190     1.974546     1.966903     1.959260     1.951617     1.943974
      1.936331     1.928688     1.921045     1.913402     1.905759     1.898115     1.890472     1.882829     1.875186     1.867543
      1.859900     1.852257     1.844614     1.836971     1.829327     1.821684     1.814041     1.806398     1.798755     1.791112
      1.783469     1.775826     1.768183     1.760540     1.752896     1.745253     1.737610     1.729967     1.722324     1.714681
      1.707038     1.699395     1.691752     1.684108     1.676465     1.668822     1.661179     1.653536     1.645893     1.638250
      1.630607     1.622964     1.615321     1.607677     1.600034     1.592391     1.584748     1.577105     1.569462     1.561819
      1.554176     1.546533     1.538890     1.531246     1.523603     1.515960     1.508317     1.500674     1.493031     1.485388
      1.477745     1.470102     1.462458     1.454815     1.447172     1.439529     1.431886     1.424243     1.416600     1.408957
      1.401314     1.393671     1.386027     1.378384     1.370741     1.363098     1.355455     1.347812     1.340169     1.332526
      1.324883     1.317240     1.309596     1.301953     1.294310     1.286667     1.279024     1.271381     1.263738     1.256095
      1.248452     1.240808     1.233165     1.225522     1.217879     1.210236     1.202593     1.194950     1.187307     1.179664
      1.172021     1.164377     1.156734     1.149091     1.141448     1.133805     1.126162     1.118519     1.110876     1.103233
      1.095590     1.087946     1.080303     1.072660     1.065017     1.057374     1.049731     1.042088     1.034445     1.026802
      1.019158     1.011515     1.003872     0.996229     0.988586     0.980943     0.973300     0.965657     0.958014     0.950371
      0.942727     0.935084     0.927441     0.919798     0.912155     0.904512     0.896869     0.889226     0.881583     0.873940
      0.866296     0.858653     0.851010     0.843367     0.835724     0.828081     0.820438     0.812795     0.805152     0.797508
      0.789865     0.782222     0.774579     0.766936     0.759293     0.751650     0.744007     0.736364     0.728721     0.721077
      0.713434     0.705791     0.698148     0.690505     0.682862     0.675219     0.667576     0.659933     0.652290     0.644646
      0.637003     0.629360     0.621717     0.614074     0.606431     0.598788     0.591145     0.583502     0.575858     0.568215
      0.560572     0.552929     0.545286     0.537643     0.530000     0.522357     0.514714     0.507071     0.499427     0.491784
      0.484141     0.476498     0.468855     0.461212     0.453569     0.445925     0.438282     0.430639     0.422996     0.415353
      0.407710     0.400067     0.392424     0.384780     0.377137     0.369494     0.361851     0.354208     0.346565     0.338922
      0.331278     0.323635     0.315992     0.308349     0.300706     0.293063     0.285420     0.277777     0.270133     0.262490
      0.254847     0.247204     0.239561     0.231918     0.224275     0.216631     0.208988     0.201345
 NY phased data points follow
   7.37265E+00  1.06577E+01  4.52900E+00  7.68073E+00 -4.02131E+00 -1.16752E+01  2.26953E-02 -4.75779E+00 -1.78499E+00  5.14744E+00
   5.88532E+00  1.39791E+00 -1.47890E-01  5.39310E+00  2.64702E+00 -1.16885E+01 -1.24980E+01 -1.19512E+01 -1.07430E+01 -1.12241E+01
  -2.85560E+00  7.99135E+00 -1.63136E-02  2.13951E+00  1.00120E+01 -1.80709E+00 -1.11150E+00 -8.51203E+00 -1.14964E+01 -2.18235E+00
  -6.64642E-01 -7.80707E+00  2.68302E+00 -5.73518E-01  8.31808E-01 -6.27534E+00 -5.64465E-01 -4.74304E+00 -3.04049E+00  2.65829E+00
   7.15911E+00 -8.54676E-01 -1.86902E+00 -2.89993E+00 -1.59710E+00 -5.99491E+00 -6.02017E+00 -6.15559E+00  1.18753E+00  6.61528E-01
   9.99782E+00 -6.58282E-01 -6.53844E-02 -2.94323E+00  2.50448E+00 -4.71261E+00  2.38148E-02 -4.42655E+00 -1.41943E+00 -4.07706E+00
   6.88723E+00 -4.19050E+00 -1.21453E+01 -5.58093E+00 -3.18199E+00 -1.73949E+00  3.83790E+00 -1.01244E+01  3.94829E+00 -1.06454E+01
  -2.66076E+00 -6.55491E+00 -1.83382E+01 -5.01886E+00 -5.75338E+00 -2.55013E+00 -4.22560E+00 -4.48048E+00 -2.07118E+00 -1.29843E+01
  -2.18667E+00  3.81882E+00 -7.54523E-01 -1.06790E+01 -1.86435E+00 -3.73142E-01 -2.99270E+00 -9.47446E-01 -5.02983E+00 -2.49410E+00
  -3.63696E+00 -1.19211E+01 -1.22457E+00  7.12394E+00 -6.01320E+00  1.89943E+00 -4.32306E+00 -2.36773E+00 -1.25541E+01 -1.14726E+01
  -9.93776E+00  6.28440E-01 -1.01984E+00  3.75627E+00  6.01332E+00  7.77041E+00  2.31162E+00 -3.68723E+00 -1.67632E+01 -2.19827E+01
  -1.34388E+01 -9.85868E+00 -1.21863E+01 -3.04061E+00  6.38409E+00 -5.63001E+00  7.33131E-01 -1.03434E+01 -5.07075E+00 -1.06620E+01
  -6.79096E+00 -1.16786E+01 -3.55405E+00 -1.46372E+00 -7.18201E+00 -7.24514E-01 -4.56635E-01  3.86035E-01  5.57802E+00  1.86431E+00
   2.67501E+00  1.01655E+01 -3.48464E+00 -1.04358E+01 -6.07705E+00 -7.15895E+00 -4.71686E+00 -1.88937E+00 -6.63419E+00  3.52187E+00
  -1.10075E+01 -3.87182E+00 -8.04210E+00 -7.18579E+00 -5.81520E+00  7.81666E-03 -3.53888E+00  2.11355E+00  2.69067E+00 -1.27039E+01
  -5.31663E+00 -9.29195E+00 -4.44819E+00 -3.07361E+00 -1.23125E+01 -3.13488E+00 -1.04987E+01 -4.63307E+00 -6.43955E+00 -2.95771E-01
  -1.21306E+01 -7.08579E+00 -8.00306E-01 -6.46323E+00 -1.05496E+01 -8.37262E+00 -4.14385E+00  6.69625E+00 -1.24990E+00  5.22561E+00
  -2.97947E+00 -9.95878E+00 -9.24067E-01 -6.49218E+00  9.32075E-01 -9.35665E+00 -6.95537E+00 -3.63039E+00 -1.32534E+01  7.69882E-02
  -5.62165E+00  2.24281E+00  9.98611E-02 -5.71223E+00 -5.09470E-01 -3.90475E+00 -5.05939E+00 -5.16727E+00 -2.59553E+00 -6.86697E+00
  -1.05464E+01 -2.26548E+00 -5.13193E+00 -3.81813E+00 -1.38170E+01 -8.40124E+00 -1.41064E+01  2.37455E+00 -5.35094E+00 -7.07741E+00
  -3.90432E+00  3.20692E-01 -8.07550E+00 -3.65889E+00 -7.72616E-01 -1.77491E+00  6.53810E+00  6.73034E-01 -9.64667E+00 -8.59162E+00
  -6.05127E-01 -3.73134E+00 -1.05475E+01 -5.73677E+00  2.52192E+00 -2.41150E+00 -4.87052E+00 -1.23909E+01  1.40165E+00 -3.69586E+00
   7.98871E-01 -8.39986E+00 -8.56379E+00 -5.12556E+00  6.33483E-01 -8.64816E+00  2.36302E+00  3.30128E+00  5.61630E+00 -5.70702E+00
  -6.59140E-01 -2.35278E+00 -6.68969E+00  1.63094E+00 -1.24684E+00 -7.47879E+00 -4.95441E+00 -2.98617E-01 -6.99533E+00  1.78587E+00
  -4.95633E+00  5.81481E+00 -6.86464E+00 -6.30108E+00 -9.02684E+00 -4.98262E+00 -9.03496E+00 -8.24833E+00 -1.00134E+01 -2.91119E-01
  -9.65053E-01 -7.10282E+00 -6.71533E+00 -5.89049E+00 -7.83181E+00 -3.57017E+00 -3.17486E+00  9.96469E+00  1.29282E+01  1.29497E+01
   2.03361E+00  1.38915E+01  8.92345E+00  2.22952E+01  1.53638E+00  6.05163E+00  7.50740E+00 -1.44633E-01 -2.67068E+00  6.32754E+00
   3.46481E-01 -3.04154E+00  7.20728E+00 -8.03641E+00  9.02903E+00 -3.01496E-01 -2.47400E+00 -9.48097E-01 -1.13759E+01 -2.45269E+00
  -8.37270E+00 -7.58561E+00 -2.40786E+00 -9.61047E-01 -4.98987E+00 -1.14995E+01 -9.18659E+00 -8.07444E+00 -2.46624E-01  1.13784E+00
  -3.43005E+00 -5.18839E+00  2.86500E+00 -6.52127E+00 -1.15528E+01 -9.49016E-01 -1.20171E+01  1.04150E+00 -3.75937E+00 -2.36671E+00
  -5.02702E+00 -2.81345E+00  1.38508E+00 -1.20963E+00 -4.94808E+00 -2.44727E+00 -3.04621E+00  3.52103E+00 -1.43885E+00  1.25686E+00
  -7.76222E+00 -2.64972E-01  5.68216E+00 -2.37049E-01 -2.53646E+00 -2.21596E+00 -4.51164E-01  9.62818E+00 -3.19465E+00  3.33830E+00
   4.97155E+00  6.43524E-01  3.93815E+00 -1.27141E+00  2.57192E-01  6.73887E+00  2.37741E+00  1.50050E+01  8.94087E-01  5.42343E-01
  -2.92006E+00  8.57331E+00  1.32264E+00  1.11733E+01  8.92256E+00  7.14193E-01  1.58100E+01  8.50843E+00  1.80333E+01  1.37934E+01
   8.84903E+00  1.23076E+01  1.46792E+01  3.47636E+00  7.74097E+00  1.43802E+01  1.03293E+01  1.10645E+01  1.95621E+00  6.52154E+00
   4.29307E+00  4.60142E+00 -5.33339E+00  7.43072E+00  4.19774E+00  8.45102E+00  2.80376E+00  3.64131E+00  7.20781E+00  6.01017E+00
   5.58634E+00 -2.93736E+00  8.19407E+00  1.19196E+01  1.23042E+01 -1.75197E-01  8.95047E+00  1.03593E+01  1.25540E+01  3.78339E+00
  -1.19166E+00  3.13183E+00  7.42492E+00 -5.68505E+00 -3.66416E+00  6.83118E+00  4.84368E+00  7.05822E+00  2.16210E+00  5.04166E+00
   9.30910E+00  4.48433E+00  8.94172E+00  6.73587E+00  6.54955E-01  7.29228E-01 -7.97975E-01  5.09761E-01 -6.66155E+00 -7.35651E+00
  -4.53934E+00 -4.30250E+00 -6.66266E+00 -1.57959E+01  9.94172E-02  1.03189E+01  2.16192E+00  1.22911E+01  3.75707E+00  3.68230E+00
   1.24908E+00  3.93567E+00  1.82650E+00  5.25597E+00  3.81415E+00  2.25710E+00  1.55436E+00  3.51084E-01  3.54132E+00  3.01608E+00
   8.24549E+00  1.11378E+00  3.19923E+00 -8.64963E-01  9.74300E+00  1.11222E+01  5.48537E+00 -1.88908E+00  8.63731E+00  2.94728E+00
   6.14897E+00 -1.05211E+00 -8.33559E-01 -4.19177E+00  9.88197E-01 -8.06895E-01  3.26627E+00  4.58840E+00  2.44411E-01  6.01621E+00
   8.92654E-02 -1.47851E+00 -5.70111E+00  3.59078E-01  2.50950E+00  1.49755E+00 -7.73717E+00 -1.12216E+00  2.60919E-01  2.85732E+00
   3.50309E-01  1.36474E+01 -5.08400E+00  7.68260E+00 -8.08350E-01 -3.49688E+00  6.43917E+00  5.36327E+00  1.57369E+00  1.89781E-02
  -5.57183E+00 -9.90150E-01 -1.20845E+00 -2.84538E+00 -2.64663E+00  1.71939E+00 -2.20722E+00 -4.64542E+00  2.35053E+00  1.41287E+00
   9.96064E-01  8.21871E+00  3.98551E+00 -1.98820E+00  5.91990E+00  4.94064E+00  4.57744E+00 -4.75822E+00  4.83596E+00 -2.15614E+00
   1.06670E+01 -4.56595E+00 -5.94957E+00  6.46472E+00 -9.40693E-01 -2.56476E+00  2.31903E+00 -3.90996E+00  5.97718E+00  7.83684E+00
   6.94031E+00 -4.22041E+00 -2.43945E+00  3.52773E+00 -4.27864E+00  4.24002E+00  3.29103E+00  9.64024E-01 -1.95995E+00  1.28659E+00
   2.80964E+00 -6.55676E-01  1.76033E+00  4.72405E+00 -3.72260E+00 -8.93397E-02  9.68533E+00 -7.25369E+00
 NY points of the fit to the data follow
  -3.86453E+00 -4.36105E+00 -4.74327E+00 -5.08775E+00 -5.45979E+00 -5.46511E+00 -4.76076E+00 -3.41351E+00 -1.74417E+00 -4.04013E-02
   1.32284E+00  1.77693E+00  9.71466E-01 -8.49919E-01 -2.84257E+00 -4.10896E+00 -4.42377E+00 -4.42262E+00 -4.53338E+00 -4.63559E+00
  -4.53729E+00 -4.14438E+00 -3.58257E+00 -3.13572E+00 -3.09003E+00 -3.53297E+00 -4.43664E+00 -5.51510E+00 -6.25587E+00 -6.18928E+00
  -5.16253E+00 -3.49994E+00 -1.91597E+00 -1.09610E+00 -1.12430E+00 -1.80160E+00 -2.77390E+00 -3.64768E+00 -4.11038E+00 -4.09993E+00
  -3.97687E+00 -4.12677E+00 -4.72494E+00 -5.41530E+00 -5.49191E+00 -4.54237E+00 -2.85330E+00 -9.90787E-01  7.32399E-01  1.91604E+00
   1.96841E+00  5.78342E-01 -1.77060E+00 -4.05534E+00 -5.41634E+00 -5.68230E+00 -5.35475E+00 -4.84408E+00 -4.20752E+00 -3.44263E+00
  -2.64335E+00 -1.97373E+00 -1.64435E+00 -1.82740E+00 -2.52684E+00 -3.47490E+00 -4.26683E+00 -4.64262E+00 -4.56745E+00 -4.15074E+00
  -3.61044E+00 -3.12542E+00 -2.75212E+00 -2.48776E+00 -2.33662E+00 -2.33800E+00 -2.51734E+00 -2.81855E+00 -3.12490E+00 -3.33474E+00
  -3.50202E+00 -3.60287E+00 -3.51054E+00 -3.24738E+00 -2.98670E+00 -2.90982E+00 -3.09202E+00 -3.53268E+00 -4.19418E+00 -4.95844E+00
  -5.57512E+00 -5.77169E+00 -5.41287E+00 -4.68243E+00 -3.97315E+00 -3.54782E+00 -3.65564E+00 -4.46816E+00 -5.20523E+00 -4.98078E+00
  -3.56025E+00 -1.24681E+00  1.51589E+00  4.30751E+00  6.10673E+00  5.79246E+00  3.19628E+00 -4.46677E-01 -3.28038E+00 -4.24300E+00
  -4.02522E+00 -3.90960E+00 -3.90560E+00 -3.88242E+00 -3.84450E+00 -3.81023E+00 -3.80270E+00 -3.82177E+00 -3.86183E+00 -3.93335E+00
  -4.13790E+00 -4.78636E+00 -5.54212E+00 -5.51509E+00 -4.24657E+00 -1.94048E+00  8.60570E-01  3.72070E+00  5.93361E+00  6.49361E+00
   4.85346E+00  1.65453E+00 -1.51452E+00 -3.23591E+00 -3.46373E+00 -3.41347E+00 -3.57129E+00 -3.73461E+00 -3.82030E+00 -3.79273E+00
  -3.65895E+00 -3.47543E+00 -3.30845E+00 -3.19699E+00 -3.15306E+00 -3.14917E+00 -3.14274E+00 -3.12874E+00 -3.12051E+00 -3.12530E+00
  -3.15038E+00 -3.18710E+00 -3.23010E+00 -3.27811E+00 -3.31465E+00 -3.30254E+00 -3.23395E+00 -3.14764E+00 -3.08971E+00 -3.10685E+00
  -3.21513E+00 -3.39157E+00 -3.55922E+00 -3.61747E+00 -3.51926E+00 -3.31469E+00 -3.15587E+00 -3.16811E+00 -3.33111E+00 -3.51345E+00
  -3.60360E+00 -3.58480E+00 -3.53060E+00 -3.52373E+00 -3.57436E+00 -3.66163E+00 -3.77373E+00 -3.87232E+00 -3.89682E+00 -3.83357E+00
  -3.72990E+00 -3.66539E+00 -3.70377E+00 -3.80265E+00 -3.81175E+00 -3.67307E+00 -3.47782E+00 -3.30790E+00 -3.14762E+00 -2.92938E+00
  -2.61285E+00 -2.30644E+00 -2.18894E+00 -2.37378E+00 -2.85700E+00 -3.50827E+00 -4.14039E+00 -4.51423E+00 -4.47426E+00 -4.03514E+00
  -3.26417E+00 -2.21042E+00 -1.02786E+00  2.78334E-02  7.20236E-01  6.28245E-01 -4.06354E-01 -2.09904E+00 -4.00979E+00 -5.77269E+00
  -7.04720E+00 -7.31917E+00 -6.32957E+00 -4.43582E+00 -2.41759E+00 -1.02390E+00 -4.95332E-01 -4.92566E-01 -6.68919E-01 -1.12648E+00
  -1.78655E+00 -2.34309E+00 -2.61557E+00 -2.60680E+00 -2.37833E+00 -1.94223E+00 -1.41530E+00 -1.03002E+00 -9.45673E-01 -1.08530E+00
  -1.24184E+00 -1.43555E+00 -1.77521E+00 -2.21670E+00 -2.61149E+00 -2.87559E+00 -2.87997E+00 -2.46449E+00 -1.64328E+00 -5.90454E-01
   3.20651E-01  6.56845E-01  1.67792E-01 -9.47514E-01 -2.20351E+00 -3.21834E+00 -3.68739E+00 -3.56271E+00 -3.10789E+00 -2.71629E+00
  -2.61836E+00 -2.51334E+00 -1.90612E+00 -6.59217E-01  5.94259E-01  1.36322E+00  2.55653E+00  4.79969E+00  7.52188E+00  9.75546E+00
   1.13551E+01  1.27274E+01  1.34405E+01  1.22202E+01  8.33334E+00  3.36290E+00 -1.90326E-01 -1.27583E+00 -1.15340E+00 -1.21232E+00
  -1.33357E+00 -1.40169E+00 -1.40454E+00 -1.34986E+00 -1.27157E+00 -1.21583E+00 -1.21092E+00 -1.26571E+00 -1.36337E+00 -1.46885E+00
  -1.54597E+00 -1.57451E+00 -1.56071E+00 -1.52539E+00 -1.48352E+00 -1.43956E+00 -1.40663E+00 -1.39767E+00 -1.40818E+00 -1.42003E+00
  -1.41954E+00 -1.40538E+00 -1.37470E+00 -1.32283E+00 -1.26316E+00 -1.21495E+00 -1.19002E+00 -1.18704E+00 -1.19070E+00 -1.18675E+00
  -1.17428E+00 -1.15069E+00 -1.11107E+00 -1.05699E+00 -9.96394E-01 -9.37940E-01 -8.83471E-01 -8.27383E-01 -7.66984E-01 -7.01702E-01
  -6.30346E-01 -5.52281E-01 -4.66757E-01 -3.73149E-01 -2.71045E-01 -1.59977E-01 -3.95515E-02  9.00658E-02  2.26832E-01  3.62101E-01
   4.64940E-01  5.51900E-01  8.96264E-01  1.64197E+00  2.61695E+00  3.51837E+00  4.11560E+00  4.29825E+00  3.86377E+00  2.57192E+00
   7.08812E-01 -8.45751E-01 -1.31408E+00 -5.77542E-01  8.25202E-01  2.45070E+00  4.26826E+00  5.95403E+00  6.97037E+00  7.07343E+00
   6.53334E+00  5.96470E+00  5.96577E+00  6.53372E+00  7.39945E+00  8.28722E+00  8.94344E+00  9.23768E+00  8.96658E+00  7.83301E+00
   6.03610E+00  4.35797E+00  3.58418E+00  3.95065E+00  5.03914E+00  6.33094E+00  7.65025E+00  8.73751E+00  9.15147E+00  8.74464E+00
   7.83296E+00  6.98646E+00  6.49781E+00  6.14583E+00  5.79650E+00  5.45242E+00  5.11515E+00  4.78543E+00  4.46465E+00  4.15470E+00
   3.85758E+00  3.57513E+00  3.30885E+00  3.05994E+00  2.82934E+00  2.61779E+00  2.42578E+00  2.25351E+00  2.10096E+00  1.96797E+00
   1.85437E+00  1.75999E+00  1.68465E+00  1.62814E+00  1.59028E+00  1.57090E+00  1.56993E+00  1.58735E+00  1.62305E+00  1.67685E+00
   1.74840E+00  1.83719E+00  1.94249E+00  2.06328E+00  2.19811E+00  2.34509E+00  2.50187E+00  2.66566E+00  2.83330E+00  3.00120E+00
   3.16544E+00  3.32191E+00  3.46644E+00  3.59498E+00  3.70380E+00  3.78953E+00  3.84941E+00  3.88133E+00  3.88407E+00  3.85726E+00
   3.80142E+00  3.71791E+00  3.60883E+00  3.47695E+00  3.32558E+00  3.15841E+00  2.97933E+00  2.79219E+00  2.60075E+00  2.40851E+00
   2.21864E+00  2.03388E+00  1.85648E+00  1.68817E+00  1.53022E+00  1.38346E+00  1.24833E+00  1.12493E+00  1.01304E+00  9.12235E-01
   8.21911E-01  7.41381E-01  6.69904E-01  6.06694E-01  5.50966E-01  5.01944E-01  4.58921E-01  4.21241E-01  3.88318E-01  3.59604E-01
   3.34603E-01  3.12872E-01  2.94041E-01  2.77786E-01  2.63829E-01  2.51903E-01  2.41781E-01  2.33261E-01  2.26187E-01  2.20417E-01
   2.15828E-01  2.12290E-01  2.09704E-01  2.07980E-01  2.07057E-01  2.06868E-01  2.07353E-01  2.08440E-01  2.10081E-01  2.12231E-01
   2.14865E-01  2.17945E-01  2.21441E-01  2.25311E-01  2.29536E-01  2.34094E-01  2.38973E-01  2.44146E-01  2.49589E-01  2.55273E-01
   2.61193E-01  2.67338E-01  2.73705E-01  2.80272E-01  2.87026E-01  2.93949E-01  3.01042E-01  3.08299E-01  3.15716E-01  3.23273E-01
   3.30963E-01  3.38774E-01  3.46714E-01  3.54776E-01  3.62957E-01  3.71240E-01  3.79622E-01  3.88099E-01  3.96677E-01  4.05349E-01
   4.14113E-01  4.22953E-01  4.31872E-01  4.40867E-01  4.49947E-01  4.59101E-01  4.68330E-01  4.77621E-01
 NY background values follow
    -5.364E+00   -5.353E+00   -5.341E+00   -5.330E+00   -5.318E+00   -5.307E+00   -5.295E+00   -5.284E+00   -5.272E+00   -5.261E+00
    -5.249E+00   -5.238E+00   -5.226E+00   -5.215E+00   -5.203E+00   -5.192E+00   -5.180E+00   -5.169E+00   -5.157E+00   -5.146E+00
    -5.135E+00   -5.123E+00   -5.112E+00   -5.100E+00   -5.089E+00   -5.077E+00   -5.066E+00   -5.054E+00   -5.043E+00   -5.031E+00
    -5.020E+00   -5.008E+00   -4.997E+00   -4.985E+00   -4.974E+00   -4.962E+00   -4.951E+00   -4.939E+00   -4.928E+00   -4.916E+00
    -4.905E+00   -4.894E+00   -4.882E+00   -4.871E+00   -4.859E+00   -4.848E+00   -4.836E+00   -4.825E+00   -4.813E+00   -4.802E+00
    -4.790E+00   -4.779E+00   -4.767E+00   -4.756E+00   -4.744E+00   -4.733E+00   -4.721E+00   -4.710E+00   -4.698E+00   -4.687E+00
    -4.675E+00   -4.664E+00   -4.653E+00   -4.641E+00   -4.630E+00   -4.618E+00   -4.607E+00   -4.595E+00   -4.584E+00   -4.572E+00
    -4.561E+00   -4.549E+00   -4.538E+00   -4.526E+00   -4.515E+00   -4.503E+00   -4.492E+00   -4.480E+00   -4.469E+00   -4.457E+00
    -4.446E+00   -4.434E+00   -4.423E+00   -4.412E+00   -4.400E+00   -4.389E+00   -4.377E+00   -4.366E+00   -4.354E+00   -4.343E+00
    -4.331E+00   -4.320E+00   -4.308E+00   -4.297E+00   -4.285E+00   -4.274E+00   -4.262E+00   -4.251E+00   -4.239E+00   -4.228E+00
    -4.216E+00   -4.205E+00   -4.193E+00   -4.182E+00   -4.171E+00   -4.159E+00   -4.148E+00   -4.136E+00   -4.125E+00   -4.113E+00
    -4.102E+00   -4.090E+00   -4.079E+00   -4.067E+00   -4.056E+00   -4.044E+00   -4.033E+00   -4.021E+00   -4.010E+00   -3.998E+00
    -3.987E+00   -3.975E+00   -3.964E+00   -3.952E+00   -3.941E+00   -3.930E+00   -3.918E+00   -3.907E+00   -3.895E+00   -3.884E+00
    -3.872E+00   -3.861E+00   -3.849E+00   -3.838E+00   -3.826E+00   -3.815E+00   -3.803E+00   -3.792E+00   -3.780E+00   -3.769E+00
    -3.757E+00   -3.746E+00   -3.734E+00   -3.723E+00   -3.711E+00   -3.700E+00   -3.688E+00   -3.677E+00   -3.666E+00   -3.654E+00
    -3.643E+00   -3.631E+00   -3.620E+00   -3.608E+00   -3.597E+00   -3.585E+00   -3.574E+00   -3.562E+00   -3.551E+00   -3.539E+00
    -3.528E+00   -3.516E+00   -3.505E+00   -3.493E+00   -3.482E+00   -3.470E+00   -3.459E+00   -3.447E+00   -3.436E+00   -3.424E+00
    -3.413E+00   -3.402E+00   -3.390E+00   -3.379E+00   -3.367E+00   -3.356E+00   -3.344E+00   -3.333E+00   -3.321E+00   -3.310E+00
    -3.298E+00   -3.287E+00   -3.275E+00   -3.264E+00   -3.252E+00   -3.241E+00   -3.229E+00   -3.218E+00   -3.206E+00   -3.195E+00
    -3.183E+00   -3.172E+00   -3.160E+00   -3.149E+00   -3.138E+00   -3.126E+00   -3.115E+00   -3.103E+00   -3.092E+00   -3.080E+00
    -3.069E+00   -3.057E+00   -3.046E+00   -3.034E+00   -3.023E+00   -3.011E+00   -3.000E+00   -2.988E+00   -2.977E+00   -2.965E+00
    -2.954E+00   -2.942E+00   -2.931E+00   -2.919E+00   -2.908E+00   -2.896E+00   -2.885E+00   -2.874E+00   -2.862E+00   -2.851E+00
    -2.839E+00   -2.828E+00   -2.816E+00   -2.805E+00   -2.793E+00   -2.782E+00   -2.770E+00   -2.759E+00   -2.747E+00   -2.736E+00
    -2.724E+00   -2.713E+00   -2.701E+00   -2.690E+00   -2.678E+00   -2.667E+00   -2.655E+00   -2.644E+00   -2.632E+00   -2.621E+00
    -2.609E+00   -2.598E+00   -2.587E+00   -2.575E+00   -2.564E+00   -2.552E+00   -2.541E+00   -2.529E+00   -2.518E+00   -2.506E+00
    -2.495E+00   -2.483E+00   -2.472E+00   -2.460E+00   -2.449E+00   -2.437E+00   -2.426E+00   -2.414E+00   -2.403E+00   -2.391E+00
    -2.380E+00   -2.368E+00   -2.357E+00   -2.345E+00   -2.334E+00   -2.322E+00   -2.311E+00   -2.300E+00   -2.288E+00   -2.277E+00
    -2.265E+00   -2.254E+00   -2.242E+00   -2.231E+00   -2.219E+00   -2.208E+00   -2.196E+00   -2.185E+00   -2.173E+00   -2.162E+00
    -2.150E+00   -2.139E+00   -2.127E+00   -2.116E+00   -2.104E+00   -2.093E+00   -2.081E+00   -2.070E+00   -2.058E+00   -2.047E+00
    -2.035E+00   -2.024E+00   -2.013E+00   -2.001E+00   -1.990E+00   -1.978E+00   -1.967E+00   -1.955E+00   -1.944E+00   -1.932E+00
    -1.921E+00   -1.909E+00   -1.898E+00   -1.886E+00   -1.875E+00   -1.863E+00   -1.852E+00   -1.840E+00   -1.829E+00   -1.817E+00
    -1.806E+00   -1.794E+00   -1.783E+00   -1.771E+00   -1.760E+00   -1.748E+00   -1.737E+00   -1.725E+00   -1.714E+00   -1.703E+00
    -1.691E+00   -1.680E+00   -1.668E+00   -1.657E+00   -1.645E+00   -1.634E+00   -1.622E+00   -1.611E+00   -1.599E+00   -1.588E+00
    -1.576E+00   -1.565E+00   -1.553E+00   -1.542E+00   -1.530E+00   -1.519E+00   -1.507E+00   -1.496E+00   -1.484E+00   -1.473E+00
    -1.461E+00   -1.450E+00   -1.438E+00   -1.427E+00   -1.416E+00   -1.404E+00   -1.393E+00   -1.381E+00   -1.370E+00   -1.358E+00
    -1.347E+00   -1.335E+00   -1.324E+00   -1.312E+00   -1.301E+00   -1.289E+00   -1.278E+00   -1.266E+00   -1.255E+00   -1.243E+00
    -1.232E+00   -1.220E+00   -1.209E+00   -1.197E+00   -1.186E+00   -1.174E+00   -1.163E+00   -1.151E+00   -1.140E+00   -1.128E+00
    -1.117E+00   -1.106E+00   -1.094E+00   -1.083E+00   -1.071E+00   -1.060E+00   -1.048E+00   -1.037E+00   -1.025E+00   -1.014E+00
    -1.002E+00   -9.907E-01   -9.792E-01   -9.677E-01   -9.562E-01   -9.448E-01   -9.333E-01   -9.218E-01   -9.103E-01   -8.988E-01
    -8.874E-01   -8.759E-01   -8.644E-01   -8.529E-01   -8.414E-01   -8.300E-01   -8.185E-01   -8.070E-01   -7.955E-01   -7.840E-01
    -7.725E-01   -7.611E-01   -7.496E-01   -7.381E-01   -7.266E-01   -7.151E-01   -7.037E-01   -6.922E-01   -6.807E-01   -6.692E-01
    -6.577E-01   -6.462E-01   -6.348E-01   -6.233E-01   -6.118E-01   -6.003E-01   -5.888E-01   -5.774E-01   -5.659E-01   -5.544E-01
    -5.429E-01   -5.314E-01   -5.199E-01   -5.085E-01   -4.970E-01   -4.855E-01   -4.740E-01   -4.625E-01   -4.511E-01   -4.396E-01
    -4.281E-01   -4.166E-01   -4.051E-01   -3.936E-01   -3.822E-01   -3.707E-01   -3.592E-01   -3.477E-01   -3.362E-01   -3.248E-01
    -3.133E-01   -3.018E-01   -2.903E-01   -2.788E-01   -2.673E-01   -2.559E-01   -2.444E-01   -2.329E-01   -2.214E-01   -2.099E-01
    -1.985E-01   -1.870E-01   -1.755E-01   -1.640E-01   -1.525E-01   -1.411E-01   -1.296E-01   -1.181E-01   -1.066E-01   -9.512E-02
    -8.364E-02   -7.216E-02   -6.068E-02   -4.920E-02   -3.771E-02   -2.623E-02   -1.475E-02   -3.269E-03    8.212E-03    1.969E-02
     3.118E-02    4.266E-02    5.414E-02    6.562E-02    7.710E-02    8.858E-02    1.001E-01    1.115E-01    1.230E-01    1.345E-01
     1.460E-01    1.575E-01    1.690E-01    1.804E-01    1.919E-01    2.034E-01    2.149E-01    2.264E-01    2.378E-01    2.493E-01
     2.608E-01    2.723E-01    2.838E-01    2.953E-01    3.067E-01    3.182E-01    3.297E-01    3.412E-01
 Ala      Conc. = 1.37E+02
