 LCModel (Version 6.3-1L) Copyright: S.W. Provencher.          Ref.: Magn. Reson. Med. 30:672-679 (1993).                
 Slice#3 Row#2 Col#9  PD_24_press_2_raw_act
 36 lines in following concentration table = NCONC+1
    Conc.  %SD /Cr+PCr  Metabolite                                         
  140.162 105%   0.472 Ala                                                 
   79.003  75%   0.266 Asp                                                 
  181.584 126%   0.611 Cr                                                  
  115.644 200%   0.389 PCr                                                 
   29.835 119%   0.100 GABA                                                
   29.835 120%   0.100 Glc                                                 
    0.000 999%   0.000 Gln                                                 
  399.534  80%   1.344 Glu                                                 
   64.121  45%   0.216 GPC                                                 
    0.000 999%   0.000 PCh                                                 
   92.019 112%   0.310 GSH                                                 
  991.487  34%   3.336 Ins                                                 
    0.000 999%   0.000 Lac                                                 
  401.336  29%   1.350 NAA                                                 
  111.232 107%   0.374 NAAG                                                
   12.508  92% 4.2E-02 Scyllo                                              
   34.358 171%   0.116 Tau                                                 
    0.000 999%   0.000 -CrCH2                                              
   64.121  45%   0.216 GPC+PCh                                             
  512.568  20%   1.724 NAA+NAAG                                            
  297.228  25%   1.000 Cr+PCr                                              
  399.534  80%   1.344 Glu+Gln                                             
    0.000 999%   0.000 Lip13a                                              
    0.000 999%   0.000 Lip13b                                              
 1.34E-03 999% 4.5E-06 Lip09                                               
  718.336  28%   2.417 MM09                                                
    0.000 999%   0.000 Lip20                                               
  543.857  70%   1.830 MM20                                                
  169.231  73%   0.569 MM12                                                
 1.29E+03  23%   4.354 MM14                                                
   81.026 310%   0.273 MM17                                                
    0.000 999%   0.000 Lip13a+Lip13b                                       
 1.46E+03  23%   4.923 MM14+Lip13a+Lip13b+MM12                             
  718.337  28%   2.417 MM09+Lip09                                          
  543.857  70%   1.830 MM20+Lip20                                          
   6 lines in following misc. output table
  FWHM = 0.046 ppm    S/N =   1                                            
  Data shift =-0.015 ppm                                                   
  Ph: -84 deg     -20.9 deg/ppm                                            
  alphaB,S = 8.5E+01,   2.6E+01                                            
   14 spline knots.   Ns = 5(1)                                            
   2 inflections.     1 extrema                                            
  498 points on ppm-axis = NY
      4.000000     3.992357     3.984714     3.977070     3.969427     3.961784     3.954141     3.946497     3.938854     3.931211
      3.923568     3.915925     3.908281     3.900638     3.892995     3.885352     3.877708     3.870065     3.862422     3.854779
      3.847136     3.839492     3.831849     3.824206     3.816563     3.808919     3.801276     3.793633     3.785990     3.778347
      3.770703     3.763060     3.755417     3.747774     3.740130     3.732487     3.724844     3.717201     3.709558     3.701914
      3.694271     3.686628     3.678985     3.671341     3.663698     3.656055     3.648412     3.640769     3.633125     3.625482
      3.617839     3.610196     3.602552     3.594909     3.587266     3.579623     3.571980     3.564336     3.556693     3.549050
      3.541407     3.533763     3.526120     3.518477     3.510834     3.503191     3.495547     3.487904     3.480261     3.472618
      3.464974     3.457331     3.449688     3.442045     3.434402     3.426758     3.419115     3.411472     3.403829     3.396185
      3.388542     3.380899     3.373256     3.365613     3.357969     3.350326     3.342683     3.335040     3.327396     3.319753
      3.312110     3.304467     3.296824     3.289180     3.281537     3.273894     3.266251     3.258607     3.250964     3.243321
      3.235678     3.228034     3.220391     3.212748     3.205105     3.197462     3.189818     3.182175     3.174532     3.166889
      3.159245     3.151602     3.143959     3.136316     3.128673     3.121029     3.113386     3.105743     3.098100     3.090456
      3.082813     3.075170     3.067527     3.059884     3.052240     3.044597     3.036954     3.029311     3.021667     3.014024
      3.006381     2.998738     2.991095     2.983451     2.975808     2.968165     2.960522     2.952878     2.945235     2.937592
      2.929949     2.922306     2.914662     2.907019     2.899376     2.891733     2.884089     2.876446     2.868803     2.861160
      2.853517     2.845873     2.838230     2.830587     2.822944     2.815300     2.807657     2.800014     2.792371     2.784728
      2.777084     2.769441     2.761798     2.754155     2.746511     2.738868     2.731225     2.723582     2.715939     2.708295
      2.700652     2.693009     2.685366     2.677722     2.670079     2.662436     2.654793     2.647150     2.639506     2.631863
      2.624220     2.616577     2.608933     2.601290     2.593647     2.586004     2.578361     2.570717     2.563074     2.555431
      2.547788     2.540144     2.532501     2.524858     2.517215     2.509572     2.501928     2.494285     2.486642     2.478999
      2.471355     2.463712     2.456069     2.448426     2.440783     2.433139     2.425496     2.417853     2.410210     2.402566
      2.394923     2.387280     2.379637     2.371994     2.364350     2.356707     2.349064     2.341421     2.333777     2.326134
      2.318491     2.310848     2.303205     2.295561     2.287918     2.280275     2.272632     2.264988     2.257345     2.249702
      2.242059     2.234416     2.226772     2.219129     2.211486     2.203843     2.196199     2.188556     2.180913     2.173270
      2.165627     2.157983     2.150340     2.142697     2.135054     2.127410     2.119767     2.112124     2.104481     2.096838
      2.089194     2.081551     2.073908     2.066265     2.058621     2.050978     2.043335     2.035692     2.028049     2.020405
      2.012762     2.005119     1.997476     1.989833     1.982190     1.974546     1.966903     1.959260     1.951617     1.943974
      1.936331     1.928688     1.921045     1.913402     1.905759     1.898115     1.890472     1.882829     1.875186     1.867543
      1.859900     1.852257     1.844614     1.836971     1.829327     1.821684     1.814041     1.806398     1.798755     1.791112
      1.783469     1.775826     1.768183     1.760540     1.752896     1.745253     1.737610     1.729967     1.722324     1.714681
      1.707038     1.699395     1.691752     1.684108     1.676465     1.668822     1.661179     1.653536     1.645893     1.638250
      1.630607     1.622964     1.615321     1.607677     1.600034     1.592391     1.584748     1.577105     1.569462     1.561819
      1.554176     1.546533     1.538890     1.531246     1.523603     1.515960     1.508317     1.500674     1.493031     1.485388
      1.477745     1.470102     1.462458     1.454815     1.447172     1.439529     1.431886     1.424243     1.416600     1.408957
      1.401314     1.393671     1.386027     1.378384     1.370741     1.363098     1.355455     1.347812     1.340169     1.332526
      1.324883     1.317240     1.309596     1.301953     1.294310     1.286667     1.279024     1.271381     1.263738     1.256095
      1.248452     1.240808     1.233165     1.225522     1.217879     1.210236     1.202593     1.194950     1.187307     1.179664
      1.172021     1.164377     1.156734     1.149091     1.141448     1.133805     1.126162     1.118519     1.110876     1.103233
      1.095590     1.087946     1.080303     1.072660     1.065017     1.057374     1.049731     1.042088     1.034445     1.026802
      1.019158     1.011515     1.003872     0.996229     0.988586     0.980943     0.973300     0.965657     0.958014     0.950371
      0.942727     0.935084     0.927441     0.919798     0.912155     0.904512     0.896869     0.889226     0.881583     0.873940
      0.866296     0.858653     0.851010     0.843367     0.835724     0.828081     0.820438     0.812795     0.805152     0.797508
      0.789865     0.782222     0.774579     0.766936     0.759293     0.751650     0.744007     0.736364     0.728721     0.721077
      0.713434     0.705791     0.698148     0.690505     0.682862     0.675219     0.667576     0.659933     0.652290     0.644646
      0.637003     0.629360     0.621717     0.614074     0.606431     0.598788     0.591145     0.583502     0.575858     0.568215
      0.560572     0.552929     0.545286     0.537643     0.530000     0.522357     0.514714     0.507071     0.499427     0.491784
      0.484141     0.476498     0.468855     0.461212     0.453569     0.445925     0.438282     0.430639     0.422996     0.415353
      0.407710     0.400067     0.392424     0.384780     0.377137     0.369494     0.361851     0.354208     0.346565     0.338922
      0.331278     0.323635     0.315992     0.308349     0.300706     0.293063     0.285420     0.277777     0.270133     0.262490
      0.254847     0.247204     0.239561     0.231918     0.224275     0.216631     0.208988     0.201345
 NY phased data points follow
   7.32379E+00  1.11120E+01  4.86472E+00  1.95855E+01  1.08847E+01  2.74239E+00  5.23884E+00 -9.06487E-01  9.97593E+00  7.80035E+00
   1.04982E+00  6.86827E+00  5.03206E+00  3.36390E+00  4.70373E+00  1.16453E+01  7.67735E+00 -1.06613E+01 -2.94070E+00 -1.39801E+00
  -1.00776E+01 -1.72612E+00 -1.13880E+01 -2.01521E-01  9.96826E-01 -2.81141E+00  3.83392E+00  1.38378E+00 -3.27952E+00 -3.62798E+00
  -6.75803E+00  5.76271E+00 -2.87963E+00  4.32558E-01 -1.55876E+00  1.02443E+01 -1.06811E+00  1.64842E+00 -3.04365E+00 -3.09770E+00
   1.52060E+00 -6.69078E-01 -6.14582E+00 -4.10792E+00 -1.12527E+01 -5.86272E+00 -2.93711E+00  5.04974E+00 -9.35375E+00 -2.63300E+00
   8.04102E+00  3.35936E+00  1.63552E+00 -2.32064E+00 -1.05141E+01 -6.94821E+00 -5.33057E+00 -4.56672E+00 -1.96633E+00 -9.54203E+00
  -1.28869E+01 -8.60888E-02  6.38781E+00  5.59321E+00 -2.34955E+00 -8.10526E+00 -1.38272E+00 -8.12327E+00  1.10080E+00 -2.93628E+00
  -2.20572E+00  1.01878E+00  3.92440E+00 -3.42131E+00 -1.83287E+01 -8.26089E+00 -1.51670E+00 -4.47330E+00 -7.71744E+00 -4.63996E+00
  -1.16686E+01 -9.14589E+00 -1.93539E+00  2.20765E+00  8.60808E+00 -5.79989E+00 -2.40085E+00  9.18687E+00 -7.67483E+00 -7.16918E+00
  -1.35968E+01 -8.69830E+00 -7.55456E+00 -4.37752E-01 -8.95345E+00 -3.10615E+00 -1.58339E+01 -3.37471E+00  1.88454E+00 -2.80641E+00
  -1.25185E+00 -8.96290E+00 -2.31609E+00  5.35625E-02 -2.31958E+00 -2.81153E+00  1.11815E+00  6.27890E+00 -7.94154E-01  7.24178E-01
  -1.42270E+01 -1.01994E+01 -9.83879E+00  2.20797E+00 -5.11026E+00 -1.13452E+01 -1.18860E+00 -3.53377E+00 -7.88356E+00 -5.09060E-01
  -1.79261E+01 -4.33350E+00 -2.38726E+01 -1.30482E+01 -5.21448E+00  2.14804E+00  5.53665E+00  9.69500E+00 -1.34369E+00  6.52523E+00
  -5.24310E+00 -7.80332E-01 -4.05301E-02 -4.16545E-01 -1.56663E+00 -1.30549E+01 -9.85887E+00 -1.18809E+01 -1.16808E+01 -1.93710E+00
  -8.91603E+00 -6.85996E+00 -1.34935E+01 -1.90022E+01 -1.44612E+01  1.54163E+00 -1.17584E+01 -2.00673E+00 -7.19749E+00 -3.85023E+00
  -4.68359E+00 -8.59041E+00 -1.12980E+01 -4.16914E-01 -1.82971E+01 -1.74641E+00 -1.28887E+01 -1.72276E+01 -1.36961E+01 -2.21384E+01
  -7.06216E+00 -6.40831E+00 -5.66731E+00 -1.76798E+01 -8.35529E+00 -4.24649E+00 -1.89498E+01 -1.52016E+01 -2.51361E+00 -1.54738E+00
   4.89966E+00 -1.27476E+00 -2.42237E+00 -4.11436E+00 -9.82705E+00  6.78435E+00 -6.68360E+00 -1.72465E+00 -1.61088E+01 -6.78934E+00
  -1.16285E+01 -1.34515E+01  3.45336E-01 -7.20084E+00 -2.48250E+00 -5.35770E+00 -6.10148E+00 -8.33551E+00 -1.00052E+01 -1.41660E+01
  -2.81023E+00 -1.41720E+01 -1.80290E+00 -9.42661E+00 -5.45897E+00 -1.03246E+01 -1.04108E+01 -4.38613E+00 -5.65239E+00 -1.01727E+01
  -6.74047E+00 -1.59649E+01 -1.30848E+01 -7.90620E+00 -9.49225E+00 -3.19520E+00 -9.80139E+00 -4.40528E+00 -8.66377E+00  1.20039E+00
  -1.24634E+01 -5.65114E+00 -3.61882E+00 -7.70513E+00 -2.88308E+00 -6.47493E+00 -6.07768E+00  7.50393E-01 -7.22459E+00 -7.44370E+00
   1.94043E+00 -4.58828E+00 -1.19789E+01  1.84471E+00 -7.68261E+00 -5.89011E+00 -6.32841E+00 -1.33642E+01 -3.78048E+00  2.64002E+00
  -3.84481E+00 -2.30674E+00 -1.11461E+01  2.09301E-01 -2.63027E+00  5.18160E+00 -1.77172E+00 -5.03510E+00  3.97423E+00 -1.91148E+00
  -3.13562E+00 -2.35528E+00 -8.16371E+00  3.68472E+00 -1.04717E+01 -8.46955E+00 -4.07017E+00  4.73127E+00  1.97414E+00 -2.53691E+00
  -1.28245E+01 -1.59702E-02 -6.19391E+00 -7.04537E-01 -9.77100E+00  3.19126E-01 -3.25327E+00  4.82341E+00  3.83380E+00  1.28268E+01
   1.58134E+01  2.60138E+01  6.95476E+00  1.63395E+00  1.04600E+01  7.84095E+00  6.03097E+00 -1.73050E+01  1.63369E+00 -1.94463E+00
  -4.19100E+00  5.73970E+00 -2.44904E+00 -3.51432E-01  4.52017E-01  2.57546E+00  3.90950E+00  1.12927E+01 -4.81052E+00  5.93991E-01
  -1.04504E+01 -8.29972E+00 -5.14279E+00 -2.04708E+00 -3.42294E+00  2.94589E+00  3.28999E-01  1.95235E+00 -1.30817E+01 -6.91060E+00
  -5.68888E+00 -2.62254E+00 -6.75274E+00 -2.54219E+00 -2.33164E+00 -5.58541E+00 -2.06025E+01 -9.09701E+00 -1.11403E+01 -1.19409E+01
  -7.11867E+00 -8.28610E+00 -8.61319E+00 -1.57255E+00 -1.08970E+00 -1.73916E+00 -2.07134E+00 -1.47981E+01 -4.58466E-01  4.58093E+00
  -5.87505E+00 -3.48608E-01 -2.57405E+00 -1.25628E+01  4.76264E+00  5.66152E+00 -2.96156E+00 -3.68788E+00  2.52757E+00  3.31652E+00
   7.49047E+00  4.71144E+00  5.85888E+00  5.44871E+00  9.43715E-01  1.94715E+00  4.40457E+00  3.10047E+00  9.05756E+00  7.96486E+00
   1.11564E+01  1.67342E+00  5.80752E-01 -1.59901E+00 -9.89327E-01 -2.65143E+00  5.39164E+00  3.35873E+00  7.17753E+00 -5.27607E+00
  -4.18865E+00  3.43272E-01 -2.90768E+00  3.83530E+00 -7.48061E+00 -8.51714E-01 -9.56369E+00 -1.77463E+00  5.89760E+00 -2.26512E+00
  -6.59845E-01 -4.40008E+00 -6.89012E+00 -8.48510E+00 -3.08896E+00 -9.14620E+00  1.46344E+00  3.18294E+00 -1.71327E+01 -1.27052E+01
  -7.42762E+00 -9.24730E+00 -4.89840E+00 -1.22564E+01 -1.20107E+01 -8.16590E-01 -3.74828E-01  1.72086E+00 -1.75338E+01  4.13531E+00
   8.86060E-01 -2.74608E+00 -7.60496E+00 -1.23133E-01 -5.78372E-01 -1.02079E+01 -1.59941E+01 -1.58126E+00 -6.77975E+00 -7.36379E+00
  -8.96903E-02 -7.31971E+00  7.27649E+00  3.11801E+00 -1.05867E-02 -7.11194E-01 -1.63721E+01  2.86407E+00  1.32624E+00  7.98549E-01
  -5.46670E+00  3.24330E+00  7.22610E+00  5.88614E+00 -2.57570E+00 -1.56346E+01 -1.06293E+01 -3.66162E+00  1.03184E+01  6.98655E-01
  -8.27236E-01  9.43757E+00  1.19642E+00  5.52132E+00  3.75586E+00  1.76258E+00  9.09128E+00 -3.73296E-02 -8.34981E+00 -1.06610E+00
   1.91304E+00  7.24641E+00 -1.65078E+00  1.15163E+00  9.75526E-01  3.98143E+00 -7.57913E+00  5.02564E+00 -6.46960E+00 -4.39563E+00
  -2.45429E+00 -1.05028E+00 -5.66077E+00  1.66306E+00 -7.92479E+00 -1.21972E+01 -1.42184E+01 -6.26795E+00 -1.90068E+00 -7.38148E+00
  -1.17907E+01 -8.25662E+00 -3.84474E+00 -3.68440E+00 -1.15552E+01 -1.36088E+01  1.28305E+00 -4.89765E+00 -8.19958E+00 -2.00987E+01
  -4.99665E+00 -6.65135E+00 -6.29759E+00 -3.15673E+00 -1.10196E+01 -4.28811E+00  3.70313E+00 -1.33201E+01 -7.99598E+00 -1.00506E+01
  -9.26616E+00 -9.03855E+00 -9.97248E+00 -1.15244E+00  9.15288E-01 -1.31316E+01 -6.93747E+00 -8.03430E+00 -4.44706E+00 -1.08625E+01
  -7.63032E+00 -1.25732E+01  4.48864E+00 -1.18327E+00  7.69142E+00 -1.02145E+01  1.83320E+00  6.40959E+00 -4.14781E+00 -4.57789E-01
  -1.12322E+01 -1.43314E+00 -1.13837E+01  4.26406E+00 -1.41145E+01  6.37871E+00 -3.75878E+00 -4.53989E+00 -2.77640E+00 -5.61930E+00
  -2.98174E+00  7.37129E+00 -5.82633E+00 -1.13099E+01 -5.68645E+00  8.16184E-01 -1.00437E+01 -3.19401E+00 -3.04644E+00 -8.76893E+00
   6.82851E-01 -4.72791E+00 -5.61965E+00 -3.64904E+00  1.06614E+01 -3.21040E+00 -9.41968E+00 -7.28224E+00
 NY points of the fit to the data follow
  -1.18815E+00 -1.91680E+00 -2.65026E+00 -3.10460E+00 -3.20929E+00 -3.00855E+00 -2.50246E+00 -1.59041E+00 -2.42311E-01  1.27128E+00
   2.56280E+00  3.33286E+00  3.42952E+00  2.84085E+00  1.64658E+00  7.32588E-02 -1.53098E+00 -2.98822E+00 -3.72683E+00 -3.83412E+00
  -3.77373E+00 -3.65895E+00 -3.48290E+00 -3.23112E+00 -3.01469E+00 -2.99043E+00 -3.07145E+00 -3.08084E+00 -2.92410E+00 -2.58822E+00
  -2.13007E+00 -1.62717E+00 -1.07604E+00 -5.40884E-01 -2.53518E-01 -4.52816E-01 -9.49979E-01 -1.37138E+00 -1.86828E+00 -2.59650E+00
  -3.28137E+00 -3.71614E+00 -4.00119E+00 -4.17569E+00 -3.77973E+00 -2.34306E+00 -8.14041E-02  2.21586E+00  3.80229E+00  4.34232E+00
   3.89939E+00  2.63020E+00  5.62119E-01 -2.09783E+00 -4.52317E+00 -5.68000E+00 -5.50091E+00 -4.65026E+00 -3.57592E+00 -2.41876E+00
  -1.39401E+00 -7.45572E-01 -5.81740E-01 -8.45736E-01 -1.44027E+00 -2.34152E+00 -3.28066E+00 -3.87729E+00 -4.01125E+00 -3.64355E+00
  -2.97190E+00 -2.25227E+00 -1.66560E+00 -1.34853E+00 -1.30323E+00 -1.42047E+00 -1.65358E+00 -2.00608E+00 -2.48010E+00 -2.84967E+00
  -3.04856E+00 -3.18599E+00 -3.22476E+00 -3.16834E+00 -3.15572E+00 -3.35775E+00 -3.85796E+00 -4.59856E+00 -5.39266E+00 -6.04440E+00
  -6.47097E+00 -6.63164E+00 -6.41055E+00 -5.66377E+00 -4.68320E+00 -3.88160E+00 -3.47967E+00 -3.47539E+00 -3.75568E+00 -3.84627E+00
  -3.33208E+00 -2.26434E+00 -9.69988E-01  1.65340E-01  9.09216E-01  1.11858E+00  7.97587E-01 -2.07211E-01 -1.94692E+00 -3.78947E+00
  -4.63027E+00 -4.71885E+00 -4.70233E+00 -4.65189E+00 -4.58894E+00 -4.52395E+00 -4.47846E+00 -4.46092E+00 -4.46184E+00 -4.46584E+00
  -4.45781E+00 -4.44858E+00 -4.37354E+00 -3.59304E+00 -1.70364E+00  9.79381E-01  3.74830E+00  5.83827E+00  6.80468E+00  6.71439E+00
   5.73926E+00  3.69509E+00  5.63661E-01 -2.50217E+00 -3.91830E+00 -4.39240E+00 -4.72253E+00 -4.98566E+00 -5.16415E+00 -5.23933E+00
  -5.16454E+00 -4.94379E+00 -4.69081E+00 -4.48283E+00 -4.36705E+00 -4.37559E+00 -4.47361E+00 -4.59831E+00 -4.71752E+00 -4.80455E+00
  -4.89579E+00 -5.00271E+00 -5.10900E+00 -5.18498E+00 -5.23329E+00 -5.25340E+00 -5.24146E+00 -5.24204E+00 -5.29258E+00 -5.38641E+00
  -5.49738E+00 -5.58932E+00 -5.64533E+00 -5.65889E+00 -5.63366E+00 -5.56243E+00 -5.45414E+00 -5.37882E+00 -5.39854E+00 -5.48535E+00
  -5.58476E+00 -5.64865E+00 -5.66961E+00 -5.73198E+00 -5.82487E+00 -5.89523E+00 -5.92261E+00 -5.93408E+00 -5.95268E+00 -5.98045E+00
  -5.98000E+00 -5.90261E+00 -5.78942E+00 -5.76024E+00 -5.80719E+00 -5.80025E+00 -5.67853E+00 -5.43991E+00 -5.15289E+00 -4.86706E+00
  -4.60041E+00 -4.33299E+00 -4.09864E+00 -3.97919E+00 -4.05717E+00 -4.28357E+00 -4.55068E+00 -4.78135E+00 -4.90514E+00 -4.89876E+00
  -4.79834E+00 -4.63848E+00 -4.40444E+00 -4.10433E+00 -3.83978E+00 -3.75428E+00 -3.82498E+00 -3.99985E+00 -4.29378E+00 -4.71733E+00
  -5.16649E+00 -5.47188E+00 -5.45603E+00 -5.02383E+00 -4.31170E+00 -3.53017E+00 -2.89526E+00 -2.62121E+00 -2.78166E+00 -3.46462E+00
  -4.67302E+00 -6.07551E+00 -7.16801E+00 -7.46467E+00 -7.09517E+00 -6.37821E+00 -5.43315E+00 -4.36338E+00 -3.43073E+00 -3.00213E+00
  -3.12287E+00 -3.43143E+00 -3.63296E+00 -3.69708E+00 -3.59096E+00 -3.32725E+00 -2.97071E+00 -2.65549E+00 -2.56304E+00 -2.76802E+00
  -3.16630E+00 -3.61569E+00 -3.96056E+00 -4.08972E+00 -3.92707E+00 -3.48714E+00 -2.92366E+00 -2.42499E+00 -2.10413E+00 -2.00348E+00
  -2.16136E+00 -2.42098E+00 -2.39690E+00 -1.83612E+00 -8.84359E-01  1.44600E-01  1.44060E+00  3.65110E+00  6.75023E+00  1.00930E+01
   1.26799E+01  1.36189E+01  1.30237E+01  1.17862E+01  9.66463E+00  5.89624E+00  1.15422E+00 -2.10659E+00 -3.15434E+00 -3.60243E+00
  -3.88894E+00 -4.03610E+00 -4.09245E+00 -4.10935E+00 -4.07647E+00 -4.02375E+00 -3.98353E+00 -3.97998E+00 -4.02378E+00 -4.12121E+00
  -4.24497E+00 -4.35180E+00 -4.42029E+00 -4.45223E+00 -4.46317E+00 -4.46047E+00 -4.44534E+00 -4.42904E+00 -4.42471E+00 -4.42504E+00
  -4.41944E+00 -4.40484E+00 -4.38330E+00 -4.35144E+00 -4.31166E+00 -4.26910E+00 -4.22728E+00 -4.19048E+00 -4.16031E+00 -4.12637E+00
  -4.08255E+00 -4.02966E+00 -3.96788E+00 -3.89608E+00 -3.81303E+00 -3.72042E+00 -3.62234E+00 -3.51679E+00 -3.40022E+00 -3.27040E+00
  -3.12432E+00 -2.95946E+00 -2.77409E+00 -2.56667E+00 -2.33601E+00 -2.08119E+00 -1.80168E+00 -1.49741E+00 -1.16871E+00 -8.15980E-01
  -4.39625E-01 -4.01471E-02  3.90474E-01  9.35880E-01  1.62329E+00  2.29417E+00  2.75589E+00  2.88127E+00  2.64986E+00  2.14782E+00
   1.43279E+00  5.38787E-01 -3.01654E-01 -6.96868E-01 -3.49466E-01  4.39274E-01  1.18029E+00  1.75205E+00  2.15099E+00  2.34915E+00
   2.18465E+00  1.53685E+00  7.09653E-01  8.65890E-02 -4.04508E-01 -8.30381E-01 -1.21254E+00 -1.55899E+00 -1.87309E+00 -2.15650E+00
  -2.41037E+00 -2.63578E+00 -2.83406E+00 -3.00679E+00 -3.15581E+00 -3.28320E+00 -3.39117E+00 -3.48200E+00 -3.55803E+00 -3.62154E+00
  -3.67473E+00 -3.71958E+00 -3.75792E+00 -3.79130E+00 -3.82108E+00 -3.84834E+00 -3.87390E+00 -3.89829E+00 -3.92175E+00 -3.94431E+00
  -3.96577E+00 -3.98573E+00 -4.00357E+00 -4.01846E+00 -4.02941E+00 -4.03530E+00 -4.03488E+00 -4.02673E+00 -4.00930E+00 -3.98090E+00
  -3.93972E+00 -3.88391E+00 -3.81151E+00 -3.72057E+00 -3.60914E+00 -3.47542E+00 -3.31785E+00 -3.13531E+00 -2.92716E+00 -2.69346E+00
  -2.43510E+00 -2.15398E+00 -1.85314E+00 -1.53681E+00 -1.21036E+00 -8.80298E-01 -5.54067E-01 -2.39850E-01  5.37471E-02  3.18099E-01
   5.44979E-01  7.26997E-01  8.57976E-01  9.33303E-01  9.50197E-01  9.07893E-01  8.07686E-01  6.52842E-01  4.48374E-01  2.00742E-01
  -8.25115E-02 -3.93150E-01 -7.22685E-01 -1.06279E+00 -1.40566E+00 -1.74432E+00 -2.07279E+00 -2.38620E+00 -2.68088E+00 -2.95429E+00
  -3.20498E+00 -3.43243E+00 -3.63690E+00 -3.81922E+00 -3.98069E+00 -4.12292E+00 -4.24769E+00 -4.35684E+00 -4.45218E+00 -4.53541E+00
  -4.60813E+00 -4.67177E+00 -4.72763E+00 -4.77685E+00 -4.82038E+00 -4.85904E+00 -4.89354E+00 -4.92449E+00 -4.95239E+00 -4.97767E+00
  -5.00067E+00 -5.02169E+00 -5.04096E+00 -5.05873E+00 -5.07517E+00 -5.09043E+00 -5.10462E+00 -5.11787E+00 -5.13027E+00 -5.14193E+00
  -5.15291E+00 -5.16327E+00 -5.17305E+00 -5.18232E+00 -5.19112E+00 -5.19950E+00 -5.20749E+00 -5.21511E+00 -5.22238E+00 -5.22934E+00
  -5.23602E+00 -5.24244E+00 -5.24862E+00 -5.25457E+00 -5.26029E+00 -5.26581E+00 -5.27116E+00 -5.27634E+00 -5.28136E+00 -5.28621E+00
  -5.29091E+00 -5.29549E+00 -5.29995E+00 -5.30430E+00 -5.30852E+00 -5.31262E+00 -5.31663E+00 -5.32055E+00 -5.32439E+00 -5.32814E+00
  -5.33180E+00 -5.33538E+00 -5.33890E+00 -5.34236E+00 -5.34576E+00 -5.34910E+00 -5.35236E+00 -5.35557E+00 -5.35874E+00 -5.36187E+00
  -5.36495E+00 -5.36797E+00 -5.37095E+00 -5.37389E+00 -5.37682E+00 -5.37971E+00 -5.38256E+00 -5.38536E+00
 NY background values follow
    -4.862E+00   -4.864E+00   -4.866E+00   -4.867E+00   -4.869E+00   -4.870E+00   -4.872E+00   -4.873E+00   -4.875E+00   -4.876E+00
    -4.878E+00   -4.879E+00   -4.881E+00   -4.883E+00   -4.884E+00   -4.886E+00   -4.887E+00   -4.889E+00   -4.890E+00   -4.892E+00
    -4.893E+00   -4.895E+00   -4.896E+00   -4.898E+00   -4.899E+00   -4.901E+00   -4.902E+00   -4.904E+00   -4.906E+00   -4.907E+00
    -4.909E+00   -4.910E+00   -4.912E+00   -4.913E+00   -4.915E+00   -4.916E+00   -4.918E+00   -4.919E+00   -4.921E+00   -4.922E+00
    -4.924E+00   -4.925E+00   -4.927E+00   -4.928E+00   -4.930E+00   -4.931E+00   -4.933E+00   -4.935E+00   -4.936E+00   -4.938E+00
    -4.939E+00   -4.941E+00   -4.942E+00   -4.944E+00   -4.945E+00   -4.947E+00   -4.948E+00   -4.950E+00   -4.951E+00   -4.953E+00
    -4.954E+00   -4.956E+00   -4.957E+00   -4.959E+00   -4.960E+00   -4.962E+00   -4.963E+00   -4.965E+00   -4.966E+00   -4.968E+00
    -4.969E+00   -4.971E+00   -4.972E+00   -4.974E+00   -4.975E+00   -4.977E+00   -4.978E+00   -4.980E+00   -4.981E+00   -4.983E+00
    -4.984E+00   -4.986E+00   -4.987E+00   -4.989E+00   -4.990E+00   -4.992E+00   -4.993E+00   -4.995E+00   -4.996E+00   -4.998E+00
    -4.999E+00   -5.001E+00   -5.002E+00   -5.004E+00   -5.005E+00   -5.007E+00   -5.008E+00   -5.010E+00   -5.011E+00   -5.013E+00
    -5.014E+00   -5.016E+00   -5.017E+00   -5.019E+00   -5.020E+00   -5.022E+00   -5.023E+00   -5.025E+00   -5.026E+00   -5.028E+00
    -5.029E+00   -5.031E+00   -5.032E+00   -5.034E+00   -5.035E+00   -5.036E+00   -5.038E+00   -5.039E+00   -5.041E+00   -5.042E+00
    -5.044E+00   -5.045E+00   -5.047E+00   -5.048E+00   -5.050E+00   -5.051E+00   -5.053E+00   -5.054E+00   -5.056E+00   -5.057E+00
    -5.059E+00   -5.060E+00   -5.062E+00   -5.063E+00   -5.064E+00   -5.066E+00   -5.067E+00   -5.069E+00   -5.070E+00   -5.072E+00
    -5.073E+00   -5.075E+00   -5.076E+00   -5.078E+00   -5.079E+00   -5.081E+00   -5.082E+00   -5.083E+00   -5.085E+00   -5.086E+00
    -5.088E+00   -5.089E+00   -5.091E+00   -5.092E+00   -5.094E+00   -5.095E+00   -5.097E+00   -5.098E+00   -5.099E+00   -5.101E+00
    -5.102E+00   -5.104E+00   -5.105E+00   -5.107E+00   -5.108E+00   -5.110E+00   -5.111E+00   -5.112E+00   -5.114E+00   -5.115E+00
    -5.117E+00   -5.118E+00   -5.120E+00   -5.121E+00   -5.123E+00   -5.124E+00   -5.125E+00   -5.127E+00   -5.128E+00   -5.130E+00
    -5.131E+00   -5.133E+00   -5.134E+00   -5.135E+00   -5.137E+00   -5.138E+00   -5.140E+00   -5.141E+00   -5.143E+00   -5.144E+00
    -5.145E+00   -5.147E+00   -5.148E+00   -5.150E+00   -5.151E+00   -5.153E+00   -5.154E+00   -5.155E+00   -5.157E+00   -5.158E+00
    -5.160E+00   -5.161E+00   -5.163E+00   -5.164E+00   -5.165E+00   -5.167E+00   -5.168E+00   -5.170E+00   -5.171E+00   -5.172E+00
    -5.174E+00   -5.175E+00   -5.177E+00   -5.178E+00   -5.180E+00   -5.181E+00   -5.182E+00   -5.184E+00   -5.185E+00   -5.187E+00
    -5.188E+00   -5.189E+00   -5.191E+00   -5.192E+00   -5.194E+00   -5.195E+00   -5.196E+00   -5.198E+00   -5.199E+00   -5.201E+00
    -5.202E+00   -5.203E+00   -5.205E+00   -5.206E+00   -5.208E+00   -5.209E+00   -5.210E+00   -5.212E+00   -5.213E+00   -5.215E+00
    -5.216E+00   -5.217E+00   -5.219E+00   -5.220E+00   -5.222E+00   -5.223E+00   -5.224E+00   -5.226E+00   -5.227E+00   -5.229E+00
    -5.230E+00   -5.231E+00   -5.233E+00   -5.234E+00   -5.235E+00   -5.237E+00   -5.238E+00   -5.240E+00   -5.241E+00   -5.242E+00
    -5.244E+00   -5.245E+00   -5.246E+00   -5.248E+00   -5.249E+00   -5.251E+00   -5.252E+00   -5.253E+00   -5.255E+00   -5.256E+00
    -5.257E+00   -5.259E+00   -5.260E+00   -5.262E+00   -5.263E+00   -5.264E+00   -5.266E+00   -5.267E+00   -5.268E+00   -5.270E+00
    -5.271E+00   -5.273E+00   -5.274E+00   -5.275E+00   -5.277E+00   -5.278E+00   -5.279E+00   -5.281E+00   -5.282E+00   -5.283E+00
    -5.285E+00   -5.286E+00   -5.288E+00   -5.289E+00   -5.290E+00   -5.292E+00   -5.293E+00   -5.294E+00   -5.296E+00   -5.297E+00
    -5.298E+00   -5.300E+00   -5.301E+00   -5.302E+00   -5.304E+00   -5.305E+00   -5.306E+00   -5.308E+00   -5.309E+00   -5.310E+00
    -5.312E+00   -5.313E+00   -5.314E+00   -5.316E+00   -5.317E+00   -5.318E+00   -5.320E+00   -5.321E+00   -5.323E+00   -5.324E+00
    -5.325E+00   -5.327E+00   -5.328E+00   -5.329E+00   -5.331E+00   -5.332E+00   -5.333E+00   -5.335E+00   -5.336E+00   -5.337E+00
    -5.338E+00   -5.340E+00   -5.341E+00   -5.342E+00   -5.344E+00   -5.345E+00   -5.346E+00   -5.348E+00   -5.349E+00   -5.350E+00
    -5.352E+00   -5.353E+00   -5.354E+00   -5.356E+00   -5.357E+00   -5.358E+00   -5.360E+00   -5.361E+00   -5.362E+00   -5.364E+00
    -5.365E+00   -5.366E+00   -5.368E+00   -5.369E+00   -5.370E+00   -5.371E+00   -5.373E+00   -5.374E+00   -5.375E+00   -5.377E+00
    -5.378E+00   -5.379E+00   -5.381E+00   -5.382E+00   -5.383E+00   -5.385E+00   -5.386E+00   -5.387E+00   -5.388E+00   -5.390E+00
    -5.391E+00   -5.392E+00   -5.394E+00   -5.395E+00   -5.396E+00   -5.397E+00   -5.399E+00   -5.400E+00   -5.401E+00   -5.403E+00
    -5.404E+00   -5.405E+00   -5.407E+00   -5.408E+00   -5.409E+00   -5.410E+00   -5.412E+00   -5.413E+00   -5.414E+00   -5.416E+00
    -5.417E+00   -5.418E+00   -5.419E+00   -5.421E+00   -5.422E+00   -5.423E+00   -5.424E+00   -5.426E+00   -5.427E+00   -5.428E+00
    -5.430E+00   -5.431E+00   -5.432E+00   -5.433E+00   -5.435E+00   -5.436E+00   -5.437E+00   -5.438E+00   -5.440E+00   -5.441E+00
    -5.442E+00   -5.444E+00   -5.445E+00   -5.446E+00   -5.447E+00   -5.449E+00   -5.450E+00   -5.451E+00   -5.452E+00   -5.454E+00
    -5.455E+00   -5.456E+00   -5.457E+00   -5.459E+00   -5.460E+00   -5.461E+00   -5.462E+00   -5.464E+00   -5.465E+00   -5.466E+00
    -5.467E+00   -5.469E+00   -5.470E+00   -5.471E+00   -5.472E+00   -5.474E+00   -5.475E+00   -5.476E+00   -5.477E+00   -5.479E+00
    -5.480E+00   -5.481E+00   -5.482E+00   -5.484E+00   -5.485E+00   -5.486E+00   -5.487E+00   -5.489E+00   -5.490E+00   -5.491E+00
    -5.492E+00   -5.494E+00   -5.495E+00   -5.496E+00   -5.497E+00   -5.498E+00   -5.500E+00   -5.501E+00   -5.502E+00   -5.503E+00
    -5.505E+00   -5.506E+00   -5.507E+00   -5.508E+00   -5.510E+00   -5.511E+00   -5.512E+00   -5.513E+00   -5.514E+00   -5.516E+00
    -5.517E+00   -5.518E+00   -5.519E+00   -5.521E+00   -5.522E+00   -5.523E+00   -5.524E+00   -5.525E+00   -5.527E+00   -5.528E+00
    -5.529E+00   -5.530E+00   -5.531E+00   -5.533E+00   -5.534E+00   -5.535E+00   -5.536E+00   -5.537E+00   -5.539E+00   -5.540E+00
    -5.541E+00   -5.542E+00   -5.543E+00   -5.545E+00   -5.546E+00   -5.547E+00   -5.548E+00   -5.549E+00
 Ala      Conc. = 1.40E+02
