 LCModel (Version 6.3-1L) Copyright: S.W. Provencher.          Ref.: Magn. Reson. Med. 30:672-679 (1993).                
 Slice#1 Row#6 Col#10  PD_24_press_2_raw_act
 36 lines in following concentration table = NCONC+1
    Conc.  %SD /Cr+PCr  Metabolite                                         
  213.875 115%   0.279 Ala                                                 
  190.588 120%   0.249 Asp                                                 
  766.117  11%   1.000 Cr                                                  
    0.000 999%   0.000 PCr                                                 
   47.826 308% 6.2E-02 GABA                                                
  145.496  99%   0.190 Glc                                                 
 1.56E+03  41%   2.031 Gln                                                 
 3.43E+03  21%   4.477 Glu                                                 
  440.510   8%   0.575 GPC                                                 
    0.000 999%   0.000 PCh                                                 
  146.647  90%   0.191 GSH                                                 
 1.29E+03  30%   1.684 Ins                                                 
    0.000 999%   0.000 Lac                                                 
 1.31E+03  20%   1.705 NAA                                                 
 1.10E+03  23%   1.431 NAAG                                                
  147.727  24%   0.193 Scyllo                                              
  389.223  55%   0.508 Tau                                                 
  431.056  33%   0.563 -CrCH2                                              
  440.510   8%   0.575 GPC+PCh                                             
 2.40E+03   5%   3.136 NAA+NAAG                                            
  766.117  11%   1.000 Cr+PCr                                              
 4.99E+03  24%   6.509 Glu+Gln                                             
 1.07E+03  31%   1.397 Lip13a                                              
    0.000 999%   0.000 Lip13b                                              
   62.425 323% 8.1E-02 Lip09                                               
 1.56E+03  16%   2.030 MM09                                                
  189.537  75%   0.247 Lip20                                               
 3.24E+03  14%   4.235 MM20                                                
  482.936  35%   0.630 MM12                                                
    0.000 999%   0.000 MM14                                                
 2.42E+03   7%   3.157+MM17                                                
 1.07E+03  31%   1.397 Lip13a+Lip13b                                       
 1.55E+03  19%   2.027 MM14+Lip13a+Lip13b+MM12                             
 1.62E+03  13%   2.111 MM09+Lip09                                          
 3.43E+03  13%   4.482 MM20+Lip20                                          
   6 lines in following misc. output table
  FWHM = 0.084 ppm    S/N =   6                                            
  Data shift = 0.000 ppm                                                   
  Ph: -77 deg     -16.1 deg/ppm                                            
  alphaB,S = 8.5E+01,   1.9E+02                                            
   14 spline knots.   Ns = 9(1)                                            
   2 inflections.     1 extrema                                            
  498 points on ppm-axis = NY
      4.000000     3.992357     3.984714     3.977070     3.969427     3.961784     3.954141     3.946497     3.938854     3.931211
      3.923568     3.915925     3.908281     3.900638     3.892995     3.885352     3.877708     3.870065     3.862422     3.854779
      3.847136     3.839492     3.831849     3.824206     3.816563     3.808919     3.801276     3.793633     3.785990     3.778347
      3.770703     3.763060     3.755417     3.747774     3.740130     3.732487     3.724844     3.717201     3.709558     3.701914
      3.694271     3.686628     3.678985     3.671341     3.663698     3.656055     3.648412     3.640769     3.633125     3.625482
      3.617839     3.610196     3.602552     3.594909     3.587266     3.579623     3.571980     3.564336     3.556693     3.549050
      3.541407     3.533763     3.526120     3.518477     3.510834     3.503191     3.495547     3.487904     3.480261     3.472618
      3.464974     3.457331     3.449688     3.442045     3.434402     3.426758     3.419115     3.411472     3.403829     3.396185
      3.388542     3.380899     3.373256     3.365613     3.357969     3.350326     3.342683     3.335040     3.327396     3.319753
      3.312110     3.304467     3.296824     3.289180     3.281537     3.273894     3.266251     3.258607     3.250964     3.243321
      3.235678     3.228034     3.220391     3.212748     3.205105     3.197462     3.189818     3.182175     3.174532     3.166889
      3.159245     3.151602     3.143959     3.136316     3.128673     3.121029     3.113386     3.105743     3.098100     3.090456
      3.082813     3.075170     3.067527     3.059884     3.052240     3.044597     3.036954     3.029311     3.021667     3.014024
      3.006381     2.998738     2.991095     2.983451     2.975808     2.968165     2.960522     2.952878     2.945235     2.937592
      2.929949     2.922306     2.914662     2.907019     2.899376     2.891733     2.884089     2.876446     2.868803     2.861160
      2.853517     2.845873     2.838230     2.830587     2.822944     2.815300     2.807657     2.800014     2.792371     2.784728
      2.777084     2.769441     2.761798     2.754155     2.746511     2.738868     2.731225     2.723582     2.715939     2.708295
      2.700652     2.693009     2.685366     2.677722     2.670079     2.662436     2.654793     2.647150     2.639506     2.631863
      2.624220     2.616577     2.608933     2.601290     2.593647     2.586004     2.578361     2.570717     2.563074     2.555431
      2.547788     2.540144     2.532501     2.524858     2.517215     2.509572     2.501928     2.494285     2.486642     2.478999
      2.471355     2.463712     2.456069     2.448426     2.440783     2.433139     2.425496     2.417853     2.410210     2.402566
      2.394923     2.387280     2.379637     2.371994     2.364350     2.356707     2.349064     2.341421     2.333777     2.326134
      2.318491     2.310848     2.303205     2.295561     2.287918     2.280275     2.272632     2.264988     2.257345     2.249702
      2.242059     2.234416     2.226772     2.219129     2.211486     2.203843     2.196199     2.188556     2.180913     2.173270
      2.165627     2.157983     2.150340     2.142697     2.135054     2.127410     2.119767     2.112124     2.104481     2.096838
      2.089194     2.081551     2.073908     2.066265     2.058621     2.050978     2.043335     2.035692     2.028049     2.020405
      2.012762     2.005119     1.997476     1.989833     1.982190     1.974546     1.966903     1.959260     1.951617     1.943974
      1.936331     1.928688     1.921045     1.913402     1.905759     1.898115     1.890472     1.882829     1.875186     1.867543
      1.859900     1.852257     1.844614     1.836971     1.829327     1.821684     1.814041     1.806398     1.798755     1.791112
      1.783469     1.775826     1.768183     1.760540     1.752896     1.745253     1.737610     1.729967     1.722324     1.714681
      1.707038     1.699395     1.691752     1.684108     1.676465     1.668822     1.661179     1.653536     1.645893     1.638250
      1.630607     1.622964     1.615321     1.607677     1.600034     1.592391     1.584748     1.577105     1.569462     1.561819
      1.554176     1.546533     1.538890     1.531246     1.523603     1.515960     1.508317     1.500674     1.493031     1.485388
      1.477745     1.470102     1.462458     1.454815     1.447172     1.439529     1.431886     1.424243     1.416600     1.408957
      1.401314     1.393671     1.386027     1.378384     1.370741     1.363098     1.355455     1.347812     1.340169     1.332526
      1.324883     1.317240     1.309596     1.301953     1.294310     1.286667     1.279024     1.271381     1.263738     1.256095
      1.248452     1.240808     1.233165     1.225522     1.217879     1.210236     1.202593     1.194950     1.187307     1.179664
      1.172021     1.164377     1.156734     1.149091     1.141448     1.133805     1.126162     1.118519     1.110876     1.103233
      1.095590     1.087946     1.080303     1.072660     1.065017     1.057374     1.049731     1.042088     1.034445     1.026802
      1.019158     1.011515     1.003872     0.996229     0.988586     0.980943     0.973300     0.965657     0.958014     0.950371
      0.942727     0.935084     0.927441     0.919798     0.912155     0.904512     0.896869     0.889226     0.881583     0.873940
      0.866296     0.858653     0.851010     0.843367     0.835724     0.828081     0.820438     0.812795     0.805152     0.797508
      0.789865     0.782222     0.774579     0.766936     0.759293     0.751650     0.744007     0.736364     0.728721     0.721077
      0.713434     0.705791     0.698148     0.690505     0.682862     0.675219     0.667576     0.659933     0.652290     0.644646
      0.637003     0.629360     0.621717     0.614074     0.606431     0.598788     0.591145     0.583502     0.575858     0.568215
      0.560572     0.552929     0.545286     0.537643     0.530000     0.522357     0.514714     0.507071     0.499427     0.491784
      0.484141     0.476498     0.468855     0.461212     0.453569     0.445925     0.438282     0.430639     0.422996     0.415353
      0.407710     0.400067     0.392424     0.384780     0.377137     0.369494     0.361851     0.354208     0.346565     0.338922
      0.331278     0.323635     0.315992     0.308349     0.300706     0.293063     0.285420     0.277777     0.270133     0.262490
      0.254847     0.247204     0.239561     0.231918     0.224275     0.216631     0.208988     0.201345
 NY phased data points follow
   1.09896E+01  6.51187E+00  1.35265E+01  3.57565E+00  6.57598E+00 -2.09638E+00  5.99139E+00  5.95071E-01  1.25477E+01  1.06478E+01
   1.08470E+01  1.30665E+01  2.24132E+01  7.81792E+00  1.26631E+01  1.77004E+01  7.99317E+00  7.71594E+00  1.20571E+01  1.01103E+01
   8.18849E+00  8.46926E+00  1.17134E+01  4.05294E+00  5.75509E+00  1.41744E+01  6.53530E+00  1.59769E+01  1.20767E+01  5.99013E+00
   8.29111E+00  7.65488E+00  1.33968E+01  8.02267E+00  1.06345E+01  1.16993E+01  1.25190E+01  6.93563E+00  1.89110E+01  6.26640E+00
   7.52957E+00  3.08132E+00  1.07092E+01  9.54661E+00  1.38603E+01  7.52316E+00  1.21360E+01  9.06640E+00  1.92954E+01  1.22226E+01
   2.04378E+01  1.13970E+01  1.49985E+01  1.50471E+01  1.21940E+01  1.19635E+01  7.40137E+00  6.77372E+00  6.05730E+00  8.37418E+00
   8.79045E+00  4.05173E+00  7.94230E+00  1.63620E+00  3.30209E-01  1.21006E+00  1.07880E+01  7.22404E+00  3.48709E+00  1.31484E+01
   7.19288E+00  2.01582E+00  7.39561E+00 -1.20735E+00  8.73777E+00  1.43458E+01  1.51282E+01  1.06793E+01  5.86073E+00  6.55390E+00
   1.09402E+01  8.22685E+00  3.10189E+00  1.00271E+01  7.96316E+00  9.41619E+00  9.03067E+00  1.03463E+01  1.31774E+01  1.22660E+01
   1.08673E+01  1.45276E+01  1.43765E+01  1.92721E+01  1.51097E+01  9.07571E+00  1.31010E+01  1.37977E+01  2.55204E+01  2.57376E+01
   2.30160E+01  3.66263E+01  3.18865E+01  3.13911E+01  3.54852E+01  2.56570E+01  2.66533E+01  2.60932E+01  2.23384E+01  1.06166E+01
   1.28565E+01  1.34542E+00  4.08240E+00  7.25770E+00  6.68517E+00 -1.81393E+00  1.49023E+00  7.50711E+00  1.20737E+00  6.94330E+00
   6.99585E+00  4.47450E+00  1.45456E+01  1.21983E+01  1.53416E+01  2.11292E+01  2.53109E+01  1.52509E+01  2.17373E+01  2.23934E+01
   2.04073E+01  2.10765E+01  2.05275E+01  1.63903E+01  7.84863E+00  2.31620E+00  5.26511E-01  7.62124E-01 -2.34442E+00 -4.24562E-01
   8.23416E+00  8.05924E+00 -1.77051E+00  9.95589E-01  2.88276E+00 -4.45644E+00 -1.56688E+00  4.62781E+00 -4.71298E-01  1.01295E+00
   3.42247E-01  1.76315E+00  5.73274E+00 -1.32143E+00  5.06069E+00  2.36650E+00  7.84282E-01 -2.43071E-01  3.35684E+00  4.77791E+00
   4.81755E+00 -5.43776E-01 -5.46334E+00  2.41736E+00 -6.56867E+00 -3.47505E+00 -1.04344E+01 -3.64811E+00 -8.10592E+00 -3.89260E+00
  -7.17465E+00 -8.06671E+00  3.09004E+00 -5.68569E+00 -1.22066E+01 -9.63811E+00 -1.31727E+01 -8.40889E+00 -1.02645E+01 -3.06453E+00
  -9.37532E+00  5.60332E-01 -1.01739E+01  9.53327E-01 -1.76764E+00 -4.91023E+00 -2.45351E+00 -4.72698E+00 -1.05670E+00  7.89567E+00
   7.22706E+00  6.88276E+00  1.27762E+00 -6.19294E+00 -1.23658E-01 -4.72677E-01 -4.46558E+00 -3.96011E+00  8.38201E-01  5.11446E+00
  -5.90023E+00  3.90985E+00  5.01535E+00  1.22756E+01  1.90116E+00  6.75373E+00  9.10373E+00  9.35298E+00 -1.00349E-02  3.86483E+00
   1.53889E+00  4.38695E+00  1.05069E+01  1.29149E+01  1.21284E+01  1.08652E+01  1.40258E+01  1.28956E+01  1.17533E+01  1.76573E+01
   1.16832E+01  1.83961E+00  4.37360E+00  2.41880E+00  5.79859E+00  7.29845E-01  1.69337E+00  7.00646E+00  4.00971E+00  2.79969E+00
   7.71752E+00  1.95216E+01  1.62994E+01  1.09241E+01  1.72136E+01  6.63071E+00  1.17424E+01  9.58997E+00  5.13827E+00  7.37548E+00
   8.67784E+00  4.05534E+00  8.13491E+00  8.97189E+00  8.39518E+00  1.34430E+01  1.25183E+01  1.60973E+01  1.43637E+01  1.87223E+01
   1.87699E+01  2.59554E+01  2.49238E+01  3.88384E+01  4.33725E+01  3.76429E+01  3.94605E+01  6.27309E+01  6.43863E+01  7.14740E+01
   7.14535E+01  6.59621E+01  5.69791E+01  5.17211E+01  4.64623E+01  3.81109E+01  2.95643E+01  2.68188E+01  1.25526E+01  2.14137E+01
   1.48446E+01  1.18918E+01  1.40279E+01  1.71634E+01  8.08481E+00  1.31774E+01  1.21777E+01  1.17193E+01  1.23540E+01  7.43541E+00
   1.61515E+01  1.86389E+01  1.73000E+01  1.69835E+01  1.92518E+01  1.58809E+01  1.02165E+01  1.04785E+01  1.26230E+01  6.13390E+00
   1.99760E+00  5.40872E+00  1.25351E+01  7.69689E+00  6.96505E+00  1.34367E+01  7.03715E+00  8.89112E+00  1.71066E+01  1.67193E+01
   2.32385E+01  1.80623E+01  1.91253E+01  2.48896E+01  2.65675E+01  2.16767E+01  2.79591E+01  1.63389E+01  2.84875E+01  2.75321E+01
   2.48228E+01  2.13025E+01  2.67949E+01  1.95004E+01  1.57760E+01  1.83276E+01  2.04182E+01  1.40560E+01  9.05945E+00  1.28063E+01
   7.84951E+00  9.93468E+00  5.84124E+00  5.44803E+00 -1.24772E+00  8.04438E-01 -2.92477E+00 -7.89047E+00 -4.01792E-01 -2.82140E+00
  -9.53993E+00 -1.79016E+00  3.34356E+00 -1.37265E+00 -3.11515E+00 -1.27467E+00 -3.72740E+00  7.20697E+00  2.89336E+00 -4.06453E-01
  -8.91216E-01  2.36919E+00  4.34087E+00  5.50105E+00  8.39278E+00  9.32182E+00  9.09758E-01  9.81282E+00  1.13150E+01  7.12783E+00
   5.08345E+00  9.72485E+00  8.84721E+00  7.68134E+00  1.08078E+01  1.38406E+01  9.20364E+00  1.05462E+01  3.88118E+00  1.16572E+01
   6.42392E+00  9.94059E+00  5.29725E+00  1.70685E+01  1.21823E+01  9.91456E+00  9.08484E+00  1.07193E+01  7.06992E+00  8.60451E+00
   1.10681E+01  1.57136E+01  7.02361E+00  1.19193E+01  1.00173E+01  9.66818E+00  3.44410E+00  1.26186E+00 -2.38823E+00  3.22195E+00
  -2.71478E+00 -6.48446E-01 -3.34314E+00 -4.35717E+00 -1.38932E+00 -2.67379E+00  1.36861E+00  7.12427E+00  6.13319E+00  3.38277E+00
   2.23857E+00  1.61542E+01  5.26599E+00  7.79509E+00  7.40186E+00  5.78626E+00  5.70184E+00  1.15866E+01  3.17387E+00  1.24141E+01
   1.16860E+01  1.26771E+01  1.59574E+01  1.08354E+01  9.79828E+00  1.64877E+01  1.76987E+01  1.38761E+01  1.48801E+01  1.61165E+01
   1.35236E+01  1.31567E+01  1.62000E+01  1.13884E+01  6.53367E+00  1.32372E+01  1.22051E+01  7.03113E+00  1.49586E+00  4.81137E+00
   4.11724E+00  5.83027E+00  6.26007E+00  3.77735E+00  7.66130E+00  2.55750E+00  1.19189E-01  2.00775E+00  2.76594E+00  2.83138E+00
   2.25439E+00 -2.23525E+00 -7.97980E-01  7.42494E+00 -1.28321E+00  4.92611E+00 -1.01619E-01 -4.31056E-01  2.53553E+00  2.12721E+00
  -6.34867E-01  1.91478E+00  3.41080E+00  5.56893E+00  2.71294E+00  1.60679E-01 -8.38255E+00  4.68436E+00 -2.66408E+00  5.46944E+00
   7.72135E-01  2.87408E+00  4.53423E+00 -5.05002E+00 -9.36421E-01  1.39134E+00 -1.75640E+00  4.73846E+00  7.94793E-01 -1.74566E+00
  -4.05374E-01  1.17515E+00  6.37081E+00  2.22716E+00 -4.29033E+00  4.94068E-01 -2.05766E+00  3.47838E+00  3.64573E+00  2.78245E+00
   4.31393E+00  3.70922E+00  4.64155E+00  1.05849E+00  2.07579E+00  2.55904E+00  3.62150E+00  6.55705E-01  2.09413E-01  3.65692E+00
   1.07648E+00  1.03327E+01 -2.21770E+00  1.68884E+00  9.71257E-01  1.79227E+00  8.55500E+00 -4.24740E-01 -4.55638E-01 -4.72477E+00
  -5.19803E+00 -7.15385E+00  3.63943E+00 -2.76383E+00 -2.77058E+00  6.29942E-01  9.14429E-01  4.24527E-01
 NY points of the fit to the data follow
   8.46112E+00  7.67985E+00  7.20545E+00  7.00432E+00  6.93350E+00  7.02025E+00  7.47977E+00  8.46110E+00  9.78622E+00  1.11099E+01
   1.21989E+01  1.30122E+01  1.36041E+01  1.40124E+01  1.42446E+01  1.42602E+01  1.39753E+01  1.32978E+01  1.22559E+01  1.09616E+01
   9.69833E+00  8.87517E+00  8.54589E+00  8.41330E+00  8.30152E+00  8.24222E+00  8.36227E+00  8.73313E+00  9.37600E+00  1.02185E+01
   1.10962E+01  1.18337E+01  1.23380E+01  1.26061E+01  1.26833E+01  1.26054E+01  1.23769E+01  1.19106E+01  1.11443E+01  1.01351E+01
   9.13324E+00  8.46399E+00  8.39957E+00  9.11820E+00  1.04737E+01  1.20247E+01  1.33040E+01  1.39739E+01  1.39906E+01  1.34789E+01
   1.26387E+01  1.16573E+01  1.06157E+01  9.51552E+00  8.37780E+00  7.32118E+00  6.52731E+00  6.11347E+00  6.09009E+00  6.34392E+00
   6.67776E+00  6.92351E+00  7.03583E+00  7.05976E+00  7.01962E+00  6.91540E+00  6.77638E+00  6.65499E+00  6.58701E+00  6.61181E+00
   6.77192E+00  7.05501E+00  7.38531E+00  7.67761E+00  7.84721E+00  7.86627E+00  7.77415E+00  7.68159E+00  7.68267E+00  7.72139E+00
   7.78701E+00  7.93539E+00  8.22948E+00  8.65939E+00  9.09092E+00  9.40114E+00  9.57181E+00  9.61491E+00  9.51171E+00  9.24494E+00
   8.83242E+00  8.31005E+00  7.87767E+00  8.07493E+00  9.00997E+00  1.05322E+01  1.28126E+01  1.61001E+01  2.02574E+01  2.46131E+01
   2.84020E+01  3.11363E+01  3.27087E+01  3.32009E+01  3.26446E+01  3.10324E+01  2.83566E+01  2.46255E+01  2.00176E+01  1.50124E+01
   1.03019E+01  6.54298E+00  4.20643E+00  3.34099E+00  3.22334E+00  3.25637E+00  3.36891E+00  3.66316E+00  4.39823E+00  5.50524E+00
   6.85626E+00  8.54639E+00  1.07229E+01  1.33377E+01  1.60560E+01  1.84335E+01  2.01741E+01  2.12155E+01  2.16007E+01  2.13344E+01
   2.03947E+01  1.87465E+01  1.63826E+01  1.34361E+01  1.02403E+01  7.25655E+00  4.91038E+00  3.47110E+00  2.90361E+00  2.71862E+00
   2.62012E+00  2.56906E+00  2.55974E+00  2.57863E+00  2.60012E+00  2.58210E+00  2.49178E+00  2.33775E+00  2.13721E+00  1.90871E+00
   1.67449E+00  1.43484E+00  1.19075E+00  9.65293E-01  7.73092E-01  6.05935E-01  4.42547E-01  2.55516E-01  4.81935E-02 -1.46560E-01
  -3.06132E-01 -4.47359E-01 -5.93256E-01 -7.60877E-01 -9.67511E-01 -1.20818E+00 -1.44859E+00 -1.64809E+00 -1.77635E+00 -1.83965E+00
  -1.90280E+00 -2.03690E+00 -2.24710E+00 -2.46014E+00 -2.60377E+00 -2.64178E+00 -2.60769E+00 -2.57549E+00 -2.56958E+00 -2.54113E+00
  -2.42439E+00 -2.18336E+00 -1.80700E+00 -1.31429E+00 -7.55163E-01 -1.77117E-01  4.03857E-01  9.74259E-01  1.51519E+00  1.96502E+00
   2.24918E+00  2.34195E+00  2.27503E+00  2.13789E+00  2.02246E+00  2.01053E+00  2.17417E+00  2.56044E+00  3.16695E+00  3.95097E+00
   4.84118E+00  5.62157E+00  6.16354E+00  6.38647E+00  6.09079E+00  5.16568E+00  3.72949E+00  2.14138E+00  7.71485E-01 -2.14670E-01
  -6.01386E-01 -1.98685E-01  1.02219E+00  2.78407E+00  4.62980E+00  6.29348E+00  7.64794E+00  8.38214E+00  8.15035E+00  6.86559E+00
   4.78138E+00  2.29497E+00 -8.86586E-02 -1.95670E+00 -3.00271E+00 -2.92647E+00 -1.61000E+00  7.70050E-01  3.78965E+00  6.90922E+00
   9.71666E+00  1.18277E+01  1.29944E+01  1.32271E+01  1.27809E+01  1.21904E+01  1.18141E+01  1.16437E+01  1.15667E+01  1.15174E+01
   1.14853E+01  1.14777E+01  1.14712E+01  1.14467E+01  1.14285E+01  1.14589E+01  1.16760E+01  1.25090E+01  1.40926E+01  1.63689E+01
   1.94789E+01  2.39021E+01  2.96425E+01  3.58420E+01  4.18187E+01  4.75527E+01  5.31967E+01  5.84776E+01  6.26870E+01  6.51223E+01
   6.53927E+01  6.34281E+01  5.94337E+01  5.38813E+01  4.74183E+01  4.06056E+01  3.38758E+01  2.75642E+01  2.16693E+01  1.64813E+01
   1.25836E+01  1.03366E+01  9.28229E+00  8.65082E+00  8.20375E+00  7.87674E+00  7.61040E+00  7.35094E+00  7.10043E+00  6.84295E+00
   6.55961E+00  6.24933E+00  5.93423E+00  5.65540E+00  5.45915E+00  5.37790E+00  5.41514E+00  5.55939E+00  5.80619E+00  6.16313E+00
   6.63456E+00  7.22418E+00  7.94027E+00  8.79790E+00  9.80408E+00  1.09495E+01  1.22125E+01  1.35670E+01  1.49762E+01  1.63966E+01
   1.77831E+01  1.90919E+01  2.02825E+01  2.13178E+01  2.21572E+01  2.27628E+01  2.31047E+01  2.31630E+01  2.29295E+01  2.24093E+01
   2.16220E+01  2.06035E+01  1.93984E+01  1.80549E+01  1.66243E+01  1.51576E+01  1.37051E+01  1.23188E+01  1.10496E+01  9.89681E+00
   8.85374E+00  7.93816E+00  7.15351E+00  6.46439E+00  5.80393E+00  5.11424E+00  4.41159E+00  3.74028E+00  3.10939E+00  2.52756E+00
   2.02881E+00  1.66166E+00  1.45747E+00  1.42193E+00  1.55266E+00  1.85095E+00  2.31251E+00  2.90782E+00  3.57084E+00  4.20180E+00
   4.74210E+00  5.17197E+00  5.48428E+00  5.69857E+00  5.86131E+00  6.03691E+00  6.29389E+00  6.64097E+00  7.03837E+00  7.46038E+00
   7.88951E+00  8.31092E+00  8.71111E+00  9.07753E+00  9.39888E+00  9.66526E+00  9.86868E+00  1.00032E+01  1.00654E+01  1.00540E+01
   9.97058E+00  9.81869E+00  9.60410E+00  9.33416E+00  9.01756E+00  8.66374E+00  8.28257E+00  7.88380E+00  7.47683E+00  7.07028E+00
   6.67194E+00  6.28850E+00  5.92562E+00  5.58790E+00  5.27903E+00  5.00183E+00  4.75854E+00  4.55085E+00  4.38027E+00  4.24808E+00
   4.15569E+00  4.10458E+00  4.09656E+00  4.13366E+00  4.21826E+00  4.35291E+00  4.54035E+00  4.78320E+00  5.08386E+00  5.44407E+00
   5.86474E+00  6.34542E+00  6.88411E+00  7.47675E+00  8.11709E+00  8.79638E+00  9.50344E+00  1.02246E+01  1.09443E+01  1.16449E+01
   1.23082E+01  1.29154E+01  1.34485E+01  1.38909E+01  1.42283E+01  1.44497E+01  1.45478E+01  1.45194E+01  1.43657E+01  1.40921E+01
   1.37077E+01  1.32250E+01  1.26593E+01  1.20272E+01  1.13464E+01  1.06345E+01  9.90831E+00  9.18314E+00  8.47244E+00  7.78735E+00
   7.13669E+00  6.52678E+00  5.96180E+00  5.44380E+00  4.97318E+00  4.54888E+00  4.16881E+00  3.83007E+00  3.52937E+00  3.26308E+00
   3.02762E+00  2.81943E+00  2.63522E+00  2.47188E+00  2.32671E+00  2.19722E+00  2.08129E+00  1.97703E+00  1.88288E+00  1.79743E+00
   1.71956E+00  1.64825E+00  1.58268E+00  1.52212E+00  1.46599E+00  1.41375E+00  1.36499E+00  1.31929E+00  1.27637E+00  1.23590E+00
   1.19768E+00  1.16145E+00  1.12706E+00  1.09431E+00  1.06310E+00  1.03325E+00  1.00469E+00  9.77279E-01  9.50962E-01  9.25616E-01
   9.01205E-01  8.77622E-01  8.54847E-01  8.32781E-01  8.11412E-01  7.90651E-01  7.70496E-01  7.50870E-01  7.31778E-01  7.13146E-01
   6.94981E-01  6.77212E-01  6.59855E-01  6.42847E-01  6.26202E-01  6.09860E-01  5.93839E-01  5.78080E-01  5.62608E-01  5.47363E-01
   5.32367E-01  5.17561E-01  5.02969E-01  4.88535E-01  4.74286E-01  4.60168E-01  4.46207E-01  4.32345E-01  4.18610E-01  4.04948E-01
   3.91387E-01  3.77870E-01  3.64421E-01  3.50981E-01  3.37574E-01  3.24145E-01  3.10716E-01  2.97223E-01
 NY background values follow
     1.661E+00    1.657E+00    1.652E+00    1.648E+00    1.644E+00    1.639E+00    1.635E+00    1.630E+00    1.626E+00    1.622E+00
     1.617E+00    1.613E+00    1.609E+00    1.604E+00    1.600E+00    1.595E+00    1.591E+00    1.587E+00    1.582E+00    1.578E+00
     1.574E+00    1.569E+00    1.565E+00    1.560E+00    1.556E+00    1.552E+00    1.547E+00    1.543E+00    1.538E+00    1.534E+00
     1.530E+00    1.525E+00    1.521E+00    1.516E+00    1.512E+00    1.508E+00    1.503E+00    1.499E+00    1.494E+00    1.490E+00
     1.486E+00    1.481E+00    1.477E+00    1.472E+00    1.468E+00    1.464E+00    1.459E+00    1.455E+00    1.450E+00    1.446E+00
     1.441E+00    1.437E+00    1.433E+00    1.428E+00    1.424E+00    1.419E+00    1.415E+00    1.410E+00    1.406E+00    1.402E+00
     1.397E+00    1.393E+00    1.388E+00    1.384E+00    1.379E+00    1.375E+00    1.371E+00    1.366E+00    1.362E+00    1.357E+00
     1.353E+00    1.348E+00    1.344E+00    1.339E+00    1.335E+00    1.330E+00    1.326E+00    1.322E+00    1.317E+00    1.313E+00
     1.308E+00    1.304E+00    1.299E+00    1.295E+00    1.290E+00    1.286E+00    1.281E+00    1.277E+00    1.272E+00    1.268E+00
     1.263E+00    1.259E+00    1.255E+00    1.250E+00    1.246E+00    1.241E+00    1.237E+00    1.232E+00    1.228E+00    1.223E+00
     1.219E+00    1.214E+00    1.210E+00    1.205E+00    1.201E+00    1.196E+00    1.192E+00    1.187E+00    1.183E+00    1.178E+00
     1.174E+00    1.169E+00    1.165E+00    1.160E+00    1.156E+00    1.151E+00    1.147E+00    1.142E+00    1.138E+00    1.133E+00
     1.129E+00    1.124E+00    1.120E+00    1.115E+00    1.111E+00    1.106E+00    1.102E+00    1.097E+00    1.093E+00    1.088E+00
     1.084E+00    1.079E+00    1.075E+00    1.070E+00    1.066E+00    1.061E+00    1.057E+00    1.052E+00    1.048E+00    1.043E+00
     1.039E+00    1.034E+00    1.029E+00    1.025E+00    1.020E+00    1.016E+00    1.011E+00    1.007E+00    1.002E+00    9.978E-01
     9.933E-01    9.887E-01    9.842E-01    9.797E-01    9.751E-01    9.706E-01    9.661E-01    9.615E-01    9.570E-01    9.525E-01
     9.479E-01    9.434E-01    9.389E-01    9.343E-01    9.298E-01    9.252E-01    9.207E-01    9.161E-01    9.116E-01    9.071E-01
     9.025E-01    8.980E-01    8.934E-01    8.889E-01    8.843E-01    8.798E-01    8.752E-01    8.707E-01    8.661E-01    8.616E-01
     8.570E-01    8.525E-01    8.479E-01    8.434E-01    8.388E-01    8.343E-01    8.297E-01    8.251E-01    8.206E-01    8.160E-01
     8.115E-01    8.069E-01    8.023E-01    7.978E-01    7.932E-01    7.887E-01    7.841E-01    7.795E-01    7.750E-01    7.704E-01
     7.658E-01    7.613E-01    7.567E-01    7.522E-01    7.476E-01    7.430E-01    7.385E-01    7.339E-01    7.293E-01    7.247E-01
     7.202E-01    7.156E-01    7.110E-01    7.065E-01    7.019E-01    6.973E-01    6.927E-01    6.882E-01    6.836E-01    6.790E-01
     6.745E-01    6.699E-01    6.653E-01    6.607E-01    6.562E-01    6.516E-01    6.470E-01    6.424E-01    6.378E-01    6.333E-01
     6.287E-01    6.241E-01    6.195E-01    6.149E-01    6.104E-01    6.058E-01    6.012E-01    5.966E-01    5.920E-01    5.875E-01
     5.829E-01    5.783E-01    5.737E-01    5.691E-01    5.645E-01    5.600E-01    5.554E-01    5.508E-01    5.462E-01    5.416E-01
     5.370E-01    5.324E-01    5.279E-01    5.233E-01    5.187E-01    5.141E-01    5.095E-01    5.049E-01    5.003E-01    4.957E-01
     4.911E-01    4.866E-01    4.820E-01    4.774E-01    4.728E-01    4.682E-01    4.636E-01    4.590E-01    4.544E-01    4.498E-01
     4.452E-01    4.406E-01    4.361E-01    4.315E-01    4.269E-01    4.223E-01    4.177E-01    4.131E-01    4.085E-01    4.039E-01
     3.993E-01    3.947E-01    3.901E-01    3.855E-01    3.809E-01    3.763E-01    3.717E-01    3.672E-01    3.626E-01    3.580E-01
     3.534E-01    3.488E-01    3.442E-01    3.396E-01    3.350E-01    3.304E-01    3.258E-01    3.212E-01    3.166E-01    3.120E-01
     3.074E-01    3.028E-01    2.982E-01    2.936E-01    2.890E-01    2.844E-01    2.798E-01    2.752E-01    2.706E-01    2.660E-01
     2.615E-01    2.569E-01    2.523E-01    2.477E-01    2.431E-01    2.385E-01    2.339E-01    2.293E-01    2.247E-01    2.201E-01
     2.155E-01    2.109E-01    2.063E-01    2.017E-01    1.971E-01    1.925E-01    1.879E-01    1.833E-01    1.787E-01    1.741E-01
     1.695E-01    1.649E-01    1.604E-01    1.558E-01    1.512E-01    1.466E-01    1.420E-01    1.374E-01    1.328E-01    1.282E-01
     1.236E-01    1.190E-01    1.144E-01    1.098E-01    1.052E-01    1.006E-01    9.605E-02    9.145E-02    8.686E-02    8.227E-02
     7.768E-02    7.309E-02    6.850E-02    6.391E-02    5.932E-02    5.473E-02    5.014E-02    4.555E-02    4.096E-02    3.637E-02
     3.178E-02    2.719E-02    2.260E-02    1.801E-02    1.343E-02    8.840E-03    4.253E-03   -3.336E-04   -4.920E-03   -9.506E-03
    -1.409E-02   -1.868E-02   -2.326E-02   -2.785E-02   -3.243E-02   -3.701E-02   -4.160E-02   -4.618E-02   -5.076E-02   -5.535E-02
    -5.993E-02   -6.451E-02   -6.909E-02   -7.367E-02   -7.825E-02   -8.283E-02   -8.741E-02   -9.199E-02   -9.657E-02   -1.011E-01
    -1.057E-01   -1.103E-01   -1.149E-01   -1.195E-01   -1.240E-01   -1.286E-01   -1.332E-01   -1.378E-01   -1.423E-01   -1.469E-01
    -1.515E-01   -1.560E-01   -1.606E-01   -1.652E-01   -1.698E-01   -1.743E-01   -1.789E-01   -1.835E-01   -1.880E-01   -1.926E-01
    -1.972E-01   -2.017E-01   -2.063E-01   -2.109E-01   -2.154E-01   -2.200E-01   -2.246E-01   -2.291E-01   -2.337E-01   -2.383E-01
    -2.428E-01   -2.474E-01   -2.519E-01   -2.565E-01   -2.611E-01   -2.656E-01   -2.702E-01   -2.747E-01   -2.793E-01   -2.839E-01
    -2.884E-01   -2.930E-01   -2.975E-01   -3.021E-01   -3.066E-01   -3.112E-01   -3.157E-01   -3.203E-01   -3.248E-01   -3.294E-01
    -3.339E-01   -3.385E-01   -3.430E-01   -3.476E-01   -3.521E-01   -3.567E-01   -3.612E-01   -3.657E-01   -3.703E-01   -3.748E-01
    -3.794E-01   -3.839E-01   -3.885E-01   -3.930E-01   -3.975E-01   -4.021E-01   -4.066E-01   -4.111E-01   -4.157E-01   -4.202E-01
    -4.247E-01   -4.293E-01   -4.338E-01   -4.383E-01   -4.429E-01   -4.474E-01   -4.519E-01   -4.565E-01   -4.610E-01   -4.655E-01
    -4.700E-01   -4.746E-01   -4.791E-01   -4.836E-01   -4.881E-01   -4.927E-01   -4.972E-01   -5.017E-01   -5.062E-01   -5.107E-01
    -5.152E-01   -5.198E-01   -5.243E-01   -5.288E-01   -5.333E-01   -5.378E-01   -5.423E-01   -5.468E-01   -5.513E-01   -5.558E-01
    -5.604E-01   -5.649E-01   -5.694E-01   -5.739E-01   -5.784E-01   -5.829E-01   -5.874E-01   -5.919E-01
 Ala      Conc. = 2.14E+02
