 LCModel (Version 6.3-1L) Copyright: S.W. Provencher.          Ref.: Magn. Reson. Med. 30:672-679 (1993).                
 Slice#2 Row#11 Col#11  PD_24_press_2_raw_act
 36 lines in following concentration table = NCONC+1
    Conc.  %SD /Cr+PCr  Metabolite                                         
    0.000 999%   0.000 Ala                                                 
    0.486 999%   0.000 Asp                                                 
    0.000 999%   0.000 Cr                                                  
    0.000 999%   0.000 PCr                                                 
 3.22E-02 999%   0.000 GABA                                                
    0.321 999%   0.000 Glc                                                 
    0.000 999%   0.000 Gln                                                 
    0.000 999%   0.000 Glu                                                 
    2.513 999%   0.000 GPC                                                 
    0.000 999%   0.000 PCh                                                 
   25.683 470%   0.000 GSH                                                 
  614.084  49%   0.000 Ins                                                 
 5.98E+03  23%   0.000 Lac                                                 
    0.000 999%   0.000 NAA                                                 
    0.000 999%   0.000 NAAG                                                
    0.201 884%   0.000 Scyllo                                              
    0.496 999%   0.000 Tau                                                 
    0.000 999%   0.000 -CrCH2                                              
    2.513 999%   0.000 GPC+PCh                                             
    0.000 999%   0.000 NAA+NAAG                                            
    0.000 999%   0.000 Cr+PCr                                              
    0.000 999%   0.000 Glu+Gln                                             
    0.000 999%   0.000 Lip13a                                              
 2.06E+04  14%   0.000 Lip13b                                              
 5.51E+03  14%   0.000 Lip09                                               
 2.85E+03   8%   0.000 MM09                                                
 3.10E+03  14%   0.000 Lip20                                               
 4.28E+03   8%   0.000 MM20                                                
  856.239   8%   0.000 MM12                                                
 2.14E+03   8%   0.000 MM14                                                
 1.07E+03   8%   0.000 MM17                                                
 2.06E+04  14%   0.000 Lip13a+Lip13b                                       
 2.36E+04  12%   0.000 MM14+Lip13a+Lip13b+MM12                             
 8.37E+03   9%   0.000 MM09+Lip09                                          
 7.38E+03   6%   0.000 MM20+Lip20                                          
   6 lines in following misc. output table
  FWHM = 0.168 ppm    S/N =  19                                            
  Data shift = 0.061 ppm                                                   
  Ph: -52 deg      67.9 deg/ppm                                            
  alphaB,S = 6.2E-01,   6.0E+02                                            
    7 spline knots.   Ns = 9(2)                                            
  (13) 2 infls.   ( 3) 1 extrs.                                            
  498 points on ppm-axis = NY
      4.000000     3.992357     3.984714     3.977070     3.969427     3.961784     3.954141     3.946497     3.938854     3.931211
      3.923568     3.915925     3.908281     3.900638     3.892995     3.885352     3.877708     3.870065     3.862422     3.854779
      3.847136     3.839492     3.831849     3.824206     3.816563     3.808919     3.801276     3.793633     3.785990     3.778347
      3.770703     3.763060     3.755417     3.747774     3.740130     3.732487     3.724844     3.717201     3.709558     3.701914
      3.694271     3.686628     3.678985     3.671341     3.663698     3.656055     3.648412     3.640769     3.633125     3.625482
      3.617839     3.610196     3.602552     3.594909     3.587266     3.579623     3.571980     3.564336     3.556693     3.549050
      3.541407     3.533763     3.526120     3.518477     3.510834     3.503191     3.495547     3.487904     3.480261     3.472618
      3.464974     3.457331     3.449688     3.442045     3.434402     3.426758     3.419115     3.411472     3.403829     3.396185
      3.388542     3.380899     3.373256     3.365613     3.357969     3.350326     3.342683     3.335040     3.327396     3.319753
      3.312110     3.304467     3.296824     3.289180     3.281537     3.273894     3.266251     3.258607     3.250964     3.243321
      3.235678     3.228034     3.220391     3.212748     3.205105     3.197462     3.189818     3.182175     3.174532     3.166889
      3.159245     3.151602     3.143959     3.136316     3.128673     3.121029     3.113386     3.105743     3.098100     3.090456
      3.082813     3.075170     3.067527     3.059884     3.052240     3.044597     3.036954     3.029311     3.021667     3.014024
      3.006381     2.998738     2.991095     2.983451     2.975808     2.968165     2.960522     2.952878     2.945235     2.937592
      2.929949     2.922306     2.914662     2.907019     2.899376     2.891733     2.884089     2.876446     2.868803     2.861160
      2.853517     2.845873     2.838230     2.830587     2.822944     2.815300     2.807657     2.800014     2.792371     2.784728
      2.777084     2.769441     2.761798     2.754155     2.746511     2.738868     2.731225     2.723582     2.715939     2.708295
      2.700652     2.693009     2.685366     2.677722     2.670079     2.662436     2.654793     2.647150     2.639506     2.631863
      2.624220     2.616577     2.608933     2.601290     2.593647     2.586004     2.578361     2.570717     2.563074     2.555431
      2.547788     2.540144     2.532501     2.524858     2.517215     2.509572     2.501928     2.494285     2.486642     2.478999
      2.471355     2.463712     2.456069     2.448426     2.440783     2.433139     2.425496     2.417853     2.410210     2.402566
      2.394923     2.387280     2.379637     2.371994     2.364350     2.356707     2.349064     2.341421     2.333777     2.326134
      2.318491     2.310848     2.303205     2.295561     2.287918     2.280275     2.272632     2.264988     2.257345     2.249702
      2.242059     2.234416     2.226772     2.219129     2.211486     2.203843     2.196199     2.188556     2.180913     2.173270
      2.165627     2.157983     2.150340     2.142697     2.135054     2.127410     2.119767     2.112124     2.104481     2.096838
      2.089194     2.081551     2.073908     2.066265     2.058621     2.050978     2.043335     2.035692     2.028049     2.020405
      2.012762     2.005119     1.997476     1.989833     1.982190     1.974546     1.966903     1.959260     1.951617     1.943974
      1.936331     1.928688     1.921045     1.913402     1.905759     1.898115     1.890472     1.882829     1.875186     1.867543
      1.859900     1.852257     1.844614     1.836971     1.829327     1.821684     1.814041     1.806398     1.798755     1.791112
      1.783469     1.775826     1.768183     1.760540     1.752896     1.745253     1.737610     1.729967     1.722324     1.714681
      1.707038     1.699395     1.691752     1.684108     1.676465     1.668822     1.661179     1.653536     1.645893     1.638250
      1.630607     1.622964     1.615321     1.607677     1.600034     1.592391     1.584748     1.577105     1.569462     1.561819
      1.554176     1.546533     1.538890     1.531246     1.523603     1.515960     1.508317     1.500674     1.493031     1.485388
      1.477745     1.470102     1.462458     1.454815     1.447172     1.439529     1.431886     1.424243     1.416600     1.408957
      1.401314     1.393671     1.386027     1.378384     1.370741     1.363098     1.355455     1.347812     1.340169     1.332526
      1.324883     1.317240     1.309596     1.301953     1.294310     1.286667     1.279024     1.271381     1.263738     1.256095
      1.248452     1.240808     1.233165     1.225522     1.217879     1.210236     1.202593     1.194950     1.187307     1.179664
      1.172021     1.164377     1.156734     1.149091     1.141448     1.133805     1.126162     1.118519     1.110876     1.103233
      1.095590     1.087946     1.080303     1.072660     1.065017     1.057374     1.049731     1.042088     1.034445     1.026802
      1.019158     1.011515     1.003872     0.996229     0.988586     0.980943     0.973300     0.965657     0.958014     0.950371
      0.942727     0.935084     0.927441     0.919798     0.912155     0.904512     0.896869     0.889226     0.881583     0.873940
      0.866296     0.858653     0.851010     0.843367     0.835724     0.828081     0.820438     0.812795     0.805152     0.797508
      0.789865     0.782222     0.774579     0.766936     0.759293     0.751650     0.744007     0.736364     0.728721     0.721077
      0.713434     0.705791     0.698148     0.690505     0.682862     0.675219     0.667576     0.659933     0.652290     0.644646
      0.637003     0.629360     0.621717     0.614074     0.606431     0.598788     0.591145     0.583502     0.575858     0.568215
      0.560572     0.552929     0.545286     0.537643     0.530000     0.522357     0.514714     0.507071     0.499427     0.491784
      0.484141     0.476498     0.468855     0.461212     0.453569     0.445925     0.438282     0.430639     0.422996     0.415353
      0.407710     0.400067     0.392424     0.384780     0.377137     0.369494     0.361851     0.354208     0.346565     0.338922
      0.331278     0.323635     0.315992     0.308349     0.300706     0.293063     0.285420     0.277777     0.270133     0.262490
      0.254847     0.247204     0.239561     0.231918     0.224275     0.216631     0.208988     0.201345
 NY phased data points follow
   2.14155E+00  3.15521E+00  3.99453E+00  3.02914E+00  1.92719E+00  3.35594E+00  3.94689E+00  3.44239E+00  3.52050E+00  2.03735E+00
   2.43439E+00  2.49705E+00  2.49496E+00  2.76119E+00  3.36290E+00  2.77133E+00  2.75556E+00  3.86004E+00  8.34917E-01  1.14423E+00
   5.18705E+00  3.35410E+00  3.24740E+00  2.28389E+00  3.58075E+00  2.62079E+00  3.74630E+00  6.30604E-01  2.35046E+00  2.08292E+00
   3.31238E+00  2.49540E+00  4.74576E+00  1.22447E+00  1.80197E+00  1.90054E+00  1.50212E+00  1.36972E+00  3.86395E+00  1.78216E+00
   3.54833E+00  3.29376E+00  3.92011E+00  3.68144E+00  3.72486E+00  7.24747E-01  1.74577E+00  2.20033E+00  2.21521E+00  1.53147E+00
  -2.31490E-01  2.92621E+00  2.25984E+00  4.70211E+00  2.25758E+00  2.68475E+00  2.00387E+00  2.54344E+00  1.97864E+00  2.22216E+00
   1.99850E+00  2.06904E+00  1.80463E+00  2.91311E+00  2.26584E+00  2.60410E+00  1.47146E+00  3.03523E+00  2.19587E+00  1.36112E+00
   1.99407E+00  3.41409E+00  3.76825E+00  2.49907E+00  3.25708E+00  2.19952E+00  1.84502E+00  2.15089E+00  3.23337E+00  1.11676E+00
   1.89273E+00  2.73884E+00  3.22586E+00  2.65716E+00 -2.78273E-02  1.08403E+00  1.35362E+00  1.86908E+00 -7.55996E-01 -1.40523E-01
   1.26958E+00  7.30887E-01  1.54194E+00  4.55622E+00  1.11653E+00  2.25847E+00  3.39372E+00  3.29195E+00  2.06286E+00 -9.30878E-01
   1.02183E+00 -1.19320E-01  2.60218E+00  2.06867E+00  1.06051E+00  6.41280E-01  1.80532E+00 -1.34467E-01  3.18151E-01  3.48374E+00
  -1.41842E+00 -4.48796E-01 -7.30046E-01 -1.45104E+00  5.43222E-01  6.43169E-01  1.11012E+00 -5.99200E-01 -1.77773E-01  2.69116E+00
   9.08796E-01  1.00622E-01  1.62511E+00 -4.49357E-02  7.59406E-01 -1.75163E+00 -9.87677E-01 -1.47568E+00 -6.40680E-01 -1.71586E+00
   1.41408E+00 -2.52708E+00 -1.84750E+00 -9.28904E-01 -5.14115E-01 -2.57490E+00 -5.68890E-01  5.48332E-01 -9.46310E-01  9.79371E-01
   1.99796E-01 -8.03608E-01 -9.17103E-01 -7.04822E-01  9.69947E-01 -7.89001E-01 -2.18454E+00 -1.34065E+00 -4.11517E-01  1.56495E+00
  -7.49739E-01 -1.46693E-01 -1.52609E+00 -8.05036E-01 -2.77337E+00 -7.69317E-01 -1.20184E+00  2.89921E-01 -2.20891E+00 -2.00798E+00
  -9.57212E-01 -2.25193E+00 -1.89601E+00 -2.36324E+00 -2.87117E+00 -2.09084E+00 -3.28472E+00 -2.89673E+00 -2.65567E+00 -4.23356E+00
  -3.96117E+00 -4.16513E+00 -3.92111E+00 -4.25983E+00 -4.99213E+00 -5.58401E+00 -3.72286E+00 -6.13699E+00 -4.86621E+00 -5.44138E+00
  -5.67952E+00 -7.43788E+00 -6.56031E+00 -4.26279E+00 -6.96553E+00 -8.22770E+00 -5.33527E+00 -7.07622E+00 -7.86277E+00 -8.00692E+00
  -8.99751E+00 -7.81099E+00 -7.48300E+00 -9.61957E+00 -9.90379E+00 -8.27383E+00 -8.91767E+00 -8.41879E+00 -8.15120E+00 -1.20035E+01
  -9.50847E+00 -1.06162E+01 -1.03867E+01 -8.31687E+00 -9.73434E+00 -8.52256E+00 -9.19539E+00 -1.02885E+01 -9.60275E+00 -1.10809E+01
  -8.50533E+00 -1.03879E+01 -1.07973E+01 -1.10187E+01 -1.11049E+01 -1.01573E+01 -7.64515E+00 -1.07842E+01 -1.00719E+01 -9.79380E+00
  -1.03241E+01 -7.30728E+00 -1.03926E+01 -9.36491E+00 -1.06244E+01 -9.84070E+00 -1.18015E+01 -8.03236E+00 -9.05667E+00 -9.81475E+00
  -1.01613E+01 -1.05176E+01 -8.91284E+00 -1.06766E+01 -9.35350E+00 -1.09684E+01 -9.90607E+00 -1.19867E+01 -9.79311E+00 -7.91081E+00
  -7.56065E+00 -1.12043E+01 -7.01545E+00 -1.01627E+01 -8.54340E+00 -9.25228E+00 -7.19423E+00 -9.27979E+00 -7.05497E+00 -6.21045E+00
  -6.17756E+00 -8.87240E+00 -9.49805E+00 -1.03086E+01 -1.11391E+01 -1.28017E+01 -1.16024E+01 -1.12503E+01 -1.32722E+01 -1.32006E+01
  -1.13547E+01 -1.22534E+01 -1.18667E+01 -1.17942E+01 -1.08721E+01 -1.50172E+01 -1.36356E+01 -1.68056E+01 -1.56049E+01 -1.72969E+01
  -1.61905E+01 -1.88837E+01 -1.87543E+01 -2.09793E+01 -2.06152E+01 -2.14217E+01 -2.30500E+01 -2.50783E+01 -2.53961E+01 -2.63985E+01
  -2.61081E+01 -2.47839E+01 -2.73549E+01 -2.98788E+01 -2.74255E+01 -2.68426E+01 -2.82269E+01 -2.85343E+01 -2.97883E+01 -2.83427E+01
  -2.74856E+01 -2.91095E+01 -2.76354E+01 -2.77255E+01 -2.80164E+01 -2.81735E+01 -2.40716E+01 -2.62726E+01 -2.57199E+01 -2.48821E+01
  -2.29217E+01 -2.31394E+01 -2.42867E+01 -2.16243E+01 -2.20057E+01 -2.01544E+01 -1.98686E+01 -2.15167E+01 -1.99898E+01 -1.95598E+01
  -1.97665E+01 -1.80880E+01 -1.78754E+01 -1.59118E+01 -1.72292E+01 -1.32395E+01 -1.48256E+01 -1.08762E+01 -8.41211E+00 -4.47693E+00
  -9.37686E-01  1.74998E+00  5.81900E+00  8.93914E+00  1.14043E+01  1.71171E+01  1.87357E+01  2.29630E+01  2.65174E+01  2.93098E+01
   3.06000E+01  3.24494E+01  3.24537E+01  3.48438E+01  3.65150E+01  3.65022E+01  3.57004E+01  3.75488E+01  3.47787E+01  3.57140E+01
   3.66864E+01  3.58944E+01  3.36007E+01  3.25894E+01  3.07246E+01  3.16319E+01  3.00469E+01  2.84134E+01  3.02367E+01  2.97506E+01
   2.91803E+01  2.64486E+01  2.56548E+01  2.51911E+01  2.53633E+01  2.46284E+01  2.28976E+01  2.25047E+01  2.16145E+01  2.09127E+01
   2.04334E+01  1.90409E+01  2.03957E+01  1.92118E+01  1.69669E+01  1.61796E+01  1.70201E+01  1.54839E+01  1.50697E+01  1.51722E+01
   1.43981E+01  1.34556E+01  1.52248E+01  1.57920E+01  1.46010E+01  1.43610E+01  1.40888E+01  1.47639E+01  1.00514E+01  1.21926E+01
   1.18627E+01  1.36953E+01  1.36180E+01  1.03572E+01  9.89964E+00  1.18443E+01  1.15979E+01  1.29318E+01  1.15452E+01  1.00602E+01
   1.02002E+01  1.20921E+01  1.16796E+01  1.15850E+01  1.09029E+01  1.17239E+01  1.08955E+01  1.06443E+01  9.35193E+00  9.68854E+00
   9.02992E+00  8.73932E+00  8.41846E+00  9.35646E+00  1.06663E+01  9.50390E+00  9.42955E+00  8.18810E+00  7.84254E+00  8.71454E+00
   8.89627E+00  6.19351E+00  7.84544E+00  8.59538E+00  6.50367E+00  8.71018E+00  7.51642E+00  9.44047E+00  5.97809E+00  7.13253E+00
   5.64520E+00  7.16534E+00  7.53405E+00  6.57353E+00  5.81324E+00  6.82849E+00  5.89539E+00  5.97830E+00  7.88090E+00  6.45003E+00
   6.92968E+00  6.41370E+00  7.06387E+00  6.43484E+00  4.04718E+00  6.60880E+00  5.25625E+00  5.17875E+00  3.97916E+00  4.44708E+00
   3.67882E+00  4.27352E+00  3.65928E+00  5.84223E+00  4.43501E+00  3.31609E+00  4.29063E+00  4.70642E+00  3.41960E+00  3.34891E+00
   5.40700E+00  4.77798E+00  4.41148E+00  4.20407E+00  6.57970E+00  4.46042E+00  3.06961E+00  4.41912E+00  5.61535E+00  4.49783E+00
   3.39362E+00  3.80711E+00  3.91664E+00  4.98772E+00  2.92533E+00  3.67729E+00  3.67808E+00  3.45940E+00  5.85748E+00  3.34716E+00
   3.46381E+00  2.52339E+00  2.87697E+00  4.25695E+00  2.55245E+00  2.03533E+00  5.56459E-01  2.70512E+00  4.48815E+00  3.06878E+00
   1.54138E+00  5.42335E-01  1.99859E+00  2.43202E+00  1.54103E+00 -1.20816E-01  1.30088E+00  1.51010E+00  1.38252E+00  3.33558E-01
   1.42174E+00  1.84709E+00  2.90412E+00  2.08461E+00  2.26069E-01  3.35564E-01 -6.28396E-01  2.11940E-01
 NY points of the fit to the data follow
   3.57223E+00  4.39018E+00  3.37849E+00  4.09629E+00  3.39434E+00  4.07294E+00  3.40483E+00  3.75139E+00  3.15030E+00  3.19305E+00
   2.66682E+00  2.51380E+00  2.14601E+00  2.19313E+00  2.07164E+00  2.16288E+00  2.16889E+00  2.23566E+00  2.30532E+00  2.28294E+00
   2.28506E+00  2.23752E+00  2.24360E+00  2.18585E+00  2.19759E+00  2.13241E+00  2.14946E+00  2.08115E+00  2.12188E+00  2.10270E+00
   2.19234E+00  2.19494E+00  2.29020E+00  2.29280E+00  2.37977E+00  2.38458E+00  2.46338E+00  2.47293E+00  2.54316E+00  2.55091E+00
   2.60365E+00  2.61778E+00  2.65596E+00  2.67389E+00  2.69562E+00  2.70664E+00  2.70898E+00  2.70770E+00  2.69186E+00  2.68628E+00
   2.66049E+00  2.65251E+00  2.62154E+00  2.60623E+00  2.57421E+00  2.54525E+00  2.51400E+00  2.47760E+00  2.45651E+00  2.42119E+00
   2.41471E+00  2.36667E+00  2.36429E+00  2.30228E+00  2.30203E+00  2.22536E+00  2.23022E+00  2.15683E+00  2.18095E+00  2.13296E+00
   2.17217E+00  2.09671E+00  2.10793E+00  2.00158E+00  1.99523E+00  1.86833E+00  1.85421E+00  1.71199E+00  1.70310E+00  1.55051E+00
   1.54427E+00  1.40019E+00  1.40817E+00  1.26993E+00  1.28688E+00  1.14460E+00  1.16157E+00  1.01931E+00  1.03877E+00  9.08123E-01
   9.33893E-01  8.24731E-01  8.59338E-01  7.77692E-01  8.30150E-01  7.70953E-01  8.32445E-01  7.92578E-01  8.59629E-01  8.38422E-01
   9.07467E-01  9.03931E-01  9.73151E-01  9.87174E-01  1.05659E+00  1.08770E+00  1.15588E+00  1.19859E+00  1.25753E+00  1.29601E+00
   1.34315E+00  1.38016E+00  1.42476E+00  1.46631E+00  1.51193E+00  1.56096E+00  1.61061E+00  1.65861E+00  1.70695E+00  1.74360E+00
   1.77663E+00  1.79813E+00  1.81757E+00  1.82585E+00  1.83283E+00  1.82855E+00  1.82082E+00  1.80256E+00  1.78223E+00  1.74819E+00
   1.71575E+00  1.66663E+00  1.62296E+00  1.55936E+00  1.50499E+00  1.42745E+00  1.36230E+00  1.27130E+00  1.19537E+00  1.09230E+00
   1.00544E+00  8.91139E-01  7.93212E-01  6.68551E-01  5.59541E-01  4.24767E-01  3.04024E-01  1.59043E-01  2.52678E-02 -1.30792E-01
  -2.78816E-01 -4.46756E-01 -6.09902E-01 -7.89906E-01 -9.68240E-01 -1.16044E+00 -1.35478E+00 -1.56306E+00 -1.77532E+00 -1.99908E+00
  -2.22812E+00 -2.46500E+00 -2.70780E+00 -2.95619E+00 -3.21033E+00 -3.46968E+00 -3.73362E+00 -4.00256E+00 -4.27381E+00 -4.54951E+00
  -4.82501E+00 -5.10380E+00 -5.37952E+00 -5.65770E+00 -5.93046E+00 -6.20595E+00 -6.47401E+00 -6.74489E+00 -7.00648E+00 -7.27158E+00
  -7.52561E+00 -7.78062E+00 -8.02466E+00 -8.26747E+00 -8.50048E+00 -8.72994E+00 -8.95128E+00 -9.16609E+00 -9.37474E+00 -9.57327E+00
  -9.76784E+00 -9.94867E+00 -1.01279E+01 -1.02902E+01 -1.04531E+01 -1.05965E+01 -1.07423E+01 -1.08663E+01 -1.09937E+01 -1.10975E+01
  -1.12049E+01 -1.12876E+01 -1.13735E+01 -1.14347E+01 -1.14981E+01 -1.15376E+01 -1.15778E+01 -1.15962E+01 -1.16130E+01 -1.16101E+01
  -1.16034E+01 -1.15790E+01 -1.15490E+01 -1.15050E+01 -1.14541E+01 -1.13921E+01 -1.13228E+01 -1.12446E+01 -1.11586E+01 -1.10652E+01
  -1.09645E+01 -1.08575E+01 -1.07442E+01 -1.06263E+01 -1.05023E+01 -1.03748E+01 -1.02410E+01 -1.01038E+01 -9.95958E+00 -9.81389E+00
  -9.66053E+00 -9.50795E+00 -9.34742E+00 -9.19041E+00 -9.02621E+00 -8.86850E+00 -8.70579E+00 -8.55368E+00 -8.40018E+00 -8.26269E+00
  -8.12916E+00 -8.01804E+00 -7.91742E+00 -7.84554E+00 -7.79149E+00 -7.77223E+00 -7.77815E+00 -7.82377E+00 -7.90110E+00 -8.02169E+00
  -8.17910E+00 -8.38159E+00 -8.62386E+00 -8.91107E+00 -9.23809E+00 -9.60567E+00 -1.00111E+01 -1.04511E+01 -1.09251E+01 -1.14266E+01
  -1.19571E+01 -1.25097E+01 -1.30838E+01 -1.36726E+01 -1.42749E+01 -1.48841E+01 -1.54991E+01 -1.61129E+01 -1.67252E+01 -1.73306E+01
  -1.79280E+01 -1.85136E+01 -1.90856E+01 -1.96416E+01 -2.01797E+01 -2.06981E+01 -2.11951E+01 -2.16695E+01 -2.21201E+01 -2.25462E+01
  -2.29469E+01 -2.33217E+01 -2.36703E+01 -2.39924E+01 -2.42878E+01 -2.45564E+01 -2.47983E+01 -2.50134E+01 -2.52018E+01 -2.53636E+01
  -2.54986E+01 -2.56070E+01 -2.56885E+01 -2.57428E+01 -2.57694E+01 -2.57677E+01 -2.57368E+01 -2.56752E+01 -2.55810E+01 -2.54519E+01
  -2.52847E+01 -2.50756E+01 -2.48193E+01 -2.45097E+01 -2.41391E+01 -2.36988E+01 -2.31782E+01 -2.25655E+01 -2.18473E+01 -2.10091E+01
  -2.00361E+01 -1.89131E+01 -1.76258E+01 -1.61612E+01 -1.45092E+01 -1.26630E+01 -1.06207E+01 -8.38621E+00 -5.96928E+00 -3.38625E+00
  -6.59665E-01  2.18248E+00  5.10820E+00  8.08411E+00  1.10792E+01  1.40707E+01  1.70547E+01  2.00726E+01  2.32983E+01  2.69813E+01
   2.95943E+01  3.24440E+01  3.41020E+01  3.57086E+01  3.63520E+01  3.65275E+01  3.61372E+01  3.63513E+01  3.57254E+01  3.57703E+01
   3.49086E+01  3.45475E+01  3.34875E+01  3.28676E+01  3.18473E+01  3.13327E+01  3.04834E+01  3.00691E+01  2.93970E+01  2.89292E+01
   2.83108E+01  2.75276E+01  2.68998E+01  2.59414E+01  2.53599E+01  2.43047E+01  2.38193E+01  2.27997E+01  2.24308E+01  2.13894E+01
   2.10662E+01  1.99917E+01  1.96496E+01  1.84683E+01  1.81164E+01  1.69531E+01  1.68081E+01  1.61056E+01  1.63321E+01  1.64080E+01
   1.62404E+01  1.55555E+01  1.50708E+01  1.38240E+01  1.30862E+01  1.16557E+01  1.09344E+01  1.06597E+01  1.06276E+01  1.07485E+01
   1.09681E+01  1.12469E+01  1.15525E+01  1.18576E+01  1.21385E+01  1.23755E+01  1.25524E+01  1.26576E+01  1.26834E+01  1.26271E+01
   1.24897E+01  1.22763E+01  1.19954E+01  1.16584E+01  1.12787E+01  1.08709E+01  1.04498E+01  1.00302E+01  9.62519E+00  9.24666E+00
   8.90423E+00  8.60513E+00  8.35407E+00  8.15322E+00  8.00241E+00  7.89943E+00  7.84030E+00  7.81956E+00  7.83069E+00  7.86648E+00
   7.91944E+00  7.98211E+00  8.04730E+00  8.10832E+00  8.15918E+00  8.19470E+00  8.21069E+00  8.20391E+00  8.17212E+00  8.11394E+00
   8.02896E+00  7.91755E+00  7.78087E+00  7.62067E+00  7.43922E+00  7.23915E+00  7.02341E+00  6.79511E+00  6.55748E+00  6.31371E+00
   6.06691E+00  5.81997E+00  5.57564E+00  5.33641E+00  5.10448E+00  4.88175E+00  4.66983E+00  4.46997E+00  4.28319E+00  4.11024E+00
   3.95159E+00  3.80747E+00  3.67790E+00  3.56270E+00  3.46157E+00  3.37407E+00  3.29964E+00  3.23761E+00  3.18724E+00  3.14775E+00
   3.11834E+00  3.09817E+00  3.08639E+00  3.08211E+00  3.08448E+00  3.09264E+00  3.10579E+00  3.12311E+00  3.14379E+00  3.16706E+00
   3.19217E+00  3.21840E+00  3.24508E+00  3.27153E+00  3.29710E+00  3.32115E+00  3.34310E+00  3.36239E+00  3.37847E+00  3.39081E+00
   3.39888E+00  3.40219E+00  3.40029E+00  3.39271E+00  3.37903E+00  3.35880E+00  3.33161E+00  3.29706E+00  3.25479E+00  3.20442E+00
   3.14559E+00  3.07793E+00  3.00110E+00  2.91478E+00  2.81865E+00  2.71238E+00  2.59568E+00  2.46823E+00  2.32974E+00  2.17993E+00
   2.01852E+00  1.84525E+00  1.65982E+00  1.46200E+00  1.25151E+00  1.02814E+00  7.91652E-01  5.41816E-01
 NY background values follow
     2.166E+00    2.064E+00    1.966E+00    1.870E+00    1.777E+00    1.687E+00    1.600E+00    1.515E+00    1.433E+00    1.353E+00
     1.276E+00    1.202E+00    1.130E+00    1.060E+00    9.933E-01    9.284E-01    8.657E-01    8.053E-01    7.471E-01    6.909E-01
     6.368E-01    5.848E-01    5.347E-01    4.865E-01    4.402E-01    3.958E-01    3.531E-01    3.121E-01    2.729E-01    2.352E-01
     1.991E-01    1.646E-01    1.316E-01    9.998E-02    6.977E-02    4.091E-02    1.334E-02   -1.299E-02   -3.811E-02   -6.209E-02
    -8.497E-02   -1.068E-01   -1.276E-01   -1.475E-01   -1.664E-01   -1.845E-01   -2.018E-01   -2.183E-01   -2.341E-01   -2.492E-01
    -2.638E-01   -2.777E-01   -2.911E-01   -3.041E-01   -3.166E-01   -3.288E-01   -3.406E-01   -3.521E-01   -3.634E-01   -3.745E-01
    -3.855E-01   -3.964E-01   -4.073E-01   -4.181E-01   -4.291E-01   -4.401E-01   -4.513E-01   -4.627E-01   -4.743E-01   -4.862E-01
    -4.985E-01   -5.112E-01   -5.243E-01   -5.379E-01   -5.521E-01   -5.668E-01   -5.822E-01   -5.982E-01   -6.150E-01   -6.326E-01
    -6.510E-01   -6.703E-01   -6.905E-01   -7.117E-01   -7.339E-01   -7.572E-01   -7.816E-01   -8.071E-01   -8.339E-01   -8.619E-01
    -8.913E-01   -9.220E-01   -9.541E-01   -9.877E-01   -1.023E+00   -1.059E+00   -1.098E+00   -1.138E+00   -1.179E+00   -1.223E+00
    -1.268E+00   -1.315E+00   -1.363E+00   -1.414E+00   -1.467E+00   -1.522E+00   -1.579E+00   -1.638E+00   -1.699E+00   -1.763E+00
    -1.828E+00   -1.896E+00   -1.967E+00   -2.040E+00   -2.115E+00   -2.193E+00   -2.273E+00   -2.356E+00   -2.442E+00   -2.530E+00
    -2.622E+00   -2.716E+00   -2.812E+00   -2.912E+00   -3.015E+00   -3.121E+00   -3.229E+00   -3.341E+00   -3.455E+00   -3.573E+00
    -3.693E+00   -3.816E+00   -3.942E+00   -4.071E+00   -4.203E+00   -4.337E+00   -4.474E+00   -4.613E+00   -4.756E+00   -4.900E+00
    -5.048E+00   -5.198E+00   -5.350E+00   -5.505E+00   -5.662E+00   -5.822E+00   -5.984E+00   -6.149E+00   -6.315E+00   -6.485E+00
    -6.656E+00   -6.829E+00   -7.005E+00   -7.183E+00   -7.363E+00   -7.546E+00   -7.730E+00   -7.916E+00   -8.104E+00   -8.295E+00
    -8.487E+00   -8.681E+00   -8.877E+00   -9.075E+00   -9.275E+00   -9.477E+00   -9.680E+00   -9.885E+00   -1.009E+01   -1.030E+01
    -1.051E+01   -1.072E+01   -1.094E+01   -1.115E+01   -1.137E+01   -1.159E+01   -1.181E+01   -1.203E+01   -1.225E+01   -1.247E+01
    -1.270E+01   -1.292E+01   -1.315E+01   -1.338E+01   -1.361E+01   -1.384E+01   -1.407E+01   -1.431E+01   -1.454E+01   -1.478E+01
    -1.501E+01   -1.525E+01   -1.549E+01   -1.573E+01   -1.597E+01   -1.621E+01   -1.646E+01   -1.670E+01   -1.694E+01   -1.719E+01
    -1.743E+01   -1.768E+01   -1.793E+01   -1.818E+01   -1.842E+01   -1.867E+01   -1.892E+01   -1.917E+01   -1.942E+01   -1.967E+01
    -1.992E+01   -2.018E+01   -2.043E+01   -2.068E+01   -2.093E+01   -2.119E+01   -2.144E+01   -2.169E+01   -2.195E+01   -2.220E+01
    -2.246E+01   -2.271E+01   -2.296E+01   -2.322E+01   -2.347E+01   -2.373E+01   -2.398E+01   -2.424E+01   -2.449E+01   -2.474E+01
    -2.500E+01   -2.525E+01   -2.550E+01   -2.576E+01   -2.601E+01   -2.626E+01   -2.651E+01   -2.677E+01   -2.702E+01   -2.727E+01
    -2.752E+01   -2.777E+01   -2.802E+01   -2.827E+01   -2.851E+01   -2.876E+01   -2.901E+01   -2.925E+01   -2.950E+01   -2.974E+01
    -2.999E+01   -3.023E+01   -3.047E+01   -3.071E+01   -3.095E+01   -3.119E+01   -3.143E+01   -3.167E+01   -3.190E+01   -3.214E+01
    -3.237E+01   -3.260E+01   -3.283E+01   -3.306E+01   -3.329E+01   -3.351E+01   -3.374E+01   -3.396E+01   -3.418E+01   -3.440E+01
    -3.461E+01   -3.483E+01   -3.504E+01   -3.525E+01   -3.546E+01   -3.567E+01   -3.587E+01   -3.607E+01   -3.627E+01   -3.647E+01
    -3.666E+01   -3.685E+01   -3.704E+01   -3.723E+01   -3.741E+01   -3.760E+01   -3.777E+01   -3.795E+01   -3.812E+01   -3.829E+01
    -3.846E+01   -3.862E+01   -3.878E+01   -3.894E+01   -3.910E+01   -3.925E+01   -3.940E+01   -3.954E+01   -3.968E+01   -3.982E+01
    -3.995E+01   -4.008E+01   -4.021E+01   -4.033E+01   -4.045E+01   -4.057E+01   -4.068E+01   -4.079E+01   -4.089E+01   -4.099E+01
    -4.108E+01   -4.118E+01   -4.126E+01   -4.135E+01   -4.142E+01   -4.150E+01   -4.157E+01   -4.163E+01   -4.169E+01   -4.175E+01
    -4.180E+01   -4.185E+01   -4.189E+01   -4.193E+01   -4.196E+01   -4.199E+01   -4.201E+01   -4.203E+01   -4.204E+01   -4.204E+01
    -4.205E+01   -4.204E+01   -4.203E+01   -4.202E+01   -4.200E+01   -4.198E+01   -4.195E+01   -4.191E+01   -4.187E+01   -4.182E+01
    -4.177E+01   -4.171E+01   -4.164E+01   -4.157E+01   -4.149E+01   -4.141E+01   -4.132E+01   -4.123E+01   -4.113E+01   -4.102E+01
    -4.090E+01   -4.078E+01   -4.066E+01   -4.052E+01   -4.039E+01   -4.024E+01   -4.009E+01   -3.993E+01   -3.976E+01   -3.959E+01
    -3.941E+01   -3.922E+01   -3.903E+01   -3.883E+01   -3.862E+01   -3.840E+01   -3.818E+01   -3.795E+01   -3.771E+01   -3.747E+01
    -3.722E+01   -3.696E+01   -3.669E+01   -3.642E+01   -3.614E+01   -3.585E+01   -3.555E+01   -3.525E+01   -3.494E+01   -3.462E+01
    -3.430E+01   -3.397E+01   -3.363E+01   -3.329E+01   -3.294E+01   -3.259E+01   -3.223E+01   -3.187E+01   -3.150E+01   -3.113E+01
    -3.075E+01   -3.037E+01   -2.998E+01   -2.959E+01   -2.920E+01   -2.880E+01   -2.840E+01   -2.799E+01   -2.758E+01   -2.717E+01
    -2.676E+01   -2.634E+01   -2.593E+01   -2.550E+01   -2.508E+01   -2.466E+01   -2.423E+01   -2.380E+01   -2.337E+01   -2.294E+01
    -2.251E+01   -2.208E+01   -2.165E+01   -2.121E+01   -2.078E+01   -2.035E+01   -1.992E+01   -1.948E+01   -1.905E+01   -1.862E+01
    -1.819E+01   -1.776E+01   -1.733E+01   -1.691E+01   -1.648E+01   -1.606E+01   -1.564E+01   -1.522E+01   -1.480E+01   -1.439E+01
    -1.398E+01   -1.357E+01   -1.317E+01   -1.276E+01   -1.237E+01   -1.197E+01   -1.158E+01   -1.120E+01   -1.081E+01   -1.044E+01
    -1.006E+01   -9.695E+00   -9.332E+00   -8.974E+00   -8.621E+00   -8.274E+00   -7.933E+00   -7.597E+00   -7.268E+00   -6.945E+00
    -6.628E+00   -6.318E+00   -6.015E+00   -5.719E+00   -5.430E+00   -5.149E+00   -4.875E+00   -4.609E+00   -4.351E+00   -4.100E+00
    -3.859E+00   -3.626E+00   -3.401E+00   -3.185E+00   -2.979E+00   -2.781E+00   -2.593E+00   -2.415E+00   -2.246E+00   -2.088E+00
    -1.939E+00   -1.801E+00   -1.674E+00   -1.557E+00   -1.451E+00   -1.356E+00   -1.273E+00   -1.201E+00   -1.140E+00   -1.091E+00
    -1.055E+00   -1.030E+00   -1.018E+00   -1.019E+00   -1.032E+00   -1.058E+00   -1.098E+00   -1.150E+00   -1.216E+00   -1.296E+00
    -1.390E+00   -1.497E+00   -1.619E+00   -1.756E+00   -1.906E+00   -2.072E+00   -2.253E+00   -2.449E+00
 Asp      Conc. = 4.86E-01
