 LCModel (Version 6.3-1L) Copyright: S.W. Provencher.          Ref.: Magn. Reson. Med. 30:672-679 (1993).                
 Slice#3 Row#3 Col#7  PD_24_press_2_raw_act
 36 lines in following concentration table = NCONC+1
    Conc.  %SD /Cr+PCr  Metabolite                                         
  793.061  67%   0.570 Ala                                                 
  160.078 165%   0.115 Asp                                                 
 1.08E+03  82%   0.775 Cr                                                  
  313.663 286%   0.225 PCr                                                 
  107.358 149% 7.7E-02 GABA                                                
  156.127 102%   0.112 Glc                                                 
  110.276 999% 7.9E-02 Gln                                                 
    0.000 999%   0.000 Glu                                                 
  621.796  11%   0.447 GPC                                                 
    0.000 999%   0.000 PCh                                                 
  665.555  42%   0.478 GSH                                                 
 3.16E+03  26%   2.271 Ins                                                 
    0.000 999%   0.000 Lac                                                 
 1.14E+03  31%   0.820 NAA                                                 
  237.308 160%   0.171 NAAG                                                
  114.137  42% 8.2E-02 Scyllo                                              
  296.688  87%   0.213 Tau                                                 
    0.000 999%   0.000 -CrCH2                                              
  621.796  11%   0.447 GPC+PCh                                             
 1.38E+03  15%   0.990 NAA+NAAG                                            
 1.39E+03  13%   1.000 Cr+PCr                                              
  110.276 999% 7.9E-02 Glu+Gln                                             
 1.91E+03  43%   1.371 Lip13a                                              
    0.000 999%   0.000 Lip13b                                              
  547.361  53%   0.393 Lip09                                               
  108.761 187% 7.8E-02 MM09                                                
  199.410 104%   0.143 Lip20                                               
    0.000 999%   0.000 MM20                                                
   43.074 250% 3.1E-02 MM12                                                
  321.822 120%   0.231 MM14                                                
  104.065 239% 7.5E-02 MM17                                                
 1.91E+03  43%   1.371 Lip13a+Lip13b                                       
 2.27E+03  34%   1.633 MM14+Lip13a+Lip13b+MM12                             
  656.122  45%   0.472 MM09+Lip09                                          
  199.410 104%   0.143 MM20+Lip20                                          
   6 lines in following misc. output table
  FWHM = 0.076 ppm    S/N =   2                                            
  Data shift = 0.023 ppm                                                   
  Ph:  10 deg       3.5 deg/ppm                                            
  alphaB,S = 8.5E+01,   2.0E+02                                            
   14 spline knots.   Ns = 8(1)                                            
   2 inflections.     1 extrema                                            
  498 points on ppm-axis = NY
      4.000000     3.992357     3.984714     3.977070     3.969427     3.961784     3.954141     3.946497     3.938854     3.931211
      3.923568     3.915925     3.908281     3.900638     3.892995     3.885352     3.877708     3.870065     3.862422     3.854779
      3.847136     3.839492     3.831849     3.824206     3.816563     3.808919     3.801276     3.793633     3.785990     3.778347
      3.770703     3.763060     3.755417     3.747774     3.740130     3.732487     3.724844     3.717201     3.709558     3.701914
      3.694271     3.686628     3.678985     3.671341     3.663698     3.656055     3.648412     3.640769     3.633125     3.625482
      3.617839     3.610196     3.602552     3.594909     3.587266     3.579623     3.571980     3.564336     3.556693     3.549050
      3.541407     3.533763     3.526120     3.518477     3.510834     3.503191     3.495547     3.487904     3.480261     3.472618
      3.464974     3.457331     3.449688     3.442045     3.434402     3.426758     3.419115     3.411472     3.403829     3.396185
      3.388542     3.380899     3.373256     3.365613     3.357969     3.350326     3.342683     3.335040     3.327396     3.319753
      3.312110     3.304467     3.296824     3.289180     3.281537     3.273894     3.266251     3.258607     3.250964     3.243321
      3.235678     3.228034     3.220391     3.212748     3.205105     3.197462     3.189818     3.182175     3.174532     3.166889
      3.159245     3.151602     3.143959     3.136316     3.128673     3.121029     3.113386     3.105743     3.098100     3.090456
      3.082813     3.075170     3.067527     3.059884     3.052240     3.044597     3.036954     3.029311     3.021667     3.014024
      3.006381     2.998738     2.991095     2.983451     2.975808     2.968165     2.960522     2.952878     2.945235     2.937592
      2.929949     2.922306     2.914662     2.907019     2.899376     2.891733     2.884089     2.876446     2.868803     2.861160
      2.853517     2.845873     2.838230     2.830587     2.822944     2.815300     2.807657     2.800014     2.792371     2.784728
      2.777084     2.769441     2.761798     2.754155     2.746511     2.738868     2.731225     2.723582     2.715939     2.708295
      2.700652     2.693009     2.685366     2.677722     2.670079     2.662436     2.654793     2.647150     2.639506     2.631863
      2.624220     2.616577     2.608933     2.601290     2.593647     2.586004     2.578361     2.570717     2.563074     2.555431
      2.547788     2.540144     2.532501     2.524858     2.517215     2.509572     2.501928     2.494285     2.486642     2.478999
      2.471355     2.463712     2.456069     2.448426     2.440783     2.433139     2.425496     2.417853     2.410210     2.402566
      2.394923     2.387280     2.379637     2.371994     2.364350     2.356707     2.349064     2.341421     2.333777     2.326134
      2.318491     2.310848     2.303205     2.295561     2.287918     2.280275     2.272632     2.264988     2.257345     2.249702
      2.242059     2.234416     2.226772     2.219129     2.211486     2.203843     2.196199     2.188556     2.180913     2.173270
      2.165627     2.157983     2.150340     2.142697     2.135054     2.127410     2.119767     2.112124     2.104481     2.096838
      2.089194     2.081551     2.073908     2.066265     2.058621     2.050978     2.043335     2.035692     2.028049     2.020405
      2.012762     2.005119     1.997476     1.989833     1.982190     1.974546     1.966903     1.959260     1.951617     1.943974
      1.936331     1.928688     1.921045     1.913402     1.905759     1.898115     1.890472     1.882829     1.875186     1.867543
      1.859900     1.852257     1.844614     1.836971     1.829327     1.821684     1.814041     1.806398     1.798755     1.791112
      1.783469     1.775826     1.768183     1.760540     1.752896     1.745253     1.737610     1.729967     1.722324     1.714681
      1.707038     1.699395     1.691752     1.684108     1.676465     1.668822     1.661179     1.653536     1.645893     1.638250
      1.630607     1.622964     1.615321     1.607677     1.600034     1.592391     1.584748     1.577105     1.569462     1.561819
      1.554176     1.546533     1.538890     1.531246     1.523603     1.515960     1.508317     1.500674     1.493031     1.485388
      1.477745     1.470102     1.462458     1.454815     1.447172     1.439529     1.431886     1.424243     1.416600     1.408957
      1.401314     1.393671     1.386027     1.378384     1.370741     1.363098     1.355455     1.347812     1.340169     1.332526
      1.324883     1.317240     1.309596     1.301953     1.294310     1.286667     1.279024     1.271381     1.263738     1.256095
      1.248452     1.240808     1.233165     1.225522     1.217879     1.210236     1.202593     1.194950     1.187307     1.179664
      1.172021     1.164377     1.156734     1.149091     1.141448     1.133805     1.126162     1.118519     1.110876     1.103233
      1.095590     1.087946     1.080303     1.072660     1.065017     1.057374     1.049731     1.042088     1.034445     1.026802
      1.019158     1.011515     1.003872     0.996229     0.988586     0.980943     0.973300     0.965657     0.958014     0.950371
      0.942727     0.935084     0.927441     0.919798     0.912155     0.904512     0.896869     0.889226     0.881583     0.873940
      0.866296     0.858653     0.851010     0.843367     0.835724     0.828081     0.820438     0.812795     0.805152     0.797508
      0.789865     0.782222     0.774579     0.766936     0.759293     0.751650     0.744007     0.736364     0.728721     0.721077
      0.713434     0.705791     0.698148     0.690505     0.682862     0.675219     0.667576     0.659933     0.652290     0.644646
      0.637003     0.629360     0.621717     0.614074     0.606431     0.598788     0.591145     0.583502     0.575858     0.568215
      0.560572     0.552929     0.545286     0.537643     0.530000     0.522357     0.514714     0.507071     0.499427     0.491784
      0.484141     0.476498     0.468855     0.461212     0.453569     0.445925     0.438282     0.430639     0.422996     0.415353
      0.407710     0.400067     0.392424     0.384780     0.377137     0.369494     0.361851     0.354208     0.346565     0.338922
      0.331278     0.323635     0.315992     0.308349     0.300706     0.293063     0.285420     0.277777     0.270133     0.262490
      0.254847     0.247204     0.239561     0.231918     0.224275     0.216631     0.208988     0.201345
 NY phased data points follow
   5.75105E+01  1.63487E+01  2.98786E+01  5.14802E+00  1.97262E+01  2.93664E+00  3.91220E+01  2.03761E+01  5.10085E+01  2.86302E+01
   5.55246E+01  3.20238E+01  6.59784E+01  6.98779E+00  2.45851E+01  2.64706E+01  3.36002E+01  1.04971E+01  1.83943E+01  5.63467E+00
   3.50229E+01  1.19128E+01  3.75127E+01  1.81531E+01  2.73889E+01  1.21100E+01  2.51346E+01  7.39672E+00  2.44181E+01  7.58699E+00
   3.15811E+01  2.06360E+01  2.85122E+01  4.84136E+00  2.77931E+01  2.25244E+00  2.19789E+01  5.47556E+00  4.12050E+01  3.75552E+01
   1.78316E+01  7.90266E+00  1.80902E+01  1.19755E+01  3.45001E+01  8.75917E+00  1.86646E+01 -3.38488E-01  3.74148E+01  1.67572E+01
   3.29294E+01  2.24775E+01  3.11999E+01  2.09817E+01  3.71717E+01  7.30333E+00  2.37734E+01  2.26994E+01  5.40588E+00  1.75729E+00
   4.05614E+01 -2.74102E+00  3.71857E+01  2.67141E-01  3.37886E+01  1.97079E+00  2.58669E+01 -1.02980E+00  9.75789E+00  2.08946E+01
   1.67540E+01  5.65432E+00  1.53895E+01  2.14650E+00  1.42172E+01  9.92332E+00  1.70138E+01  1.13134E+01  1.88170E+01  1.99368E+01
   1.68802E+01  8.05237E+00  3.31815E+01  1.22609E+01  2.28316E+01 -3.39314E+00  4.49012E+01  2.06859E+01  1.74330E+01  1.79044E+01
   1.57264E+01  2.33483E+01  9.74779E+00 -2.59024E+00  2.48606E+01  2.88441E+00  4.18035E+01  1.85167E+01  4.16750E+01  2.87014E+01
   5.03023E+01  3.72042E+01  4.49326E+01  5.17461E+01  6.32735E+01  2.74352E+01  3.06198E+01  2.80593E+01  3.41652E+01  4.64884E+00
   3.75712E+01 -2.10248E+01  2.94478E+01  1.75392E+00 -3.58388E+00 -5.62360E+00  2.05838E+01 -9.98032E+00  7.07670E+00  2.16270E+00
   1.61091E+01  5.60907E+00  4.11225E+01  1.14023E+01  3.34586E+01  2.30800E+01  4.43677E+01  3.55086E+01  4.54875E+01  2.91975E+01
   5.30082E+01  2.07290E+01  1.78616E+01  4.82084E+00  2.13770E+01  8.53991E+00  1.37820E+01  3.47499E+00  1.30065E+01  1.11773E+01
   2.01607E+01  1.58283E+00  2.54702E+01 -5.91915E-01  2.72504E+00  6.00556E+00  6.87873E+00  3.07873E+01 -8.76121E-02 -1.56352E+01
   1.08968E+01  1.89481E+01  9.51532E+00 -3.55394E+00  1.81126E+01  3.89382E+00  3.63310E+00  8.27639E+00  7.03447E+00  5.25958E+00
  -1.19072E+01 -5.06891E+00  9.62921E+00  2.17016E+00  2.00708E+00 -7.72245E+00  6.76208E+00 -6.80483E+00  1.04623E+01  5.10924E+00
   3.23719E+00 -8.17169E+00 -9.57695E+00 -4.97167E+00  9.79026E+00 -1.18517E+01  9.59548E+00 -1.85299E+01 -5.15890E+00 -1.05564E+01
  -6.26835E+00  2.29966E+01  6.81441E+00 -1.52744E+00 -1.51343E+00 -8.09948E+00  1.18982E+01 -6.01666E+00  4.59255E+00 -5.29977E+00
   1.29867E+01  2.28660E+01  1.49818E+01  1.23242E+01  2.13822E+01 -1.00536E+01  1.09327E+00 -6.08989E+00  7.48010E+00 -9.57394E+00
  -2.57084E+00  1.35661E+00  1.01093E+00  9.18808E+00  1.59100E+01 -2.41016E+00  1.36531E+00 -4.25464E+00 -6.76356E+00 -5.58015E+00
   5.54184E+00  1.72741E+01  5.47494E+00  1.55293E+01  1.65130E+01  6.47940E+00  1.32809E+01  8.48981E+00  9.39566E+00  9.88818E+00
   2.38324E+01 -4.27363E+00 -6.26431E+00 -1.89311E+00  3.40576E+00  9.60693E+00  1.03572E+01  1.50166E+01  2.55567E+00 -1.58341E+01
  -1.68357E+00 -8.59590E+00 -3.16793E+00 -4.49087E+00 -1.17404E+01 -8.18175E+00  2.25412E+00 -2.18166E+01 -6.85652E-01 -5.74597E+00
   2.10486E+00 -1.83351E+01 -2.21994E+00 -3.03428E+00  2.85555E+00 -8.59892E+00  1.11527E+01 -7.16583E-01  1.69447E+01  4.38408E+00
   1.60926E+01 -2.56401E+00  1.42924E+01  3.21495E+01  2.95711E+01  2.38196E+01  1.24978E+01  1.55487E+01  4.33724E+01  3.90094E+01
   7.05239E+01  1.85107E+01  3.51705E+01  3.50686E+01  1.63088E+01  1.96484E+01  5.11507E+00  1.99271E+00  1.02473E+01 -1.81591E+00
   8.45794E+00 -2.47936E+00  2.22554E+00 -6.53814E+00 -2.37836E+00 -5.76435E+00  3.75478E+00 -1.34920E+00 -6.51047E+00  1.36668E+01
   3.88445E+00 -9.66245E+00 -7.78545E+00 -4.13212E+00 -7.03234E-01 -6.92186E+00  6.15048E+00 -1.26534E+01 -9.47696E+00 -1.37956E+01
  -8.79794E+00 -8.64604E+00 -1.02079E+01  1.98249E+00 -1.15933E+01 -8.11917E+00  7.45932E+00 -2.94258E+00  5.07121E+00  2.11696E+01
  -2.99659E+00  3.01825E+00  6.11696E+00  1.49830E+01  6.02070E+00  2.56258E+01  8.06625E+00  9.95491E-01  2.22756E+01  2.60817E+01
   2.01736E+01  1.15832E+01  1.50236E+01  1.59713E+01  2.85422E+00  6.77609E+00  1.75813E+01  1.54586E+01  2.85440E+01 -3.16852E+00
   1.45944E+01  9.39141E-01  8.34820E+00  2.02129E+01  1.76707E+01  1.70122E+01  1.25169E+01  1.11326E+00  4.44373E+00  2.19511E+00
   9.80919E+00  3.40987E+01 -5.51165E+00  2.81983E+00  2.36567E+01  4.26699E+00  1.76620E+01  1.72966E+01 -4.58740E-01  3.30264E+01
   2.24641E+01  2.00667E+01  1.55165E+01  2.42656E+00 -4.32922E+00 -4.67763E+00 -4.73638E+00 -1.88345E+00  1.53555E+01  1.30497E+01
   1.69238E+01  1.00128E+01  2.13177E+01  2.41037E+00  2.71822E+01 -6.30060E-01  2.65859E+01  1.22838E+01  7.07905E+00 -5.72555E+00
   6.47375E+00 -1.60015E+01  1.69637E+01  4.13269E+00  2.50495E+01  8.23312E-01  1.41860E+01  7.34930E+00  3.05251E+01  2.31222E+01
   3.85510E+01  1.03090E+01  1.20500E+01  1.61831E+01  1.51977E+01  1.11981E+01  2.65587E+01  1.94390E+01  1.30637E+01  7.93166E-01
  -3.17802E+00 -4.08560E+00  2.52182E-01  1.06321E+01  4.83079E+00 -7.63363E+00 -3.12491E+00  9.42930E+00  1.52539E+01  1.59907E+01
  -7.59027E+00 -2.57041E+00 -3.54376E+00  1.33199E+00  1.64494E+01 -1.18160E+01  2.75525E+00  3.59646E+00  3.55574E-03  9.01706E+00
  -5.81179E-01  1.00411E+01  9.82815E+00  9.22644E+00  1.45185E+01  3.96151E+00  1.13952E+01  1.13314E+01  1.60161E+01  2.44123E+01
   1.28912E+01 -1.18001E+00  1.99758E+01 -9.70793E+00  1.31094E+01  8.38934E+00  1.47406E+01  2.54910E+00  6.73060E+00 -1.12946E+00
   2.76673E+00  1.86366E+01  9.05097E+00  1.08495E+01 -6.13248E+00  2.59495E+01  3.10150E+00 -4.53380E+00 -7.68770E+00  4.94939E+00
   8.11577E+00 -2.98090E+00 -2.55963E+00 -1.79066E+01  1.00059E+01 -1.42964E+01 -1.09904E+01 -1.26910E+01 -3.90297E+00 -1.49029E+01
  -2.53577E+00  1.88994E+00  1.19889E+01  6.80781E+00  1.25261E+01 -2.13801E-01  7.73739E+00 -3.11118E+00 -1.29715E+00  1.99071E+00
   4.33836E+00  2.79351E+01 -3.56094E+00  3.54735E+00 -1.48925E+00  2.21983E+01  4.79497E+00  1.87541E+01  1.00134E+01 -1.65547E+00
   1.28873E+01 -1.92930E+00 -4.56805E-01  1.94182E+01  1.71207E+01 -4.06068E+00 -1.18583E+01  9.65491E+00  2.07700E+01  2.75982E+00
   5.97152E+00 -8.60574E+00  1.66078E+01  1.14068E+01 -5.67607E+00  1.79311E+01  6.92632E+00 -2.97828E+00  3.86286E+00 -1.66596E+01
   9.05811E-01  4.49664E+00  1.18557E+01  4.67297E+00  2.91409E+01 -1.52489E+00 -1.96942E+00  8.34601E+00  2.16896E+01 -6.37899E+00
   3.15114E+00 -3.15866E+00 -5.07739E+00 -4.18055E+00 -1.68612E-02  2.04394E+01  6.98212E-02  1.00122E+01
 NY points of the fit to the data follow
   1.96065E+01  1.86182E+01  1.83174E+01  1.91686E+01  2.11957E+01  2.38521E+01  2.67926E+01  2.97185E+01  3.23443E+01  3.44303E+01
   3.57025E+01  3.59425E+01  3.50484E+01  3.30889E+01  3.02881E+01  2.69353E+01  2.33296E+01  1.98153E+01  1.66966E+01  1.42347E+01
   1.26093E+01  1.20959E+01  1.26942E+01  1.38336E+01  1.51482E+01  1.65285E+01  1.79504E+01  1.93465E+01  2.06124E+01  2.16953E+01
   2.25521E+01  2.31109E+01  2.31894E+01  2.26723E+01  2.16384E+01  2.02730E+01  1.86769E+01  1.70106E+01  1.55621E+01  1.47548E+01
   1.50074E+01  1.61230E+01  1.77203E+01  1.95014E+01  2.12779E+01  2.29256E+01  2.43435E+01  2.53915E+01  2.58486E+01  2.54688E+01
   2.40834E+01  2.19016E+01  1.94185E+01  1.70199E+01  1.49535E+01  1.34251E+01  1.25964E+01  1.25707E+01  1.32920E+01  1.43503E+01
   1.52535E+01  1.57457E+01  1.58184E+01  1.55192E+01  1.50138E+01  1.44895E+01  1.40527E+01  1.37986E+01  1.37844E+01  1.40577E+01
   1.46171E+01  1.53119E+01  1.59567E+01  1.63755E+01  1.64839E+01  1.62933E+01  1.58645E+01  1.53228E+01  1.48925E+01  1.46055E+01
   1.43070E+01  1.38969E+01  1.34275E+01  1.29378E+01  1.24129E+01  1.18439E+01  1.12005E+01  1.04817E+01  9.76254E+00  9.18830E+00
   8.84955E+00  8.80846E+00  9.10855E+00  9.89148E+00  1.18388E+01  1.59570E+01  2.16411E+01  2.77406E+01  3.35415E+01  3.87948E+01
   4.33839E+01  4.70276E+01  4.92631E+01  4.96085E+01  4.78373E+01  4.40937E+01  3.87728E+01  3.23777E+01  2.54487E+01  1.86227E+01
   1.25610E+01  7.96799E+00  5.51230E+00  5.05523E+00  5.22160E+00  5.47775E+00  5.81257E+00  6.30998E+00  7.28874E+00  9.60419E+00
   1.33618E+01  1.78782E+01  2.26217E+01  2.72943E+01  3.17031E+01  3.56145E+01  3.86362E+01  4.02297E+01  3.99944E+01  3.78571E+01
   3.40459E+01  2.89968E+01  2.32237E+01  1.72883E+01  1.17775E+01  7.23985E+00  4.24819E+00  3.10762E+00  3.04110E+00  3.28800E+00
   3.69030E+00  4.19011E+00  4.72818E+00  5.23930E+00  5.61166E+00  5.73135E+00  5.59589E+00  5.26216E+00  4.82652E+00  4.40813E+00
   4.07516E+00  3.84923E+00  3.70131E+00  3.56245E+00  3.42380E+00  3.30292E+00  3.21599E+00  3.17107E+00  3.14579E+00  3.12382E+00
   3.09758E+00  3.06898E+00  3.04036E+00  3.01375E+00  2.98944E+00  2.97010E+00  2.95912E+00  2.93633E+00  2.86787E+00  2.74700E+00
   2.59544E+00  2.43042E+00  2.27386E+00  2.12103E+00  1.97806E+00  1.86394E+00  1.78401E+00  1.73089E+00  1.68850E+00  1.63971E+00
   1.61331E+00  1.67436E+00  1.87759E+00  2.24673E+00  2.76539E+00  3.37228E+00  4.01264E+00  4.67466E+00  5.33032E+00  5.88090E+00
   6.21127E+00  6.31819E+00  6.25339E+00  6.05358E+00  5.74727E+00  5.37330E+00  5.01537E+00  4.75605E+00  4.67905E+00  4.82358E+00
   5.16807E+00  5.63972E+00  6.12858E+00  6.52960E+00  6.77598E+00  6.81972E+00  6.65249E+00  6.30172E+00  5.84457E+00  5.41027E+00
   5.05179E+00  4.78275E+00  4.61833E+00  4.57610E+00  4.65564E+00  4.82943E+00  5.07389E+00  5.36454E+00  5.67273E+00  5.96916E+00
   6.23158E+00  6.45010E+00  6.59192E+00  6.59057E+00  6.43949E+00  6.19982E+00  5.93182E+00  5.67962E+00  5.48181E+00  5.40030E+00
   5.47241E+00  5.64717E+00  5.87213E+00  6.12105E+00  6.35621E+00  6.51894E+00  6.55708E+00  6.46760E+00  6.27768E+00  6.00584E+00
   5.67146E+00  5.31408E+00  5.03584E+00  4.94984E+00  5.09462E+00  5.46241E+00  6.02604E+00  6.79739E+00  7.82809E+00  8.99858E+00
   1.02124E+01  1.15884E+01  1.37665E+01  1.70761E+01  2.09985E+01  2.50405E+01  2.88661E+01  3.22286E+01  3.49076E+01  3.66338E+01
   3.71071E+01  3.61047E+01  3.36265E+01  2.99259E+01  2.53974E+01  2.05025E+01  1.56860E+01  1.12315E+01  7.47381E+00  4.85019E+00
   3.69144E+00  3.51124E+00  3.54085E+00  3.60606E+00  3.67789E+00  3.74570E+00  3.80331E+00  3.84685E+00  3.87663E+00  3.89354E+00
   3.90173E+00  3.91157E+00  3.93009E+00  3.96011E+00  4.00519E+00  4.06606E+00  4.13893E+00  4.21747E+00  4.29704E+00  4.37620E+00
   4.45392E+00  4.52740E+00  4.59670E+00  4.66364E+00  4.72872E+00  4.79281E+00  4.85725E+00  4.92127E+00  4.98469E+00  5.04853E+00
   5.11352E+00  5.18074E+00  5.25226E+00  5.32785E+00  5.40619E+00  5.48684E+00  5.56981E+00  5.65541E+00  5.74427E+00  5.83795E+00
   5.94012E+00  6.05486E+00  6.18665E+00  6.34128E+00  6.52655E+00  6.75387E+00  7.04156E+00  7.42361E+00  7.97664E+00  8.79592E+00
   9.66742E+00  1.03138E+01  1.06309E+01  1.05929E+01  1.01765E+01  9.32151E+00  7.97913E+00  6.39141E+00  4.90006E+00  3.67104E+00
   2.81536E+00  2.43185E+00  2.61698E+00  3.43715E+00  4.87807E+00  6.82108E+00  9.05611E+00  1.12604E+01  1.29860E+01  1.40688E+01
   1.45675E+01  1.45587E+01  1.41433E+01  1.34571E+01  1.27140E+01  1.22173E+01  1.20159E+01  1.19525E+01  1.19517E+01  1.19792E+01
   1.20152E+01  1.20462E+01  1.20625E+01  1.20569E+01  1.20238E+01  1.19595E+01  1.18613E+01  1.17280E+01  1.15597E+01  1.13575E+01
   1.11235E+01  1.08608E+01  1.05731E+01  1.02646E+01  9.93999E+00  9.60426E+00  9.26229E+00  8.91883E+00  8.57835E+00  8.24500E+00
   7.92247E+00  7.61398E+00  7.32219E+00  7.04923E+00  6.79673E+00  6.56590E+00  6.35758E+00  6.17228E+00  6.01023E+00  5.87145E+00
   5.75581E+00  5.66318E+00  5.59335E+00  5.54613E+00  5.52127E+00  5.51850E+00  5.53757E+00  5.57818E+00  5.63992E+00  5.72216E+00
   5.82401E+00  5.94423E+00  6.08124E+00  6.23300E+00  6.39691E+00  6.56985E+00  6.74814E+00  6.92760E+00  7.10372E+00  7.27165E+00
   7.42642E+00  7.56305E+00  7.67681E+00  7.76344E+00  7.81935E+00  7.84175E+00  7.82880E+00  7.77969E+00  7.69474E+00  7.57535E+00
   7.42397E+00  7.24391E+00  7.03917E+00  6.81425E+00  6.57401E+00  6.32342E+00  6.06734E+00  5.81031E+00  5.55643E+00  5.30926E+00
   5.07179E+00  4.84636E+00  4.63468E+00  4.43783E+00  4.25635E+00  4.09030E+00  3.93942E+00  3.80311E+00  3.68055E+00  3.57074E+00
   3.47260E+00  3.38504E+00  3.30701E+00  3.23747E+00  3.17542E+00  3.11995E+00  3.07024E+00  3.02556E+00  2.98530E+00  2.94888E+00
   2.91578E+00  2.88558E+00  2.85788E+00  2.83240E+00  2.80889E+00  2.78708E+00  2.76676E+00  2.74774E+00  2.72989E+00  2.71310E+00
   2.69726E+00  2.68225E+00  2.66797E+00  2.65435E+00  2.64134E+00  2.62890E+00  2.61698E+00  2.60551E+00  2.59442E+00  2.58372E+00
   2.57337E+00  2.56336E+00  2.55365E+00  2.54420E+00  2.53498E+00  2.52600E+00  2.51725E+00  2.50872E+00  2.50037E+00  2.49219E+00
   2.48415E+00  2.47629E+00  2.46860E+00  2.46106E+00  2.45363E+00  2.44632E+00  2.43914E+00  2.43209E+00  2.42517E+00  2.41837E+00
   2.41166E+00  2.40505E+00  2.39855E+00  2.39219E+00  2.38594E+00  2.37980E+00  2.37375E+00  2.36782E+00  2.36202E+00  2.35637E+00
   2.35085E+00  2.34546E+00  2.34020E+00  2.33512E+00  2.33023E+00  2.32555E+00  2.32107E+00  2.31681E+00
 NY background values follow
     6.062E+00    6.055E+00    6.048E+00    6.041E+00    6.034E+00    6.026E+00    6.019E+00    6.012E+00    6.005E+00    5.998E+00
     5.991E+00    5.984E+00    5.976E+00    5.969E+00    5.962E+00    5.955E+00    5.948E+00    5.941E+00    5.934E+00    5.927E+00
     5.919E+00    5.912E+00    5.905E+00    5.898E+00    5.891E+00    5.884E+00    5.877E+00    5.869E+00    5.862E+00    5.855E+00
     5.848E+00    5.841E+00    5.834E+00    5.827E+00    5.819E+00    5.812E+00    5.805E+00    5.798E+00    5.791E+00    5.784E+00
     5.777E+00    5.769E+00    5.762E+00    5.755E+00    5.748E+00    5.741E+00    5.734E+00    5.726E+00    5.719E+00    5.712E+00
     5.705E+00    5.698E+00    5.691E+00    5.684E+00    5.676E+00    5.669E+00    5.662E+00    5.655E+00    5.648E+00    5.641E+00
     5.633E+00    5.626E+00    5.619E+00    5.612E+00    5.605E+00    5.598E+00    5.590E+00    5.583E+00    5.576E+00    5.569E+00
     5.562E+00    5.555E+00    5.548E+00    5.540E+00    5.533E+00    5.526E+00    5.519E+00    5.512E+00    5.505E+00    5.497E+00
     5.490E+00    5.483E+00    5.476E+00    5.469E+00    5.462E+00    5.454E+00    5.447E+00    5.440E+00    5.433E+00    5.426E+00
     5.419E+00    5.411E+00    5.404E+00    5.397E+00    5.390E+00    5.383E+00    5.375E+00    5.368E+00    5.361E+00    5.354E+00
     5.347E+00    5.340E+00    5.332E+00    5.325E+00    5.318E+00    5.311E+00    5.304E+00    5.297E+00    5.289E+00    5.282E+00
     5.275E+00    5.268E+00    5.261E+00    5.253E+00    5.246E+00    5.239E+00    5.232E+00    5.225E+00    5.218E+00    5.210E+00
     5.203E+00    5.196E+00    5.189E+00    5.182E+00    5.174E+00    5.167E+00    5.160E+00    5.153E+00    5.146E+00    5.139E+00
     5.131E+00    5.124E+00    5.117E+00    5.110E+00    5.103E+00    5.095E+00    5.088E+00    5.081E+00    5.074E+00    5.067E+00
     5.060E+00    5.052E+00    5.045E+00    5.038E+00    5.031E+00    5.024E+00    5.016E+00    5.009E+00    5.002E+00    4.995E+00
     4.988E+00    4.980E+00    4.973E+00    4.966E+00    4.959E+00    4.952E+00    4.944E+00    4.937E+00    4.930E+00    4.923E+00
     4.916E+00    4.909E+00    4.901E+00    4.894E+00    4.887E+00    4.880E+00    4.873E+00    4.865E+00    4.858E+00    4.851E+00
     4.844E+00    4.837E+00    4.829E+00    4.822E+00    4.815E+00    4.808E+00    4.801E+00    4.793E+00    4.786E+00    4.779E+00
     4.772E+00    4.765E+00    4.757E+00    4.750E+00    4.743E+00    4.736E+00    4.729E+00    4.721E+00    4.714E+00    4.707E+00
     4.700E+00    4.693E+00    4.685E+00    4.678E+00    4.671E+00    4.664E+00    4.657E+00    4.649E+00    4.642E+00    4.635E+00
     4.628E+00    4.621E+00    4.613E+00    4.606E+00    4.599E+00    4.592E+00    4.585E+00    4.577E+00    4.570E+00    4.563E+00
     4.556E+00    4.549E+00    4.541E+00    4.534E+00    4.527E+00    4.520E+00    4.513E+00    4.505E+00    4.498E+00    4.491E+00
     4.484E+00    4.477E+00    4.469E+00    4.462E+00    4.455E+00    4.448E+00    4.441E+00    4.433E+00    4.426E+00    4.419E+00
     4.412E+00    4.405E+00    4.397E+00    4.390E+00    4.383E+00    4.376E+00    4.369E+00    4.361E+00    4.354E+00    4.347E+00
     4.340E+00    4.333E+00    4.325E+00    4.318E+00    4.311E+00    4.304E+00    4.297E+00    4.289E+00    4.282E+00    4.275E+00
     4.268E+00    4.261E+00    4.253E+00    4.246E+00    4.239E+00    4.232E+00    4.225E+00    4.217E+00    4.210E+00    4.203E+00
     4.196E+00    4.189E+00    4.181E+00    4.174E+00    4.167E+00    4.160E+00    4.153E+00    4.145E+00    4.138E+00    4.131E+00
     4.124E+00    4.117E+00    4.109E+00    4.102E+00    4.095E+00    4.088E+00    4.081E+00    4.073E+00    4.066E+00    4.059E+00
     4.052E+00    4.045E+00    4.037E+00    4.030E+00    4.023E+00    4.016E+00    4.009E+00    4.001E+00    3.994E+00    3.987E+00
     3.980E+00    3.973E+00    3.965E+00    3.958E+00    3.951E+00    3.944E+00    3.937E+00    3.929E+00    3.922E+00    3.915E+00
     3.908E+00    3.901E+00    3.893E+00    3.886E+00    3.879E+00    3.872E+00    3.865E+00    3.857E+00    3.850E+00    3.843E+00
     3.836E+00    3.828E+00    3.821E+00    3.814E+00    3.807E+00    3.800E+00    3.792E+00    3.785E+00    3.778E+00    3.771E+00
     3.764E+00    3.756E+00    3.749E+00    3.742E+00    3.735E+00    3.728E+00    3.720E+00    3.713E+00    3.706E+00    3.699E+00
     3.692E+00    3.684E+00    3.677E+00    3.670E+00    3.663E+00    3.656E+00    3.648E+00    3.641E+00    3.634E+00    3.627E+00
     3.619E+00    3.612E+00    3.605E+00    3.598E+00    3.591E+00    3.583E+00    3.576E+00    3.569E+00    3.562E+00    3.555E+00
     3.547E+00    3.540E+00    3.533E+00    3.526E+00    3.519E+00    3.511E+00    3.504E+00    3.497E+00    3.490E+00    3.482E+00
     3.475E+00    3.468E+00    3.461E+00    3.454E+00    3.446E+00    3.439E+00    3.432E+00    3.425E+00    3.418E+00    3.410E+00
     3.403E+00    3.396E+00    3.389E+00    3.381E+00    3.374E+00    3.367E+00    3.360E+00    3.353E+00    3.345E+00    3.338E+00
     3.331E+00    3.324E+00    3.316E+00    3.309E+00    3.302E+00    3.295E+00    3.288E+00    3.280E+00    3.273E+00    3.266E+00
     3.259E+00    3.251E+00    3.244E+00    3.237E+00    3.230E+00    3.223E+00    3.215E+00    3.208E+00    3.201E+00    3.194E+00
     3.186E+00    3.179E+00    3.172E+00    3.165E+00    3.158E+00    3.150E+00    3.143E+00    3.136E+00    3.129E+00    3.121E+00
     3.114E+00    3.107E+00    3.100E+00    3.093E+00    3.085E+00    3.078E+00    3.071E+00    3.064E+00    3.056E+00    3.049E+00
     3.042E+00    3.035E+00    3.028E+00    3.020E+00    3.013E+00    3.006E+00    2.999E+00    2.991E+00    2.984E+00    2.977E+00
     2.970E+00    2.962E+00    2.955E+00    2.948E+00    2.941E+00    2.934E+00    2.926E+00    2.919E+00    2.912E+00    2.905E+00
     2.897E+00    2.890E+00    2.883E+00    2.876E+00    2.868E+00    2.861E+00    2.854E+00    2.847E+00    2.839E+00    2.832E+00
     2.825E+00    2.818E+00    2.811E+00    2.803E+00    2.796E+00    2.789E+00    2.782E+00    2.774E+00    2.767E+00    2.760E+00
     2.753E+00    2.745E+00    2.738E+00    2.731E+00    2.724E+00    2.716E+00    2.709E+00    2.702E+00    2.695E+00    2.687E+00
     2.680E+00    2.673E+00    2.666E+00    2.658E+00    2.651E+00    2.644E+00    2.637E+00    2.629E+00    2.622E+00    2.615E+00
     2.608E+00    2.601E+00    2.593E+00    2.586E+00    2.579E+00    2.572E+00    2.564E+00    2.557E+00    2.550E+00    2.543E+00
     2.535E+00    2.528E+00    2.521E+00    2.514E+00    2.506E+00    2.499E+00    2.492E+00    2.485E+00
 Ala      Conc. = 7.93E+02
