 LCModel (Version 6.3-1L) Copyright: S.W. Provencher.          Ref.: Magn. Reson. Med. 30:672-679 (1993).                
 Slice#3 Row#9 Col#9  PD_24_press_2_raw_act
 36 lines in following concentration table = NCONC+1
    Conc.  %SD /Cr+PCr  Metabolite                                         
   62.086 179% 2.5E-02 Ala                                                 
    0.000 999%   0.000 Asp                                                 
  499.239  47%   0.198 Cr                                                  
 2.02E+03  12%   0.802 PCr                                                 
    0.000 999%   0.000 GABA                                                
    0.000 999%   0.000 Glc                                                 
  977.522  24%   0.388 Gln                                                 
 2.06E+03  13%   0.816 Glu                                                 
  748.366   3%   0.297 GPC                                                 
    0.000 999%   0.000 PCh                                                 
  643.068  12%   0.255 GSH                                                 
 1.32E+03  21%   0.524 Ins                                                 
  221.958  55% 8.8E-02 Lac                                                 
 3.15E+03   4%   1.252 NAA                                                 
  140.643  84% 5.6E-02 NAAG                                                
  111.480  27% 4.4E-02 Scyllo                                              
    0.000 999%   0.000 Tau                                                 
    0.000 999%   0.000 -CrCH2                                              
  748.366   3%   0.297 GPC+PCh                                             
 3.29E+03   3%   1.308 NAA+NAAG                                            
 2.52E+03   3%   1.000 Cr+PCr                                              
 3.03E+03  12%   1.205 Glu+Gln                                             
  894.831  71%   0.355 Lip13a                                              
  105.660 233% 4.2E-02 Lip13b                                              
    0.000 999%   0.000 Lip09                                               
 1.67E+03  17%   0.664 MM09                                                
  217.439  79% 8.6E-02 Lip20                                               
 5.32E+03  10%   2.113+MM20                                                
  567.077  37%   0.225 MM12                                                
 2.40E+03  19%   0.951 MM14                                                
  662.819  47%   0.263 MM17                                                
 1.00E+03  50%   0.397 Lip13a+Lip13b                                       
 3.96E+03  15%   1.574 MM14+Lip13a+Lip13b+MM12                             
 1.67E+03  17%   0.664 MM09+Lip09                                          
 5.54E+03  10%   2.199 MM20+Lip20                                          
   6 lines in following misc. output table
  FWHM = 0.046 ppm    S/N =  16                                            
  Data shift = 0.023 ppm                                                   
  Ph: -21 deg      -4.4 deg/ppm                                            
  alphaB,S = 4.8E-01,   1.1E+02                                            
   14 spline knots.   Ns = 6(1)                                            
  ( 7) 4 infls.   ( 5) 1 extrs.                                            
  498 points on ppm-axis = NY
      4.000000     3.992357     3.984714     3.977070     3.969427     3.961784     3.954141     3.946497     3.938854     3.931211
      3.923568     3.915925     3.908281     3.900638     3.892995     3.885352     3.877708     3.870065     3.862422     3.854779
      3.847136     3.839492     3.831849     3.824206     3.816563     3.808919     3.801276     3.793633     3.785990     3.778347
      3.770703     3.763060     3.755417     3.747774     3.740130     3.732487     3.724844     3.717201     3.709558     3.701914
      3.694271     3.686628     3.678985     3.671341     3.663698     3.656055     3.648412     3.640769     3.633125     3.625482
      3.617839     3.610196     3.602552     3.594909     3.587266     3.579623     3.571980     3.564336     3.556693     3.549050
      3.541407     3.533763     3.526120     3.518477     3.510834     3.503191     3.495547     3.487904     3.480261     3.472618
      3.464974     3.457331     3.449688     3.442045     3.434402     3.426758     3.419115     3.411472     3.403829     3.396185
      3.388542     3.380899     3.373256     3.365613     3.357969     3.350326     3.342683     3.335040     3.327396     3.319753
      3.312110     3.304467     3.296824     3.289180     3.281537     3.273894     3.266251     3.258607     3.250964     3.243321
      3.235678     3.228034     3.220391     3.212748     3.205105     3.197462     3.189818     3.182175     3.174532     3.166889
      3.159245     3.151602     3.143959     3.136316     3.128673     3.121029     3.113386     3.105743     3.098100     3.090456
      3.082813     3.075170     3.067527     3.059884     3.052240     3.044597     3.036954     3.029311     3.021667     3.014024
      3.006381     2.998738     2.991095     2.983451     2.975808     2.968165     2.960522     2.952878     2.945235     2.937592
      2.929949     2.922306     2.914662     2.907019     2.899376     2.891733     2.884089     2.876446     2.868803     2.861160
      2.853517     2.845873     2.838230     2.830587     2.822944     2.815300     2.807657     2.800014     2.792371     2.784728
      2.777084     2.769441     2.761798     2.754155     2.746511     2.738868     2.731225     2.723582     2.715939     2.708295
      2.700652     2.693009     2.685366     2.677722     2.670079     2.662436     2.654793     2.647150     2.639506     2.631863
      2.624220     2.616577     2.608933     2.601290     2.593647     2.586004     2.578361     2.570717     2.563074     2.555431
      2.547788     2.540144     2.532501     2.524858     2.517215     2.509572     2.501928     2.494285     2.486642     2.478999
      2.471355     2.463712     2.456069     2.448426     2.440783     2.433139     2.425496     2.417853     2.410210     2.402566
      2.394923     2.387280     2.379637     2.371994     2.364350     2.356707     2.349064     2.341421     2.333777     2.326134
      2.318491     2.310848     2.303205     2.295561     2.287918     2.280275     2.272632     2.264988     2.257345     2.249702
      2.242059     2.234416     2.226772     2.219129     2.211486     2.203843     2.196199     2.188556     2.180913     2.173270
      2.165627     2.157983     2.150340     2.142697     2.135054     2.127410     2.119767     2.112124     2.104481     2.096838
      2.089194     2.081551     2.073908     2.066265     2.058621     2.050978     2.043335     2.035692     2.028049     2.020405
      2.012762     2.005119     1.997476     1.989833     1.982190     1.974546     1.966903     1.959260     1.951617     1.943974
      1.936331     1.928688     1.921045     1.913402     1.905759     1.898115     1.890472     1.882829     1.875186     1.867543
      1.859900     1.852257     1.844614     1.836971     1.829327     1.821684     1.814041     1.806398     1.798755     1.791112
      1.783469     1.775826     1.768183     1.760540     1.752896     1.745253     1.737610     1.729967     1.722324     1.714681
      1.707038     1.699395     1.691752     1.684108     1.676465     1.668822     1.661179     1.653536     1.645893     1.638250
      1.630607     1.622964     1.615321     1.607677     1.600034     1.592391     1.584748     1.577105     1.569462     1.561819
      1.554176     1.546533     1.538890     1.531246     1.523603     1.515960     1.508317     1.500674     1.493031     1.485388
      1.477745     1.470102     1.462458     1.454815     1.447172     1.439529     1.431886     1.424243     1.416600     1.408957
      1.401314     1.393671     1.386027     1.378384     1.370741     1.363098     1.355455     1.347812     1.340169     1.332526
      1.324883     1.317240     1.309596     1.301953     1.294310     1.286667     1.279024     1.271381     1.263738     1.256095
      1.248452     1.240808     1.233165     1.225522     1.217879     1.210236     1.202593     1.194950     1.187307     1.179664
      1.172021     1.164377     1.156734     1.149091     1.141448     1.133805     1.126162     1.118519     1.110876     1.103233
      1.095590     1.087946     1.080303     1.072660     1.065017     1.057374     1.049731     1.042088     1.034445     1.026802
      1.019158     1.011515     1.003872     0.996229     0.988586     0.980943     0.973300     0.965657     0.958014     0.950371
      0.942727     0.935084     0.927441     0.919798     0.912155     0.904512     0.896869     0.889226     0.881583     0.873940
      0.866296     0.858653     0.851010     0.843367     0.835724     0.828081     0.820438     0.812795     0.805152     0.797508
      0.789865     0.782222     0.774579     0.766936     0.759293     0.751650     0.744007     0.736364     0.728721     0.721077
      0.713434     0.705791     0.698148     0.690505     0.682862     0.675219     0.667576     0.659933     0.652290     0.644646
      0.637003     0.629360     0.621717     0.614074     0.606431     0.598788     0.591145     0.583502     0.575858     0.568215
      0.560572     0.552929     0.545286     0.537643     0.530000     0.522357     0.514714     0.507071     0.499427     0.491784
      0.484141     0.476498     0.468855     0.461212     0.453569     0.445925     0.438282     0.430639     0.422996     0.415353
      0.407710     0.400067     0.392424     0.384780     0.377137     0.369494     0.361851     0.354208     0.346565     0.338922
      0.331278     0.323635     0.315992     0.308349     0.300706     0.293063     0.285420     0.277777     0.270133     0.262490
      0.254847     0.247204     0.239561     0.231918     0.224275     0.216631     0.208988     0.201345
 NY phased data points follow
  -3.49841E-01  3.53609E-01 -4.48809E-01  1.01568E+01  6.08744E+00  1.54717E+01  2.57320E+01  4.02084E+01  4.77949E+01  5.67842E+01
   5.82575E+01  5.53882E+01  4.81763E+01  4.20221E+01  2.08852E+01  1.91151E+01  7.60457E+00  1.24117E+01  7.33803E+00  6.66876E+00
   1.29254E+00  4.49860E+00  1.99805E+00  6.33556E+00  1.47350E+00  2.00386E+00  2.67232E+00  7.47161E+00  7.76972E+00  1.36283E+01
   1.43132E+01  1.59879E+01  1.64351E+01  9.85940E+00  4.99195E+00  7.65012E+00  1.37736E+00 -9.71341E-01  1.48884E+00  6.47533E+00
  -1.55954E+00  7.87116E-01  3.62579E-01  5.37600E+00  7.15181E+00  9.40525E+00  1.43334E+01  1.58756E+01  1.39241E+01  1.31144E+01
   3.55182E+00  3.17053E+00 -8.69622E-01  2.57554E+00  4.85835E-01  3.19373E+00  2.71095E+00  2.32120E+00  3.41950E+00 -1.57665E+00
  -5.61878E+00 -3.85564E+00 -4.88954E+00 -8.54515E+00 -1.13589E+01 -8.10566E+00 -1.28497E+01 -1.10589E+01 -1.23175E+01 -1.05359E+01
  -1.48993E+01 -8.76767E+00 -9.02083E+00 -5.91573E+00 -1.10903E+01 -9.22519E+00 -8.58595E+00 -6.32324E+00 -1.08992E+01 -8.05860E+00
  -8.30969E+00 -6.14028E+00 -9.50767E+00 -4.45602E+00 -3.60221E+00 -4.78081E+00 -7.49280E+00 -4.37692E+00 -6.46764E+00 -6.06354E+00
  -4.42055E+00 -3.57605E-01 -4.65390E+00 -3.87061E+00 -5.36481E+00  2.32713E+00 -1.26206E+00  4.53616E+00  1.16586E+01  2.42961E+01
   3.42142E+01  4.52903E+01  5.81661E+01  5.99046E+01  5.70521E+01  4.04360E+01  3.14874E+01  2.39007E+01  1.53068E+01  1.02826E+01
   3.49697E+00  2.24704E+00 -3.78024E+00 -2.59860E+00 -3.80377E+00 -3.02255E+00 -7.38708E+00 -6.30903E+00 -1.02901E+01 -2.46221E+00
  -7.62874E+00  1.03273E-01  5.24285E+00  1.77914E+01  4.09021E+01  5.81881E+01  7.47712E+01  8.15391E+01  7.48379E+01  5.89143E+01
   4.99067E+01  3.74062E+01  2.09252E+01  1.58231E+01  9.09191E+00  3.50023E+00 -5.49360E+00 -3.81548E+00 -6.96276E+00 -3.99884E-01
  -5.01989E+00 -3.26570E+00 -1.05961E+01 -6.70256E+00 -4.81857E+00 -1.11452E+01 -8.09862E+00 -4.30976E+00 -1.02855E+01 -1.07470E+01
  -1.33045E+01 -7.66122E+00 -1.08402E+01 -9.14459E+00 -9.66910E+00 -1.39684E+01 -1.06480E+01 -1.11454E+01 -9.89804E+00 -1.08995E+01
  -1.67411E+01 -1.32410E+01 -1.72114E+01 -1.36063E+01 -1.54181E+01 -1.27617E+01 -1.36538E+01 -1.31427E+01 -1.34323E+01 -1.78154E+01
  -2.47008E+01 -1.98193E+01 -2.57289E+01 -2.58304E+01 -2.96615E+01 -2.73552E+01 -2.96708E+01 -3.13643E+01 -2.73321E+01 -2.29911E+01
  -2.73480E+01 -2.54651E+01 -2.92288E+01 -2.57917E+01 -2.13355E+01 -2.37661E+01 -2.50343E+01 -1.90628E+01 -1.84185E+01 -1.42712E+01
  -8.89025E+00 -4.68123E+00 -6.42810E+00 -4.58983E+00 -1.34677E+00 -6.12415E+00 -9.65663E+00 -4.44306E+00 -1.42340E+01 -1.18885E+01
  -1.38479E+01 -1.03488E+01 -9.00876E+00 -4.41642E+00 -2.86720E+00 -2.88518E+00 -1.07020E+01 -1.02354E+01 -1.15239E+01 -1.77501E+01
  -1.20567E+01 -1.23054E+01 -4.99966E+00  2.77626E+00  6.71186E+00  6.11164E+00  1.08235E+01  1.42498E+01  9.64022E+00 -1.65521E+00
  -4.62093E+00 -7.70081E+00 -5.32218E+00 -1.18003E+01 -5.18255E+00  3.98805E+00  5.35194E+00  6.82598E+00  5.50083E+00  9.52088E+00
   8.28427E+00  6.86530E+00  8.53915E+00  8.08960E+00  7.48839E+00  8.22730E+00  1.01084E+01  6.31408E+00  3.57415E+00  7.76594E+00
   3.62848E+00  5.43311E+00  2.61883E+00  7.42031E+00  1.01203E+01  1.10029E+01  1.10041E+01  1.36775E+01  1.55617E+01  1.71047E+01
   1.38668E+01  1.72349E+01  1.69814E+01  2.51782E+01  2.99722E+01  3.60437E+01  4.76957E+01  5.93709E+01  8.68564E+01  1.12557E+02
   1.24362E+02  1.21003E+02  1.11690E+02  8.68532E+01  6.25905E+01  4.49128E+01  3.36280E+01  2.53455E+01  1.86277E+01  1.16693E+01
   1.18173E+01  1.10762E+01  2.35358E+00  5.46811E+00  2.58779E+00  6.23255E+00  2.32294E+00  8.48551E-01  4.84787E+00  4.88582E+00
   2.02581E+00  2.49209E-01  2.41993E+00 -2.22230E-01  5.87986E+00  3.99006E+00  1.41802E+00  2.79948E+00 -1.36517E+00 -2.78304E+00
   2.29581E+00  4.04843E+00  9.67292E-01  1.42253E+00 -6.00515E-01 -1.61264E-01  9.87389E-01  2.39548E+00 -1.86747E+00  1.82585E+00
  -3.05303E-01  2.07053E-01  2.09204E+00 -8.00674E-01  9.18699E-01  3.05200E+00  2.37153E+00  7.10622E-01  3.10259E+00  4.75355E+00
   6.36033E+00  5.75502E+00  5.46965E+00  3.69143E+00  6.33837E+00  4.99367E+00  4.76627E+00  1.24849E+00  4.42771E+00  5.44541E+00
   5.14531E+00  5.62312E+00  2.37707E+00  9.46590E+00  8.17199E+00  1.03950E+01  4.71610E+00  8.12841E+00  8.22382E+00  8.81988E+00
   6.28901E+00  1.12627E+01  1.19962E+01  1.18731E+01  1.43671E+01  1.18502E+01  1.61765E+01  1.36989E+01  9.50644E+00  1.54921E+01
   1.63832E+01  1.11759E+01  1.01542E+01  8.89590E+00  1.30597E+01  1.45994E+01  1.22082E+01  9.68192E+00  7.51410E+00  4.75266E+00
   7.87099E+00  4.82397E+00  9.14295E+00  1.03923E+01  6.44031E+00  1.06096E+01  1.06401E+01  9.07964E+00  9.04232E+00  1.09407E+01
   6.35882E+00  7.26277E+00  8.55588E+00  9.62939E+00  4.00589E+00  3.71422E+00  4.84345E+00  6.30149E+00  2.62704E+00  2.21053E+00
   5.64616E+00  9.24649E+00  1.74439E+00  4.48018E+00  4.21935E+00  4.87293E+00  3.70774E+00  2.33135E+00  4.00792E+00  1.79263E+00
   5.60475E+00  1.67492E+00  1.67610E+00 -7.15150E-01 -9.79210E-01  3.82626E+00  9.34152E-01  2.33122E+00  1.47396E+00  4.05462E+00
   4.61094E+00  4.37868E+00  5.54659E+00  1.91871E+00  3.66882E+00  8.34274E+00  3.23371E+00  8.11084E+00  4.33189E+00  4.67319E+00
   4.57877E+00  8.43432E+00  4.91064E+00  7.26415E+00  7.54115E+00  6.75219E+00  6.06910E+00  8.08941E+00  8.00987E+00  5.14222E+00
   7.97818E+00  7.50212E+00  6.59513E+00  6.07350E+00  3.29800E+00  2.55485E+00  5.90836E+00  4.34234E+00  2.32047E+00  1.39980E+00
  -4.21446E-01 -1.32139E+00  1.73680E+00  1.69360E+00  4.05067E+00  4.75726E+00  5.18693E+00  7.54185E-02 -4.38947E-01  4.62235E+00
  -1.62576E+00 -2.33174E+00 -2.28263E+00  5.12993E-01  4.43992E+00  5.75456E-01  6.27712E-01 -4.95105E-01 -3.85498E+00  3.60380E+00
  -1.31095E+00  8.05383E-01 -1.17104E-01 -2.57050E-01 -3.14696E+00 -1.17350E+00 -2.48417E+00 -2.97202E+00  5.78851E-01 -2.82753E+00
  -4.16584E+00  1.50318E-03 -1.59604E+00 -5.20229E-01  4.07863E+00 -2.48160E+00 -2.47007E+00 -4.45736E-04 -7.23007E-02 -8.42106E-01
   2.91405E+00 -2.94152E+00 -4.15319E+00  3.65646E-01 -5.23463E+00 -5.65215E+00 -5.64549E+00 -1.27708E+00 -1.28118E+00 -9.64674E-01
   9.00910E-02 -1.86934E+00  8.40618E-01  3.24747E-01 -2.36594E+00  5.93773E-01  6.41479E-01 -1.84724E-01 -2.89084E+00 -7.24879E-01
  -1.92848E+00  1.13670E-02 -5.60276E+00  1.48042E+00  3.80477E+00 -1.44649E+00  1.79451E+00  3.34536E-01 -1.65771E+00 -1.32416E+00
   3.98824E+00  7.70177E-01 -3.47638E+00 -1.98225E+00  1.34142E-01  3.22915E+00 -2.12886E+00 -9.26890E-01
 NY points of the fit to the data follow
   6.92607E-01  6.09614E-01  1.14239E+00  3.25052E+00  8.14615E+00  1.56951E+01  2.60738E+01  3.82530E+01  4.96171E+01  5.70181E+01
   5.83816E+01  5.37722E+01  4.52755E+01  3.58537E+01  2.76642E+01  2.09840E+01  1.47722E+01  9.55813E+00  6.59203E+00  4.89612E+00
   3.98677E+00  3.30698E+00  2.49685E+00  1.61437E+00  1.26036E+00  1.55171E+00  2.82082E+00  5.47393E+00  9.20679E+00  1.31209E+01
   1.60681E+01  1.72782E+01  1.64428E+01  1.39603E+01  1.06414E+01  7.27740E+00  3.94139E+00  9.65896E-01 -5.71867E-01 -9.77004E-01
  -6.54079E-01  3.24887E-01  1.80421E+00  3.72292E+00  5.83834E+00  7.91606E+00  9.42688E+00  9.73046E+00  8.65978E+00  6.48544E+00
   3.83482E+00  1.47831E+00 -3.19868E-01 -1.69612E+00 -2.70714E+00 -3.12802E+00 -2.87617E+00 -2.28446E+00 -1.67585E+00 -1.32901E+00
  -1.45663E+00 -2.11509E+00 -3.17299E+00 -4.30355E+00 -5.18322E+00 -5.67789E+00 -5.82869E+00 -5.69523E+00 -5.36164E+00 -4.94498E+00
  -4.54520E+00 -4.31735E+00 -4.32627E+00 -4.56803E+00 -4.98179E+00 -5.43088E+00 -5.82453E+00 -6.12192E+00 -6.38493E+00 -6.61453E+00
  -6.62681E+00 -6.29301E+00 -5.74922E+00 -5.03441E+00 -4.23788E+00 -3.68783E+00 -3.71769E+00 -4.39174E+00 -5.46946E+00 -6.55707E+00
  -7.26476E+00 -7.48718E+00 -7.42749E+00 -7.39626E+00 -7.36796E+00 -6.85952E+00 -5.11895E+00 -2.25808E-01  8.11614E+00  1.99462E+01
   3.47806E+01  4.95406E+01  5.97087E+01  6.19990E+01  5.61825E+01  4.48893E+01  3.21619E+01  2.12054E+01  1.27769E+01  5.31980E+00
  -1.65318E+00 -5.48584E+00 -6.76694E+00 -7.27282E+00 -7.50423E+00 -7.60503E+00 -7.62271E+00 -7.56509E+00 -7.37792E+00 -6.89654E+00
  -5.49935E+00 -8.13723E-01  8.43718E+00  2.16317E+01  3.89172E+01  5.78430E+01  7.31058E+01  7.98202E+01  7.62673E+01  6.45053E+01
   4.92585E+01  3.51300E+01  2.39619E+01  1.42560E+01  3.97407E+00 -3.88827E+00 -7.07356E+00 -8.16475E+00 -8.12890E+00 -7.49663E+00
  -6.81774E+00 -6.35975E+00 -6.15786E+00 -6.31797E+00 -6.77042E+00 -7.33514E+00 -7.95577E+00 -8.57968E+00 -9.19480E+00 -9.80414E+00
  -1.03004E+01 -1.07245E+01 -1.10749E+01 -1.13146E+01 -1.14362E+01 -1.15488E+01 -1.17799E+01 -1.21481E+01 -1.27225E+01 -1.34041E+01
  -1.39620E+01 -1.42165E+01 -1.40418E+01 -1.36030E+01 -1.32594E+01 -1.33299E+01 -1.38861E+01 -1.46939E+01 -1.53955E+01 -1.59221E+01
  -1.64690E+01 -1.71519E+01 -1.79503E+01 -1.86940E+01 -1.92192E+01 -1.95241E+01 -1.95121E+01 -1.91596E+01 -1.87151E+01 -1.84649E+01
  -1.84665E+01 -1.86144E+01 -1.87249E+01 -1.85516E+01 -1.81683E+01 -1.76778E+01 -1.66663E+01 -1.48679E+01 -1.24508E+01 -9.98989E+00
  -8.26506E+00 -7.54941E+00 -7.79651E+00 -8.67865E+00 -9.69936E+00 -1.05729E+01 -1.11318E+01 -1.10098E+01 -1.00462E+01 -8.31726E+00
  -6.09998E+00 -3.80450E+00 -1.95147E+00 -9.32431E-01 -1.28821E+00 -2.97342E+00 -5.77119E+00 -9.24398E+00 -1.24735E+01 -1.44013E+01
  -1.43785E+01 -1.24559E+01 -9.05244E+00 -4.61773E+00 -1.27701E-01  3.19875E+00  4.35098E+00  2.98164E+00 -7.57512E-01 -5.49918E+00
  -9.74691E+00 -1.25478E+01 -1.33720E+01 -1.20901E+01 -8.84803E+00 -4.51645E+00 -6.76166E-01  1.99712E+00  3.51507E+00  4.27340E+00
   4.50172E+00  4.37015E+00  4.35712E+00  4.93254E+00  6.06038E+00  7.48528E+00  8.83814E+00  9.65920E+00  9.85729E+00  9.37334E+00
   8.30172E+00  7.23067E+00  6.88793E+00  7.49899E+00  8.72347E+00  1.03705E+01  1.21116E+01  1.34982E+01  1.44345E+01  1.52486E+01
   1.63869E+01  1.77469E+01  1.93871E+01  2.16217E+01  2.60365E+01  3.55370E+01  4.91568E+01  6.73603E+01  8.95366E+01  1.10393E+02
   1.22678E+02  1.21967E+02  1.08739E+02  8.79897E+01  6.68223E+01  4.98708E+01  3.71332E+01  2.50398E+01  1.36628E+01  8.46599E+00
   6.65237E+00  5.62742E+00  5.01865E+00  4.70164E+00  4.41584E+00  4.08870E+00  3.69405E+00  3.23392E+00  2.75130E+00  2.29872E+00
   1.87635E+00  1.48757E+00  1.17156E+00  9.42950E-01  7.73459E-01  6.32260E-01  5.12582E-01  4.26534E-01  3.82666E-01  3.68042E-01
   3.86229E-01  4.43351E-01  5.34736E-01  6.48835E-01  7.79851E-01  9.25298E-01  1.08275E+00  1.24912E+00  1.42353E+00  1.60388E+00
   1.78973E+00  1.97790E+00  2.16294E+00  2.33887E+00  2.50163E+00  2.65044E+00  2.78604E+00  2.90858E+00  3.02145E+00  3.12879E+00
   3.23438E+00  3.34368E+00  3.46340E+00  3.59937E+00  3.75746E+00  3.94337E+00  4.16291E+00  4.42167E+00  4.72504E+00  5.07896E+00
   5.49372E+00  5.98292E+00  6.51906E+00  7.07393E+00  7.61940E+00  8.09674E+00  8.45624E+00  8.69442E+00  8.85480E+00  9.03067E+00
   9.29858E+00  9.67587E+00  1.01587E+01  1.07090E+01  1.12764E+01  1.18242E+01  1.22527E+01  1.24980E+01  1.25922E+01  1.26093E+01
   1.26405E+01  1.27594E+01  1.28640E+01  1.29019E+01  1.28485E+01  1.25102E+01  1.17214E+01  1.04881E+01  9.01931E+00  7.72461E+00
   6.88632E+00  6.62892E+00  6.95089E+00  7.65670E+00  8.50230E+00  9.35246E+00  9.89801E+00  9.93036E+00  9.57656E+00  9.04598E+00
   8.48805E+00  7.87860E+00  7.14440E+00  6.47902E+00  5.94683E+00  5.48892E+00  5.08068E+00  4.71079E+00  4.37206E+00  4.05939E+00
   3.76931E+00  3.49996E+00  3.25088E+00  3.02270E+00  2.81669E+00  2.63443E+00  2.47773E+00  2.34861E+00  2.24914E+00  2.18127E+00
   2.14669E+00  2.14678E+00  2.18275E+00  2.25565E+00  2.36636E+00  2.51531E+00  2.70243E+00  2.92711E+00  3.18824E+00  3.48413E+00
   3.81230E+00  4.16934E+00  4.55078E+00  4.95117E+00  5.36420E+00  5.78268E+00  6.19859E+00  6.60315E+00  6.98710E+00  7.34113E+00
   7.65620E+00  7.92382E+00  8.13635E+00  8.28726E+00  8.37151E+00  8.38591E+00  8.32920E+00  8.20210E+00  8.00711E+00  7.74851E+00
   7.43214E+00  7.06528E+00  6.65621E+00  6.21379E+00  5.74705E+00  5.26489E+00  4.77590E+00  4.28806E+00  3.80848E+00  3.34318E+00
   2.89706E+00  2.47390E+00  2.07651E+00  1.70676E+00  1.36558E+00  1.05309E+00  7.68710E-01  5.11451E-01  2.80018E-01  7.28807E-02
  -1.11704E-01 -2.75609E-01 -4.20704E-01 -5.48748E-01 -6.61362E-01 -7.60080E-01 -8.46385E-01 -9.21661E-01 -9.87132E-01 -1.04383E+00
  -1.09264E+00 -1.13440E+00 -1.16990E+00 -1.19987E+00 -1.22488E+00 -1.24539E+00 -1.26182E+00 -1.27458E+00 -1.28408E+00 -1.29067E+00
  -1.29461E+00 -1.29607E+00 -1.29525E+00 -1.29239E+00 -1.28770E+00 -1.28134E+00 -1.27340E+00 -1.26396E+00 -1.25313E+00 -1.24107E+00
  -1.22791E+00 -1.21369E+00 -1.19844E+00 -1.18220E+00 -1.16505E+00 -1.14711E+00 -1.12844E+00 -1.10906E+00 -1.08895E+00 -1.06816E+00
  -1.04675E+00 -1.02481E+00 -1.00235E+00 -9.79339E-01 -9.55781E-01 -9.31716E-01 -9.07219E-01 -8.82329E-01 -8.57038E-01 -8.31313E-01
  -8.05156E-01 -7.78619E-01 -7.51758E-01 -7.24580E-01 -6.97049E-01 -6.69134E-01 -6.40855E-01 -6.12262E-01 -5.83388E-01 -5.54210E-01
  -5.24679E-01 -4.94775E-01 -4.64523E-01 -4.33961E-01 -4.03085E-01 -3.71840E-01 -3.40166E-01 -3.08042E-01
 NY background values follow
    -2.341E+00   -2.434E+00   -2.527E+00   -2.621E+00   -2.714E+00   -2.808E+00   -2.901E+00   -2.995E+00   -3.089E+00   -3.183E+00
    -3.277E+00   -3.370E+00   -3.464E+00   -3.558E+00   -3.652E+00   -3.746E+00   -3.840E+00   -3.934E+00   -4.028E+00   -4.121E+00
    -4.215E+00   -4.308E+00   -4.402E+00   -4.495E+00   -4.589E+00   -4.682E+00   -4.775E+00   -4.868E+00   -4.960E+00   -5.053E+00
    -5.145E+00   -5.237E+00   -5.329E+00   -5.421E+00   -5.513E+00   -5.604E+00   -5.695E+00   -5.786E+00   -5.876E+00   -5.966E+00
    -6.056E+00   -6.146E+00   -6.235E+00   -6.325E+00   -6.413E+00   -6.502E+00   -6.590E+00   -6.677E+00   -6.765E+00   -6.852E+00
    -6.938E+00   -7.025E+00   -7.110E+00   -7.196E+00   -7.281E+00   -7.366E+00   -7.451E+00   -7.535E+00   -7.619E+00   -7.702E+00
    -7.785E+00   -7.868E+00   -7.950E+00   -8.032E+00   -8.114E+00   -8.195E+00   -8.276E+00   -8.357E+00   -8.437E+00   -8.517E+00
    -8.597E+00   -8.676E+00   -8.755E+00   -8.833E+00   -8.911E+00   -8.989E+00   -9.067E+00   -9.144E+00   -9.220E+00   -9.297E+00
    -9.373E+00   -9.449E+00   -9.524E+00   -9.599E+00   -9.673E+00   -9.748E+00   -9.822E+00   -9.895E+00   -9.968E+00   -1.004E+01
    -1.011E+01   -1.019E+01   -1.026E+01   -1.033E+01   -1.040E+01   -1.047E+01   -1.054E+01   -1.061E+01   -1.068E+01   -1.075E+01
    -1.082E+01   -1.089E+01   -1.095E+01   -1.102E+01   -1.109E+01   -1.115E+01   -1.122E+01   -1.129E+01   -1.135E+01   -1.142E+01
    -1.148E+01   -1.154E+01   -1.161E+01   -1.167E+01   -1.173E+01   -1.179E+01   -1.186E+01   -1.192E+01   -1.198E+01   -1.204E+01
    -1.210E+01   -1.215E+01   -1.221E+01   -1.227E+01   -1.233E+01   -1.238E+01   -1.244E+01   -1.249E+01   -1.255E+01   -1.260E+01
    -1.265E+01   -1.271E+01   -1.276E+01   -1.281E+01   -1.286E+01   -1.291E+01   -1.296E+01   -1.301E+01   -1.306E+01   -1.311E+01
    -1.315E+01   -1.320E+01   -1.324E+01   -1.329E+01   -1.333E+01   -1.337E+01   -1.341E+01   -1.345E+01   -1.348E+01   -1.352E+01
    -1.355E+01   -1.359E+01   -1.362E+01   -1.365E+01   -1.367E+01   -1.370E+01   -1.372E+01   -1.374E+01   -1.376E+01   -1.378E+01
    -1.379E+01   -1.381E+01   -1.382E+01   -1.382E+01   -1.383E+01   -1.383E+01   -1.383E+01   -1.383E+01   -1.383E+01   -1.382E+01
    -1.381E+01   -1.379E+01   -1.378E+01   -1.376E+01   -1.373E+01   -1.371E+01   -1.368E+01   -1.365E+01   -1.361E+01   -1.357E+01
    -1.353E+01   -1.348E+01   -1.343E+01   -1.338E+01   -1.332E+01   -1.326E+01   -1.319E+01   -1.313E+01   -1.306E+01   -1.299E+01
    -1.291E+01   -1.283E+01   -1.275E+01   -1.267E+01   -1.258E+01   -1.249E+01   -1.240E+01   -1.231E+01   -1.222E+01   -1.212E+01
    -1.203E+01   -1.193E+01   -1.183E+01   -1.172E+01   -1.162E+01   -1.152E+01   -1.141E+01   -1.130E+01   -1.120E+01   -1.109E+01
    -1.098E+01   -1.087E+01   -1.076E+01   -1.065E+01   -1.054E+01   -1.042E+01   -1.031E+01   -1.020E+01   -1.009E+01   -9.980E+00
    -9.870E+00   -9.760E+00   -9.651E+00   -9.542E+00   -9.434E+00   -9.327E+00   -9.221E+00   -9.116E+00   -9.011E+00   -8.908E+00
    -8.807E+00   -8.706E+00   -8.606E+00   -8.507E+00   -8.409E+00   -8.313E+00   -8.217E+00   -8.122E+00   -8.029E+00   -7.936E+00
    -7.844E+00   -7.754E+00   -7.664E+00   -7.576E+00   -7.488E+00   -7.401E+00   -7.316E+00   -7.231E+00   -7.147E+00   -7.065E+00
    -6.983E+00   -6.902E+00   -6.822E+00   -6.743E+00   -6.666E+00   -6.589E+00   -6.513E+00   -6.437E+00   -6.363E+00   -6.290E+00
    -6.218E+00   -6.146E+00   -6.076E+00   -6.006E+00   -5.938E+00   -5.870E+00   -5.803E+00   -5.737E+00   -5.672E+00   -5.608E+00
    -5.545E+00   -5.482E+00   -5.421E+00   -5.360E+00   -5.300E+00   -5.241E+00   -5.183E+00   -5.126E+00   -5.069E+00   -5.014E+00
    -4.959E+00   -4.905E+00   -4.852E+00   -4.800E+00   -4.749E+00   -4.698E+00   -4.649E+00   -4.600E+00   -4.552E+00   -4.505E+00
    -4.458E+00   -4.413E+00   -4.368E+00   -4.324E+00   -4.281E+00   -4.239E+00   -4.197E+00   -4.157E+00   -4.117E+00   -4.078E+00
    -4.039E+00   -4.002E+00   -3.965E+00   -3.929E+00   -3.894E+00   -3.860E+00   -3.826E+00   -3.793E+00   -3.761E+00   -3.730E+00
    -3.699E+00   -3.669E+00   -3.640E+00   -3.612E+00   -3.584E+00   -3.557E+00   -3.531E+00   -3.506E+00   -3.482E+00   -3.458E+00
    -3.434E+00   -3.412E+00   -3.390E+00   -3.369E+00   -3.349E+00   -3.329E+00   -3.310E+00   -3.291E+00   -3.273E+00   -3.256E+00
    -3.239E+00   -3.223E+00   -3.207E+00   -3.192E+00   -3.177E+00   -3.163E+00   -3.150E+00   -3.137E+00   -3.124E+00   -3.112E+00
    -3.100E+00   -3.089E+00   -3.078E+00   -3.068E+00   -3.058E+00   -3.048E+00   -3.039E+00   -3.030E+00   -3.022E+00   -3.013E+00
    -3.006E+00   -2.998E+00   -2.991E+00   -2.984E+00   -2.977E+00   -2.971E+00   -2.965E+00   -2.959E+00   -2.954E+00   -2.948E+00
    -2.943E+00   -2.938E+00   -2.933E+00   -2.928E+00   -2.924E+00   -2.919E+00   -2.915E+00   -2.911E+00   -2.907E+00   -2.903E+00
    -2.899E+00   -2.895E+00   -2.891E+00   -2.887E+00   -2.883E+00   -2.879E+00   -2.875E+00   -2.871E+00   -2.867E+00   -2.862E+00
    -2.858E+00   -2.853E+00   -2.848E+00   -2.844E+00   -2.838E+00   -2.833E+00   -2.828E+00   -2.822E+00   -2.816E+00   -2.809E+00
    -2.803E+00   -2.796E+00   -2.789E+00   -2.781E+00   -2.773E+00   -2.765E+00   -2.756E+00   -2.747E+00   -2.737E+00   -2.727E+00
    -2.717E+00   -2.706E+00   -2.695E+00   -2.683E+00   -2.670E+00   -2.657E+00   -2.644E+00   -2.630E+00   -2.615E+00   -2.600E+00
    -2.584E+00   -2.568E+00   -2.551E+00   -2.533E+00   -2.515E+00   -2.497E+00   -2.478E+00   -2.458E+00   -2.438E+00   -2.418E+00
    -2.397E+00   -2.376E+00   -2.354E+00   -2.332E+00   -2.309E+00   -2.286E+00   -2.263E+00   -2.239E+00   -2.215E+00   -2.190E+00
    -2.166E+00   -2.140E+00   -2.115E+00   -2.089E+00   -2.063E+00   -2.037E+00   -2.010E+00   -1.983E+00   -1.956E+00   -1.928E+00
    -1.900E+00   -1.872E+00   -1.844E+00   -1.816E+00   -1.787E+00   -1.758E+00   -1.730E+00   -1.700E+00   -1.671E+00   -1.642E+00
    -1.612E+00   -1.582E+00   -1.553E+00   -1.523E+00   -1.493E+00   -1.463E+00   -1.432E+00   -1.402E+00   -1.372E+00   -1.341E+00
    -1.311E+00   -1.280E+00   -1.249E+00   -1.218E+00   -1.187E+00   -1.156E+00   -1.125E+00   -1.094E+00   -1.063E+00   -1.031E+00
    -1.000E+00   -9.686E-01   -9.370E-01   -9.054E-01   -8.738E-01   -8.420E-01   -8.102E-01   -7.784E-01   -7.464E-01   -7.145E-01
    -6.824E-01   -6.503E-01   -6.182E-01   -5.860E-01   -5.538E-01   -5.215E-01   -4.892E-01   -4.569E-01   -4.245E-01   -3.920E-01
    -3.596E-01   -3.271E-01   -2.945E-01   -2.620E-01   -2.294E-01   -1.967E-01   -1.641E-01   -1.314E-01
 Ala      Conc. = 6.21E+01
