 LCModel (Version 6.3-1L) Copyright: S.W. Provencher.          Ref.: Magn. Reson. Med. 30:672-679 (1993).                
 Slice#2 Row#4 Col#6  PD_24_press_2_raw_act
 36 lines in following concentration table = NCONC+1
    Conc.  %SD /Cr+PCr  Metabolite                                         
  254.260 156%   0.134 Ala                                                 
   17.055 999% 9.0E-03 Asp                                                 
    0.000 999%   0.000 Cr                                                  
 1.89E+03   9%   1.000 PCr                                                 
   84.213 340% 4.5E-02 GABA                                                
  207.288 134%   0.110 Glc                                                 
  780.222 106%   0.413 Gln                                                 
 1.92E+03  49%   1.015 Glu                                                 
 1.06E+03   7%   0.559 GPC                                                 
    0.000 999%   0.000 PCh                                                 
  832.081  29%   0.440 GSH                                                 
 2.96E+03  29%   1.565 Ins                                                 
   86.122 520% 4.6E-02 Lac                                                 
 3.17E+03   6%   1.675 NAA                                                 
    0.000 999%   0.000 NAAG                                                
  282.724  25%   0.150 Scyllo                                              
  873.429  50%   0.462 Tau                                                 
 1.38E+03  23%   0.727 -CrCH2                                              
 1.06E+03   7%   0.559 GPC+PCh                                             
 3.17E+03   6%   1.675 NAA+NAAG                                            
 1.89E+03   9%   1.000 Cr+PCr                                              
 2.70E+03  52%   1.428 Glu+Gln                                             
 2.43E+03  49%   1.284 Lip13a                                              
    0.000 999%   0.000 Lip13b                                              
  706.214  77%   0.374 Lip09                                               
 3.19E+03  22%   1.688 MM09                                                
  361.786  97%   0.191 Lip20                                               
 3.12E+03  34%   1.652 MM20                                                
 1.16E+03  63%   0.612 MM12                                                
 2.02E+03  41%   1.071 MM14                                                
 2.57E+03  21%   1.358 MM17                                                
 2.43E+03  49%   1.284 Lip13a+Lip13b                                       
 5.61E+03  21%   2.967 MM14+Lip13a+Lip13b+MM12                             
 3.90E+03  14%   2.061 MM09+Lip09                                          
 3.48E+03  30%   1.843 MM20+Lip20                                          
   6 lines in following misc. output table
  FWHM = 0.061 ppm    S/N =   5                                            
  Data shift = 0.023 ppm                                                   
  Ph: -53 deg     -14.7 deg/ppm                                            
  alphaB,S = 1.2E+00,   1.0E+02                                            
   14 spline knots.   Ns = 8(1)                                            
  (13) 5 infls.   (15) 1 extrs.                                            
  498 points on ppm-axis = NY
      4.000000     3.992357     3.984714     3.977070     3.969427     3.961784     3.954141     3.946497     3.938854     3.931211
      3.923568     3.915925     3.908281     3.900638     3.892995     3.885352     3.877708     3.870065     3.862422     3.854779
      3.847136     3.839492     3.831849     3.824206     3.816563     3.808919     3.801276     3.793633     3.785990     3.778347
      3.770703     3.763060     3.755417     3.747774     3.740130     3.732487     3.724844     3.717201     3.709558     3.701914
      3.694271     3.686628     3.678985     3.671341     3.663698     3.656055     3.648412     3.640769     3.633125     3.625482
      3.617839     3.610196     3.602552     3.594909     3.587266     3.579623     3.571980     3.564336     3.556693     3.549050
      3.541407     3.533763     3.526120     3.518477     3.510834     3.503191     3.495547     3.487904     3.480261     3.472618
      3.464974     3.457331     3.449688     3.442045     3.434402     3.426758     3.419115     3.411472     3.403829     3.396185
      3.388542     3.380899     3.373256     3.365613     3.357969     3.350326     3.342683     3.335040     3.327396     3.319753
      3.312110     3.304467     3.296824     3.289180     3.281537     3.273894     3.266251     3.258607     3.250964     3.243321
      3.235678     3.228034     3.220391     3.212748     3.205105     3.197462     3.189818     3.182175     3.174532     3.166889
      3.159245     3.151602     3.143959     3.136316     3.128673     3.121029     3.113386     3.105743     3.098100     3.090456
      3.082813     3.075170     3.067527     3.059884     3.052240     3.044597     3.036954     3.029311     3.021667     3.014024
      3.006381     2.998738     2.991095     2.983451     2.975808     2.968165     2.960522     2.952878     2.945235     2.937592
      2.929949     2.922306     2.914662     2.907019     2.899376     2.891733     2.884089     2.876446     2.868803     2.861160
      2.853517     2.845873     2.838230     2.830587     2.822944     2.815300     2.807657     2.800014     2.792371     2.784728
      2.777084     2.769441     2.761798     2.754155     2.746511     2.738868     2.731225     2.723582     2.715939     2.708295
      2.700652     2.693009     2.685366     2.677722     2.670079     2.662436     2.654793     2.647150     2.639506     2.631863
      2.624220     2.616577     2.608933     2.601290     2.593647     2.586004     2.578361     2.570717     2.563074     2.555431
      2.547788     2.540144     2.532501     2.524858     2.517215     2.509572     2.501928     2.494285     2.486642     2.478999
      2.471355     2.463712     2.456069     2.448426     2.440783     2.433139     2.425496     2.417853     2.410210     2.402566
      2.394923     2.387280     2.379637     2.371994     2.364350     2.356707     2.349064     2.341421     2.333777     2.326134
      2.318491     2.310848     2.303205     2.295561     2.287918     2.280275     2.272632     2.264988     2.257345     2.249702
      2.242059     2.234416     2.226772     2.219129     2.211486     2.203843     2.196199     2.188556     2.180913     2.173270
      2.165627     2.157983     2.150340     2.142697     2.135054     2.127410     2.119767     2.112124     2.104481     2.096838
      2.089194     2.081551     2.073908     2.066265     2.058621     2.050978     2.043335     2.035692     2.028049     2.020405
      2.012762     2.005119     1.997476     1.989833     1.982190     1.974546     1.966903     1.959260     1.951617     1.943974
      1.936331     1.928688     1.921045     1.913402     1.905759     1.898115     1.890472     1.882829     1.875186     1.867543
      1.859900     1.852257     1.844614     1.836971     1.829327     1.821684     1.814041     1.806398     1.798755     1.791112
      1.783469     1.775826     1.768183     1.760540     1.752896     1.745253     1.737610     1.729967     1.722324     1.714681
      1.707038     1.699395     1.691752     1.684108     1.676465     1.668822     1.661179     1.653536     1.645893     1.638250
      1.630607     1.622964     1.615321     1.607677     1.600034     1.592391     1.584748     1.577105     1.569462     1.561819
      1.554176     1.546533     1.538890     1.531246     1.523603     1.515960     1.508317     1.500674     1.493031     1.485388
      1.477745     1.470102     1.462458     1.454815     1.447172     1.439529     1.431886     1.424243     1.416600     1.408957
      1.401314     1.393671     1.386027     1.378384     1.370741     1.363098     1.355455     1.347812     1.340169     1.332526
      1.324883     1.317240     1.309596     1.301953     1.294310     1.286667     1.279024     1.271381     1.263738     1.256095
      1.248452     1.240808     1.233165     1.225522     1.217879     1.210236     1.202593     1.194950     1.187307     1.179664
      1.172021     1.164377     1.156734     1.149091     1.141448     1.133805     1.126162     1.118519     1.110876     1.103233
      1.095590     1.087946     1.080303     1.072660     1.065017     1.057374     1.049731     1.042088     1.034445     1.026802
      1.019158     1.011515     1.003872     0.996229     0.988586     0.980943     0.973300     0.965657     0.958014     0.950371
      0.942727     0.935084     0.927441     0.919798     0.912155     0.904512     0.896869     0.889226     0.881583     0.873940
      0.866296     0.858653     0.851010     0.843367     0.835724     0.828081     0.820438     0.812795     0.805152     0.797508
      0.789865     0.782222     0.774579     0.766936     0.759293     0.751650     0.744007     0.736364     0.728721     0.721077
      0.713434     0.705791     0.698148     0.690505     0.682862     0.675219     0.667576     0.659933     0.652290     0.644646
      0.637003     0.629360     0.621717     0.614074     0.606431     0.598788     0.591145     0.583502     0.575858     0.568215
      0.560572     0.552929     0.545286     0.537643     0.530000     0.522357     0.514714     0.507071     0.499427     0.491784
      0.484141     0.476498     0.468855     0.461212     0.453569     0.445925     0.438282     0.430639     0.422996     0.415353
      0.407710     0.400067     0.392424     0.384780     0.377137     0.369494     0.361851     0.354208     0.346565     0.338922
      0.331278     0.323635     0.315992     0.308349     0.300706     0.293063     0.285420     0.277777     0.270133     0.262490
      0.254847     0.247204     0.239561     0.231918     0.224275     0.216631     0.208988     0.201345
 NY phased data points follow
  -1.82955E+02 -1.84844E+02 -1.57542E+02 -1.47643E+02 -1.52452E+02 -1.39703E+02 -1.42778E+02 -1.30156E+02 -1.13808E+02 -1.21475E+02
  -1.22387E+02 -1.09517E+02 -1.13990E+02 -1.29666E+02 -1.20881E+02 -1.32328E+02 -1.19581E+02 -1.25248E+02 -1.13288E+02 -1.25738E+02
  -1.27244E+02 -1.13698E+02 -1.06786E+02 -1.37677E+02 -1.01834E+02 -1.16836E+02 -1.19281E+02 -1.04668E+02 -1.04941E+02 -1.07658E+02
  -9.70567E+01 -9.28483E+01 -8.67713E+01 -9.87778E+01 -8.01056E+01 -9.90972E+01 -9.68839E+01 -8.89340E+01 -8.45943E+01 -9.06973E+01
  -8.76694E+01 -9.46384E+01 -8.35377E+01 -9.00624E+01 -9.58103E+01 -7.04302E+01 -5.78225E+01 -8.82926E+01 -7.60347E+01 -6.22427E+01
  -6.53560E+01 -7.64667E+01 -7.06169E+01 -8.00347E+01 -7.38483E+01 -8.97088E+01 -6.88559E+01 -7.24993E+01 -7.06965E+01 -6.51080E+01
  -7.92781E+01 -8.37883E+01 -7.54304E+01 -9.05780E+01 -6.79016E+01 -7.41651E+01 -8.68991E+01 -6.66669E+01 -6.81748E+01 -6.91985E+01
  -6.34155E+01 -6.31866E+01 -5.66621E+01 -4.87247E+01 -4.84830E+01 -6.96583E+01 -6.28655E+01 -6.17552E+01 -5.34850E+01 -7.04837E+01
  -4.90248E+01 -6.30528E+01 -6.22119E+01 -4.40087E+01 -4.06818E+01 -4.64223E+01 -4.42215E+01 -4.60827E+01 -4.41894E+01 -4.69967E+01
  -4.48841E+01 -3.43735E+01 -4.18919E+01 -3.41563E+01 -2.62381E+01 -3.73890E+01 -8.59983E+00 -3.45677E+01 -2.63021E+01 -6.42858E+00
   1.71086E+01  3.98131E+01  2.97848E+01  4.74668E+01  3.63885E+01  1.83243E+01  2.74096E+00  2.06663E+00 -1.21782E+01 -1.80314E+01
  -2.63607E+01 -3.85154E+01 -2.78424E+01 -4.97314E+01 -2.60509E+01 -4.29255E+01 -2.08470E+01 -4.09583E+01 -4.18929E+01 -2.87587E+01
  -3.51232E+01 -1.60340E+01 -1.62078E+01 -4.61454E+00 -7.88787E-01  9.02394E+00  1.70979E+01  9.18233E+00  3.09850E+01  2.45758E+01
   1.10869E+01  4.83841E+00 -1.35038E+00 -3.22616E+00 -1.74469E+00 -2.07230E+01 -1.22162E+01 -2.27613E+01 -1.71905E+01 -3.51062E+01
  -7.80099E+00 -2.76204E+01 -3.53594E+01 -1.69229E+01 -1.42239E+01 -2.90738E+01 -3.13594E+01 -2.76500E+01 -2.18054E+01 -2.13892E+01
  -2.96161E+01 -1.19808E+01 -2.89785E+01 -1.04183E+01 -7.54394E+00 -1.95125E+01 -1.65544E+01 -1.16421E+01 -1.86136E+01 -3.85831E+00
  -2.59457E+01 -2.84005E+01 -2.46364E+01 -1.99023E+01 -1.27094E+01 -1.25392E+01 -8.11230E+00 -2.34618E+01 -2.39892E+01 -1.31617E+01
  -1.59893E+01 -2.42923E+01 -2.98232E+01 -2.65613E+01 -2.79798E+01 -2.59410E+01 -1.93358E+01 -1.96719E+01 -2.20495E+01 -2.73663E+01
  -3.82062E+01 -4.36517E+00 -3.07422E+01 -5.57528E+00 -1.51358E+01 -3.30458E+01  1.15146E+00 -2.06625E+01 -4.11715E-01 -5.91535E+00
  -4.55534E+00 -8.25545E+00 -3.14268E+00  1.26157E+01 -5.52199E-01 -3.12180E+00 -2.55709E+01 -2.40193E+01 -3.99218E+00 -2.43895E+01
   2.19312E+00 -3.29918E+00 -3.75686E+00 -7.97415E+00  2.40827E+00 -9.34394E-01  1.27519E-02 -1.43644E+00 -8.15141E+00  4.67526E+00
  -6.85029E+00  2.92269E+00  1.31326E+01  9.87445E+00  2.75515E+01  1.27625E+01  1.17826E+01  1.98810E+01  2.18405E+01  8.59254E+00
   6.45602E+00  3.42124E+00 -2.77671E+00 -9.90256E+00  2.07637E+01 -4.65371E-01  8.37141E+00  1.90787E+01  1.06571E+01 -4.02003E+00
   6.52014E+00  1.35440E+01  1.72452E+01  1.34376E+01  1.27266E+01  9.03230E+00  2.06087E+01  2.09611E+01  1.86433E+01  8.13910E+00
   8.92065E+00  1.42364E+01  3.75352E+00  1.51394E+01  7.15554E+00  1.55588E+01  2.51851E+01  3.29591E+01  1.27514E+01  2.49447E+01
   1.89647E+01  1.97993E+01  4.17001E+01  3.29510E+01  3.07659E+01  6.34860E+01  5.32455E+01  7.92577E+01  1.12852E+02  1.12009E+02
   1.09300E+02  9.29125E+01  1.03468E+02  8.87912E+01  7.69600E+01  4.87076E+01  3.44760E+01  4.06983E+01  4.03790E+01  1.60368E+01
   3.40543E+01  2.37092E+01  2.78154E+01 -3.15652E+00 -5.40441E+00  1.30875E+01  1.53557E+01  1.68207E+01  6.53128E+00  5.87376E+00
   2.13287E+01  6.76506E+00  1.20459E+01  1.55784E+01  1.88700E+01  5.05686E+00  1.21634E+01  1.48649E+01  7.53276E+00  1.19424E+01
   3.95946E+00  3.13495E+01  1.82386E+01  3.00263E+01  2.72130E+01  3.42149E+01  2.04562E+01  2.18684E+01  3.21147E+01  2.38148E+01
   3.44602E+01  2.40232E+01  4.89388E+01  4.23545E+01  3.51297E+01  5.11942E+01  4.52238E+01  4.44574E+01  2.71414E+01  3.73213E+01
   3.96079E+01  4.59483E+01  4.99142E+01  3.48991E+01  3.35004E+01  4.12226E+01  4.33730E+01  3.74409E+01  3.89107E+01  2.31234E+01
   4.51172E+01  4.44125E+01  3.84347E+01  3.65496E+01  4.51126E+01  3.44839E+01  3.49037E+01  3.01926E+01  2.94713E+01  3.78167E+01
   2.82520E+01  3.61480E+01  4.13855E+01  5.36332E+01  2.84604E+01  4.16741E+01  5.76882E+01  3.82964E+01  3.79143E+01  2.66249E+01
   4.08768E+01  3.79300E+01  5.05268E+01  6.32651E+01  5.14427E+01  2.80410E+01  6.22216E+01  4.77854E+01  4.67424E+01  3.07116E+01
   5.35915E+01  3.75096E+01  5.48561E+01  5.36756E+01  5.38292E+01  3.58921E+01  4.43379E+01  5.41842E+01  3.61383E+01  4.42236E+01
   5.29199E+01  5.16214E+01  4.97841E+01  4.20885E+01  5.18744E+01  4.59890E+01  4.06252E+01  3.61822E+01  3.59692E+01  2.80124E+01
   6.44942E+01  4.78484E+01  4.79024E+01  3.65002E+01  5.52926E+01  5.47435E+01  6.53151E+01  3.98199E+01  4.37402E+01  5.42057E+01
   4.80704E+01  4.70190E+01  3.50228E+01  4.31649E+01  3.80554E+01  5.70394E+01  6.49361E+01  6.68668E+01  4.70000E+01  4.07245E+01
   5.86527E+01  2.94001E+01  6.55111E+01  3.58449E+01  3.89185E+01  7.34986E+01  4.06094E+01  5.40386E+01  6.38693E+01  5.18242E+01
   5.78589E+01  5.32207E+01  5.06605E+01  5.28102E+01  5.63810E+01  7.10375E+01  6.41854E+01  5.94445E+01  6.14677E+01  6.91507E+01
   7.53444E+01  7.32697E+01  4.35634E+01  6.37956E+01  6.15726E+01  6.82997E+01  5.53717E+01  6.45567E+01  5.78496E+01  5.22268E+01
   5.39463E+01  5.85716E+01  4.77782E+01  4.92698E+01  4.80730E+01  5.18012E+01  5.50288E+01  5.42549E+01  4.73871E+01  6.21909E+01
   5.07003E+01  5.27580E+01  5.01536E+01  5.09568E+01  4.75979E+01  5.66030E+01  4.85851E+01  4.55962E+01  4.71923E+01  4.57189E+01
   4.72488E+01  3.81821E+01  3.85272E+01  2.40873E+01  4.27214E+01  3.70465E+01  3.03802E+01  3.91191E+01  5.33243E+01  4.79211E+01
   4.21255E+01  5.16273E+01  4.43309E+01  3.74724E+01  3.65086E+01  2.13601E+01  3.88984E+01  4.63890E+01  3.86879E+01  3.20440E+01
   3.04834E+01  4.35895E+01  3.87393E+01  4.07650E+01  4.34216E+01  3.29573E+01  4.60993E+01  4.44832E+01  1.90937E+01  3.84538E+01
   3.93003E+01  4.47288E+01  4.36412E+01  5.09651E+01  3.15540E+01  5.23109E+01  3.64699E+01  3.01150E+01  3.73273E+01  3.67216E+01
   3.17274E+01  2.98645E+01  1.03620E+01  3.05439E+01  4.40238E+01  3.77052E+01  3.48308E+01  3.11978E+01  3.99263E+01  2.41307E+01
   4.11419E+01  3.62546E+01  3.20178E+01  3.51761E+01  2.56007E+01  4.35714E+01  3.56440E+01  2.25900E+01
 NY points of the fit to the data follow
  -1.44459E+02 -1.45003E+02 -1.43882E+02 -1.42216E+02 -1.41008E+02 -1.39540E+02 -1.36483E+02 -1.31626E+02 -1.26392E+02 -1.22147E+02
  -1.19104E+02 -1.17227E+02 -1.16629E+02 -1.17119E+02 -1.18164E+02 -1.19017E+02 -1.19241E+02 -1.19226E+02 -1.19797E+02 -1.20477E+02
  -1.20265E+02 -1.19695E+02 -1.18615E+02 -1.17013E+02 -1.15376E+02 -1.13476E+02 -1.10592E+02 -1.06409E+02 -1.01566E+02 -9.70331E+01
  -9.33777E+01 -9.09841E+01 -9.00814E+01 -9.06443E+01 -9.21369E+01 -9.38375E+01 -9.53885E+01 -9.66645E+01 -9.74447E+01 -9.72967E+01
  -9.59497E+01 -9.37160E+01 -9.08191E+01 -8.69663E+01 -8.24082E+01 -7.82031E+01 -7.53952E+01 -7.42552E+01 -7.45635E+01 -7.60995E+01
  -7.84019E+01 -8.06926E+01 -8.22464E+01 -8.28206E+01 -8.27191E+01 -8.22234E+01 -8.11668E+01 -7.94447E+01 -7.74344E+01 -7.56972E+01
  -7.45687E+01 -7.39946E+01 -7.38216E+01 -7.37667E+01 -7.34600E+01 -7.27806E+01 -7.17850E+01 -7.05092E+01 -6.89844E+01 -6.73499E+01
  -6.57457E+01 -6.41819E+01 -6.26528E+01 -6.13205E+01 -6.04030E+01 -6.00117E+01 -6.00236E+01 -6.01482E+01 -5.99128E+01 -5.90010E+01
  -5.78675E+01 -5.64530E+01 -5.43733E+01 -5.17867E+01 -4.93856E+01 -4.78595E+01 -4.73455E+01 -4.75523E+01 -4.81228E+01 -4.89345E+01
  -4.97683E+01 -5.02582E+01 -5.02369E+01 -4.95860E+01 -4.72756E+01 -4.15036E+01 -3.40553E+01 -2.55668E+01 -1.43766E+01  7.19694E-01
   1.75576E+01  3.11739E+01  3.81992E+01  3.86052E+01  3.33516E+01  2.35459E+01  1.12160E+01 -1.09373E+00 -1.13662E+01 -1.91490E+01
  -2.57987E+01 -3.21930E+01 -3.70187E+01 -3.86098E+01 -3.86759E+01 -3.83782E+01 -3.79292E+01 -3.73247E+01 -3.63034E+01 -3.37968E+01
  -2.92567E+01 -2.41641E+01 -1.82883E+01 -1.02120E+01  3.10875E-01  1.11862E+01  1.93091E+01  2.30638E+01  2.27027E+01  1.89239E+01
   1.25849E+01  5.01415E+00 -2.36956E+00 -8.74533E+00 -1.40641E+01 -1.89798E+01 -2.34651E+01 -2.61259E+01 -2.63398E+01 -2.54871E+01
  -2.42889E+01 -2.31443E+01 -2.22734E+01 -2.16819E+01 -2.12581E+01 -2.09812E+01 -2.08353E+01 -2.07759E+01 -2.07869E+01 -2.08410E+01
  -2.08785E+01 -2.08806E+01 -2.07935E+01 -2.06960E+01 -2.05599E+01 -2.03542E+01 -2.01382E+01 -1.99758E+01 -1.99540E+01 -1.99623E+01
  -1.97825E+01 -1.93627E+01 -1.88189E+01 -1.83321E+01 -1.80156E+01 -1.78853E+01 -1.79300E+01 -1.81360E+01 -1.84474E+01 -1.86977E+01
  -1.87748E+01 -1.88585E+01 -1.90798E+01 -1.94115E+01 -1.95528E+01 -1.92791E+01 -1.87835E+01 -1.83304E+01 -1.80019E+01 -1.77398E+01
  -1.73970E+01 -1.69766E+01 -1.65605E+01 -1.60673E+01 -1.52938E+01 -1.41268E+01 -1.26412E+01 -1.08714E+01 -8.82749E+00 -6.73760E+00
  -5.08700E+00 -4.13641E+00 -3.76904E+00 -3.84782E+00 -4.25069E+00 -4.75086E+00 -5.01347E+00 -4.80256E+00 -4.01650E+00 -2.75061E+00
  -1.17005E+00  5.18488E-01  1.83827E+00  2.53154E+00  2.47895E+00  1.60298E+00  1.69712E-01 -1.40699E+00 -2.64790E+00 -3.22025E+00
  -3.05576E+00 -1.96496E+00  1.20225E-01  2.76480E+00  5.09265E+00  6.38893E+00  6.60700E+00  5.91884E+00  4.32418E+00  2.10002E+00
  -6.16870E-02 -1.23192E+00 -1.04230E+00  1.10744E-01  1.79581E+00  3.85257E+00  6.12379E+00  8.07968E+00  9.26791E+00  9.93184E+00
   1.05728E+01  1.13303E+01  1.20071E+01  1.26436E+01  1.35342E+01  1.45712E+01  1.53868E+01  1.57606E+01  1.57151E+01  1.53122E+01
   1.47173E+01  1.42037E+01  1.40518E+01  1.44796E+01  1.54603E+01  1.67507E+01  1.80649E+01  1.92838E+01  2.03975E+01  2.14085E+01
   2.24453E+01  2.41595E+01  2.87622E+01  3.60037E+01  4.35545E+01  5.25060E+01  6.53014E+01  8.17129E+01  9.75375E+01  1.07818E+02
   1.10829E+02  1.07339E+02  9.83026E+01  8.52973E+01  7.09586E+01  5.78918E+01  4.74577E+01  3.90670E+01  3.12385E+01  2.41250E+01
   1.99739E+01  1.87465E+01  1.83459E+01  1.81963E+01  1.81796E+01  1.82057E+01  1.81873E+01  1.81259E+01  1.80362E+01  1.79444E+01
   1.78815E+01  1.78640E+01  1.78952E+01  1.79902E+01  1.81674E+01  1.84262E+01  1.87619E+01  1.91734E+01  1.96638E+01  2.02377E+01
   2.09003E+01  2.16522E+01  2.25025E+01  2.34554E+01  2.45112E+01  2.56671E+01  2.69181E+01  2.82497E+01  2.96428E+01  3.10738E+01
   3.25174E+01  3.39418E+01  3.53140E+01  3.66002E+01  3.77684E+01  3.87892E+01  3.96392E+01  4.03002E+01  4.07631E+01  4.10258E+01
   4.10960E+01  4.09878E+01  4.07245E+01  4.03350E+01  3.98542E+01  3.93192E+01  3.87714E+01  3.82549E+01  3.78278E+01  3.75496E+01
   3.73456E+01  3.71796E+01  3.71293E+01  3.71952E+01  3.72380E+01  3.70690E+01  3.66322E+01  3.61264E+01  3.57256E+01  3.54326E+01
   3.53360E+01  3.56253E+01  3.64221E+01  3.76276E+01  3.89713E+01  4.02533E+01  4.14385E+01  4.25122E+01  4.33631E+01  4.39773E+01
   4.44314E+01  4.48002E+01  4.51453E+01  4.54379E+01  4.56176E+01  4.57095E+01  4.57479E+01  4.57613E+01  4.57829E+01  4.58115E+01
   4.58841E+01  4.60688E+01  4.64028E+01  4.68428E+01  4.72940E+01  4.76874E+01  4.80085E+01  4.82554E+01  4.83976E+01  4.84191E+01
   4.83524E+01  4.82295E+01  4.80594E+01  4.78297E+01  4.75426E+01  4.72366E+01  4.69279E+01  4.66086E+01  4.62796E+01  4.59447E+01
   4.56104E+01  4.52825E+01  4.49683E+01  4.46738E+01  4.44061E+01  4.41709E+01  4.39744E+01  4.38216E+01  4.37180E+01  4.36679E+01
   4.36762E+01  4.37466E+01  4.38837E+01  4.40906E+01  4.43715E+01  4.47296E+01  4.51684E+01  4.56905E+01  4.62986E+01  4.69937E+01
   4.77769E+01  4.86468E+01  4.96011E+01  5.06345E+01  5.17403E+01  5.29078E+01  5.41246E+01  5.53741E+01  5.66380E+01  5.78942E+01
   5.91193E+01  6.02877E+01  6.13738E+01  6.23517E+01  6.31973E+01  6.38883E+01  6.44065E+01  6.47374E+01  6.48722E+01  6.48067E+01
   6.45435E+01  6.40896E+01  6.34582E+01  6.26663E+01  6.17353E+01  6.06884E+01  5.95514E+01  5.83495E+01  5.71084E+01  5.58516E+01
   5.46011E+01  5.33755E+01  5.21909E+01  5.10598E+01  4.99919E+01  4.89932E+01  4.80679E+01  4.72167E+01  4.64394E+01  4.57331E+01
   4.50947E+01  4.45194E+01  4.40028E+01  4.35393E+01  4.31241E+01  4.27517E+01  4.24178E+01  4.21175E+01  4.18472E+01  4.16027E+01
   4.13811E+01  4.11791E+01  4.09944E+01  4.08246E+01  4.06678E+01  4.05220E+01  4.03861E+01  4.02584E+01  4.01382E+01  4.00241E+01
   3.99156E+01  3.98115E+01  3.97116E+01  3.96149E+01  3.95215E+01  3.94304E+01  3.93417E+01  3.92546E+01  3.91695E+01  3.90855E+01
   3.90029E+01  3.89212E+01  3.88405E+01  3.87603E+01  3.86809E+01  3.86019E+01  3.85235E+01  3.84453E+01  3.83675E+01  3.82898E+01
   3.82126E+01  3.81353E+01  3.80583E+01  3.79813E+01  3.79046E+01  3.78278E+01  3.77514E+01  3.76748E+01  3.75986E+01  3.75223E+01
   3.74463E+01  3.73703E+01  3.72948E+01  3.72192E+01  3.71440E+01  3.70689E+01  3.69943E+01  3.69199E+01  3.68460E+01  3.67724E+01
   3.66993E+01  3.66266E+01  3.65546E+01  3.64831E+01  3.64124E+01  3.63422E+01  3.62729E+01  3.62043E+01
 NY background values follow
    -1.528E+02   -1.517E+02   -1.505E+02   -1.494E+02   -1.482E+02   -1.471E+02   -1.459E+02   -1.448E+02   -1.436E+02   -1.425E+02
    -1.414E+02   -1.402E+02   -1.391E+02   -1.379E+02   -1.368E+02   -1.357E+02   -1.345E+02   -1.334E+02   -1.323E+02   -1.311E+02
    -1.300E+02   -1.289E+02   -1.277E+02   -1.266E+02   -1.255E+02   -1.244E+02   -1.233E+02   -1.221E+02   -1.210E+02   -1.199E+02
    -1.188E+02   -1.177E+02   -1.166E+02   -1.155E+02   -1.144E+02   -1.133E+02   -1.122E+02   -1.111E+02   -1.101E+02   -1.090E+02
    -1.079E+02   -1.068E+02   -1.058E+02   -1.047E+02   -1.036E+02   -1.026E+02   -1.015E+02   -1.005E+02   -9.945E+01   -9.842E+01
    -9.739E+01   -9.636E+01   -9.534E+01   -9.432E+01   -9.331E+01   -9.230E+01   -9.130E+01   -9.030E+01   -8.931E+01   -8.832E+01
    -8.734E+01   -8.636E+01   -8.539E+01   -8.443E+01   -8.346E+01   -8.251E+01   -8.156E+01   -8.062E+01   -7.968E+01   -7.874E+01
    -7.782E+01   -7.689E+01   -7.598E+01   -7.507E+01   -7.417E+01   -7.327E+01   -7.238E+01   -7.149E+01   -7.061E+01   -6.974E+01
    -6.887E+01   -6.801E+01   -6.715E+01   -6.630E+01   -6.546E+01   -6.463E+01   -6.380E+01   -6.298E+01   -6.216E+01   -6.135E+01
    -6.055E+01   -5.976E+01   -5.897E+01   -5.819E+01   -5.741E+01   -5.664E+01   -5.588E+01   -5.513E+01   -5.438E+01   -5.364E+01
    -5.290E+01   -5.217E+01   -5.145E+01   -5.074E+01   -5.003E+01   -4.933E+01   -4.863E+01   -4.794E+01   -4.726E+01   -4.658E+01
    -4.591E+01   -4.524E+01   -4.459E+01   -4.393E+01   -4.329E+01   -4.265E+01   -4.201E+01   -4.139E+01   -4.077E+01   -4.015E+01
    -3.954E+01   -3.894E+01   -3.834E+01   -3.775E+01   -3.716E+01   -3.658E+01   -3.601E+01   -3.544E+01   -3.488E+01   -3.432E+01
    -3.377E+01   -3.322E+01   -3.268E+01   -3.215E+01   -3.162E+01   -3.109E+01   -3.058E+01   -3.006E+01   -2.956E+01   -2.905E+01
    -2.856E+01   -2.807E+01   -2.758E+01   -2.710E+01   -2.662E+01   -2.615E+01   -2.569E+01   -2.522E+01   -2.477E+01   -2.431E+01
    -2.387E+01   -2.342E+01   -2.298E+01   -2.255E+01   -2.212E+01   -2.169E+01   -2.127E+01   -2.086E+01   -2.044E+01   -2.003E+01
    -1.963E+01   -1.923E+01   -1.883E+01   -1.844E+01   -1.804E+01   -1.766E+01   -1.727E+01   -1.690E+01   -1.652E+01   -1.615E+01
    -1.578E+01   -1.541E+01   -1.505E+01   -1.469E+01   -1.433E+01   -1.398E+01   -1.362E+01   -1.328E+01   -1.293E+01   -1.259E+01
    -1.225E+01   -1.191E+01   -1.157E+01   -1.124E+01   -1.091E+01   -1.058E+01   -1.026E+01   -9.934E+00   -9.613E+00   -9.295E+00
    -8.979E+00   -8.666E+00   -8.355E+00   -8.047E+00   -7.741E+00   -7.437E+00   -7.136E+00   -6.837E+00   -6.540E+00   -6.246E+00
    -5.954E+00   -5.665E+00   -5.377E+00   -5.092E+00   -4.810E+00   -4.530E+00   -4.251E+00   -3.976E+00   -3.702E+00   -3.431E+00
    -3.162E+00   -2.895E+00   -2.630E+00   -2.368E+00   -2.108E+00   -1.850E+00   -1.594E+00   -1.341E+00   -1.089E+00   -8.398E-01
    -5.927E-01   -3.477E-01   -1.048E-01    1.359E-01    3.745E-01    6.111E-01    8.455E-01    1.078E+00    1.308E+00    1.537E+00
     1.763E+00    1.988E+00    2.211E+00    2.432E+00    2.652E+00    2.871E+00    3.087E+00    3.303E+00    3.517E+00    3.730E+00
     3.941E+00    4.152E+00    4.361E+00    4.570E+00    4.778E+00    4.985E+00    5.191E+00    5.396E+00    5.601E+00    5.805E+00
     6.009E+00    6.212E+00    6.415E+00    6.618E+00    6.820E+00    7.022E+00    7.225E+00    7.427E+00    7.629E+00    7.832E+00
     8.034E+00    8.237E+00    8.440E+00    8.644E+00    8.848E+00    9.053E+00    9.258E+00    9.464E+00    9.671E+00    9.879E+00
     1.009E+01    1.030E+01    1.051E+01    1.072E+01    1.093E+01    1.114E+01    1.136E+01    1.157E+01    1.179E+01    1.201E+01
     1.223E+01    1.244E+01    1.266E+01    1.288E+01    1.311E+01    1.333E+01    1.355E+01    1.377E+01    1.400E+01    1.422E+01
     1.445E+01    1.467E+01    1.490E+01    1.513E+01    1.535E+01    1.558E+01    1.581E+01    1.604E+01    1.627E+01    1.650E+01
     1.673E+01    1.696E+01    1.719E+01    1.742E+01    1.765E+01    1.788E+01    1.812E+01    1.835E+01    1.858E+01    1.881E+01
     1.905E+01    1.928E+01    1.951E+01    1.974E+01    1.998E+01    2.021E+01    2.044E+01    2.068E+01    2.091E+01    2.114E+01
     2.137E+01    2.161E+01    2.184E+01    2.207E+01    2.230E+01    2.254E+01    2.277E+01    2.300E+01    2.323E+01    2.346E+01
     2.369E+01    2.392E+01    2.414E+01    2.437E+01    2.460E+01    2.482E+01    2.505E+01    2.527E+01    2.550E+01    2.572E+01
     2.594E+01    2.616E+01    2.638E+01    2.660E+01    2.682E+01    2.704E+01    2.725E+01    2.747E+01    2.768E+01    2.789E+01
     2.810E+01    2.831E+01    2.852E+01    2.873E+01    2.893E+01    2.914E+01    2.934E+01    2.954E+01    2.974E+01    2.994E+01
     3.013E+01    3.033E+01    3.052E+01    3.071E+01    3.090E+01    3.109E+01    3.127E+01    3.145E+01    3.164E+01    3.181E+01
     3.199E+01    3.217E+01    3.234E+01    3.251E+01    3.268E+01    3.285E+01    3.301E+01    3.318E+01    3.334E+01    3.350E+01
     3.365E+01    3.381E+01    3.396E+01    3.411E+01    3.426E+01    3.440E+01    3.455E+01    3.469E+01    3.483E+01    3.496E+01
     3.510E+01    3.523E+01    3.535E+01    3.548E+01    3.560E+01    3.573E+01    3.584E+01    3.596E+01    3.607E+01    3.618E+01
     3.629E+01    3.640E+01    3.650E+01    3.660E+01    3.670E+01    3.679E+01    3.688E+01    3.697E+01    3.706E+01    3.714E+01
     3.722E+01    3.730E+01    3.737E+01    3.745E+01    3.752E+01    3.758E+01    3.765E+01    3.771E+01    3.777E+01    3.782E+01
     3.788E+01    3.793E+01    3.797E+01    3.802E+01    3.806E+01    3.810E+01    3.814E+01    3.818E+01    3.821E+01    3.824E+01
     3.827E+01    3.829E+01    3.832E+01    3.834E+01    3.835E+01    3.837E+01    3.838E+01    3.839E+01    3.840E+01    3.841E+01
     3.841E+01    3.842E+01    3.841E+01    3.841E+01    3.841E+01    3.840E+01    3.839E+01    3.838E+01    3.837E+01    3.835E+01
     3.833E+01    3.831E+01    3.829E+01    3.826E+01    3.824E+01    3.821E+01    3.818E+01    3.815E+01    3.811E+01    3.808E+01
     3.804E+01    3.800E+01    3.796E+01    3.792E+01    3.787E+01    3.783E+01    3.778E+01    3.773E+01    3.768E+01    3.763E+01
     3.758E+01    3.753E+01    3.747E+01    3.742E+01    3.736E+01    3.731E+01    3.725E+01    3.719E+01    3.713E+01    3.707E+01
     3.701E+01    3.695E+01    3.689E+01    3.683E+01    3.677E+01    3.671E+01    3.664E+01    3.658E+01    3.652E+01    3.645E+01
     3.639E+01    3.633E+01    3.626E+01    3.620E+01    3.614E+01    3.608E+01    3.601E+01    3.595E+01
 Ala      Conc. = 2.54E+02
