 LCModel (Version 6.3-1L) Copyright: S.W. Provencher.          Ref.: Magn. Reson. Med. 30:672-679 (1993).                
 Slice#1 Row#9 Col#10  PD_24_press_2_raw_act
 36 lines in following concentration table = NCONC+1
    Conc.  %SD /Cr+PCr  Metabolite                                         
  357.193  52%   0.230 Ala                                                 
    0.000 999%   0.000 Asp                                                 
 1.12E+03  23%   0.723 Cr                                                  
  429.315  59%   0.277 PCr                                                 
    0.000 999%   0.000 GABA                                                
    0.000 999%   0.000 Glc                                                 
  611.192  65%   0.394 Gln                                                 
 1.10E+03  41%   0.708 Glu                                                 
  450.301   6%   0.291 GPC                                                 
    0.000 999%   0.000 PCh                                                 
  414.649  24%   0.268 GSH                                                 
 1.67E+03  20%   1.080 Ins                                                 
    0.000 999%   0.000 Lac                                                 
 2.42E+03   6%   1.564 NAA                                                 
   42.755 373% 2.8E-02 NAAG                                                
  136.459  23% 8.8E-02 Scyllo                                              
  310.800  71%   0.201 Tau                                                 
  939.504  13%   0.606 -CrCH2                                              
  450.301   6%   0.291 GPC+PCh                                             
 2.47E+03   4%   1.591 NAA+NAAG                                            
 1.55E+03   5%   1.000 Cr+PCr                                              
 1.71E+03  42%   1.102 Glu+Gln                                             
 5.76E+03  12%   3.717 Lip13a                                              
    0.000 999%   0.000 Lip13b                                              
 1.60E+03  23%   1.031 Lip09                                               
 1.80E+03  16%   1.163 MM09                                                
 1.67E+03  17%   1.079 Lip20                                               
 4.61E+03  10%   2.975 MM20                                                
  574.436  62%   0.371 MM12                                                
 4.06E+03   9%   2.619 MM14                                                
    0.000 999%   0.000 MM17                                                
 5.76E+03  12%   3.717 Lip13a+Lip13b                                       
 1.04E+04   4%   6.706 MM14+Lip13a+Lip13b+MM12                             
 3.40E+03   7%   2.194 MM09+Lip09                                          
 6.28E+03   6%   4.054 MM20+Lip20                                          
   6 lines in following misc. output table
  FWHM = 0.084 ppm    S/N =  13                                            
  Data shift =-0.023 ppm                                                   
  Ph:  -9 deg       0.6 deg/ppm                                            
  alphaB,S = 8.8E-01,   9.2E+00                                            
   14 spline knots.   Ns =11(1)                                            
  (18)15 infls.   (21)12 extrs.                                            
  498 points on ppm-axis = NY
      4.000000     3.992357     3.984714     3.977070     3.969427     3.961784     3.954141     3.946497     3.938854     3.931211
      3.923568     3.915925     3.908281     3.900638     3.892995     3.885352     3.877708     3.870065     3.862422     3.854779
      3.847136     3.839492     3.831849     3.824206     3.816563     3.808919     3.801276     3.793633     3.785990     3.778347
      3.770703     3.763060     3.755417     3.747774     3.740130     3.732487     3.724844     3.717201     3.709558     3.701914
      3.694271     3.686628     3.678985     3.671341     3.663698     3.656055     3.648412     3.640769     3.633125     3.625482
      3.617839     3.610196     3.602552     3.594909     3.587266     3.579623     3.571980     3.564336     3.556693     3.549050
      3.541407     3.533763     3.526120     3.518477     3.510834     3.503191     3.495547     3.487904     3.480261     3.472618
      3.464974     3.457331     3.449688     3.442045     3.434402     3.426758     3.419115     3.411472     3.403829     3.396185
      3.388542     3.380899     3.373256     3.365613     3.357969     3.350326     3.342683     3.335040     3.327396     3.319753
      3.312110     3.304467     3.296824     3.289180     3.281537     3.273894     3.266251     3.258607     3.250964     3.243321
      3.235678     3.228034     3.220391     3.212748     3.205105     3.197462     3.189818     3.182175     3.174532     3.166889
      3.159245     3.151602     3.143959     3.136316     3.128673     3.121029     3.113386     3.105743     3.098100     3.090456
      3.082813     3.075170     3.067527     3.059884     3.052240     3.044597     3.036954     3.029311     3.021667     3.014024
      3.006381     2.998738     2.991095     2.983451     2.975808     2.968165     2.960522     2.952878     2.945235     2.937592
      2.929949     2.922306     2.914662     2.907019     2.899376     2.891733     2.884089     2.876446     2.868803     2.861160
      2.853517     2.845873     2.838230     2.830587     2.822944     2.815300     2.807657     2.800014     2.792371     2.784728
      2.777084     2.769441     2.761798     2.754155     2.746511     2.738868     2.731225     2.723582     2.715939     2.708295
      2.700652     2.693009     2.685366     2.677722     2.670079     2.662436     2.654793     2.647150     2.639506     2.631863
      2.624220     2.616577     2.608933     2.601290     2.593647     2.586004     2.578361     2.570717     2.563074     2.555431
      2.547788     2.540144     2.532501     2.524858     2.517215     2.509572     2.501928     2.494285     2.486642     2.478999
      2.471355     2.463712     2.456069     2.448426     2.440783     2.433139     2.425496     2.417853     2.410210     2.402566
      2.394923     2.387280     2.379637     2.371994     2.364350     2.356707     2.349064     2.341421     2.333777     2.326134
      2.318491     2.310848     2.303205     2.295561     2.287918     2.280275     2.272632     2.264988     2.257345     2.249702
      2.242059     2.234416     2.226772     2.219129     2.211486     2.203843     2.196199     2.188556     2.180913     2.173270
      2.165627     2.157983     2.150340     2.142697     2.135054     2.127410     2.119767     2.112124     2.104481     2.096838
      2.089194     2.081551     2.073908     2.066265     2.058621     2.050978     2.043335     2.035692     2.028049     2.020405
      2.012762     2.005119     1.997476     1.989833     1.982190     1.974546     1.966903     1.959260     1.951617     1.943974
      1.936331     1.928688     1.921045     1.913402     1.905759     1.898115     1.890472     1.882829     1.875186     1.867543
      1.859900     1.852257     1.844614     1.836971     1.829327     1.821684     1.814041     1.806398     1.798755     1.791112
      1.783469     1.775826     1.768183     1.760540     1.752896     1.745253     1.737610     1.729967     1.722324     1.714681
      1.707038     1.699395     1.691752     1.684108     1.676465     1.668822     1.661179     1.653536     1.645893     1.638250
      1.630607     1.622964     1.615321     1.607677     1.600034     1.592391     1.584748     1.577105     1.569462     1.561819
      1.554176     1.546533     1.538890     1.531246     1.523603     1.515960     1.508317     1.500674     1.493031     1.485388
      1.477745     1.470102     1.462458     1.454815     1.447172     1.439529     1.431886     1.424243     1.416600     1.408957
      1.401314     1.393671     1.386027     1.378384     1.370741     1.363098     1.355455     1.347812     1.340169     1.332526
      1.324883     1.317240     1.309596     1.301953     1.294310     1.286667     1.279024     1.271381     1.263738     1.256095
      1.248452     1.240808     1.233165     1.225522     1.217879     1.210236     1.202593     1.194950     1.187307     1.179664
      1.172021     1.164377     1.156734     1.149091     1.141448     1.133805     1.126162     1.118519     1.110876     1.103233
      1.095590     1.087946     1.080303     1.072660     1.065017     1.057374     1.049731     1.042088     1.034445     1.026802
      1.019158     1.011515     1.003872     0.996229     0.988586     0.980943     0.973300     0.965657     0.958014     0.950371
      0.942727     0.935084     0.927441     0.919798     0.912155     0.904512     0.896869     0.889226     0.881583     0.873940
      0.866296     0.858653     0.851010     0.843367     0.835724     0.828081     0.820438     0.812795     0.805152     0.797508
      0.789865     0.782222     0.774579     0.766936     0.759293     0.751650     0.744007     0.736364     0.728721     0.721077
      0.713434     0.705791     0.698148     0.690505     0.682862     0.675219     0.667576     0.659933     0.652290     0.644646
      0.637003     0.629360     0.621717     0.614074     0.606431     0.598788     0.591145     0.583502     0.575858     0.568215
      0.560572     0.552929     0.545286     0.537643     0.530000     0.522357     0.514714     0.507071     0.499427     0.491784
      0.484141     0.476498     0.468855     0.461212     0.453569     0.445925     0.438282     0.430639     0.422996     0.415353
      0.407710     0.400067     0.392424     0.384780     0.377137     0.369494     0.361851     0.354208     0.346565     0.338922
      0.331278     0.323635     0.315992     0.308349     0.300706     0.293063     0.285420     0.277777     0.270133     0.262490
      0.254847     0.247204     0.239561     0.231918     0.224275     0.216631     0.208988     0.201345
 NY phased data points follow
   1.14332E+01  4.30462E-02  5.62771E+00  4.44894E+00  1.14098E+01  4.15403E+00  1.32057E+01  7.56717E+00  9.23613E+00  1.42114E+01
   1.88507E+01  1.32187E+01  1.78250E+01  1.41153E+01  1.42755E+01  1.03122E+01  1.67389E+01  1.01519E+01  1.30230E+01  6.72974E+00
   9.03175E+00  6.40345E+00  1.01903E+01  3.03048E+00  4.61713E+00  7.24247E+00  1.09826E+01  1.09746E+01  9.63511E+00  4.00116E+00
   1.17634E+01  8.98610E+00  1.60621E+01  9.02967E+00  8.48407E+00  7.66879E+00  1.10013E+01  4.03749E+00  1.20282E+01  6.37001E+00
   1.26766E+01  6.89595E+00  1.15150E+01  7.80589E+00  1.27106E+01  9.21434E+00  1.41273E+01  8.72836E+00  1.63504E+01  8.96482E+00
   1.00468E+01  1.23562E+01  1.42813E+01  1.30761E+01  1.48463E+01  5.92253E+00  8.71278E+00  7.63121E+00  9.39021E+00  6.08973E+00
   1.23416E+01  5.49198E+00  5.97187E+00  3.97950E+00  6.13798E+00  5.12595E+00  7.25403E+00  3.61035E+00  2.85519E+00  3.16906E+00
   6.57673E+00  2.39156E+00  5.59719E+00  1.22770E+00  2.51965E+00  5.23797E+00  6.27286E+00  2.11731E+00  5.69759E+00  2.74470E+00
   4.52408E+00  4.80276E-01  8.07899E+00  5.29206E+00  6.38093E+00  1.99838E+00  4.06648E+00  1.73142E+00  6.72544E+00  6.84354E+00
   7.78171E+00  5.52850E+00  8.71159E+00  5.47960E+00  8.18438E+00  1.28086E+01  9.21210E+00  1.08045E+01  2.17557E+01  1.91415E+01
   2.21399E+01  2.47137E+01  2.84132E+01  2.88394E+01  3.07234E+01  2.24301E+01  2.19968E+01  1.85756E+01  2.03186E+01  1.52355E+01
   2.02052E+01  5.90988E+00  6.89832E+00  5.51505E+00  4.86184E+00  5.29387E+00  6.20506E+00  5.24495E+00  1.20910E+01  9.87053E+00
   1.50656E+01  1.31135E+01  1.98157E+01  2.23101E+01  3.14522E+01  3.02426E+01  3.96330E+01  3.90463E+01  3.84651E+01  3.49338E+01
   2.99000E+01  2.82966E+01  2.67890E+01  2.18415E+01  2.08370E+01  7.68859E+00  8.81273E+00  4.82469E+00  1.31459E+01  1.13755E+01
   1.08662E+01  5.78480E+00  9.42320E+00  2.07254E+00  1.23835E+01  2.17344E+00  7.58701E+00  6.23137E+00  5.12007E+00  3.66608E+00
   2.96678E+00  5.28276E+00  3.95886E+00  3.58729E+00  3.49784E+00  2.26669E+00  7.92646E-01  5.98868E+00  1.33814E+00  4.10310E+00
   5.09463E-01  8.29744E-01  3.41780E+00 -1.64774E+00  1.45688E+00  2.39223E+00 -2.24944E+00 -3.20753E+00 -5.37310E+00 -6.79091E+00
  -5.38377E+00 -4.59686E+00 -6.86139E+00 -7.65977E+00 -1.01659E+01 -1.29195E+01 -1.15205E+01 -1.10119E+01 -1.18064E+01 -1.03547E+01
  -9.06772E+00 -8.91350E+00 -6.98900E+00 -6.68377E+00 -5.04840E+00 -9.26245E+00 -5.50680E+00 -5.27564E+00 -3.46905E+00 -4.09386E+00
  -3.07225E+00 -4.87943E+00 -5.51773E+00 -8.46623E+00 -1.05022E+00 -6.37721E+00 -5.01304E+00 -7.46860E+00 -5.12869E+00 -5.32920E+00
  -4.34386E+00 -5.80660E-01 -4.64578E+00  7.18619E-01 -2.57361E+00 -2.70265E+00  1.60379E+00 -2.00115E+00 -4.94603E+00  1.43382E+00
   8.30322E-01 -4.80954E-01  3.46177E+00  3.63700E+00  8.54998E+00  2.57127E+00  5.83712E+00  5.08330E+00  2.69515E+00  4.29947E+00
   2.48701E+00  1.68376E+00  4.20517E+00 -2.59167E+00  4.02819E+00  2.87979E+00  5.31167E+00  4.33394E+00  7.73061E+00  4.37890E+00
   9.06096E+00  8.39620E+00  1.21570E+01  8.54616E+00  9.94302E+00  8.11108E+00  8.87725E+00  8.63032E+00  7.37092E+00  7.11893E+00
   1.12563E+01  5.21525E+00  1.11897E+01  1.00202E+01  1.56805E+01  1.38791E+01  1.31125E+01  1.56749E+01  1.47197E+01  2.13172E+01
   2.26954E+01  2.63091E+01  3.12742E+01  3.57542E+01  4.31633E+01  4.77408E+01  5.45577E+01  6.38300E+01  7.17622E+01  7.23724E+01
   7.69760E+01  6.97683E+01  6.06463E+01  5.42814E+01  4.42334E+01  4.13155E+01  3.88852E+01  2.59734E+01  1.69128E+01  3.30601E+00
   6.42355E+00  4.50612E+00  1.26151E+01  5.97069E+00  8.34616E+00  4.18380E+00  6.33943E+00  6.04534E+00  1.77991E+00  6.37642E+00
   5.16278E-01 -4.70146E+00 -7.76542E-01 -2.10210E+00  1.85600E-01 -4.71705E+00 -5.01910E+00 -9.23882E+00 -9.68626E+00 -6.40790E+00
  -7.25311E+00 -1.24987E+01 -1.20170E+01 -1.04288E+01 -7.80646E+00 -1.08380E+01 -9.31688E+00 -7.55636E+00 -9.44223E+00 -6.05766E+00
  -7.52207E+00 -5.91380E+00 -5.31909E+00 -7.32725E+00 -8.06891E+00 -8.56676E+00 -3.43879E+00 -1.31834E+00 -8.61259E-01 -1.07769E+00
  -3.01283E+00 -2.75194E+00 -1.29417E+00 -4.40178E-01 -1.50064E+00 -1.91939E+00  2.04111E+00  5.00393E+00  5.40402E+00  6.03373E+00
   1.01133E+01  9.54782E+00  9.14671E+00  1.08056E+01  1.80579E+01  1.45020E+01  1.72961E+01  2.14271E+01  1.93807E+01  2.15737E+01
   2.37616E+01  2.66252E+01  2.78898E+01  2.97457E+01  2.86431E+01  3.32310E+01  3.27078E+01  3.07535E+01  3.23806E+01  3.49902E+01
   3.41539E+01  3.09116E+01  3.24105E+01  3.17252E+01  3.10798E+01  2.96560E+01  2.51314E+01  2.84184E+01  2.64745E+01  2.45550E+01
   2.60500E+01  2.78721E+01  2.31094E+01  1.84667E+01  2.27783E+01  1.82754E+01  2.16527E+01  2.00190E+01  2.10967E+01  2.09837E+01
   2.06834E+01  1.68248E+01  2.02477E+01  1.90832E+01  1.95764E+01  1.23623E+01  1.64015E+01  1.58188E+01  1.45083E+01  1.56767E+01
   1.21271E+01  1.64116E+01  1.39562E+01  1.46378E+01  1.41655E+01  1.15148E+01  1.03598E+01  1.00516E+01  7.35958E+00  6.93945E+00
   1.01746E+01  9.75608E+00  1.29922E+01  1.31181E+01  1.30213E+01  1.09698E+01  7.88805E+00  8.36011E+00  8.10924E+00  1.06268E+01
   1.16589E+01  1.20509E+01  1.54595E+01  1.71136E+01  1.51000E+01  1.74167E+01  1.43939E+01  1.53625E+01  1.28815E+01  1.61874E+01
   1.56440E+01  1.70263E+01  1.74642E+01  1.84117E+01  2.08040E+01  1.66221E+01  1.83957E+01  1.52904E+01  1.76865E+01  1.91328E+01
   1.49198E+01  1.24187E+01  1.08932E+01  1.16693E+01  9.64769E+00  8.72770E+00  7.40842E+00  1.03110E+01  5.69038E+00  8.73694E+00
   1.05680E+01  6.14788E+00  6.48678E+00  8.18127E+00  8.31585E+00  7.03704E+00  7.38710E+00  5.10004E+00  7.90069E+00  4.98919E+00
   3.38118E+00  1.25496E+00  3.28049E+00  2.75571E+00  3.10729E+00  3.64007E-01  2.89393E+00  2.88235E+00  4.73208E-01  2.82484E+00
   4.19433E+00 -1.76574E-01  3.60269E+00  2.00929E+00  2.15345E+00 -5.73455E-01  3.26477E+00  3.29233E+00  8.95057E-01  3.43988E+00
   3.38426E+00  3.80815E+00  3.80830E+00  3.90424E+00  3.02540E+00  9.14309E-01 -3.31983E+00  4.94564E-01  4.10957E+00  1.65210E+00
   2.56247E-01  2.75754E+00  1.96659E+00  2.00020E+00  1.42908E+00  2.54406E+00 -4.74959E-01 -1.83687E+00  5.36134E-01  1.97319E+00
   2.65144E+00  4.10420E+00  2.31730E+00  5.46971E-01 -3.61484E+00 -9.94589E-01 -1.23066E+00 -8.89412E-01  2.63810E+00  3.23512E+00
   2.92638E+00  6.56732E-01 -5.83281E-01 -1.67493E+00  2.20822E+00  2.49432E+00 -3.56112E-02  2.89753E+00  1.42563E+00  2.84541E+00
   7.69095E-01  1.76938E+00  4.14172E+00 -2.35611E-01  1.10149E+00  1.95129E+00  1.85231E+00  5.30440E-01
 NY points of the fit to the data follow
   7.66474E+00  5.86517E+00  6.48112E+00  7.48299E+00  7.58875E+00  7.70276E+00  9.36297E+00  9.75244E+00  1.21518E+01  1.32051E+01
   1.48204E+01  1.64356E+01  1.62373E+01  1.54394E+01  1.37231E+01  1.21215E+01  1.30421E+01  1.25065E+01  1.24327E+01  8.85795E+00
   7.01650E+00  5.70622E+00  8.75568E+00  8.72794E+00  7.95484E+00  7.70290E+00  8.43065E+00  8.99980E+00  1.03148E+01  1.10884E+01
   1.23644E+01  1.23557E+01  1.23768E+01  1.12839E+01  1.07663E+01  1.06969E+01  1.04856E+01  9.66658E+00  8.74969E+00  7.96291E+00
   8.10671E+00  8.55264E+00  9.73798E+00  1.00228E+01  1.12919E+01  1.21562E+01  1.26687E+01  1.27443E+01  1.22138E+01  1.09494E+01
   9.61663E+00  8.71219E+00  8.55986E+00  8.26257E+00  7.51702E+00  6.04789E+00  5.32930E+00  5.57496E+00  6.76475E+00  7.08630E+00
   6.79187E+00  6.23390E+00  5.83985E+00  5.41658E+00  5.53056E+00  5.35022E+00  5.63976E+00  5.51551E+00  5.33586E+00  5.18722E+00
   5.45426E+00  5.75449E+00  5.93788E+00  5.89051E+00  5.74703E+00  5.34911E+00  5.36720E+00  4.68021E+00  5.10176E+00  4.75040E+00
   4.74461E+00  4.78053E+00  5.25645E+00  5.25026E+00  5.62644E+00  5.42918E+00  5.52345E+00  5.48575E+00  4.83924E+00  4.08996E+00
   3.71283E+00  3.93331E+00  5.56296E+00  4.53883E+00  6.77008E+00  8.00472E+00  1.00085E+01  1.23137E+01  1.69764E+01  1.92687E+01
   2.37212E+01  2.70265E+01  2.95636E+01  3.08837E+01  2.88067E+01  2.54243E+01  2.19297E+01  1.91822E+01  1.92711E+01  1.63876E+01
   1.29393E+01  6.21960E+00  3.25842E+00  2.89659E+00  5.46304E+00  6.08885E+00  5.67197E+00  4.37926E+00  8.22043E+00  1.08096E+01
   1.33176E+01  1.61883E+01  2.17577E+01  2.50219E+01  3.17293E+01  3.53536E+01  3.88431E+01  3.97698E+01  3.71425E+01  3.30053E+01
   2.88882E+01  2.58886E+01  2.60708E+01  2.18706E+01  1.73888E+01  8.54185E+00  5.73202E+00  5.24213E+00  8.79254E+00  8.12160E+00
   5.49278E+00  4.82456E+00  4.46040E+00  4.32846E+00  4.42476E+00  4.60090E+00  4.47954E+00  4.32247E+00  4.00211E+00  3.77061E+00
   3.27960E+00  3.31045E+00  2.97092E+00  2.88804E+00  2.74355E+00  2.37376E+00  2.20700E+00  1.93020E+00  1.43837E+00  1.07042E+00
   7.80217E-01  3.54431E-01  3.09886E-01  3.32302E-02 -2.47339E-01 -8.55406E-01 -1.70536E+00 -2.40484E+00 -3.09833E+00 -3.18773E+00
  -3.58192E+00 -4.26714E+00 -5.31300E+00 -6.17508E+00 -6.45989E+00 -6.55027E+00 -6.72126E+00 -6.73963E+00 -7.14361E+00 -7.20696E+00
  -7.28125E+00 -7.45791E+00 -7.33839E+00 -6.76419E+00 -6.27233E+00 -5.82066E+00 -5.78401E+00 -5.43249E+00 -4.41264E+00 -3.27384E+00
  -2.73141E+00 -2.68582E+00 -2.85088E+00 -2.81288E+00 -2.39561E+00 -2.10843E+00 -2.10342E+00 -2.24671E+00 -2.32189E+00 -2.16949E+00
  -1.38151E+00 -1.17391E+00 -9.00047E-01 -8.98323E-01 -1.13375E+00 -1.90889E+00 -2.04238E+00 -2.79309E+00 -2.96614E+00 -3.41890E+00
  -3.60942E+00 -2.97228E+00 -2.44126E+00 -1.61692E+00 -6.13750E-01 -2.21637E-01  7.00397E-01  6.62918E-01  5.88402E-01  2.76135E-01
  -9.66423E-03  1.50103E-01  5.84274E-01  9.66446E-01  1.25869E+00  2.03101E+00  3.48390E+00  4.28709E+00  5.02039E+00  5.40166E+00
   6.38245E+00  7.06789E+00  7.43408E+00  7.50012E+00  7.53736E+00  8.08899E+00  8.69018E+00  9.16696E+00  9.40440E+00  9.92635E+00
   1.02588E+01  1.06116E+01  1.11033E+01  1.18264E+01  1.29703E+01  1.40863E+01  1.49857E+01  1.60194E+01  1.76771E+01  2.20510E+01
   2.25417E+01  2.69029E+01  3.40190E+01  3.72389E+01  4.13278E+01  4.84271E+01  5.43439E+01  6.15155E+01  6.90735E+01  7.18419E+01
   7.47408E+01  6.99174E+01  6.20048E+01  5.34303E+01  4.58828E+01  4.41300E+01  3.95184E+01  3.10158E+01  1.85191E+01  8.45581E+00
   7.40061E+00  9.88993E+00  1.17740E+01  5.24131E+00  3.14058E+00  2.12544E+00  1.40522E+00  6.16103E-01  6.30042E-02 -4.47901E-01
  -9.08426E-01 -1.37173E+00 -1.79850E+00 -2.21368E+00 -2.53704E+00 -2.80745E+00 -3.05506E+00 -3.30025E+00 -3.50028E+00 -3.66576E+00
  -3.80826E+00 -3.95038E+00 -4.07012E+00 -4.17140E+00 -4.23648E+00 -4.30444E+00 -4.34591E+00 -4.38599E+00 -4.39672E+00 -4.40890E+00
  -4.39134E+00 -4.37258E+00 -4.32083E+00 -4.26581E+00 -4.17090E+00 -4.06536E+00 -3.91145E+00 -3.73660E+00 -3.50024E+00 -3.22566E+00
  -2.86955E+00 -2.45116E+00 -1.92438E+00 -1.30380E+00 -5.31962E-01  4.04549E-01  1.54424E+00  2.58353E+00  4.17283E+00  5.69046E+00
   7.21979E+00  8.94560E+00  1.08820E+01  1.26039E+01  1.47563E+01  1.63356E+01  1.79023E+01  1.95941E+01  2.08151E+01  2.21140E+01
   2.37781E+01  2.55071E+01  2.74963E+01  2.90494E+01  3.03302E+01  3.14857E+01  3.27540E+01  3.36368E+01  3.40584E+01  3.35612E+01
   3.30905E+01  3.28129E+01  3.21830E+01  3.09423E+01  2.94028E+01  2.81903E+01  2.73853E+01  2.68367E+01  2.58470E+01  2.49885E+01
   2.42931E+01  2.36888E+01  2.31847E+01  2.27355E+01  2.23533E+01  2.19918E+01  2.16620E+01  2.13184E+01  2.09746E+01  2.05897E+01
   2.01826E+01  1.97182E+01  1.92206E+01  1.86612E+01  1.80705E+01  1.74256E+01  1.67615E+01  1.60588E+01  1.53546E+01  1.46318E+01
   1.39290E+01  1.32300E+01  1.25723E+01  1.19386E+01  1.13648E+01  1.08325E+01  1.03763E+01  9.97579E+00  9.66311E+00  9.41574E+00
   9.26354E+00  9.18267E+00  9.20101E+00  9.29243E+00  9.48177E+00  9.74028E+00  1.00901E+01  1.05002E+01  1.09895E+01  1.15233E+01
   1.21166E+01  1.27317E+01  1.33810E+01  1.40245E+01  1.46724E+01  1.52835E+01  1.58669E+01  1.63827E+01  1.68421E+01  1.72082E+01
   1.74958E+01  1.76720E+01  1.77567E+01  1.77231E+01  1.75970E+01  1.73572E+01  1.70340E+01  1.66106E+01  1.61210E+01  1.55519E+01
   1.49392E+01  1.42704E+01  1.35810E+01  1.28581E+01  1.21359E+01  1.14003E+01  1.06833E+01  9.96817E+00  9.28429E+00  8.61272E+00
   7.98082E+00  7.36802E+00  6.79951E+00  6.25289E+00  5.75163E+00  5.27251E+00  4.83831E+00  4.42522E+00  4.05500E+00  3.70322E+00
   3.39117E+00  3.09464E+00  2.83494E+00  2.58785E+00  2.37420E+00  2.16975E+00  1.99544E+00  1.82762E+00  1.68741E+00  1.55118E+00
   1.43975E+00  1.32973E+00  1.24226E+00  1.15456E+00  1.08775E+00  1.01899E+00  9.69205E-01  9.15903E-01  8.80348E-01  8.40470E-01
   8.17326E-01  7.88730E-01  7.75613E-01  7.56235E-01  7.51789E-01  7.40746E-01  7.43951E-01  7.39787E-01  7.49088E-01  7.50706E-01
   7.65609E-01  7.72670E-01  7.92457E-01  8.03844E-01  8.27508E-01  8.42760E-01  8.70262E-01  8.89212E-01  9.19896E-01  9.41654E-01
   9.74949E-01  9.99484E-01  1.03554E+00  1.06265E+00  1.10081E+00  1.12982E+00  1.16989E+00  1.20103E+00  1.24316E+00  1.27610E+00
   1.31964E+00  1.35397E+00  1.39902E+00  1.43508E+00  1.48168E+00  1.51902E+00  1.56662E+00  1.60510E+00  1.65404E+00  1.69396E+00
   1.74409E+00  1.78496E+00  1.83592E+00  1.87789E+00  1.93012E+00  1.97338E+00  2.02661E+00  2.07074E+00
 NY background values follow
     3.116E+00    3.085E+00    3.054E+00    3.023E+00    2.992E+00    2.961E+00    2.930E+00    2.899E+00    2.868E+00    2.837E+00
     2.806E+00    2.776E+00    2.745E+00    2.714E+00    2.683E+00    2.652E+00    2.621E+00    2.590E+00    2.559E+00    2.528E+00
     2.497E+00    2.465E+00    2.434E+00    2.403E+00    2.372E+00    2.341E+00    2.309E+00    2.278E+00    2.246E+00    2.215E+00
     2.183E+00    2.152E+00    2.120E+00    2.088E+00    2.057E+00    2.025E+00    1.993E+00    1.961E+00    1.928E+00    1.896E+00
     1.864E+00    1.831E+00    1.799E+00    1.766E+00    1.734E+00    1.701E+00    1.668E+00    1.635E+00    1.602E+00    1.569E+00
     1.535E+00    1.502E+00    1.468E+00    1.434E+00    1.401E+00    1.367E+00    1.332E+00    1.298E+00    1.264E+00    1.229E+00
     1.195E+00    1.160E+00    1.125E+00    1.090E+00    1.055E+00    1.020E+00    9.842E-01    9.486E-01    9.129E-01    8.770E-01
     8.409E-01    8.047E-01    7.684E-01    7.319E-01    6.952E-01    6.584E-01    6.214E-01    5.843E-01    5.470E-01    5.095E-01
     4.719E-01    4.340E-01    3.961E-01    3.579E-01    3.196E-01    2.811E-01    2.424E-01    2.035E-01    1.645E-01    1.252E-01
     8.580E-02    4.619E-02    6.397E-03   -3.359E-02   -7.376E-02   -1.141E-01   -1.547E-01   -1.954E-01   -2.364E-01   -2.775E-01
    -3.188E-01   -3.603E-01   -4.020E-01   -4.439E-01   -4.860E-01   -5.283E-01   -5.708E-01   -6.135E-01   -6.563E-01   -6.994E-01
    -7.427E-01   -7.861E-01   -8.298E-01   -8.737E-01   -9.177E-01   -9.620E-01   -1.006E+00   -1.051E+00   -1.096E+00   -1.141E+00
    -1.186E+00   -1.232E+00   -1.277E+00   -1.323E+00   -1.369E+00   -1.416E+00   -1.462E+00   -1.509E+00   -1.556E+00   -1.603E+00
    -1.650E+00   -1.697E+00   -1.745E+00   -1.793E+00   -1.841E+00   -1.889E+00   -1.938E+00   -1.987E+00   -2.036E+00   -2.085E+00
    -2.134E+00   -2.183E+00   -2.233E+00   -2.283E+00   -2.333E+00   -2.383E+00   -2.433E+00   -2.483E+00   -2.534E+00   -2.584E+00
    -2.635E+00   -2.685E+00   -2.736E+00   -2.787E+00   -2.837E+00   -2.888E+00   -2.939E+00   -2.990E+00   -3.041E+00   -3.092E+00
    -3.142E+00   -3.193E+00   -3.244E+00   -3.295E+00   -3.346E+00   -3.396E+00   -3.447E+00   -3.497E+00   -3.548E+00   -3.598E+00
    -3.648E+00   -3.698E+00   -3.748E+00   -3.798E+00   -3.848E+00   -3.898E+00   -3.947E+00   -3.996E+00   -4.045E+00   -4.094E+00
    -4.143E+00   -4.192E+00   -4.240E+00   -4.288E+00   -4.336E+00   -4.383E+00   -4.431E+00   -4.478E+00   -4.525E+00   -4.572E+00
    -4.618E+00   -4.665E+00   -4.711E+00   -4.757E+00   -4.803E+00   -4.848E+00   -4.893E+00   -4.938E+00   -4.983E+00   -5.028E+00
    -5.072E+00   -5.116E+00   -5.160E+00   -5.204E+00   -5.248E+00   -5.291E+00   -5.334E+00   -5.377E+00   -5.420E+00   -5.462E+00
    -5.505E+00   -5.547E+00   -5.588E+00   -5.630E+00   -5.671E+00   -5.713E+00   -5.754E+00   -5.794E+00   -5.835E+00   -5.875E+00
    -5.915E+00   -5.955E+00   -5.995E+00   -6.034E+00   -6.073E+00   -6.112E+00   -6.151E+00   -6.189E+00   -6.228E+00   -6.266E+00
    -6.304E+00   -6.341E+00   -6.378E+00   -6.415E+00   -6.452E+00   -6.488E+00   -6.524E+00   -6.560E+00   -6.595E+00   -6.630E+00
    -6.665E+00   -6.699E+00   -6.733E+00   -6.766E+00   -6.799E+00   -6.832E+00   -6.864E+00   -6.896E+00   -6.927E+00   -6.957E+00
    -6.988E+00   -7.017E+00   -7.046E+00   -7.075E+00   -7.103E+00   -7.131E+00   -7.158E+00   -7.184E+00   -7.210E+00   -7.235E+00
    -7.260E+00   -7.284E+00   -7.308E+00   -7.330E+00   -7.352E+00   -7.374E+00   -7.395E+00   -7.415E+00   -7.434E+00   -7.453E+00
    -7.471E+00   -7.488E+00   -7.504E+00   -7.520E+00   -7.535E+00   -7.549E+00   -7.563E+00   -7.575E+00   -7.587E+00   -7.599E+00
    -7.609E+00   -7.619E+00   -7.628E+00   -7.636E+00   -7.643E+00   -7.650E+00   -7.656E+00   -7.661E+00   -7.665E+00   -7.669E+00
    -7.672E+00   -7.674E+00   -7.675E+00   -7.676E+00   -7.676E+00   -7.675E+00   -7.673E+00   -7.671E+00   -7.667E+00   -7.663E+00
    -7.659E+00   -7.653E+00   -7.647E+00   -7.640E+00   -7.632E+00   -7.623E+00   -7.614E+00   -7.604E+00   -7.593E+00   -7.581E+00
    -7.569E+00   -7.555E+00   -7.541E+00   -7.527E+00   -7.511E+00   -7.495E+00   -7.478E+00   -7.460E+00   -7.441E+00   -7.422E+00
    -7.402E+00   -7.381E+00   -7.359E+00   -7.337E+00   -7.314E+00   -7.290E+00   -7.265E+00   -7.240E+00   -7.214E+00   -7.188E+00
    -7.160E+00   -7.132E+00   -7.104E+00   -7.075E+00   -7.045E+00   -7.014E+00   -6.983E+00   -6.951E+00   -6.919E+00   -6.886E+00
    -6.852E+00   -6.818E+00   -6.783E+00   -6.748E+00   -6.712E+00   -6.676E+00   -6.639E+00   -6.601E+00   -6.563E+00   -6.524E+00
    -6.485E+00   -6.445E+00   -6.405E+00   -6.365E+00   -6.323E+00   -6.282E+00   -6.240E+00   -6.197E+00   -6.154E+00   -6.111E+00
    -6.067E+00   -6.022E+00   -5.978E+00   -5.932E+00   -5.887E+00   -5.841E+00   -5.794E+00   -5.748E+00   -5.700E+00   -5.653E+00
    -5.605E+00   -5.556E+00   -5.508E+00   -5.459E+00   -5.409E+00   -5.359E+00   -5.309E+00   -5.259E+00   -5.208E+00   -5.157E+00
    -5.105E+00   -5.054E+00   -5.001E+00   -4.949E+00   -4.896E+00   -4.843E+00   -4.790E+00   -4.736E+00   -4.683E+00   -4.628E+00
    -4.574E+00   -4.519E+00   -4.464E+00   -4.409E+00   -4.354E+00   -4.298E+00   -4.242E+00   -4.186E+00   -4.129E+00   -4.073E+00
    -4.016E+00   -3.959E+00   -3.902E+00   -3.844E+00   -3.787E+00   -3.729E+00   -3.671E+00   -3.612E+00   -3.554E+00   -3.496E+00
    -3.437E+00   -3.378E+00   -3.319E+00   -3.260E+00   -3.201E+00   -3.141E+00   -3.082E+00   -3.022E+00   -2.962E+00   -2.902E+00
    -2.842E+00   -2.782E+00   -2.722E+00   -2.662E+00   -2.601E+00   -2.541E+00   -2.480E+00   -2.420E+00   -2.359E+00   -2.298E+00
    -2.237E+00   -2.177E+00   -2.116E+00   -2.055E+00   -1.994E+00   -1.933E+00   -1.872E+00   -1.811E+00   -1.750E+00   -1.689E+00
    -1.628E+00   -1.567E+00   -1.506E+00   -1.445E+00   -1.384E+00   -1.323E+00   -1.262E+00   -1.201E+00   -1.140E+00   -1.079E+00
    -1.018E+00   -9.578E-01   -8.972E-01   -8.366E-01   -7.761E-01   -7.157E-01   -6.554E-01   -5.951E-01   -5.348E-01   -4.746E-01
    -4.145E-01   -3.545E-01   -2.944E-01   -2.345E-01   -1.746E-01   -1.147E-01   -5.487E-02    4.915E-03    6.465E-02    1.244E-01
     1.840E-01    2.436E-01    3.032E-01    3.628E-01    4.223E-01    4.818E-01    5.413E-01    6.007E-01    6.601E-01    7.195E-01
     7.789E-01    8.383E-01    8.976E-01    9.570E-01    1.016E+00    1.076E+00    1.135E+00    1.194E+00    1.253E+00    1.313E+00
     1.372E+00    1.431E+00    1.491E+00    1.550E+00    1.609E+00    1.668E+00    1.728E+00    1.787E+00
 Ala      Conc. = 3.57E+02
