 LCModel (Version 6.3-1L) Copyright: S.W. Provencher.          Ref.: Magn. Reson. Med. 30:672-679 (1993).                
 Slice#2 Row#4 Col#2  PD_24_press_2_raw_act
 36 lines in following concentration table = NCONC+1
    Conc.  %SD /Cr+PCr  Metabolite                                         
  223.045  84%   0.551 Ala                                                 
   44.889 247%   0.111 Asp                                                 
  404.473  21%   1.000 Cr                                                  
    0.000 999%   0.000 PCr                                                 
   52.282 129%   0.129 GABA                                                
   63.620 105%   0.157 Glc                                                 
   41.274 950%   0.102 Gln                                                 
  264.467 163%   0.654 Glu                                                 
    0.000 999%   0.000 GPC                                                 
  212.001  16%   0.524 PCh                                                 
  456.403  28%   1.128 GSH                                                 
  909.231  55%   2.248 Ins                                                 
    0.000 999%   0.000 Lac                                                 
  391.553  34%   0.968 NAA                                                 
  382.317  38%   0.945 NAAG                                                
   25.363  83% 6.3E-02 Scyllo                                              
   86.070 129%   0.213 Tau                                                 
  111.152 101%   0.275 -CrCH2                                              
  212.001  16%   0.524 GPC+PCh                                             
  773.870  17%   1.913 NAA+NAAG                                            
  404.473  21%   1.000 Cr+PCr                                              
  305.741 210%   0.756 Glu+Gln                                             
 2.50E+03  41%   6.191 Lip13a                                              
    0.000 999%   0.000 Lip13b                                              
    0.000 999%   0.000 Lip09                                               
 3.10E+03  19%   7.676 MM09                                                
  483.585  89%   1.196 Lip20                                               
 6.07E+03  15%  15.012 MM20                                                
 1.83E+03  31%   4.516 MM12                                                
 6.11E+03   5%  15.112 MM14                                                
    0.000 999%   0.000 MM17                                                
 2.50E+03  41%   6.191 Lip13a+Lip13b                                       
 1.04E+04  11%  25.819 MM14+Lip13a+Lip13b+MM12                             
 3.10E+03  19%   7.676 MM09+Lip09                                          
 6.56E+03  13%  16.208 MM20+Lip20                                          
   6 lines in following misc. output table
  FWHM = 0.069 ppm    S/N =   4                                            
  Data shift =-0.008 ppm                                                   
  Ph: -40 deg       4.2 deg/ppm                                            
  alphaB,S = 3.1E-01,   6.3E+01                                            
   14 spline knots.   Ns = 7(1)                                            
   2 inflections.     1 extrema                                            
  498 points on ppm-axis = NY
      4.000000     3.992357     3.984714     3.977070     3.969427     3.961784     3.954141     3.946497     3.938854     3.931211
      3.923568     3.915925     3.908281     3.900638     3.892995     3.885352     3.877708     3.870065     3.862422     3.854779
      3.847136     3.839492     3.831849     3.824206     3.816563     3.808919     3.801276     3.793633     3.785990     3.778347
      3.770703     3.763060     3.755417     3.747774     3.740130     3.732487     3.724844     3.717201     3.709558     3.701914
      3.694271     3.686628     3.678985     3.671341     3.663698     3.656055     3.648412     3.640769     3.633125     3.625482
      3.617839     3.610196     3.602552     3.594909     3.587266     3.579623     3.571980     3.564336     3.556693     3.549050
      3.541407     3.533763     3.526120     3.518477     3.510834     3.503191     3.495547     3.487904     3.480261     3.472618
      3.464974     3.457331     3.449688     3.442045     3.434402     3.426758     3.419115     3.411472     3.403829     3.396185
      3.388542     3.380899     3.373256     3.365613     3.357969     3.350326     3.342683     3.335040     3.327396     3.319753
      3.312110     3.304467     3.296824     3.289180     3.281537     3.273894     3.266251     3.258607     3.250964     3.243321
      3.235678     3.228034     3.220391     3.212748     3.205105     3.197462     3.189818     3.182175     3.174532     3.166889
      3.159245     3.151602     3.143959     3.136316     3.128673     3.121029     3.113386     3.105743     3.098100     3.090456
      3.082813     3.075170     3.067527     3.059884     3.052240     3.044597     3.036954     3.029311     3.021667     3.014024
      3.006381     2.998738     2.991095     2.983451     2.975808     2.968165     2.960522     2.952878     2.945235     2.937592
      2.929949     2.922306     2.914662     2.907019     2.899376     2.891733     2.884089     2.876446     2.868803     2.861160
      2.853517     2.845873     2.838230     2.830587     2.822944     2.815300     2.807657     2.800014     2.792371     2.784728
      2.777084     2.769441     2.761798     2.754155     2.746511     2.738868     2.731225     2.723582     2.715939     2.708295
      2.700652     2.693009     2.685366     2.677722     2.670079     2.662436     2.654793     2.647150     2.639506     2.631863
      2.624220     2.616577     2.608933     2.601290     2.593647     2.586004     2.578361     2.570717     2.563074     2.555431
      2.547788     2.540144     2.532501     2.524858     2.517215     2.509572     2.501928     2.494285     2.486642     2.478999
      2.471355     2.463712     2.456069     2.448426     2.440783     2.433139     2.425496     2.417853     2.410210     2.402566
      2.394923     2.387280     2.379637     2.371994     2.364350     2.356707     2.349064     2.341421     2.333777     2.326134
      2.318491     2.310848     2.303205     2.295561     2.287918     2.280275     2.272632     2.264988     2.257345     2.249702
      2.242059     2.234416     2.226772     2.219129     2.211486     2.203843     2.196199     2.188556     2.180913     2.173270
      2.165627     2.157983     2.150340     2.142697     2.135054     2.127410     2.119767     2.112124     2.104481     2.096838
      2.089194     2.081551     2.073908     2.066265     2.058621     2.050978     2.043335     2.035692     2.028049     2.020405
      2.012762     2.005119     1.997476     1.989833     1.982190     1.974546     1.966903     1.959260     1.951617     1.943974
      1.936331     1.928688     1.921045     1.913402     1.905759     1.898115     1.890472     1.882829     1.875186     1.867543
      1.859900     1.852257     1.844614     1.836971     1.829327     1.821684     1.814041     1.806398     1.798755     1.791112
      1.783469     1.775826     1.768183     1.760540     1.752896     1.745253     1.737610     1.729967     1.722324     1.714681
      1.707038     1.699395     1.691752     1.684108     1.676465     1.668822     1.661179     1.653536     1.645893     1.638250
      1.630607     1.622964     1.615321     1.607677     1.600034     1.592391     1.584748     1.577105     1.569462     1.561819
      1.554176     1.546533     1.538890     1.531246     1.523603     1.515960     1.508317     1.500674     1.493031     1.485388
      1.477745     1.470102     1.462458     1.454815     1.447172     1.439529     1.431886     1.424243     1.416600     1.408957
      1.401314     1.393671     1.386027     1.378384     1.370741     1.363098     1.355455     1.347812     1.340169     1.332526
      1.324883     1.317240     1.309596     1.301953     1.294310     1.286667     1.279024     1.271381     1.263738     1.256095
      1.248452     1.240808     1.233165     1.225522     1.217879     1.210236     1.202593     1.194950     1.187307     1.179664
      1.172021     1.164377     1.156734     1.149091     1.141448     1.133805     1.126162     1.118519     1.110876     1.103233
      1.095590     1.087946     1.080303     1.072660     1.065017     1.057374     1.049731     1.042088     1.034445     1.026802
      1.019158     1.011515     1.003872     0.996229     0.988586     0.980943     0.973300     0.965657     0.958014     0.950371
      0.942727     0.935084     0.927441     0.919798     0.912155     0.904512     0.896869     0.889226     0.881583     0.873940
      0.866296     0.858653     0.851010     0.843367     0.835724     0.828081     0.820438     0.812795     0.805152     0.797508
      0.789865     0.782222     0.774579     0.766936     0.759293     0.751650     0.744007     0.736364     0.728721     0.721077
      0.713434     0.705791     0.698148     0.690505     0.682862     0.675219     0.667576     0.659933     0.652290     0.644646
      0.637003     0.629360     0.621717     0.614074     0.606431     0.598788     0.591145     0.583502     0.575858     0.568215
      0.560572     0.552929     0.545286     0.537643     0.530000     0.522357     0.514714     0.507071     0.499427     0.491784
      0.484141     0.476498     0.468855     0.461212     0.453569     0.445925     0.438282     0.430639     0.422996     0.415353
      0.407710     0.400067     0.392424     0.384780     0.377137     0.369494     0.361851     0.354208     0.346565     0.338922
      0.331278     0.323635     0.315992     0.308349     0.300706     0.293063     0.285420     0.277777     0.270133     0.262490
      0.254847     0.247204     0.239561     0.231918     0.224275     0.216631     0.208988     0.201345
 NY phased data points follow
  -2.56917E+02 -2.56415E+02 -2.72002E+02 -2.44434E+02 -2.44588E+02 -2.36833E+02 -2.40781E+02 -2.27477E+02 -2.38069E+02 -2.21978E+02
  -2.27020E+02 -2.27371E+02 -2.20126E+02 -2.15630E+02 -2.23832E+02 -2.28658E+02 -2.30447E+02 -2.16309E+02 -2.22409E+02 -2.10902E+02
  -2.16462E+02 -2.08575E+02 -2.08588E+02 -2.02359E+02 -2.05504E+02 -1.97064E+02 -1.98015E+02 -1.89632E+02 -1.97318E+02 -1.90282E+02
  -1.89862E+02 -1.92597E+02 -1.91319E+02 -1.84389E+02 -1.92252E+02 -1.80134E+02 -1.90499E+02 -1.80100E+02 -1.87067E+02 -1.83027E+02
  -1.82827E+02 -1.76720E+02 -1.82259E+02 -1.68240E+02 -1.80381E+02 -1.72868E+02 -1.76648E+02 -1.77224E+02 -1.77618E+02 -1.66421E+02
  -1.63913E+02 -1.65880E+02 -1.73296E+02 -1.61860E+02 -1.64468E+02 -1.65400E+02 -1.69037E+02 -1.64086E+02 -1.60930E+02 -1.55488E+02
  -1.62993E+02 -1.56525E+02 -1.60619E+02 -1.55913E+02 -1.54659E+02 -1.52119E+02 -1.47385E+02 -1.50133E+02 -1.52178E+02 -1.45375E+02
  -1.53589E+02 -1.45101E+02 -1.46250E+02 -1.48196E+02 -1.48138E+02 -1.41133E+02 -1.44473E+02 -1.32823E+02 -1.45110E+02 -1.38747E+02
  -1.32654E+02 -1.37185E+02 -1.32894E+02 -1.40056E+02 -1.44777E+02 -1.31392E+02 -1.37941E+02 -1.36895E+02 -1.35840E+02 -1.33657E+02
  -1.33576E+02 -1.42595E+02 -1.24696E+02 -1.31949E+02 -1.27028E+02 -1.16419E+02 -1.20413E+02 -1.19611E+02 -1.21038E+02 -1.14954E+02
  -1.14877E+02 -1.13538E+02 -1.13718E+02 -1.12370E+02 -1.07043E+02 -1.07238E+02 -1.08846E+02 -1.12910E+02 -1.22695E+02 -1.29316E+02
  -1.31831E+02 -1.30062E+02 -1.18329E+02 -1.21788E+02 -1.21660E+02 -1.16191E+02 -1.20799E+02 -1.12382E+02 -1.19428E+02 -1.10211E+02
  -1.11414E+02 -1.09559E+02 -1.03599E+02 -1.05467E+02 -1.01516E+02 -1.02894E+02 -9.65904E+01 -1.01622E+02 -9.44187E+01 -9.47806E+01
  -1.06767E+02 -9.94940E+01 -9.76607E+01 -1.10836E+02 -1.17186E+02 -1.15920E+02 -1.16552E+02 -1.12589E+02 -9.98244E+01 -9.88852E+01
  -1.08554E+02 -1.00124E+02 -9.76597E+01 -9.64727E+01 -1.14721E+02 -1.06147E+02 -1.02114E+02 -9.37778E+01 -1.12327E+02 -9.77482E+01
  -9.89291E+01 -9.89883E+01 -1.03561E+02 -1.00648E+02 -9.82113E+01 -1.02767E+02 -9.82193E+01 -9.80235E+01 -1.05965E+02 -9.97832E+01
  -1.02011E+02 -9.33372E+01 -9.38900E+01 -9.64359E+01 -1.08431E+02 -9.96376E+01 -9.99193E+01 -1.01164E+02 -1.02962E+02 -9.94098E+01
  -9.89426E+01 -9.99730E+01 -9.37776E+01 -9.85237E+01 -1.03472E+02 -1.00673E+02 -9.63652E+01 -9.34969E+01 -9.49893E+01 -1.00585E+02
  -9.29994E+01 -9.40184E+01 -9.28119E+01 -9.17882E+01 -9.11914E+01 -9.29672E+01 -8.57447E+01 -9.21658E+01 -9.01092E+01 -9.04184E+01
  -8.22696E+01 -7.81728E+01 -8.51684E+01 -7.71159E+01 -8.44453E+01 -8.43977E+01 -8.14274E+01 -7.98348E+01 -8.66062E+01 -7.94294E+01
  -8.60878E+01 -8.07595E+01 -8.53846E+01 -7.87799E+01 -8.26647E+01 -8.53303E+01 -8.72728E+01 -7.31234E+01 -8.10196E+01 -6.58789E+01
  -8.09218E+01 -8.29024E+01 -8.19259E+01 -7.39757E+01 -8.14279E+01 -7.10105E+01 -6.96433E+01 -8.00588E+01 -7.16815E+01 -6.79170E+01
  -6.80573E+01 -6.77547E+01 -7.09464E+01 -7.65011E+01 -6.93806E+01 -6.67625E+01 -6.72817E+01 -6.07309E+01 -6.35827E+01 -5.91806E+01
  -6.00761E+01 -5.80612E+01 -5.62429E+01 -6.84234E+01 -6.81188E+01 -5.78063E+01 -6.10228E+01 -5.70666E+01 -5.70499E+01 -5.75723E+01
  -5.77644E+01 -5.64728E+01 -5.43044E+01 -5.24263E+01 -5.40137E+01 -6.28412E+01 -5.36156E+01 -5.21754E+01 -4.87758E+01 -4.75214E+01
  -3.88707E+01 -4.10505E+01 -4.87982E+01 -3.74021E+01 -3.48007E+01 -4.52924E+01 -4.12657E+01 -2.98227E+01 -3.48906E+01 -4.68010E+01
  -3.34473E+01 -4.33944E+01 -4.35447E+01 -5.24684E+01 -5.82049E+01 -6.39566E+01 -7.20428E+01 -7.78596E+01 -7.61916E+01 -7.35262E+01
  -6.49597E+01 -6.01932E+01 -7.47152E+01 -6.93491E+01 -6.32942E+01 -7.28018E+01 -7.76114E+01 -7.29327E+01 -7.55365E+01 -7.42513E+01
  -6.87883E+01 -6.66209E+01 -6.94299E+01 -6.99204E+01 -6.36099E+01 -6.72801E+01 -7.21793E+01 -7.10850E+01 -7.12550E+01 -7.49501E+01
  -6.97295E+01 -7.21147E+01 -7.60796E+01 -6.55511E+01 -7.98115E+01 -7.31684E+01 -7.52360E+01 -7.71199E+01 -7.98675E+01 -7.00154E+01
  -7.10978E+01 -7.95919E+01 -7.65991E+01 -7.66733E+01 -8.48966E+01 -9.14200E+01 -7.95175E+01 -8.97183E+01 -8.10756E+01 -7.90345E+01
  -8.60070E+01 -8.10754E+01 -8.53276E+01 -8.29515E+01 -7.65369E+01 -7.54456E+01 -6.90927E+01 -6.80143E+01 -7.00032E+01 -6.09763E+01
  -5.57424E+01 -4.78406E+01 -4.98870E+01 -3.77234E+01 -3.29369E+01 -3.47274E+01 -3.98026E+01 -2.73164E+01 -3.27688E+01 -3.05608E+01
  -2.66494E+01 -2.17159E+01 -2.30045E+01 -2.72602E+01 -2.41258E+01 -2.68163E+01 -2.98326E+01 -2.18440E+01 -2.44925E+01 -3.07637E+01
  -2.26885E+01 -2.58445E+01 -2.79706E+01 -3.45373E+01 -3.42365E+01 -3.10181E+01 -2.94407E+01 -3.29866E+01 -4.10726E+01 -3.98597E+01
  -3.68945E+01 -3.97506E+01 -4.68862E+01 -4.15038E+01 -4.91113E+01 -4.14915E+01 -4.32816E+01 -3.88988E+01 -4.41341E+01 -4.42618E+01
  -3.99088E+01 -3.90386E+01 -4.02399E+01 -3.79333E+01 -4.59988E+01 -3.64496E+01 -3.29331E+01 -3.67104E+01 -3.94033E+01 -2.98198E+01
  -4.54373E+01 -3.68857E+01 -3.78806E+01 -3.07299E+01 -4.15541E+01 -3.92924E+01 -3.34213E+01 -3.05101E+01 -3.13675E+01 -2.71395E+01
  -3.48641E+01 -2.93496E+01 -2.35982E+01 -2.85133E+01 -2.89818E+01 -3.18817E+01 -3.16600E+01 -3.49973E+01 -2.50804E+01 -3.22075E+01
  -3.12669E+01 -2.69699E+01 -3.50678E+01 -1.59806E+01 -2.82107E+01 -2.70136E+01 -2.18884E+01 -2.56152E+01 -2.30964E+01 -2.57005E+01
  -2.29385E+01 -2.62920E+01 -2.07898E+01 -1.93049E+01 -2.60065E+01 -2.62316E+01 -2.24489E+01 -1.93603E+01 -2.72010E+01 -2.83869E+01
  -2.75445E+01 -2.17969E+01 -3.10081E+01 -2.59632E+01 -3.06686E+01 -3.29395E+01 -3.44209E+01 -2.69006E+01 -2.78689E+01 -2.75671E+01
  -2.25799E+01 -3.03709E+01 -3.07052E+01 -2.87407E+01 -2.88948E+01 -3.04624E+01 -2.53229E+01 -2.54744E+01 -2.99288E+01 -3.33899E+01
  -3.15392E+01 -2.28650E+01 -3.63393E+01 -3.37815E+01 -3.10940E+01 -4.24048E+01 -3.11214E+01 -3.06546E+01 -2.47069E+01 -2.97550E+01
  -3.18224E+01 -3.05669E+01 -3.57811E+01 -2.19941E+01 -3.15852E+01 -2.56407E+01 -2.72399E+01 -2.64107E+01 -2.88564E+01 -3.42224E+01
  -3.34163E+01 -3.50662E+01 -3.80656E+01 -4.40617E+01 -3.51627E+01 -2.92486E+01 -3.33305E+01 -3.23517E+01 -3.17239E+01 -3.24104E+01
  -3.39398E+01 -3.04296E+01 -3.21043E+01 -3.11282E+01 -4.05143E+01 -3.67149E+01 -3.31544E+01 -3.46554E+01 -2.53348E+01 -3.29525E+01
  -3.04476E+01 -3.45574E+01 -2.65185E+01 -3.28622E+01 -2.85343E+01 -1.96704E+01 -2.80962E+01 -3.33073E+01 -3.13003E+01 -2.64118E+01
  -3.41316E+01 -2.78837E+01 -3.43671E+01 -2.71392E+01 -2.39032E+01 -2.49147E+01 -2.65791E+01 -2.28637E+01 -1.94483E+01 -2.62192E+01
  -2.60613E+01 -2.62104E+01 -2.34069E+01 -2.67605E+01 -2.85646E+01 -3.31859E+01 -2.59878E+01 -2.41306E+01
 NY points of the fit to the data follow
  -2.49327E+02 -2.47970E+02 -2.46702E+02 -2.45116E+02 -2.42627E+02 -2.39515E+02 -2.36475E+02 -2.33765E+02 -2.31422E+02 -2.29355E+02
  -2.27360E+02 -2.25321E+02 -2.23413E+02 -2.21974E+02 -2.21201E+02 -2.20982E+02 -2.20972E+02 -2.20624E+02 -2.19370E+02 -2.17328E+02
  -2.15258E+02 -2.13384E+02 -2.11218E+02 -2.08096E+02 -2.04532E+02 -2.01306E+02 -1.98574E+02 -1.96221E+02 -1.94161E+02 -1.92262E+02
  -1.90421E+02 -1.88904E+02 -1.88203E+02 -1.88412E+02 -1.89245E+02 -1.90180E+02 -1.90513E+02 -1.89707E+02 -1.88042E+02 -1.86359E+02
  -1.84502E+02 -1.82169E+02 -1.79705E+02 -1.77541E+02 -1.75725E+02 -1.74092E+02 -1.72602E+02 -1.71270E+02 -1.70116E+02 -1.69298E+02
  -1.68980E+02 -1.69087E+02 -1.69194E+02 -1.68808E+02 -1.67617E+02 -1.65679E+02 -1.63557E+02 -1.61772E+02 -1.60400E+02 -1.59254E+02
  -1.58175E+02 -1.57171E+02 -1.56276E+02 -1.55520E+02 -1.54871E+02 -1.54166E+02 -1.53275E+02 -1.52124E+02 -1.50765E+02 -1.49337E+02
  -1.48003E+02 -1.46869E+02 -1.45917E+02 -1.45116E+02 -1.44423E+02 -1.43778E+02 -1.43156E+02 -1.42545E+02 -1.41908E+02 -1.41133E+02
  -1.40331E+02 -1.39686E+02 -1.39174E+02 -1.38679E+02 -1.38154E+02 -1.37585E+02 -1.36979E+02 -1.36374E+02 -1.35807E+02 -1.35208E+02
  -1.34490E+02 -1.33621E+02 -1.32563E+02 -1.31356E+02 -1.30081E+02 -1.28558E+02 -1.25642E+02 -1.21578E+02 -1.17788E+02 -1.14818E+02
  -1.12689E+02 -1.11221E+02 -1.10089E+02 -1.09135E+02 -1.08748E+02 -1.09642E+02 -1.12091E+02 -1.15604E+02 -1.19235E+02 -1.21809E+02
  -1.22404E+02 -1.21256E+02 -1.19954E+02 -1.19135E+02 -1.18421E+02 -1.17716E+02 -1.16997E+02 -1.16238E+02 -1.15358E+02 -1.14104E+02
  -1.11748E+02 -1.08666E+02 -1.05794E+02 -1.03449E+02 -1.01624E+02 -1.00196E+02 -9.89140E+01 -9.77443E+01 -9.72244E+01 -9.79171E+01
  -9.99104E+01 -1.02767E+02 -1.05658E+02 -1.07659E+02 -1.08223E+02 -1.07641E+02 -1.07118E+02 -1.06937E+02 -1.06716E+02 -1.06237E+02
  -1.05410E+02 -1.04344E+02 -1.03373E+02 -1.02812E+02 -1.02676E+02 -1.02851E+02 -1.03157E+02 -1.03413E+02 -1.03534E+02 -1.03482E+02
  -1.03287E+02 -1.03049E+02 -1.02766E+02 -1.02482E+02 -1.02241E+02 -1.02013E+02 -1.01736E+02 -1.01380E+02 -1.00958E+02 -1.00540E+02
  -1.00192E+02 -9.99428E+01 -9.97734E+01 -9.96108E+01 -9.93502E+01 -9.89615E+01 -9.84946E+01 -9.80372E+01 -9.76854E+01 -9.74474E+01
  -9.72195E+01 -9.69034E+01 -9.64877E+01 -9.60319E+01 -9.56386E+01 -9.53403E+01 -9.51154E+01 -9.48579E+01 -9.45222E+01 -9.40947E+01
  -9.36154E+01 -9.31173E+01 -9.25816E+01 -9.19335E+01 -9.10694E+01 -8.99668E+01 -8.87972E+01 -8.77672E+01 -8.69361E+01 -8.62928E+01
  -8.58368E+01 -8.56070E+01 -8.54696E+01 -8.53943E+01 -8.54102E+01 -8.54685E+01 -8.54245E+01 -8.51328E+01 -8.45152E+01 -8.35633E+01
  -8.24043E+01 -8.12536E+01 -8.02886E+01 -7.96145E+01 -7.92650E+01 -7.91768E+01 -7.91683E+01 -7.90040E+01 -7.86797E+01 -7.81854E+01
  -7.75613E+01 -7.68638E+01 -7.61255E+01 -7.53968E+01 -7.47294E+01 -7.41867E+01 -7.37662E+01 -7.34029E+01 -7.30465E+01 -7.26900E+01
  -7.23155E+01 -7.18854E+01 -7.13183E+01 -7.05844E+01 -6.98073E+01 -6.91314E+01 -6.84782E+01 -6.77932E+01 -6.70937E+01 -6.64004E+01
  -6.56553E+01 -6.47782E+01 -6.38762E+01 -6.30469E+01 -6.22607E+01 -6.14900E+01 -6.07885E+01 -6.01949E+01 -5.97465E+01 -5.94283E+01
  -5.91419E+01 -5.87315E+01 -5.81090E+01 -5.72018E+01 -5.59832E+01 -5.45303E+01 -5.30657E+01 -5.18213E+01 -5.05897E+01 -4.86832E+01
  -4.65315E+01 -4.48016E+01 -4.34276E+01 -4.16084E+01 -3.91341E+01 -3.68471E+01 -3.52316E+01 -3.46838E+01 -3.55787E+01 -3.78350E+01
  -4.09293E+01 -4.43967E+01 -4.79365E+01 -5.12933E+01 -5.45522E+01 -5.81435E+01 -6.14971E+01 -6.37097E+01 -6.46401E+01 -6.51761E+01
  -6.59586E+01 -6.67822E+01 -6.75732E+01 -6.83312E+01 -6.90594E+01 -6.97673E+01 -7.04704E+01 -7.11714E+01 -7.18629E+01 -7.25141E+01
  -7.31055E+01 -7.36306E+01 -7.40890E+01 -7.44988E+01 -7.48845E+01 -7.52467E+01 -7.55765E+01 -7.58778E+01 -7.61584E+01 -7.64189E+01
  -7.66500E+01 -7.68478E+01 -7.70208E+01 -7.71706E+01 -7.72954E+01 -7.74055E+01 -7.75060E+01 -7.75975E+01 -7.76766E+01 -7.77308E+01
  -7.77466E+01 -7.77229E+01 -7.76576E+01 -7.75464E+01 -7.73861E+01 -7.71738E+01 -7.69044E+01 -7.65651E+01 -7.61341E+01 -7.55923E+01
  -7.49208E+01 -7.40981E+01 -7.31025E+01 -7.19118E+01 -7.05043E+01 -6.88593E+01 -6.69579E+01 -6.47831E+01 -6.23177E+01 -5.95315E+01
  -5.63519E+01 -5.28698E+01 -4.94413E+01 -4.61778E+01 -4.30645E+01 -4.00993E+01 -3.73075E+01 -3.47703E+01 -3.25276E+01 -3.04176E+01
  -2.84887E+01 -2.67950E+01 -2.52984E+01 -2.39499E+01 -2.27370E+01 -2.17447E+01 -2.11997E+01 -2.12537E+01 -2.18683E+01 -2.30834E+01
  -2.48772E+01 -2.71121E+01 -2.95101E+01 -3.17277E+01 -3.36277E+01 -3.53638E+01 -3.69461E+01 -3.83337E+01 -3.95041E+01 -4.04473E+01
  -4.11634E+01 -4.16608E+01 -4.19550E+01 -4.20668E+01 -4.20206E+01 -4.18434E+01 -4.15626E+01 -4.12054E+01 -4.07976E+01 -4.03626E+01
  -3.99212E+01 -3.94910E+01 -3.90861E+01 -3.87172E+01 -3.83912E+01 -3.81120E+01 -3.78804E+01 -3.76943E+01 -3.75494E+01 -3.74390E+01
  -3.73550E+01 -3.72877E+01 -3.72263E+01 -3.71598E+01 -3.70767E+01 -3.69657E+01 -3.68161E+01 -3.66177E+01 -3.63617E+01 -3.60406E+01
  -3.56487E+01 -3.51818E+01 -3.46383E+01 -3.40183E+01 -3.33246E+01 -3.25624E+01 -3.17392E+01 -3.08651E+01 -2.99520E+01 -2.90142E+01
  -2.80674E+01 -2.71287E+01 -2.62158E+01 -2.53464E+01 -2.45379E+01 -2.38065E+01 -2.31666E+01 -2.26304E+01 -2.22072E+01 -2.19034E+01
  -2.17217E+01 -2.16617E+01 -2.17198E+01 -2.18891E+01 -2.21603E+01 -2.25218E+01 -2.29606E+01 -2.34626E+01 -2.40133E+01 -2.45981E+01
  -2.52032E+01 -2.58157E+01 -2.64242E+01 -2.70188E+01 -2.75915E+01 -2.81356E+01 -2.86465E+01 -2.91208E+01 -2.95567E+01 -2.99533E+01
  -3.03111E+01 -3.06309E+01 -3.09145E+01 -3.11638E+01 -3.13812E+01 -3.15691E+01 -3.17299E+01 -3.18662E+01 -3.19803E+01 -3.20744E+01
  -3.21505E+01 -3.22105E+01 -3.22561E+01 -3.22889E+01 -3.23102E+01 -3.23213E+01 -3.23231E+01 -3.23167E+01 -3.23028E+01 -3.22822E+01
  -3.22554E+01 -3.22230E+01 -3.21856E+01 -3.21434E+01 -3.20968E+01 -3.20460E+01 -3.19915E+01 -3.19332E+01 -3.18715E+01 -3.18064E+01
  -3.17381E+01 -3.16666E+01 -3.15920E+01 -3.15144E+01 -3.14339E+01 -3.13507E+01 -3.12649E+01 -3.11765E+01 -3.10858E+01 -3.09927E+01
  -3.08975E+01 -3.08000E+01 -3.07005E+01 -3.05990E+01 -3.04955E+01 -3.03901E+01 -3.02828E+01 -3.01736E+01 -3.00626E+01 -2.99499E+01
  -2.98354E+01 -2.97192E+01 -2.96012E+01 -2.94816E+01 -2.93603E+01 -2.92373E+01 -2.91126E+01 -2.89863E+01 -2.88584E+01 -2.87288E+01
  -2.85975E+01 -2.84647E+01 -2.83302E+01 -2.81941E+01 -2.80563E+01 -2.79169E+01 -2.77758E+01 -2.76331E+01 -2.74887E+01 -2.73427E+01
  -2.71950E+01 -2.70456E+01 -2.68946E+01 -2.67418E+01 -2.65874E+01 -2.64313E+01 -2.62734E+01 -2.61138E+01
 NY background values follow
    -2.524E+02   -2.507E+02   -2.490E+02   -2.472E+02   -2.455E+02   -2.438E+02   -2.420E+02   -2.403E+02   -2.386E+02   -2.369E+02
    -2.351E+02   -2.334E+02   -2.317E+02   -2.300E+02   -2.283E+02   -2.266E+02   -2.250E+02   -2.233E+02   -2.216E+02   -2.199E+02
    -2.183E+02   -2.166E+02   -2.150E+02   -2.134E+02   -2.118E+02   -2.101E+02   -2.085E+02   -2.070E+02   -2.054E+02   -2.038E+02
    -2.023E+02   -2.007E+02   -1.992E+02   -1.977E+02   -1.962E+02   -1.947E+02   -1.932E+02   -1.917E+02   -1.903E+02   -1.889E+02
    -1.874E+02   -1.860E+02   -1.846E+02   -1.833E+02   -1.819E+02   -1.806E+02   -1.793E+02   -1.780E+02   -1.767E+02   -1.754E+02
    -1.742E+02   -1.729E+02   -1.717E+02   -1.705E+02   -1.693E+02   -1.682E+02   -1.670E+02   -1.659E+02   -1.648E+02   -1.637E+02
    -1.626E+02   -1.615E+02   -1.605E+02   -1.594E+02   -1.584E+02   -1.574E+02   -1.564E+02   -1.554E+02   -1.545E+02   -1.535E+02
    -1.526E+02   -1.517E+02   -1.507E+02   -1.498E+02   -1.490E+02   -1.481E+02   -1.472E+02   -1.464E+02   -1.456E+02   -1.447E+02
    -1.439E+02   -1.431E+02   -1.424E+02   -1.416E+02   -1.408E+02   -1.401E+02   -1.394E+02   -1.386E+02   -1.379E+02   -1.372E+02
    -1.365E+02   -1.359E+02   -1.352E+02   -1.345E+02   -1.339E+02   -1.333E+02   -1.326E+02   -1.320E+02   -1.314E+02   -1.308E+02
    -1.302E+02   -1.296E+02   -1.291E+02   -1.285E+02   -1.279E+02   -1.274E+02   -1.268E+02   -1.263E+02   -1.258E+02   -1.252E+02
    -1.247E+02   -1.242E+02   -1.237E+02   -1.232E+02   -1.227E+02   -1.222E+02   -1.217E+02   -1.213E+02   -1.208E+02   -1.203E+02
    -1.199E+02   -1.194E+02   -1.189E+02   -1.185E+02   -1.180E+02   -1.176E+02   -1.171E+02   -1.167E+02   -1.162E+02   -1.158E+02
    -1.154E+02   -1.149E+02   -1.145E+02   -1.140E+02   -1.136E+02   -1.132E+02   -1.127E+02   -1.123E+02   -1.119E+02   -1.114E+02
    -1.110E+02   -1.106E+02   -1.101E+02   -1.097E+02   -1.093E+02   -1.088E+02   -1.084E+02   -1.080E+02   -1.075E+02   -1.071E+02
    -1.067E+02   -1.062E+02   -1.058E+02   -1.053E+02   -1.049E+02   -1.045E+02   -1.040E+02   -1.036E+02   -1.032E+02   -1.028E+02
    -1.023E+02   -1.019E+02   -1.015E+02   -1.010E+02   -1.006E+02   -1.002E+02   -9.973E+01   -9.930E+01   -9.887E+01   -9.844E+01
    -9.801E+01   -9.758E+01   -9.715E+01   -9.673E+01   -9.630E+01   -9.587E+01   -9.544E+01   -9.502E+01   -9.459E+01   -9.416E+01
    -9.374E+01   -9.331E+01   -9.289E+01   -9.246E+01   -9.204E+01   -9.162E+01   -9.120E+01   -9.078E+01   -9.036E+01   -8.995E+01
    -8.954E+01   -8.913E+01   -8.872E+01   -8.832E+01   -8.792E+01   -8.752E+01   -8.713E+01   -8.674E+01   -8.636E+01   -8.598E+01
    -8.561E+01   -8.524E+01   -8.487E+01   -8.452E+01   -8.416E+01   -8.382E+01   -8.348E+01   -8.314E+01   -8.282E+01   -8.250E+01
    -8.218E+01   -8.188E+01   -8.158E+01   -8.129E+01   -8.101E+01   -8.074E+01   -8.048E+01   -8.022E+01   -7.998E+01   -7.974E+01
    -7.951E+01   -7.930E+01   -7.909E+01   -7.890E+01   -7.871E+01   -7.854E+01   -7.837E+01   -7.822E+01   -7.808E+01   -7.795E+01
    -7.783E+01   -7.772E+01   -7.762E+01   -7.753E+01   -7.745E+01   -7.738E+01   -7.732E+01   -7.727E+01   -7.723E+01   -7.719E+01
    -7.716E+01   -7.714E+01   -7.713E+01   -7.712E+01   -7.713E+01   -7.713E+01   -7.715E+01   -7.717E+01   -7.720E+01   -7.723E+01
    -7.726E+01   -7.731E+01   -7.735E+01   -7.741E+01   -7.746E+01   -7.752E+01   -7.759E+01   -7.766E+01   -7.773E+01   -7.780E+01
    -7.788E+01   -7.796E+01   -7.804E+01   -7.812E+01   -7.821E+01   -7.829E+01   -7.838E+01   -7.847E+01   -7.856E+01   -7.865E+01
    -7.874E+01   -7.883E+01   -7.892E+01   -7.901E+01   -7.910E+01   -7.918E+01   -7.927E+01   -7.935E+01   -7.943E+01   -7.951E+01
    -7.959E+01   -7.966E+01   -7.973E+01   -7.980E+01   -7.986E+01   -7.992E+01   -7.998E+01   -8.003E+01   -8.007E+01   -8.011E+01
    -8.015E+01   -8.018E+01   -8.020E+01   -8.021E+01   -8.022E+01   -8.023E+01   -8.022E+01   -8.021E+01   -8.019E+01   -8.016E+01
    -8.013E+01   -8.008E+01   -8.003E+01   -7.997E+01   -7.990E+01   -7.982E+01   -7.972E+01   -7.962E+01   -7.951E+01   -7.939E+01
    -7.925E+01   -7.911E+01   -7.895E+01   -7.878E+01   -7.860E+01   -7.840E+01   -7.820E+01   -7.798E+01   -7.774E+01   -7.750E+01
    -7.724E+01   -7.697E+01   -7.669E+01   -7.639E+01   -7.609E+01   -7.578E+01   -7.545E+01   -7.512E+01   -7.477E+01   -7.442E+01
    -7.406E+01   -7.369E+01   -7.331E+01   -7.292E+01   -7.253E+01   -7.213E+01   -7.172E+01   -7.130E+01   -7.088E+01   -7.046E+01
    -7.002E+01   -6.959E+01   -6.914E+01   -6.870E+01   -6.825E+01   -6.779E+01   -6.733E+01   -6.687E+01   -6.641E+01   -6.594E+01
    -6.547E+01   -6.500E+01   -6.453E+01   -6.405E+01   -6.358E+01   -6.310E+01   -6.263E+01   -6.215E+01   -6.168E+01   -6.121E+01
    -6.074E+01   -6.026E+01   -5.980E+01   -5.933E+01   -5.887E+01   -5.840E+01   -5.794E+01   -5.749E+01   -5.703E+01   -5.658E+01
    -5.613E+01   -5.568E+01   -5.524E+01   -5.480E+01   -5.436E+01   -5.393E+01   -5.350E+01   -5.307E+01   -5.265E+01   -5.223E+01
    -5.182E+01   -5.141E+01   -5.100E+01   -5.059E+01   -5.020E+01   -4.980E+01   -4.941E+01   -4.902E+01   -4.864E+01   -4.827E+01
    -4.790E+01   -4.753E+01   -4.717E+01   -4.681E+01   -4.646E+01   -4.611E+01   -4.577E+01   -4.544E+01   -4.511E+01   -4.479E+01
    -4.447E+01   -4.416E+01   -4.385E+01   -4.355E+01   -4.326E+01   -4.297E+01   -4.269E+01   -4.242E+01   -4.215E+01   -4.189E+01
    -4.163E+01   -4.139E+01   -4.114E+01   -4.091E+01   -4.067E+01   -4.045E+01   -4.023E+01   -4.001E+01   -3.980E+01   -3.960E+01
    -3.940E+01   -3.920E+01   -3.901E+01   -3.882E+01   -3.864E+01   -3.846E+01   -3.828E+01   -3.811E+01   -3.794E+01   -3.778E+01
    -3.761E+01   -3.745E+01   -3.730E+01   -3.714E+01   -3.699E+01   -3.684E+01   -3.670E+01   -3.655E+01   -3.641E+01   -3.627E+01
    -3.613E+01   -3.599E+01   -3.586E+01   -3.572E+01   -3.559E+01   -3.545E+01   -3.532E+01   -3.519E+01   -3.505E+01   -3.492E+01
    -3.479E+01   -3.466E+01   -3.453E+01   -3.439E+01   -3.426E+01   -3.413E+01   -3.399E+01   -3.386E+01   -3.373E+01   -3.359E+01
    -3.346E+01   -3.332E+01   -3.318E+01   -3.304E+01   -3.291E+01   -3.277E+01   -3.263E+01   -3.249E+01   -3.235E+01   -3.220E+01
    -3.206E+01   -3.192E+01   -3.177E+01   -3.163E+01   -3.148E+01   -3.133E+01   -3.119E+01   -3.104E+01   -3.089E+01   -3.074E+01
    -3.058E+01   -3.043E+01   -3.027E+01   -3.012E+01   -2.996E+01   -2.980E+01   -2.965E+01   -2.948E+01   -2.932E+01   -2.916E+01
    -2.900E+01   -2.883E+01   -2.866E+01   -2.849E+01   -2.832E+01   -2.815E+01   -2.798E+01   -2.781E+01
 Ala      Conc. = 2.23E+02
