 LCModel (Version 6.3-1L) Copyright: S.W. Provencher.          Ref.: Magn. Reson. Med. 30:672-679 (1993).                
 Slice#1 Row#10 Col#2  PD_24_press_2_raw_act
 36 lines in following concentration table = NCONC+1
    Conc.  %SD /Cr+PCr  Metabolite                                         
    0.000 999%   0.000 Ala                                                 
 4.74E+04   5%  35.745+Asp                                                 
 1.33E+03  34%   1.000 Cr                                                  
    0.000 999%   0.000 PCr                                                 
 1.06E+03 239%   0.797 GABA                                                
    0.000 999%   0.000 Glc                                                 
 3.64E+03  99%   2.745 Gln                                                 
    0.000 999%   0.000 Glu                                                 
 1.23E+03  15%   0.929 GPC                                                 
    0.000 999%   0.000 PCh                                                 
    0.000 999%   0.000 GSH                                                 
 1.65E+04  13%  12.422 Ins                                                 
    0.000 999%   0.000 Lac                                                 
 3.84E+04   7%  28.919 NAA                                                 
 3.58E+04   7%  26.981 NAAG                                                
 1.01E+03  28%   0.764 Scyllo                                              
 1.67E+04  11%  12.607+Tau                                                 
  143.211  78%   0.108 -CrCH2                                              
 1.23E+03  15%   0.929 GPC+PCh                                             
 7.42E+04   2%  55.899 NAA+NAAG                                            
 1.33E+03  34%   1.000 Cr+PCr                                              
 3.64E+03  99%   2.745 Glu+Gln                                             
 1.90E+04  35%  14.330 Lip13a                                              
    0.000 999%   0.000 Lip13b                                              
 5.55E+03  32%   4.186 Lip09                                               
 8.78E+03  18%   6.619 MM09                                                
 2.84E+03  37%   2.139 Lip20                                               
 1.32E+04  18%   9.941 MM20                                                
 2.63E+03  19%   1.986 MM12                                                
 6.47E+03  19%   4.874 MM14                                                
 3.32E+03  19%   2.501 MM17                                                
 1.90E+04  35%  14.330 Lip13a+Lip13b                                       
 2.81E+04  23%  21.189 MM14+Lip13a+Lip13b+MM12                             
 1.43E+04  15%  10.805 MM09+Lip09                                          
 1.60E+04  16%  12.080 MM20+Lip20                                          
   6 lines in following misc. output table
  FWHM = 0.168 ppm    S/N =  41                                            
  Data shift = 0.428 ppm                                                   
  Ph: 168 deg     189.6 deg/ppm                                            
  alphaB,S = 1.1E+00,   6.4E+02                                            
   10 spline knots.   Ns = 9(2)                                            
  ( 9) 2 infls.   ( 1) 1 extrs.                                            
  498 points on ppm-axis = NY
      4.000000     3.992357     3.984714     3.977070     3.969427     3.961784     3.954141     3.946497     3.938854     3.931211
      3.923568     3.915925     3.908281     3.900638     3.892995     3.885352     3.877708     3.870065     3.862422     3.854779
      3.847136     3.839492     3.831849     3.824206     3.816563     3.808919     3.801276     3.793633     3.785990     3.778347
      3.770703     3.763060     3.755417     3.747774     3.740130     3.732487     3.724844     3.717201     3.709558     3.701914
      3.694271     3.686628     3.678985     3.671341     3.663698     3.656055     3.648412     3.640769     3.633125     3.625482
      3.617839     3.610196     3.602552     3.594909     3.587266     3.579623     3.571980     3.564336     3.556693     3.549050
      3.541407     3.533763     3.526120     3.518477     3.510834     3.503191     3.495547     3.487904     3.480261     3.472618
      3.464974     3.457331     3.449688     3.442045     3.434402     3.426758     3.419115     3.411472     3.403829     3.396185
      3.388542     3.380899     3.373256     3.365613     3.357969     3.350326     3.342683     3.335040     3.327396     3.319753
      3.312110     3.304467     3.296824     3.289180     3.281537     3.273894     3.266251     3.258607     3.250964     3.243321
      3.235678     3.228034     3.220391     3.212748     3.205105     3.197462     3.189818     3.182175     3.174532     3.166889
      3.159245     3.151602     3.143959     3.136316     3.128673     3.121029     3.113386     3.105743     3.098100     3.090456
      3.082813     3.075170     3.067527     3.059884     3.052240     3.044597     3.036954     3.029311     3.021667     3.014024
      3.006381     2.998738     2.991095     2.983451     2.975808     2.968165     2.960522     2.952878     2.945235     2.937592
      2.929949     2.922306     2.914662     2.907019     2.899376     2.891733     2.884089     2.876446     2.868803     2.861160
      2.853517     2.845873     2.838230     2.830587     2.822944     2.815300     2.807657     2.800014     2.792371     2.784728
      2.777084     2.769441     2.761798     2.754155     2.746511     2.738868     2.731225     2.723582     2.715939     2.708295
      2.700652     2.693009     2.685366     2.677722     2.670079     2.662436     2.654793     2.647150     2.639506     2.631863
      2.624220     2.616577     2.608933     2.601290     2.593647     2.586004     2.578361     2.570717     2.563074     2.555431
      2.547788     2.540144     2.532501     2.524858     2.517215     2.509572     2.501928     2.494285     2.486642     2.478999
      2.471355     2.463712     2.456069     2.448426     2.440783     2.433139     2.425496     2.417853     2.410210     2.402566
      2.394923     2.387280     2.379637     2.371994     2.364350     2.356707     2.349064     2.341421     2.333777     2.326134
      2.318491     2.310848     2.303205     2.295561     2.287918     2.280275     2.272632     2.264988     2.257345     2.249702
      2.242059     2.234416     2.226772     2.219129     2.211486     2.203843     2.196199     2.188556     2.180913     2.173270
      2.165627     2.157983     2.150340     2.142697     2.135054     2.127410     2.119767     2.112124     2.104481     2.096838
      2.089194     2.081551     2.073908     2.066265     2.058621     2.050978     2.043335     2.035692     2.028049     2.020405
      2.012762     2.005119     1.997476     1.989833     1.982190     1.974546     1.966903     1.959260     1.951617     1.943974
      1.936331     1.928688     1.921045     1.913402     1.905759     1.898115     1.890472     1.882829     1.875186     1.867543
      1.859900     1.852257     1.844614     1.836971     1.829327     1.821684     1.814041     1.806398     1.798755     1.791112
      1.783469     1.775826     1.768183     1.760540     1.752896     1.745253     1.737610     1.729967     1.722324     1.714681
      1.707038     1.699395     1.691752     1.684108     1.676465     1.668822     1.661179     1.653536     1.645893     1.638250
      1.630607     1.622964     1.615321     1.607677     1.600034     1.592391     1.584748     1.577105     1.569462     1.561819
      1.554176     1.546533     1.538890     1.531246     1.523603     1.515960     1.508317     1.500674     1.493031     1.485388
      1.477745     1.470102     1.462458     1.454815     1.447172     1.439529     1.431886     1.424243     1.416600     1.408957
      1.401314     1.393671     1.386027     1.378384     1.370741     1.363098     1.355455     1.347812     1.340169     1.332526
      1.324883     1.317240     1.309596     1.301953     1.294310     1.286667     1.279024     1.271381     1.263738     1.256095
      1.248452     1.240808     1.233165     1.225522     1.217879     1.210236     1.202593     1.194950     1.187307     1.179664
      1.172021     1.164377     1.156734     1.149091     1.141448     1.133805     1.126162     1.118519     1.110876     1.103233
      1.095590     1.087946     1.080303     1.072660     1.065017     1.057374     1.049731     1.042088     1.034445     1.026802
      1.019158     1.011515     1.003872     0.996229     0.988586     0.980943     0.973300     0.965657     0.958014     0.950371
      0.942727     0.935084     0.927441     0.919798     0.912155     0.904512     0.896869     0.889226     0.881583     0.873940
      0.866296     0.858653     0.851010     0.843367     0.835724     0.828081     0.820438     0.812795     0.805152     0.797508
      0.789865     0.782222     0.774579     0.766936     0.759293     0.751650     0.744007     0.736364     0.728721     0.721077
      0.713434     0.705791     0.698148     0.690505     0.682862     0.675219     0.667576     0.659933     0.652290     0.644646
      0.637003     0.629360     0.621717     0.614074     0.606431     0.598788     0.591145     0.583502     0.575858     0.568215
      0.560572     0.552929     0.545286     0.537643     0.530000     0.522357     0.514714     0.507071     0.499427     0.491784
      0.484141     0.476498     0.468855     0.461212     0.453569     0.445925     0.438282     0.430639     0.422996     0.415353
      0.407710     0.400067     0.392424     0.384780     0.377137     0.369494     0.361851     0.354208     0.346565     0.338922
      0.331278     0.323635     0.315992     0.308349     0.300706     0.293063     0.285420     0.277777     0.270133     0.262490
      0.254847     0.247204     0.239561     0.231918     0.224275     0.216631     0.208988     0.201345
 NY phased data points follow
  -1.59926E+00 -7.73986E+00 -4.85305E+00 -4.43211E+00 -3.66955E+00 -4.06104E+00 -4.95308E+00 -5.60653E+00 -6.72052E+00 -3.34606E+00
  -6.55178E+00 -2.50250E+00 -3.14406E+00 -4.58156E+00 -1.82960E+00 -1.47491E+00 -1.88829E+00 -2.89681E+00  4.97899E-01 -7.31402E+00
   7.07579E-01 -4.78734E+00 -4.53363E-01 -2.74106E+00 -3.51583E+00  1.34274E+00  8.19807E-01  1.61332E-01  6.85730E-01  1.37467E+00
   2.55660E+00  1.05644E+00  3.04127E+00  3.29422E+00  2.83909E+00  4.94367E+00  1.22655E+00  6.04199E+00  6.84107E+00  6.13315E+00
   5.47988E+00  3.41329E+00  5.76582E+00  3.99826E+00  5.14717E+00  3.11426E+00  1.72349E+00  5.61896E+00  5.52350E+00  3.30190E+00
   2.45723E+00  2.69356E+00  5.11687E+00  6.92239E-01  4.78053E+00  6.68948E+00  2.99211E+00  7.79571E-01  3.60008E-01  2.33103E+00
   1.78698E+00 -5.85027E+00 -1.22821E+00 -2.53116E+00 -8.95117E+00 -1.02869E+01 -1.06275E+01 -1.19980E+01 -1.34997E+01 -1.70617E+01
  -1.75286E+01 -1.61773E+01 -1.77932E+01 -2.24109E+01 -2.54725E+01 -2.95651E+01 -2.97171E+01 -3.24017E+01 -2.76161E+01 -3.02077E+01
  -2.91826E+01 -3.00653E+01 -3.00058E+01 -3.19182E+01 -3.57473E+01 -3.34792E+01 -3.45144E+01 -3.12478E+01 -3.30048E+01 -3.39847E+01
  -3.31183E+01 -3.29745E+01 -3.10400E+01 -3.23211E+01 -3.11496E+01 -3.41837E+01 -3.44344E+01 -3.49795E+01 -3.62568E+01 -3.32485E+01
  -3.55274E+01 -3.63054E+01 -3.91842E+01 -3.73514E+01 -3.64262E+01 -3.74148E+01 -4.13164E+01 -4.13701E+01 -4.00423E+01 -4.22230E+01
  -4.52267E+01 -4.44603E+01 -4.98274E+01 -5.34712E+01 -5.28717E+01 -5.34652E+01 -5.77775E+01 -5.74924E+01 -6.03498E+01 -6.39814E+01
  -6.71701E+01 -6.90212E+01 -7.48162E+01 -7.68527E+01 -7.97449E+01 -8.28652E+01 -8.73739E+01 -8.83334E+01 -9.16741E+01 -9.57563E+01
  -9.70967E+01 -1.00989E+02 -1.06468E+02 -1.05796E+02 -1.10218E+02 -1.11873E+02 -1.15917E+02 -1.21711E+02 -1.23324E+02 -1.23926E+02
  -1.27579E+02 -1.28617E+02 -1.29499E+02 -1.31806E+02 -1.32501E+02 -1.35240E+02 -1.35327E+02 -1.34403E+02 -1.34704E+02 -1.39218E+02
  -1.34764E+02 -1.39449E+02 -1.38180E+02 -1.40871E+02 -1.37516E+02 -1.37414E+02 -1.35346E+02 -1.33650E+02 -1.32348E+02 -1.29537E+02
  -1.26178E+02 -1.23539E+02 -1.18774E+02 -1.13755E+02 -1.06527E+02 -1.05070E+02 -9.83469E+01 -9.07481E+01 -8.65389E+01 -7.83184E+01
  -7.00519E+01 -6.50786E+01 -6.10891E+01 -5.21663E+01 -4.72966E+01 -4.06617E+01 -3.58951E+01 -3.01285E+01 -2.73013E+01 -1.92177E+01
  -1.55022E+01 -1.07225E+01 -8.89541E+00 -6.61074E+00 -1.89987E+00 -2.10846E+00  1.22204E+00  6.91969E+00  2.66976E+00  5.89832E+00
   5.94978E+00  7.69883E+00  4.80541E+00  5.03453E+00  4.76912E+00  3.58377E+00  4.30278E+00  6.66441E+00  7.27055E+00  9.21627E+00
   9.23732E+00  1.19247E+01  1.09900E+01  1.07529E+01  1.13480E+01  8.38711E+00  3.13496E+00  2.45582E+00  8.45164E+00  7.73215E+00
   6.36983E+00  6.51232E+00  4.05885E+00  1.08981E-01 -1.27160E+00  2.92451E+00  5.02422E+00  7.78075E+00  2.34119E+00  3.49726E+00
   1.48049E+00  4.75823E-02  3.58854E+00  3.94462E+00  3.59677E+00  6.88553E+00  4.28502E+00  3.91737E+00  6.63077E+00  1.17114E+01
   1.22468E+01  1.44685E+01  2.12549E+01  2.66383E+01  3.08686E+01  3.77408E+01  4.95069E+01  5.80487E+01  7.15511E+01  8.18948E+01
   1.03023E+02  1.20520E+02  1.41332E+02  1.65940E+02  1.91588E+02  2.20437E+02  2.55418E+02  2.89390E+02  3.23669E+02  3.63685E+02
   4.04171E+02  4.45969E+02  4.89241E+02  5.24332E+02  5.62968E+02  6.01120E+02  6.30021E+02  6.60321E+02  6.79752E+02  6.92583E+02
   6.98961E+02  6.99928E+02  6.92203E+02  6.80883E+02  6.62256E+02  6.33610E+02  5.96277E+02  5.61169E+02  5.17486E+02  4.71806E+02
   4.23382E+02  3.65629E+02  3.11402E+02  2.61427E+02  2.09410E+02  1.55202E+02  1.07566E+02  7.09225E+01  2.76323E+01 -6.87301E+00
  -3.80857E+01 -6.28291E+01 -8.66371E+01 -1.04907E+02 -1.22427E+02 -1.39778E+02 -1.48904E+02 -1.58449E+02 -1.67293E+02 -1.70519E+02
  -1.76493E+02 -1.77981E+02 -1.84999E+02 -1.87225E+02 -1.88053E+02 -1.89197E+02 -1.90729E+02 -1.87351E+02 -1.89890E+02 -1.90503E+02
  -1.88594E+02 -1.87733E+02 -1.83676E+02 -1.79452E+02 -1.81819E+02 -1.74322E+02 -1.73876E+02 -1.69459E+02 -1.67404E+02 -1.64714E+02
  -1.64142E+02 -1.58828E+02 -1.55300E+02 -1.59771E+02 -1.50703E+02 -1.49892E+02 -1.47250E+02 -1.47008E+02 -1.47691E+02 -1.42014E+02
  -1.43319E+02 -1.40300E+02 -1.41469E+02 -1.42322E+02 -1.39819E+02 -1.39172E+02 -1.40811E+02 -1.41871E+02 -1.41762E+02 -1.42566E+02
  -1.43755E+02 -1.43273E+02 -1.45351E+02 -1.42913E+02 -1.41151E+02 -1.42968E+02 -1.44150E+02 -1.41748E+02 -1.44744E+02 -1.45217E+02
  -1.43012E+02 -1.44480E+02 -1.43670E+02 -1.42042E+02 -1.37358E+02 -1.38721E+02 -1.34894E+02 -1.35889E+02 -1.36214E+02 -1.33394E+02
  -1.33748E+02 -1.33385E+02 -1.29435E+02 -1.25849E+02 -1.24683E+02 -1.26317E+02 -1.20488E+02 -1.21333E+02 -1.19790E+02 -1.17209E+02
  -1.12034E+02 -1.08916E+02 -1.08689E+02 -1.08112E+02 -1.03089E+02 -1.00296E+02 -9.97148E+01 -9.70527E+01 -9.23878E+01 -9.07809E+01
  -8.90657E+01 -8.49061E+01 -8.40787E+01 -8.15272E+01 -8.03205E+01 -7.54021E+01 -7.37223E+01 -7.33650E+01 -6.91033E+01 -6.48012E+01
  -6.48553E+01 -5.99450E+01 -5.77660E+01 -5.72915E+01 -5.57274E+01 -5.62889E+01 -4.92556E+01 -5.03072E+01 -4.61659E+01 -4.30925E+01
  -4.62328E+01 -4.07223E+01 -3.83231E+01 -3.65996E+01 -3.37887E+01 -3.20097E+01 -2.93624E+01 -2.55612E+01 -2.15957E+01 -1.80998E+01
  -2.04064E+01 -1.91852E+01 -1.55775E+01 -1.10862E+01 -8.96281E+00 -7.84520E+00 -9.87296E+00 -4.89091E+00 -5.01867E+00 -3.92746E+00
  -1.97171E+00  9.55108E-01  5.63159E+00  4.78900E+00  5.55766E+00  6.22254E+00  7.21430E+00  9.75362E+00  1.13676E+01  1.27515E+01
   1.41307E+01  1.64092E+01  1.56904E+01  2.01862E+01  2.48875E+01  2.39669E+01  2.49725E+01  2.33565E+01  2.89351E+01  2.61524E+01
   2.81044E+01  2.78200E+01  2.83454E+01  3.02859E+01  3.07838E+01  3.13326E+01  3.57059E+01  3.57073E+01  3.59615E+01  3.42228E+01
   3.80817E+01  3.84332E+01  4.02618E+01  4.06621E+01  3.97020E+01  4.01220E+01  4.42230E+01  4.41123E+01  4.66092E+01  4.22504E+01
   4.85656E+01  4.39316E+01  4.46927E+01  5.17654E+01  5.16147E+01  4.50601E+01  4.97841E+01  4.95234E+01  4.80975E+01  5.02255E+01
   4.91385E+01  5.15423E+01  5.00450E+01  5.04788E+01  4.83568E+01  5.25938E+01  5.19283E+01  5.50536E+01  5.07691E+01  5.52710E+01
   5.34504E+01  4.94386E+01  5.36222E+01  5.36846E+01  5.43110E+01  5.44791E+01  5.08197E+01  5.38437E+01  5.13708E+01  5.42834E+01
   5.50093E+01  5.35025E+01  5.54374E+01  5.38700E+01  5.38391E+01  5.17509E+01  5.12379E+01  5.14889E+01  5.00556E+01  4.83684E+01
   5.08978E+01  5.40768E+01  5.08294E+01  5.42706E+01  5.07762E+01  4.91938E+01  4.57379E+01  4.64319E+01
 NY points of the fit to the data follow
   1.56399E+01  8.52243E+00  7.60085E+00  2.29576E+00  1.93353E+00 -1.97569E+00 -2.65785E+00 -5.12485E+00 -7.01140E+00 -7.93631E+00
  -1.03427E+01 -9.43316E+00 -1.14083E+01 -8.88092E+00 -9.28526E+00 -6.97047E+00 -6.54542E+00 -3.52548E+00 -2.91621E+00  4.52564E-01
   1.89622E-01  3.77003E+00  2.31368E+00  6.00302E+00  3.55728E+00  6.78239E+00  3.13810E+00  3.83976E+00  3.29836E+00  4.42118E+00
   6.60840E+00  7.71217E+00  7.79465E+00  7.82508E+00  7.63964E+00  8.78213E+00  6.97290E+00  6.28544E+00  3.62609E+00  1.95117E+00
   3.02063E+00  3.16143E+00  4.44380E+00  4.54089E+00  4.76610E+00  4.27990E+00  3.40011E+00  2.52391E+00  5.56612E-01 -4.58789E-01
  -2.34692E+00 -3.42373E+00 -4.63965E+00 -4.43377E+00 -4.91427E+00 -4.35320E+00 -3.41544E+00 -3.01206E+00 -2.98614E+00 -3.57302E+00
  -4.98694E+00 -6.93732E+00 -8.19471E+00 -1.00719E+01 -1.05992E+01 -1.24347E+01 -1.16326E+01 -1.24868E+01 -9.46644E+00 -1.00964E+01
  -8.69755E+00 -1.11182E+01 -1.18295E+01 -1.46228E+01 -1.72924E+01 -2.02773E+01 -2.38928E+01 -2.59483E+01 -2.90765E+01 -2.95260E+01
  -3.11516E+01 -3.16200E+01 -3.27749E+01 -3.34829E+01 -3.51840E+01 -3.59515E+01 -3.66418E+01 -3.57984E+01 -3.66661E+01 -3.60158E+01
  -3.64251E+01 -3.66648E+01 -3.63171E+01 -3.61935E+01 -3.44771E+01 -3.48620E+01 -3.06038E+01 -3.12878E+01 -2.85264E+01 -3.02521E+01
  -2.93223E+01 -3.14423E+01 -3.16833E+01 -3.26325E+01 -3.42707E+01 -3.51491E+01 -3.78224E+01 -3.81732E+01 -4.12538E+01 -4.28931E+01
  -4.72605E+01 -4.91996E+01 -5.36905E+01 -5.52034E+01 -6.04793E+01 -6.21227E+01 -6.72971E+01 -6.78540E+01 -7.20606E+01 -7.11271E+01
  -7.40263E+01 -7.59550E+01 -7.89280E+01 -8.08258E+01 -8.32731E+01 -8.38747E+01 -8.45573E+01 -8.38883E+01 -8.46128E+01 -8.51252E+01
  -8.65274E+01 -8.81426E+01 -9.01279E+01 -9.23489E+01 -9.48671E+01 -9.72631E+01 -1.00555E+02 -1.03045E+02 -1.06902E+02 -1.10474E+02
  -1.13621E+02 -1.17550E+02 -1.20359E+02 -1.25436E+02 -1.27929E+02 -1.33673E+02 -1.33784E+02 -1.38193E+02 -1.37046E+02 -1.41182E+02
  -1.39434E+02 -1.43536E+02 -1.41272E+02 -1.43992E+02 -1.40242E+02 -1.41570E+02 -1.37147E+02 -1.37403E+02 -1.32452E+02 -1.31067E+02
  -1.26192E+02 -1.24394E+02 -1.20462E+02 -1.14419E+02 -1.09182E+02 -1.00120E+02 -9.50351E+01 -8.74000E+01 -8.28909E+01 -7.66929E+01
  -7.28617E+01 -6.85829E+01 -6.61217E+01 -6.17612E+01 -5.80415E+01 -5.40318E+01 -4.94739E+01 -4.64506E+01 -4.07639E+01 -4.00460E+01
  -3.24253E+01 -3.18114E+01 -2.38985E+01 -2.52774E+01 -1.84885E+01 -2.08224E+01 -1.30531E+01 -1.36936E+01 -5.84041E+00 -5.14557E+00
   1.92680E+00  2.13241E+00  8.39938E+00  9.59472E+00  1.67573E+01  1.78660E+01  2.33816E+01  2.27453E+01  2.54153E+01  2.39244E+01
   2.38215E+01  2.15337E+01  1.95491E+01  1.81886E+01  1.69279E+01  1.50626E+01  1.37644E+01  1.21915E+01  1.08158E+01  9.28288E+00
   7.11764E+00  4.94064E+00  5.11443E-01 -2.94788E-01 -2.92695E+00 -2.65138E+00 -4.70365E+00 -3.32808E+00 -4.92265E+00 -2.69486E+00
  -3.88900E+00 -2.54602E-01 -3.82221E-01  3.45732E+00  3.06124E+00  6.64175E+00  6.60575E+00  1.03974E+01  1.11153E+01  1.52298E+01
   1.56655E+01  1.90090E+01  1.93653E+01  2.36646E+01  2.50578E+01  3.09785E+01  3.48387E+01  4.74525E+01  6.50541E+01  8.16891E+01
   1.02379E+02  1.18969E+02  1.41376E+02  1.59561E+02  1.90132E+02  2.21855E+02  2.59278E+02  2.94201E+02  3.35202E+02  3.71000E+02
   4.14602E+02  4.49826E+02  4.93558E+02  5.26139E+02  5.66288E+02  5.95436E+02  6.28253E+02  6.52688E+02  6.73580E+02  6.89320E+02
   6.94973E+02  6.99061E+02  6.89683E+02  6.80139E+02  6.56070E+02  6.32099E+02  5.97240E+02  5.61138E+02  5.17997E+02  4.72824E+02
   4.22862E+02  3.71422E+02  3.16921E+02  2.62911E+02  2.07474E+02  1.54338E+02  1.02673E+02  5.76420E+01  2.81697E+01 -1.00876E+01
  -3.72947E+01 -7.49450E+01 -9.95636E+01 -1.31818E+02 -1.45106E+02 -1.53755E+02 -1.56419E+02 -1.61338E+02 -1.62308E+02 -1.66146E+02
  -1.66721E+02 -1.70019E+02 -1.70450E+02 -1.73071E+02 -1.73112E+02 -1.74957E+02 -1.74703E+02 -1.75778E+02 -1.75399E+02 -1.76273E+02
  -1.75994E+02 -1.76399E+02 -1.75943E+02 -1.75723E+02 -1.74912E+02 -1.73805E+02 -1.72342E+02 -1.70539E+02 -1.68563E+02 -1.66267E+02
  -1.64035E+02 -1.61517E+02 -1.59300E+02 -1.56881E+02 -1.54621E+02 -1.52259E+02 -1.50170E+02 -1.48101E+02 -1.46372E+02 -1.44761E+02
  -1.43530E+02 -1.42580E+02 -1.41904E+02 -1.41438E+02 -1.41169E+02 -1.41034E+02 -1.41023E+02 -1.41081E+02 -1.41201E+02 -1.41342E+02
  -1.41503E+02 -1.41654E+02 -1.41799E+02 -1.41920E+02 -1.42020E+02 -1.42084E+02 -1.42118E+02 -1.42106E+02 -1.42047E+02 -1.41922E+02
  -1.41726E+02 -1.41435E+02 -1.41044E+02 -1.40528E+02 -1.39881E+02 -1.39082E+02 -1.38128E+02 -1.37001E+02 -1.35709E+02 -1.34236E+02
  -1.32598E+02 -1.30789E+02 -1.28829E+02 -1.26719E+02 -1.24486E+02 -1.22136E+02 -1.19701E+02 -1.17190E+02 -1.14638E+02 -1.12057E+02
  -1.09481E+02 -1.06919E+02 -1.04405E+02 -1.01944E+02 -9.95636E+01 -9.72632E+01 -9.50634E+01 -9.29562E+01 -9.09534E+01 -8.90385E+01
  -8.72148E+01 -8.54575E+01 -8.37620E+01 -8.20965E+01 -8.04512E+01 -7.87903E+01 -7.71017E+01 -7.53493E+01 -7.35225E+01 -7.15886E+01
  -6.95426E+01 -6.73593E+01 -6.50425E+01 -6.25771E+01 -5.99779E+01 -5.72410E+01 -5.43929E+01 -5.14405E+01 -4.84202E+01 -4.53470E+01
  -4.22634E+01 -3.91886E+01 -3.61665E+01 -3.32149E+01 -3.03739E+01 -2.76546E+01 -2.50883E+01 -2.26757E+01 -2.04363E+01 -1.83583E+01
  -1.64484E+01 -1.46827E+01 -1.30571E+01 -1.15381E+01 -1.01142E+01 -8.74692E+00 -7.42204E+00 -6.10077E+00 -4.77136E+00 -3.39961E+00
  -1.98023E+00 -4.87062E-01  1.07601E+00  2.72520E+00  4.44623E+00  6.24527E+00  8.09878E+00  1.00047E+01  1.19326E+01  1.38751E+01
   1.57983E+01  1.76933E+01  1.95268E+01  2.12920E+01  2.29594E+01  2.45275E+01  2.59728E+01  2.73010E+01  2.84962E+01  2.95717E+01
   3.05184E+01  3.13557E+01  3.20797E+01  3.27141E+01  3.32583E+01  3.37377E+01  3.41526E+01  3.45283E+01  3.48643E+01  3.51843E+01
   3.54857E+01  3.57896E+01  3.60906E+01  3.64072E+01  3.67315E+01  3.70793E+01  3.74405E+01  3.78289E+01  3.82324E+01  3.86635E+01
   3.91089E+01  3.95802E+01  4.00634E+01  4.05694E+01  4.10839E+01  4.16176E+01  4.21562E+01  4.27103E+01  4.32657E+01  4.38329E+01
   4.43979E+01  4.49715E+01  4.55399E+01  4.61138E+01  4.66797E+01  4.72485E+01  4.78068E+01  4.83655E+01  4.89116E+01  4.94561E+01
   4.99859E+01  5.05120E+01  5.10218E+01  5.15262E+01  5.20125E+01  5.24919E+01  5.29515E+01  5.34025E+01  5.38324E+01  5.42520E+01
   5.46490E+01  5.50341E+01  5.53948E+01  5.57419E+01  5.60628E+01  5.63682E+01  5.66454E+01  5.69046E+01  5.71332E+01  5.73409E+01
   5.75148E+01  5.76642E+01  5.77754E+01  5.78569E+01  5.78941E+01  5.78939E+01  5.78398E+01  5.77357E+01
 NY background values follow
    -5.031E+01   -5.174E+01   -5.315E+01   -5.454E+01   -5.590E+01   -5.725E+01   -5.858E+01   -5.989E+01   -6.118E+01   -6.245E+01
    -6.370E+01   -6.493E+01   -6.614E+01   -6.733E+01   -6.850E+01   -6.965E+01   -7.078E+01   -7.189E+01   -7.298E+01   -7.405E+01
    -7.510E+01   -7.613E+01   -7.715E+01   -7.814E+01   -7.911E+01   -8.007E+01   -8.100E+01   -8.192E+01   -8.281E+01   -8.369E+01
    -8.455E+01   -8.539E+01   -8.621E+01   -8.701E+01   -8.779E+01   -8.855E+01   -8.930E+01   -9.002E+01   -9.073E+01   -9.142E+01
    -9.208E+01   -9.273E+01   -9.337E+01   -9.398E+01   -9.457E+01   -9.515E+01   -9.571E+01   -9.625E+01   -9.677E+01   -9.728E+01
    -9.776E+01   -9.823E+01   -9.868E+01   -9.911E+01   -9.953E+01   -9.992E+01   -1.003E+02   -1.007E+02   -1.010E+02   -1.013E+02
    -1.016E+02   -1.019E+02   -1.022E+02   -1.025E+02   -1.027E+02   -1.029E+02   -1.032E+02   -1.033E+02   -1.035E+02   -1.037E+02
    -1.038E+02   -1.040E+02   -1.041E+02   -1.042E+02   -1.042E+02   -1.043E+02   -1.043E+02   -1.044E+02   -1.044E+02   -1.044E+02
    -1.044E+02   -1.044E+02   -1.043E+02   -1.043E+02   -1.042E+02   -1.041E+02   -1.040E+02   -1.039E+02   -1.038E+02   -1.037E+02
    -1.035E+02   -1.033E+02   -1.032E+02   -1.030E+02   -1.028E+02   -1.026E+02   -1.024E+02   -1.021E+02   -1.019E+02   -1.017E+02
    -1.014E+02   -1.011E+02   -1.008E+02   -1.006E+02   -1.003E+02   -9.995E+01   -9.964E+01   -9.932E+01   -9.899E+01   -9.865E+01
    -9.830E+01   -9.795E+01   -9.759E+01   -9.722E+01   -9.685E+01   -9.647E+01   -9.609E+01   -9.570E+01   -9.530E+01   -9.490E+01
    -9.450E+01   -9.409E+01   -9.368E+01   -9.326E+01   -9.284E+01   -9.242E+01   -9.200E+01   -9.157E+01   -9.114E+01   -9.071E+01
    -9.028E+01   -8.985E+01   -8.942E+01   -8.898E+01   -8.855E+01   -8.812E+01   -8.768E+01   -8.725E+01   -8.682E+01   -8.639E+01
    -8.597E+01   -8.554E+01   -8.512E+01   -8.470E+01   -8.429E+01   -8.388E+01   -8.347E+01   -8.307E+01   -8.267E+01   -8.228E+01
    -8.190E+01   -8.152E+01   -8.115E+01   -8.078E+01   -8.043E+01   -8.008E+01   -7.974E+01   -7.942E+01   -7.910E+01   -7.879E+01
    -7.850E+01   -7.821E+01   -7.794E+01   -7.768E+01   -7.743E+01   -7.720E+01   -7.698E+01   -7.677E+01   -7.658E+01   -7.641E+01
    -7.625E+01   -7.610E+01   -7.598E+01   -7.587E+01   -7.578E+01   -7.571E+01   -7.566E+01   -7.562E+01   -7.561E+01   -7.562E+01
    -7.565E+01   -7.570E+01   -7.577E+01   -7.586E+01   -7.598E+01   -7.612E+01   -7.629E+01   -7.648E+01   -7.669E+01   -7.693E+01
    -7.720E+01   -7.749E+01   -7.781E+01   -7.815E+01   -7.853E+01   -7.893E+01   -7.936E+01   -7.982E+01   -8.032E+01   -8.084E+01
    -8.139E+01   -8.197E+01   -8.259E+01   -8.324E+01   -8.392E+01   -8.463E+01   -8.538E+01   -8.616E+01   -8.698E+01   -8.783E+01
    -8.871E+01   -8.963E+01   -9.059E+01   -9.159E+01   -9.262E+01   -9.369E+01   -9.480E+01   -9.593E+01   -9.711E+01   -9.832E+01
    -9.956E+01   -1.008E+02   -1.021E+02   -1.035E+02   -1.048E+02   -1.062E+02   -1.076E+02   -1.091E+02   -1.106E+02   -1.121E+02
    -1.136E+02   -1.151E+02   -1.167E+02   -1.183E+02   -1.199E+02   -1.215E+02   -1.232E+02   -1.249E+02   -1.265E+02   -1.282E+02
    -1.300E+02   -1.317E+02   -1.334E+02   -1.352E+02   -1.370E+02   -1.387E+02   -1.405E+02   -1.423E+02   -1.441E+02   -1.460E+02
    -1.478E+02   -1.496E+02   -1.514E+02   -1.532E+02   -1.551E+02   -1.569E+02   -1.587E+02   -1.606E+02   -1.624E+02   -1.642E+02
    -1.660E+02   -1.678E+02   -1.696E+02   -1.714E+02   -1.732E+02   -1.750E+02   -1.768E+02   -1.785E+02   -1.803E+02   -1.820E+02
    -1.837E+02   -1.854E+02   -1.871E+02   -1.888E+02   -1.904E+02   -1.920E+02   -1.936E+02   -1.952E+02   -1.968E+02   -1.983E+02
    -1.998E+02   -2.013E+02   -2.027E+02   -2.042E+02   -2.056E+02   -2.069E+02   -2.083E+02   -2.096E+02   -2.108E+02   -2.121E+02
    -2.133E+02   -2.145E+02   -2.156E+02   -2.167E+02   -2.178E+02   -2.188E+02   -2.199E+02   -2.208E+02   -2.218E+02   -2.227E+02
    -2.236E+02   -2.244E+02   -2.252E+02   -2.260E+02   -2.267E+02   -2.274E+02   -2.281E+02   -2.287E+02   -2.293E+02   -2.298E+02
    -2.303E+02   -2.308E+02   -2.313E+02   -2.317E+02   -2.320E+02   -2.323E+02   -2.326E+02   -2.329E+02   -2.331E+02   -2.333E+02
    -2.334E+02   -2.335E+02   -2.335E+02   -2.336E+02   -2.335E+02   -2.335E+02   -2.334E+02   -2.332E+02   -2.330E+02   -2.328E+02
    -2.325E+02   -2.322E+02   -2.319E+02   -2.315E+02   -2.311E+02   -2.306E+02   -2.301E+02   -2.296E+02   -2.290E+02   -2.283E+02
    -2.277E+02   -2.270E+02   -2.262E+02   -2.254E+02   -2.246E+02   -2.237E+02   -2.228E+02   -2.218E+02   -2.209E+02   -2.198E+02
    -2.187E+02   -2.176E+02   -2.165E+02   -2.153E+02   -2.140E+02   -2.127E+02   -2.114E+02   -2.101E+02   -2.087E+02   -2.072E+02
    -2.058E+02   -2.043E+02   -2.027E+02   -2.012E+02   -1.996E+02   -1.979E+02   -1.962E+02   -1.945E+02   -1.928E+02   -1.911E+02
    -1.893E+02   -1.875E+02   -1.856E+02   -1.838E+02   -1.819E+02   -1.800E+02   -1.781E+02   -1.761E+02   -1.742E+02   -1.722E+02
    -1.702E+02   -1.682E+02   -1.661E+02   -1.641E+02   -1.620E+02   -1.600E+02   -1.579E+02   -1.558E+02   -1.537E+02   -1.515E+02
    -1.494E+02   -1.473E+02   -1.451E+02   -1.430E+02   -1.408E+02   -1.387E+02   -1.365E+02   -1.344E+02   -1.322E+02   -1.300E+02
    -1.279E+02   -1.257E+02   -1.235E+02   -1.214E+02   -1.192E+02   -1.170E+02   -1.149E+02   -1.127E+02   -1.106E+02   -1.084E+02
    -1.063E+02   -1.042E+02   -1.021E+02   -9.998E+01   -9.788E+01   -9.580E+01   -9.373E+01   -9.167E+01   -8.962E+01   -8.759E+01
    -8.557E+01   -8.357E+01   -8.158E+01   -7.960E+01   -7.765E+01   -7.571E+01   -7.379E+01   -7.188E+01   -7.000E+01   -6.813E+01
    -6.628E+01   -6.445E+01   -6.264E+01   -6.085E+01   -5.907E+01   -5.732E+01   -5.558E+01   -5.386E+01   -5.216E+01   -5.048E+01
    -4.882E+01   -4.718E+01   -4.556E+01   -4.395E+01   -4.237E+01   -4.080E+01   -3.925E+01   -3.773E+01   -3.622E+01   -3.473E+01
    -3.326E+01   -3.181E+01   -3.037E+01   -2.896E+01   -2.757E+01   -2.620E+01   -2.484E+01   -2.351E+01   -2.219E+01   -2.089E+01
    -1.962E+01   -1.836E+01   -1.712E+01   -1.590E+01   -1.470E+01   -1.352E+01   -1.236E+01   -1.122E+01   -1.009E+01   -8.992E+00
    -7.908E+00   -6.843E+00   -5.798E+00   -4.771E+00   -3.765E+00   -2.777E+00   -1.808E+00   -8.587E-01    7.162E-02    9.829E-01
     1.875E+00    2.748E+00    3.602E+00    4.438E+00    5.254E+00    6.052E+00    6.830E+00    7.590E+00    8.331E+00    9.053E+00
     9.757E+00    1.044E+01    1.111E+01    1.176E+01    1.239E+01    1.300E+01    1.359E+01    1.417E+01
 Asp      Conc. = 4.74E+04
