 LCModel (Version 6.3-1L) Copyright: S.W. Provencher.          Ref.: Magn. Reson. Med. 30:672-679 (1993).                
 Slice#3 Row#8 Col#2  PD_24_press_2_raw_act
 36 lines in following concentration table = NCONC+1
    Conc.  %SD /Cr+PCr  Metabolite                                         
  122.503 123%   0.111 Ala                                                 
    0.000 999%   0.000 Asp                                                 
  275.325 102%   0.249 Cr                                                  
  829.593  36%   0.751 PCr                                                 
   20.160 769% 1.8E-02 GABA                                                
   79.800 193% 7.2E-02 Glc                                                 
  618.470  52%   0.560 Gln                                                 
  833.371  43%   0.754 Glu                                                 
  463.401   7%   0.419 GPC                                                 
    0.000 999%   0.000 PCh                                                 
  944.170  12%   0.855 GSH                                                 
  870.725  47%   0.788 Ins                                                 
    0.000 999%   0.000 Lac                                                 
 1.71E+03   7%   1.546 NAA                                                 
  374.278  32%   0.339 NAAG                                                
   54.166  66% 4.9E-02 Scyllo                                              
    0.000 999%   0.000 Tau                                                 
  412.213  39%   0.373 -CrCH2                                              
  463.401   7%   0.419 GPC+PCh                                             
 2.08E+03   5%   1.885 NAA+NAAG                                            
 1.10E+03   7%   1.000 Cr+PCr                                              
 1.45E+03  35%   1.314 Glu+Gln                                             
    0.000 999%   0.000 Lip13a                                              
  167.125  86%   0.151 Lip13b                                              
    0.000 999%   0.000 Lip09                                               
 1.44E+03  21%   1.303 MM09                                                
   38.311 234% 3.5E-02 Lip20                                               
 2.16E+03  21%   1.955 MM20                                                
  432.137  21%   0.391 MM12                                                
 1.08E+03  21%   0.974 MM14                                                
  554.873  21%   0.502 MM17                                                
  167.125  86%   0.151 Lip13a+Lip13b                                       
 1.68E+03  22%   1.516 MM14+Lip13a+Lip13b+MM12                             
 1.44E+03  21%   1.303 MM09+Lip09                                          
 2.20E+03  21%   1.989 MM20+Lip20                                          
   6 lines in following misc. output table
  FWHM = 0.046 ppm    S/N =   7                                            
  Data shift = 0.023 ppm                                                   
  Ph: -17 deg     -15.0 deg/ppm                                            
  alphaB,S = 6.0E-01,   6.8E+01                                            
   14 spline knots.   Ns = 7(1)                                            
  (10) 5 infls.   ( 7) 3 extrs.                                            
  498 points on ppm-axis = NY
      4.000000     3.992357     3.984714     3.977070     3.969427     3.961784     3.954141     3.946497     3.938854     3.931211
      3.923568     3.915925     3.908281     3.900638     3.892995     3.885352     3.877708     3.870065     3.862422     3.854779
      3.847136     3.839492     3.831849     3.824206     3.816563     3.808919     3.801276     3.793633     3.785990     3.778347
      3.770703     3.763060     3.755417     3.747774     3.740130     3.732487     3.724844     3.717201     3.709558     3.701914
      3.694271     3.686628     3.678985     3.671341     3.663698     3.656055     3.648412     3.640769     3.633125     3.625482
      3.617839     3.610196     3.602552     3.594909     3.587266     3.579623     3.571980     3.564336     3.556693     3.549050
      3.541407     3.533763     3.526120     3.518477     3.510834     3.503191     3.495547     3.487904     3.480261     3.472618
      3.464974     3.457331     3.449688     3.442045     3.434402     3.426758     3.419115     3.411472     3.403829     3.396185
      3.388542     3.380899     3.373256     3.365613     3.357969     3.350326     3.342683     3.335040     3.327396     3.319753
      3.312110     3.304467     3.296824     3.289180     3.281537     3.273894     3.266251     3.258607     3.250964     3.243321
      3.235678     3.228034     3.220391     3.212748     3.205105     3.197462     3.189818     3.182175     3.174532     3.166889
      3.159245     3.151602     3.143959     3.136316     3.128673     3.121029     3.113386     3.105743     3.098100     3.090456
      3.082813     3.075170     3.067527     3.059884     3.052240     3.044597     3.036954     3.029311     3.021667     3.014024
      3.006381     2.998738     2.991095     2.983451     2.975808     2.968165     2.960522     2.952878     2.945235     2.937592
      2.929949     2.922306     2.914662     2.907019     2.899376     2.891733     2.884089     2.876446     2.868803     2.861160
      2.853517     2.845873     2.838230     2.830587     2.822944     2.815300     2.807657     2.800014     2.792371     2.784728
      2.777084     2.769441     2.761798     2.754155     2.746511     2.738868     2.731225     2.723582     2.715939     2.708295
      2.700652     2.693009     2.685366     2.677722     2.670079     2.662436     2.654793     2.647150     2.639506     2.631863
      2.624220     2.616577     2.608933     2.601290     2.593647     2.586004     2.578361     2.570717     2.563074     2.555431
      2.547788     2.540144     2.532501     2.524858     2.517215     2.509572     2.501928     2.494285     2.486642     2.478999
      2.471355     2.463712     2.456069     2.448426     2.440783     2.433139     2.425496     2.417853     2.410210     2.402566
      2.394923     2.387280     2.379637     2.371994     2.364350     2.356707     2.349064     2.341421     2.333777     2.326134
      2.318491     2.310848     2.303205     2.295561     2.287918     2.280275     2.272632     2.264988     2.257345     2.249702
      2.242059     2.234416     2.226772     2.219129     2.211486     2.203843     2.196199     2.188556     2.180913     2.173270
      2.165627     2.157983     2.150340     2.142697     2.135054     2.127410     2.119767     2.112124     2.104481     2.096838
      2.089194     2.081551     2.073908     2.066265     2.058621     2.050978     2.043335     2.035692     2.028049     2.020405
      2.012762     2.005119     1.997476     1.989833     1.982190     1.974546     1.966903     1.959260     1.951617     1.943974
      1.936331     1.928688     1.921045     1.913402     1.905759     1.898115     1.890472     1.882829     1.875186     1.867543
      1.859900     1.852257     1.844614     1.836971     1.829327     1.821684     1.814041     1.806398     1.798755     1.791112
      1.783469     1.775826     1.768183     1.760540     1.752896     1.745253     1.737610     1.729967     1.722324     1.714681
      1.707038     1.699395     1.691752     1.684108     1.676465     1.668822     1.661179     1.653536     1.645893     1.638250
      1.630607     1.622964     1.615321     1.607677     1.600034     1.592391     1.584748     1.577105     1.569462     1.561819
      1.554176     1.546533     1.538890     1.531246     1.523603     1.515960     1.508317     1.500674     1.493031     1.485388
      1.477745     1.470102     1.462458     1.454815     1.447172     1.439529     1.431886     1.424243     1.416600     1.408957
      1.401314     1.393671     1.386027     1.378384     1.370741     1.363098     1.355455     1.347812     1.340169     1.332526
      1.324883     1.317240     1.309596     1.301953     1.294310     1.286667     1.279024     1.271381     1.263738     1.256095
      1.248452     1.240808     1.233165     1.225522     1.217879     1.210236     1.202593     1.194950     1.187307     1.179664
      1.172021     1.164377     1.156734     1.149091     1.141448     1.133805     1.126162     1.118519     1.110876     1.103233
      1.095590     1.087946     1.080303     1.072660     1.065017     1.057374     1.049731     1.042088     1.034445     1.026802
      1.019158     1.011515     1.003872     0.996229     0.988586     0.980943     0.973300     0.965657     0.958014     0.950371
      0.942727     0.935084     0.927441     0.919798     0.912155     0.904512     0.896869     0.889226     0.881583     0.873940
      0.866296     0.858653     0.851010     0.843367     0.835724     0.828081     0.820438     0.812795     0.805152     0.797508
      0.789865     0.782222     0.774579     0.766936     0.759293     0.751650     0.744007     0.736364     0.728721     0.721077
      0.713434     0.705791     0.698148     0.690505     0.682862     0.675219     0.667576     0.659933     0.652290     0.644646
      0.637003     0.629360     0.621717     0.614074     0.606431     0.598788     0.591145     0.583502     0.575858     0.568215
      0.560572     0.552929     0.545286     0.537643     0.530000     0.522357     0.514714     0.507071     0.499427     0.491784
      0.484141     0.476498     0.468855     0.461212     0.453569     0.445925     0.438282     0.430639     0.422996     0.415353
      0.407710     0.400067     0.392424     0.384780     0.377137     0.369494     0.361851     0.354208     0.346565     0.338922
      0.331278     0.323635     0.315992     0.308349     0.300706     0.293063     0.285420     0.277777     0.270133     0.262490
      0.254847     0.247204     0.239561     0.231918     0.224275     0.216631     0.208988     0.201345
 NY phased data points follow
  -3.56702E+02 -3.37619E+02 -3.43824E+02 -3.35853E+02 -3.26357E+02 -3.19528E+02 -3.08107E+02 -3.02666E+02 -2.96128E+02 -2.84918E+02
  -2.81950E+02 -2.75790E+02 -2.87916E+02 -2.80641E+02 -2.87254E+02 -2.79183E+02 -2.84730E+02 -2.74855E+02 -2.78015E+02 -2.71479E+02
  -2.68377E+02 -2.59118E+02 -2.62074E+02 -2.52908E+02 -2.45861E+02 -2.45520E+02 -2.39419E+02 -2.33771E+02 -2.33954E+02 -2.24338E+02
  -2.24162E+02 -2.12390E+02 -2.21635E+02 -2.13189E+02 -2.16227E+02 -2.07967E+02 -2.18296E+02 -2.06450E+02 -2.02206E+02 -2.06581E+02
  -2.01401E+02 -2.02482E+02 -2.00337E+02 -1.98511E+02 -1.88676E+02 -1.94627E+02 -1.86409E+02 -1.84717E+02 -1.90546E+02 -1.80247E+02
  -1.81592E+02 -1.86636E+02 -1.84334E+02 -1.81954E+02 -1.79005E+02 -1.84879E+02 -1.72614E+02 -1.75844E+02 -1.75792E+02 -1.75132E+02
  -1.78389E+02 -1.67619E+02 -1.71012E+02 -1.66154E+02 -1.66322E+02 -1.61146E+02 -1.63642E+02 -1.64372E+02 -1.60900E+02 -1.56033E+02
  -1.58234E+02 -1.52049E+02 -1.46621E+02 -1.46207E+02 -1.44594E+02 -1.46442E+02 -1.43983E+02 -1.43733E+02 -1.42538E+02 -1.36572E+02
  -1.37593E+02 -1.36769E+02 -1.36615E+02 -1.33028E+02 -1.30710E+02 -1.30305E+02 -1.28714E+02 -1.29249E+02 -1.24626E+02 -1.26226E+02
  -1.24231E+02 -1.22545E+02 -1.18019E+02 -1.16239E+02 -1.18305E+02 -1.09209E+02 -1.10119E+02 -9.77422E+01 -1.02015E+02 -9.41229E+01
  -9.05828E+01 -7.89762E+01 -6.53165E+01 -6.74471E+01 -6.94499E+01 -7.12006E+01 -8.95111E+01 -9.59545E+01 -9.77902E+01 -9.40176E+01
  -9.56135E+01 -9.61860E+01 -1.00118E+02 -9.30147E+01 -9.66198E+01 -9.16725E+01 -8.92869E+01 -9.47967E+01 -9.30740E+01 -8.65008E+01
  -8.95608E+01 -8.28234E+01 -8.01445E+01 -8.12062E+01 -7.00337E+01 -5.44792E+01 -4.78129E+01 -4.73363E+01 -4.28418E+01 -5.58346E+01
  -6.17523E+01 -7.04475E+01 -7.55138E+01 -7.50858E+01 -7.53683E+01 -7.77612E+01 -8.31948E+01 -7.81594E+01 -7.18984E+01 -7.68158E+01
  -8.24779E+01 -7.95527E+01 -7.59093E+01 -7.72307E+01 -7.62087E+01 -7.37993E+01 -6.88410E+01 -7.18158E+01 -7.45762E+01 -7.37372E+01
  -7.07973E+01 -6.99344E+01 -7.65785E+01 -6.82387E+01 -6.90614E+01 -6.22324E+01 -6.94971E+01 -6.26853E+01 -6.48976E+01 -6.18582E+01
  -6.25552E+01 -6.17682E+01 -6.14545E+01 -7.08741E+01 -6.26068E+01 -5.99305E+01 -5.96475E+01 -6.20508E+01 -6.07828E+01 -6.58902E+01
  -6.19819E+01 -6.67566E+01 -6.85680E+01 -6.96282E+01 -7.10873E+01 -6.89049E+01 -7.00222E+01 -6.23635E+01 -6.39955E+01 -6.46782E+01
  -6.52997E+01 -6.19614E+01 -5.91146E+01 -6.65546E+01 -6.20134E+01 -6.07439E+01 -5.78675E+01 -5.75401E+01 -5.54542E+01 -5.17749E+01
  -5.09908E+01 -4.90062E+01 -4.91515E+01 -5.02797E+01 -4.58643E+01 -5.21039E+01 -4.89054E+01 -5.04864E+01 -5.46043E+01 -5.47077E+01
  -5.47327E+01 -5.01833E+01 -5.18740E+01 -4.16340E+01 -4.41205E+01 -4.56947E+01 -5.03333E+01 -4.80470E+01 -5.52509E+01 -4.71011E+01
  -4.13933E+01 -4.77890E+01 -4.05352E+01 -3.83933E+01 -3.37801E+01 -3.29905E+01 -3.73547E+01 -3.83192E+01 -3.64250E+01 -4.09495E+01
  -3.86691E+01 -3.25682E+01 -3.83175E+01 -4.10175E+01 -4.03211E+01 -3.75549E+01 -3.33368E+01 -2.88255E+01 -3.40639E+01 -3.30226E+01
  -3.37554E+01 -3.68655E+01 -3.32209E+01 -4.11910E+01 -3.52375E+01 -3.11846E+01 -2.96579E+01 -3.00403E+01 -3.24666E+01 -2.89589E+01
  -3.43139E+01 -3.52516E+01 -3.57946E+01 -3.28662E+01 -3.38561E+01 -2.22590E+01 -2.22973E+01 -2.12696E+01 -1.68475E+01 -1.85735E+01
  -1.67664E+01 -9.89617E+00  3.95954E+00 -1.35113E-01  1.37825E+00  1.04901E+01  1.20640E+01  1.50744E+01  3.14703E+01  3.87493E+01
   3.78936E+01  4.01819E+01  3.62776E+01  1.23051E+01 -7.21278E+00 -1.19052E+01 -1.34522E+01 -5.40934E+00 -7.97536E+00 -1.15649E+01
  -1.64999E+01 -1.64009E+01 -1.02940E+01 -1.88909E+01 -2.05773E+01 -2.20734E+01 -1.84482E+01 -1.39170E+01 -1.49592E+01 -1.86899E+01
  -1.43405E+01 -1.91061E+01 -1.41808E+01 -1.47824E+01 -1.55154E+01 -2.03387E+01 -1.41108E+01 -1.97801E+01 -1.85874E+01 -1.34517E+01
  -2.05809E+01 -1.69698E+01 -2.28901E+01 -2.67691E+01 -1.84164E+01 -2.10484E+01 -1.78792E+01 -1.84368E+01 -1.50008E+01 -1.61828E+01
  -1.24689E+01 -1.31187E+01 -7.01519E+00 -1.16326E+01 -4.03270E+00 -8.68587E+00  1.46799E+00  4.30457E+00  1.06598E+00  1.23849E+00
   6.47925E+00  6.65225E+00  1.14576E+01  1.23244E+01  2.22288E+00  3.65228E+00  2.06730E+00  2.59867E-01  1.97587E+00 -4.44480E+00
  -1.04824E+01 -1.02560E+01 -7.97692E+00 -4.40867E+00 -8.40860E+00 -7.39940E+00 -6.15254E+00 -3.99226E+00 -3.87531E+00 -3.79399E+00
   2.92142E-01 -4.00633E+00 -4.92468E+00 -1.01750E+00 -5.69601E+00  2.95865E+00  4.97995E+00  3.50385E+00  5.94853E+00  1.31923E+00
  -8.08762E-01  2.95616E+00 -4.09582E+00  1.76219E+00 -1.77870E-01 -2.82825E+00  1.60622E+00  5.69007E+00  5.87560E+00  3.81202E+00
   8.17804E+00  1.03775E+00  5.36329E+00  7.29091E+00  4.17664E+00  4.89866E+00  5.51149E+00  3.43762E+00  4.50140E+00  4.41166E+00
   4.84741E+00 -3.74803E-01  6.65323E+00  3.88206E+00  7.58013E-01  4.74830E+00  4.69920E+00  7.68882E+00  4.77299E+00  6.69534E+00
   4.18254E+00  6.09882E-01  3.20198E+00  7.18649E+00  4.51037E+00  7.53186E+00  9.93604E+00  8.48995E+00  1.18040E+01  1.01345E+01
   6.98899E+00  5.53347E+00  7.41903E+00  1.14011E+01  9.33287E+00  7.40505E+00  7.45328E+00  9.47485E+00  9.96793E+00  7.55246E+00
   8.83835E+00  4.64214E+00  8.05202E+00  4.47058E+00  1.06669E+01  6.54191E+00  7.09637E+00  8.46706E+00  9.52340E+00  1.01408E+01
   9.52355E+00  9.23174E+00  8.82984E+00  7.09896E+00  7.46741E+00  1.12006E+01  1.09016E+01  6.85891E+00  9.46831E+00  2.48832E+00
   8.49115E+00  1.02786E+01  9.38962E+00  7.41674E+00  9.47475E+00  6.31688E+00  5.70146E+00  6.36401E+00  5.13559E+00  8.55546E+00
   6.36900E+00  1.38982E+01  1.01954E+01  7.38410E+00  9.55093E+00  1.20202E+01  1.30072E+01  4.70071E+00  6.71134E+00  6.24992E+00
   7.15413E+00  9.38330E+00  1.10070E+01  1.38562E+01  1.12161E+01  7.00805E+00  8.49158E+00  5.94745E+00  1.33875E+01  5.91691E+00
   1.10638E+01  7.01234E+00  1.07777E+01  4.97025E+00  1.24489E+01  8.52323E+00  9.67541E+00  1.47826E+01  7.62867E+00  1.11097E+01
   1.68809E+01  1.64984E+01  6.58432E+00  1.21607E+01  1.43049E+01  1.42316E+01  1.14289E+01  1.51789E+01  1.30161E+01  8.93892E+00
   1.03288E+01  1.18292E+01  1.51199E+01  1.42673E+01  1.26294E+01  1.41204E+01  1.12443E+01  1.47118E+01  1.05430E+01  1.42226E+01
   1.10422E+01  7.72508E+00  1.05158E+01  9.67405E+00  1.73298E+01  1.05511E+01  4.58674E+00  9.57578E+00  6.73599E+00  1.32663E+01
   1.05264E+01  1.14693E+01  8.32275E+00  1.28610E+01  1.03225E+01  8.44991E+00  1.37803E+01  1.20347E+01  9.58780E+00  9.94957E+00
   6.20701E+00  1.61115E+01  1.00370E+01  9.51758E+00  1.23396E+01  1.40598E+01  9.86106E+00  1.20578E+01
 NY points of the fit to the data follow
  -3.36345E+02 -3.33454E+02 -3.29773E+02 -3.24642E+02 -3.19422E+02 -3.14657E+02 -3.09698E+02 -3.03692E+02 -2.96816E+02 -2.90094E+02
  -2.84616E+02 -2.81423E+02 -2.80885E+02 -2.81845E+02 -2.82207E+02 -2.80592E+02 -2.77483E+02 -2.74943E+02 -2.73262E+02 -2.71197E+02
  -2.68735E+02 -2.66051E+02 -2.63241E+02 -2.59508E+02 -2.54670E+02 -2.50124E+02 -2.45624E+02 -2.39775E+02 -2.32205E+02 -2.24239E+02
  -2.17645E+02 -2.13653E+02 -2.13073E+02 -2.15499E+02 -2.18835E+02 -2.20461E+02 -2.19426E+02 -2.17247E+02 -2.15642E+02 -2.13929E+02
  -2.10989E+02 -2.07762E+02 -2.04817E+02 -2.01779E+02 -1.98328E+02 -1.94816E+02 -1.91717E+02 -1.89220E+02 -1.87478E+02 -1.86512E+02
  -1.86138E+02 -1.85640E+02 -1.84283E+02 -1.82248E+02 -1.80202E+02 -1.78328E+02 -1.76365E+02 -1.74201E+02 -1.72021E+02 -1.69942E+02
  -1.68054E+02 -1.66477E+02 -1.65229E+02 -1.64158E+02 -1.62916E+02 -1.61251E+02 -1.59315E+02 -1.57337E+02 -1.55376E+02 -1.53455E+02
  -1.51608E+02 -1.49857E+02 -1.48225E+02 -1.46706E+02 -1.45322E+02 -1.44028E+02 -1.42716E+02 -1.41339E+02 -1.39898E+02 -1.38370E+02
  -1.36851E+02 -1.35480E+02 -1.34143E+02 -1.32659E+02 -1.31093E+02 -1.29666E+02 -1.28533E+02 -1.27698E+02 -1.27073E+02 -1.26384E+02
  -1.25359E+02 -1.23919E+02 -1.22254E+02 -1.20659E+02 -1.19144E+02 -1.16559E+02 -1.10889E+02 -1.04825E+02 -1.00047E+02 -9.43442E+01
  -8.59331E+01 -7.61831E+01 -6.83699E+01 -6.51600E+01 -6.78698E+01 -7.59651E+01 -8.60485E+01 -9.34009E+01 -9.58568E+01 -9.54230E+01
  -9.60063E+01 -9.83958E+01 -9.92655E+01 -9.86897E+01 -9.78443E+01 -9.69073E+01 -9.59152E+01 -9.48722E+01 -9.36943E+01 -9.18890E+01
  -8.77701E+01 -8.23343E+01 -7.79103E+01 -7.33058E+01 -6.66504E+01 -5.84165E+01 -5.10541E+01 -4.68784E+01 -4.74719E+01 -5.31616E+01
  -6.15150E+01 -6.83918E+01 -7.14059E+01 -7.16860E+01 -7.27474E+01 -7.61767E+01 -7.93019E+01 -8.03401E+01 -7.97734E+01 -7.77782E+01
  -7.51407E+01 -7.29378E+01 -7.16994E+01 -7.11848E+01 -7.11442E+01 -7.13475E+01 -7.14053E+01 -7.12502E+01 -7.10616E+01 -7.09050E+01
  -7.08652E+01 -7.07900E+01 -7.06401E+01 -7.04407E+01 -7.02082E+01 -6.98503E+01 -6.93068E+01 -6.87130E+01 -6.82082E+01 -6.79709E+01
  -6.79892E+01 -6.79250E+01 -6.75227E+01 -6.68305E+01 -6.60947E+01 -6.56136E+01 -6.55399E+01 -6.57605E+01 -6.59545E+01 -6.58813E+01
  -6.55637E+01 -6.50613E+01 -6.46682E+01 -6.45946E+01 -6.47111E+01 -6.47540E+01 -6.44773E+01 -6.38256E+01 -6.30706E+01 -6.25566E+01
  -6.23714E+01 -6.22943E+01 -6.19692E+01 -6.12059E+01 -6.00516E+01 -5.87774E+01 -5.75585E+01 -5.61800E+01 -5.43115E+01 -5.20363E+01
  -5.00355E+01 -4.92194E+01 -4.95948E+01 -5.05028E+01 -5.15824E+01 -5.26215E+01 -5.32223E+01 -5.28696E+01 -5.15160E+01 -4.95676E+01
  -4.73603E+01 -4.52353E+01 -4.37776E+01 -4.35276E+01 -4.40185E+01 -4.47421E+01 -4.57250E+01 -4.70663E+01 -4.82123E+01 -4.83389E+01
  -4.74455E+01 -4.59529E+01 -4.40397E+01 -4.19136E+01 -4.00767E+01 -3.89908E+01 -3.86947E+01 -3.88943E+01 -3.95625E+01 -4.08470E+01
  -4.19730E+01 -4.22055E+01 -4.15358E+01 -4.02472E+01 -3.86675E+01 -3.69780E+01 -3.54374E+01 -3.44375E+01 -3.41636E+01 -3.43609E+01
  -3.43257E+01 -3.37538E+01 -3.29556E+01 -3.19893E+01 -3.05057E+01 -2.87376E+01 -2.73976E+01 -2.68959E+01 -2.72039E+01 -2.80010E+01
  -2.91782E+01 -3.04561E+01 -3.10026E+01 -3.01737E+01 -2.82306E+01 -2.59715E+01 -2.38359E+01 -2.19120E+01 -2.00715E+01 -1.80090E+01
  -1.61469E+01 -1.43082E+01 -1.14229E+01 -5.06336E+00  4.34144E+00  1.15234E+01  1.64475E+01  2.22213E+01  2.96303E+01  3.64583E+01
   3.99708E+01  3.80180E+01  2.91171E+01  1.45713E+01  2.52850E-01 -7.88359E+00 -9.96465E+00 -1.07356E+01 -1.41826E+01 -1.80900E+01
  -1.91498E+01 -1.92302E+01 -1.91072E+01 -1.88932E+01 -1.86772E+01 -1.85300E+01 -1.84221E+01 -1.83379E+01 -1.82446E+01 -1.80945E+01
  -1.78739E+01 -1.76276E+01 -1.73886E+01 -1.71438E+01 -1.68770E+01 -1.66000E+01 -1.63348E+01 -1.60692E+01 -1.57733E+01 -1.54327E+01
  -1.50578E+01 -1.46539E+01 -1.42204E+01 -1.37621E+01 -1.32938E+01 -1.28178E+01 -1.23241E+01 -1.17952E+01 -1.12228E+01 -1.06136E+01
  -9.97403E+00 -9.30315E+00 -8.61519E+00 -7.92928E+00 -7.26079E+00 -6.61691E+00 -6.00250E+00 -5.42690E+00 -4.90418E+00 -4.43766E+00
  -4.03131E+00 -3.68688E+00 -3.40329E+00 -3.17479E+00 -2.99375E+00 -2.84894E+00 -2.72844E+00 -2.61681E+00 -2.49513E+00 -2.33089E+00
  -2.08742E+00 -1.87662E+00 -1.76013E+00 -1.62102E+00 -1.42570E+00 -1.28682E+00 -1.33955E+00 -1.61565E+00 -1.95080E+00 -2.16699E+00
  -2.22574E+00 -2.02377E+00 -1.49584E+00 -7.41933E-01  4.17206E-02  7.63991E-01  1.44506E+00  1.93059E+00  2.07762E+00  2.01057E+00
   1.94998E+00  2.02511E+00  2.17121E+00  2.23649E+00  2.25452E+00  2.34598E+00  2.49728E+00  2.69766E+00  2.94307E+00  3.22837E+00
   3.54226E+00  3.86871E+00  4.18615E+00  4.47175E+00  4.70260E+00  4.86142E+00  4.93794E+00  4.93292E+00  4.85619E+00  4.72632E+00
   4.56512E+00  4.39568E+00  4.23721E+00  4.10495E+00  4.00727E+00  3.94754E+00  3.92340E+00  3.93051E+00  3.96261E+00  4.01490E+00
   4.08286E+00  4.16421E+00  4.25709E+00  4.36182E+00  4.47901E+00  4.61101E+00  4.75959E+00  4.92726E+00  5.11538E+00  5.32599E+00
   5.56001E+00  5.81884E+00  6.10219E+00  6.40976E+00  6.73948E+00  7.08949E+00  7.45639E+00  7.83676E+00  8.22534E+00  8.61678E+00
   9.00431E+00  9.38174E+00  9.74186E+00  1.00782E+01  1.03836E+01  1.06519E+01  1.08771E+01  1.10554E+01  1.11832E+01  1.12591E+01
   1.12821E+01  1.12535E+01  1.11755E+01  1.10528E+01  1.08901E+01  1.06938E+01  1.04702E+01  1.02268E+01  9.97062E+00  9.70894E+00
   9.44785E+00  9.19355E+00  8.95067E+00  8.72404E+00  8.51695E+00  8.33265E+00  8.17253E+00  8.03794E+00  7.92876E+00  7.84528E+00
   7.78655E+00  7.75193E+00  7.73955E+00  7.74809E+00  7.77543E+00  7.82032E+00  7.88075E+00  7.95536E+00  8.04196E+00  8.13926E+00
   8.24544E+00  8.35967E+00  8.48037E+00  8.60666E+00  8.73694E+00  8.87056E+00  9.00632E+00  9.14393E+00  9.28222E+00  9.42075E+00
   9.55835E+00  9.69481E+00  9.82929E+00  9.96174E+00  1.00912E+01  1.02174E+01  1.03394E+01  1.04573E+01  1.05704E+01  1.06787E+01
   1.07812E+01  1.08780E+01  1.09681E+01  1.10519E+01  1.11291E+01  1.12004E+01  1.12654E+01  1.13245E+01  1.13775E+01  1.14252E+01
   1.14675E+01  1.15047E+01  1.15366E+01  1.15637E+01  1.15860E+01  1.16042E+01  1.16180E+01  1.16278E+01  1.16336E+01  1.16357E+01
   1.16343E+01  1.16300E+01  1.16224E+01  1.16122E+01  1.15990E+01  1.15836E+01  1.15660E+01  1.15466E+01  1.15252E+01  1.15024E+01
   1.14780E+01  1.14527E+01  1.14264E+01  1.13996E+01  1.13721E+01  1.13445E+01  1.13166E+01  1.12892E+01  1.12621E+01  1.12358E+01
   1.12101E+01  1.11857E+01  1.11623E+01  1.11409E+01  1.11211E+01  1.11034E+01  1.10878E+01  1.10748E+01
 NY background values follow
    -3.385E+02   -3.351E+02   -3.318E+02   -3.284E+02   -3.250E+02   -3.217E+02   -3.184E+02   -3.150E+02   -3.117E+02   -3.084E+02
    -3.051E+02   -3.019E+02   -2.986E+02   -2.954E+02   -2.922E+02   -2.890E+02   -2.858E+02   -2.826E+02   -2.795E+02   -2.763E+02
    -2.732E+02   -2.701E+02   -2.671E+02   -2.640E+02   -2.610E+02   -2.580E+02   -2.550E+02   -2.521E+02   -2.491E+02   -2.462E+02
    -2.434E+02   -2.405E+02   -2.377E+02   -2.349E+02   -2.321E+02   -2.294E+02   -2.267E+02   -2.240E+02   -2.214E+02   -2.188E+02
    -2.162E+02   -2.137E+02   -2.112E+02   -2.087E+02   -2.063E+02   -2.039E+02   -2.015E+02   -1.992E+02   -1.969E+02   -1.946E+02
    -1.924E+02   -1.902E+02   -1.881E+02   -1.860E+02   -1.839E+02   -1.818E+02   -1.798E+02   -1.778E+02   -1.758E+02   -1.739E+02
    -1.720E+02   -1.701E+02   -1.683E+02   -1.665E+02   -1.647E+02   -1.629E+02   -1.612E+02   -1.595E+02   -1.578E+02   -1.561E+02
    -1.545E+02   -1.529E+02   -1.513E+02   -1.497E+02   -1.482E+02   -1.467E+02   -1.452E+02   -1.437E+02   -1.423E+02   -1.408E+02
    -1.394E+02   -1.380E+02   -1.366E+02   -1.352E+02   -1.339E+02   -1.326E+02   -1.312E+02   -1.299E+02   -1.287E+02   -1.274E+02
    -1.261E+02   -1.249E+02   -1.236E+02   -1.224E+02   -1.212E+02   -1.200E+02   -1.188E+02   -1.177E+02   -1.165E+02   -1.154E+02
    -1.143E+02   -1.131E+02   -1.120E+02   -1.109E+02   -1.099E+02   -1.088E+02   -1.077E+02   -1.067E+02   -1.057E+02   -1.046E+02
    -1.036E+02   -1.026E+02   -1.017E+02   -1.007E+02   -9.974E+01   -9.880E+01   -9.786E+01   -9.694E+01   -9.603E+01   -9.514E+01
    -9.425E+01   -9.338E+01   -9.251E+01   -9.166E+01   -9.082E+01   -9.000E+01   -8.918E+01   -8.838E+01   -8.758E+01   -8.680E+01
    -8.603E+01   -8.527E+01   -8.452E+01   -8.379E+01   -8.306E+01   -8.235E+01   -8.164E+01   -8.095E+01   -8.027E+01   -7.960E+01
    -7.894E+01   -7.829E+01   -7.765E+01   -7.702E+01   -7.640E+01   -7.578E+01   -7.518E+01   -7.459E+01   -7.400E+01   -7.343E+01
    -7.286E+01   -7.230E+01   -7.174E+01   -7.120E+01   -7.066E+01   -7.013E+01   -6.961E+01   -6.909E+01   -6.858E+01   -6.808E+01
    -6.759E+01   -6.710E+01   -6.661E+01   -6.613E+01   -6.566E+01   -6.519E+01   -6.473E+01   -6.427E+01   -6.382E+01   -6.337E+01
    -6.292E+01   -6.248E+01   -6.204E+01   -6.161E+01   -6.118E+01   -6.075E+01   -6.033E+01   -5.991E+01   -5.949E+01   -5.908E+01
    -5.866E+01   -5.825E+01   -5.784E+01   -5.743E+01   -5.703E+01   -5.662E+01   -5.622E+01   -5.582E+01   -5.542E+01   -5.502E+01
    -5.462E+01   -5.423E+01   -5.383E+01   -5.344E+01   -5.305E+01   -5.265E+01   -5.226E+01   -5.187E+01   -5.149E+01   -5.110E+01
    -5.071E+01   -5.033E+01   -4.994E+01   -4.956E+01   -4.917E+01   -4.879E+01   -4.840E+01   -4.802E+01   -4.764E+01   -4.726E+01
    -4.687E+01   -4.649E+01   -4.611E+01   -4.573E+01   -4.534E+01   -4.496E+01   -4.458E+01   -4.420E+01   -4.381E+01   -4.343E+01
    -4.305E+01   -4.266E+01   -4.228E+01   -4.189E+01   -4.151E+01   -4.112E+01   -4.073E+01   -4.034E+01   -3.995E+01   -3.956E+01
    -3.917E+01   -3.878E+01   -3.839E+01   -3.800E+01   -3.761E+01   -3.721E+01   -3.682E+01   -3.643E+01   -3.603E+01   -3.564E+01
    -3.525E+01   -3.485E+01   -3.446E+01   -3.406E+01   -3.367E+01   -3.328E+01   -3.288E+01   -3.249E+01   -3.210E+01   -3.171E+01
    -3.131E+01   -3.092E+01   -3.053E+01   -3.014E+01   -2.975E+01   -2.936E+01   -2.898E+01   -2.859E+01   -2.820E+01   -2.782E+01
    -2.743E+01   -2.705E+01   -2.667E+01   -2.629E+01   -2.591E+01   -2.553E+01   -2.516E+01   -2.478E+01   -2.441E+01   -2.404E+01
    -2.367E+01   -2.330E+01   -2.293E+01   -2.256E+01   -2.220E+01   -2.184E+01   -2.148E+01   -2.112E+01   -2.076E+01   -2.041E+01
    -2.006E+01   -1.971E+01   -1.936E+01   -1.901E+01   -1.867E+01   -1.833E+01   -1.799E+01   -1.765E+01   -1.731E+01   -1.698E+01
    -1.665E+01   -1.632E+01   -1.599E+01   -1.567E+01   -1.534E+01   -1.502E+01   -1.471E+01   -1.439E+01   -1.408E+01   -1.377E+01
    -1.346E+01   -1.316E+01   -1.286E+01   -1.256E+01   -1.226E+01   -1.196E+01   -1.167E+01   -1.138E+01   -1.110E+01   -1.081E+01
    -1.053E+01   -1.026E+01   -9.982E+00   -9.710E+00   -9.441E+00   -9.176E+00   -8.913E+00   -8.653E+00   -8.396E+00   -8.142E+00
    -7.891E+00   -7.644E+00   -7.399E+00   -7.158E+00   -6.920E+00   -6.685E+00   -6.453E+00   -6.225E+00   -6.000E+00   -5.778E+00
    -5.559E+00   -5.344E+00   -5.132E+00   -4.923E+00   -4.718E+00   -4.516E+00   -4.318E+00   -4.123E+00   -3.931E+00   -3.743E+00
    -3.558E+00   -3.377E+00   -3.200E+00   -3.026E+00   -2.856E+00   -2.689E+00   -2.526E+00   -2.366E+00   -2.211E+00   -2.058E+00
    -1.910E+00   -1.765E+00   -1.624E+00   -1.487E+00   -1.354E+00   -1.224E+00   -1.099E+00   -9.766E-01   -8.586E-01   -7.444E-01
    -6.342E-01   -5.279E-01   -4.255E-01   -3.270E-01   -2.321E-01   -1.406E-01   -5.233E-02    3.298E-02    1.155E-01    1.955E-01
     2.732E-01    3.487E-01    4.223E-01    4.942E-01    5.647E-01    6.339E-01    7.020E-01    7.693E-01    8.360E-01    9.023E-01
     9.684E-01    1.034E+00    1.101E+00    1.168E+00    1.235E+00    1.303E+00    1.373E+00    1.444E+00    1.516E+00    1.590E+00
     1.666E+00    1.744E+00    1.825E+00    1.908E+00    1.994E+00    2.082E+00    2.175E+00    2.270E+00    2.369E+00    2.473E+00
     2.580E+00    2.691E+00    2.807E+00    2.928E+00    3.054E+00    3.185E+00    3.321E+00    3.463E+00    3.610E+00    3.763E+00
     3.920E+00    4.083E+00    4.250E+00    4.421E+00    4.595E+00    4.774E+00    4.955E+00    5.140E+00    5.327E+00    5.517E+00
     5.708E+00    5.902E+00    6.097E+00    6.293E+00    6.490E+00    6.688E+00    6.885E+00    7.083E+00    7.281E+00    7.478E+00
     7.674E+00    7.870E+00    8.063E+00    8.255E+00    8.445E+00    8.633E+00    8.817E+00    8.999E+00    9.178E+00    9.354E+00
     9.525E+00    9.693E+00    9.856E+00    1.001E+01    1.017E+01    1.032E+01    1.046E+01    1.060E+01    1.073E+01    1.085E+01
     1.097E+01    1.108E+01    1.118E+01    1.128E+01    1.137E+01    1.145E+01    1.152E+01    1.159E+01    1.165E+01    1.171E+01
     1.176E+01    1.180E+01    1.184E+01    1.187E+01    1.190E+01    1.192E+01    1.194E+01    1.196E+01    1.197E+01    1.197E+01
     1.198E+01    1.197E+01    1.197E+01    1.196E+01    1.195E+01    1.194E+01    1.192E+01    1.191E+01    1.189E+01    1.187E+01
     1.184E+01    1.182E+01    1.179E+01    1.177E+01    1.174E+01    1.171E+01    1.169E+01    1.166E+01    1.163E+01    1.160E+01
     1.158E+01    1.155E+01    1.153E+01    1.151E+01    1.148E+01    1.146E+01    1.145E+01    1.143E+01
 Ala      Conc. = 1.23E+02
