 LCModel (Version 6.3-1L) Copyright: S.W. Provencher.          Ref.: Magn. Reson. Med. 30:672-679 (1993).                
 Slice#2 Row#11 Col#6  PD_24_press_2_raw_act
 36 lines in following concentration table = NCONC+1
    Conc.  %SD /Cr+PCr  Metabolite                                         
   62.288 117%   0.134 Ala                                                 
    0.000 999%   0.000 Asp                                                 
  223.060  61%   0.481 Cr                                                  
  240.556  59%   0.519 PCr                                                 
   25.809 206% 5.6E-02 GABA                                                
   34.725 152% 7.5E-02 Glc                                                 
  363.570  41%   0.784 Gln                                                 
  511.588  34%   1.103 Glu                                                 
  115.521  12%   0.249 GPC                                                 
    0.000 999%   0.000 PCh                                                 
  140.559  35%   0.303 GSH                                                 
  874.650  21%   1.887 Ins                                                 
   92.588  95%   0.200 Lac                                                 
  684.132   6%   1.476 NAA                                                 
    0.000 999%   0.000 NAAG                                                
   37.722  37% 8.1E-02 Scyllo                                              
  116.966  73%   0.252 Tau                                                 
  164.874  44%   0.356 -CrCH2                                              
  115.521  12%   0.249 GPC+PCh                                             
  684.132   6%   1.476 NAA+NAAG                                            
  463.615   8%   1.000 Cr+PCr                                              
  875.157  28%   1.888 Glu+Gln                                             
  513.416  62%   1.107 Lip13a                                              
  240.989  52%   0.520 Lip13b                                              
    0.000 999%   0.000 Lip09                                               
  694.451  15%   1.498 MM09                                                
  126.760  63%   0.273 Lip20                                               
 1.05E+03  15%   2.267 MM20                                                
  210.248  18%   0.453 MM12                                                
  643.193  13%   1.387 MM14                                                
  315.784  19%   0.681 MM17                                                
  754.405  31%   1.627 Lip13a+Lip13b                                       
 1.61E+03  16%   3.468 MM14+Lip13a+Lip13b+MM12                             
  694.451  15%   1.498 MM09+Lip09                                          
 1.18E+03  15%   2.541 MM20+Lip20                                          
   6 lines in following misc. output table
  FWHM = 0.054 ppm    S/N =   5                                            
  Data shift = 0.023 ppm                                                   
  Ph: -30 deg      -7.3 deg/ppm                                            
  alphaB,S = 6.8E-01,   9.1E+01                                            
   14 spline knots.   Ns = 7(1)                                            
  ( 8) 2 infls.   ( 9) 1 extrs.                                            
  498 points on ppm-axis = NY
      4.000000     3.992357     3.984714     3.977070     3.969427     3.961784     3.954141     3.946497     3.938854     3.931211
      3.923568     3.915925     3.908281     3.900638     3.892995     3.885352     3.877708     3.870065     3.862422     3.854779
      3.847136     3.839492     3.831849     3.824206     3.816563     3.808919     3.801276     3.793633     3.785990     3.778347
      3.770703     3.763060     3.755417     3.747774     3.740130     3.732487     3.724844     3.717201     3.709558     3.701914
      3.694271     3.686628     3.678985     3.671341     3.663698     3.656055     3.648412     3.640769     3.633125     3.625482
      3.617839     3.610196     3.602552     3.594909     3.587266     3.579623     3.571980     3.564336     3.556693     3.549050
      3.541407     3.533763     3.526120     3.518477     3.510834     3.503191     3.495547     3.487904     3.480261     3.472618
      3.464974     3.457331     3.449688     3.442045     3.434402     3.426758     3.419115     3.411472     3.403829     3.396185
      3.388542     3.380899     3.373256     3.365613     3.357969     3.350326     3.342683     3.335040     3.327396     3.319753
      3.312110     3.304467     3.296824     3.289180     3.281537     3.273894     3.266251     3.258607     3.250964     3.243321
      3.235678     3.228034     3.220391     3.212748     3.205105     3.197462     3.189818     3.182175     3.174532     3.166889
      3.159245     3.151602     3.143959     3.136316     3.128673     3.121029     3.113386     3.105743     3.098100     3.090456
      3.082813     3.075170     3.067527     3.059884     3.052240     3.044597     3.036954     3.029311     3.021667     3.014024
      3.006381     2.998738     2.991095     2.983451     2.975808     2.968165     2.960522     2.952878     2.945235     2.937592
      2.929949     2.922306     2.914662     2.907019     2.899376     2.891733     2.884089     2.876446     2.868803     2.861160
      2.853517     2.845873     2.838230     2.830587     2.822944     2.815300     2.807657     2.800014     2.792371     2.784728
      2.777084     2.769441     2.761798     2.754155     2.746511     2.738868     2.731225     2.723582     2.715939     2.708295
      2.700652     2.693009     2.685366     2.677722     2.670079     2.662436     2.654793     2.647150     2.639506     2.631863
      2.624220     2.616577     2.608933     2.601290     2.593647     2.586004     2.578361     2.570717     2.563074     2.555431
      2.547788     2.540144     2.532501     2.524858     2.517215     2.509572     2.501928     2.494285     2.486642     2.478999
      2.471355     2.463712     2.456069     2.448426     2.440783     2.433139     2.425496     2.417853     2.410210     2.402566
      2.394923     2.387280     2.379637     2.371994     2.364350     2.356707     2.349064     2.341421     2.333777     2.326134
      2.318491     2.310848     2.303205     2.295561     2.287918     2.280275     2.272632     2.264988     2.257345     2.249702
      2.242059     2.234416     2.226772     2.219129     2.211486     2.203843     2.196199     2.188556     2.180913     2.173270
      2.165627     2.157983     2.150340     2.142697     2.135054     2.127410     2.119767     2.112124     2.104481     2.096838
      2.089194     2.081551     2.073908     2.066265     2.058621     2.050978     2.043335     2.035692     2.028049     2.020405
      2.012762     2.005119     1.997476     1.989833     1.982190     1.974546     1.966903     1.959260     1.951617     1.943974
      1.936331     1.928688     1.921045     1.913402     1.905759     1.898115     1.890472     1.882829     1.875186     1.867543
      1.859900     1.852257     1.844614     1.836971     1.829327     1.821684     1.814041     1.806398     1.798755     1.791112
      1.783469     1.775826     1.768183     1.760540     1.752896     1.745253     1.737610     1.729967     1.722324     1.714681
      1.707038     1.699395     1.691752     1.684108     1.676465     1.668822     1.661179     1.653536     1.645893     1.638250
      1.630607     1.622964     1.615321     1.607677     1.600034     1.592391     1.584748     1.577105     1.569462     1.561819
      1.554176     1.546533     1.538890     1.531246     1.523603     1.515960     1.508317     1.500674     1.493031     1.485388
      1.477745     1.470102     1.462458     1.454815     1.447172     1.439529     1.431886     1.424243     1.416600     1.408957
      1.401314     1.393671     1.386027     1.378384     1.370741     1.363098     1.355455     1.347812     1.340169     1.332526
      1.324883     1.317240     1.309596     1.301953     1.294310     1.286667     1.279024     1.271381     1.263738     1.256095
      1.248452     1.240808     1.233165     1.225522     1.217879     1.210236     1.202593     1.194950     1.187307     1.179664
      1.172021     1.164377     1.156734     1.149091     1.141448     1.133805     1.126162     1.118519     1.110876     1.103233
      1.095590     1.087946     1.080303     1.072660     1.065017     1.057374     1.049731     1.042088     1.034445     1.026802
      1.019158     1.011515     1.003872     0.996229     0.988586     0.980943     0.973300     0.965657     0.958014     0.950371
      0.942727     0.935084     0.927441     0.919798     0.912155     0.904512     0.896869     0.889226     0.881583     0.873940
      0.866296     0.858653     0.851010     0.843367     0.835724     0.828081     0.820438     0.812795     0.805152     0.797508
      0.789865     0.782222     0.774579     0.766936     0.759293     0.751650     0.744007     0.736364     0.728721     0.721077
      0.713434     0.705791     0.698148     0.690505     0.682862     0.675219     0.667576     0.659933     0.652290     0.644646
      0.637003     0.629360     0.621717     0.614074     0.606431     0.598788     0.591145     0.583502     0.575858     0.568215
      0.560572     0.552929     0.545286     0.537643     0.530000     0.522357     0.514714     0.507071     0.499427     0.491784
      0.484141     0.476498     0.468855     0.461212     0.453569     0.445925     0.438282     0.430639     0.422996     0.415353
      0.407710     0.400067     0.392424     0.384780     0.377137     0.369494     0.361851     0.354208     0.346565     0.338922
      0.331278     0.323635     0.315992     0.308349     0.300706     0.293063     0.285420     0.277777     0.270133     0.262490
      0.254847     0.247204     0.239561     0.231918     0.224275     0.216631     0.208988     0.201345
 NY phased data points follow
  -8.81786E+01 -8.72668E+01 -8.39131E+01 -8.29690E+01 -8.03377E+01 -7.88532E+01 -8.02886E+01 -7.31551E+01 -7.17349E+01 -6.87242E+01
  -6.85560E+01 -6.79661E+01 -6.61099E+01 -6.89004E+01 -6.85550E+01 -6.89698E+01 -7.02844E+01 -6.83003E+01 -7.27936E+01 -6.90945E+01
  -6.88273E+01 -6.94874E+01 -6.72300E+01 -6.58931E+01 -6.33852E+01 -6.37239E+01 -6.49765E+01 -6.10902E+01 -6.32542E+01 -6.19003E+01
  -6.12126E+01 -5.64723E+01 -5.57565E+01 -5.68037E+01 -5.51734E+01 -5.64882E+01 -5.69766E+01 -5.18635E+01 -5.32480E+01 -5.52200E+01
  -5.64778E+01 -5.37229E+01 -4.99954E+01 -5.09841E+01 -4.94782E+01 -4.95017E+01 -4.64064E+01 -5.05288E+01 -4.32372E+01 -4.40757E+01
  -4.86092E+01 -4.77635E+01 -5.04548E+01 -4.92882E+01 -4.89452E+01 -4.25758E+01 -4.57089E+01 -4.54277E+01 -4.59661E+01 -4.37820E+01
  -4.86771E+01 -4.33787E+01 -4.30516E+01 -4.67284E+01 -4.37394E+01 -4.55519E+01 -4.32487E+01 -4.15407E+01 -4.18157E+01 -3.95545E+01
  -4.31780E+01 -3.98073E+01 -4.12633E+01 -3.90070E+01 -3.99464E+01 -3.68718E+01 -4.11464E+01 -3.64485E+01 -3.77469E+01 -3.85451E+01
  -3.75550E+01 -3.66119E+01 -3.67225E+01 -3.73325E+01 -3.59222E+01 -3.59172E+01 -3.56277E+01 -3.61921E+01 -3.42312E+01 -3.01960E+01
  -3.31441E+01 -3.36931E+01 -3.43944E+01 -3.14391E+01 -3.28138E+01 -3.17429E+01 -2.75824E+01 -2.88065E+01 -3.15595E+01 -2.56896E+01
  -2.34515E+01 -2.22641E+01 -2.50197E+01 -2.63106E+01 -2.25166E+01 -2.05647E+01 -2.48642E+01 -2.45991E+01 -2.85129E+01 -2.85621E+01
  -2.83046E+01 -2.74434E+01 -2.84983E+01 -2.78175E+01 -2.61607E+01 -3.06924E+01 -3.14698E+01 -2.52341E+01 -2.83424E+01 -2.58584E+01
  -2.65956E+01 -2.51135E+01 -2.59388E+01 -2.24841E+01 -1.72393E+01 -1.55622E+01 -1.50825E+01 -1.13173E+01 -6.83010E+00 -1.05857E+01
  -1.72717E+01 -1.85631E+01 -1.93377E+01 -2.36413E+01 -2.21343E+01 -2.33452E+01 -2.17345E+01 -2.30022E+01 -2.21260E+01 -2.46036E+01
  -2.45183E+01 -2.41324E+01 -2.49415E+01 -2.55266E+01 -2.45530E+01 -2.55619E+01 -2.32765E+01 -2.48443E+01 -2.37461E+01 -2.28865E+01
  -2.44246E+01 -2.51556E+01 -2.29516E+01 -2.15338E+01 -2.37722E+01 -2.40685E+01 -2.04050E+01 -2.19908E+01 -2.35312E+01 -1.85849E+01
  -1.81567E+01 -2.10124E+01 -2.74296E+01 -2.02736E+01 -2.28049E+01 -1.97368E+01 -2.25383E+01 -2.29900E+01 -1.56914E+01 -2.10614E+01
  -2.26745E+01 -2.46538E+01 -2.38560E+01 -2.64743E+01 -2.60222E+01 -2.55001E+01 -2.71312E+01 -2.11738E+01 -2.37910E+01 -2.57206E+01
  -2.15530E+01 -2.57006E+01 -2.50540E+01 -2.49263E+01 -2.41672E+01 -2.06838E+01 -2.21868E+01 -1.92575E+01 -2.28810E+01 -2.09269E+01
  -1.75368E+01 -1.98924E+01 -1.76340E+01 -1.86549E+01 -2.03709E+01 -1.80625E+01 -1.88599E+01 -1.98129E+01 -1.72999E+01 -1.86310E+01
  -1.72546E+01 -1.87502E+01 -1.49077E+01 -1.78898E+01 -1.56339E+01 -1.80107E+01 -1.86625E+01 -1.58375E+01 -1.84449E+01 -1.81064E+01
  -1.80473E+01 -1.75636E+01 -1.48417E+01 -1.42540E+01 -1.12936E+01 -1.24426E+01 -1.45301E+01 -1.10647E+01 -1.26867E+01 -1.76972E+01
  -1.29891E+01 -1.35364E+01 -1.48518E+01 -1.41164E+01 -1.45551E+01 -1.59922E+01 -1.39638E+01 -1.13554E+01 -1.03450E+01 -1.29908E+01
  -1.02119E+01 -1.08686E+01 -1.11696E+01 -9.83352E+00 -1.34841E+01 -1.11368E+01 -1.09673E+01 -1.04485E+01 -1.14534E+01 -1.36928E+01
  -8.55705E+00 -1.12452E+01 -1.18484E+01 -9.74178E+00 -9.73240E+00 -1.04568E+01 -1.31393E+01 -1.13129E+01 -9.58615E+00 -9.57602E+00
  -7.73224E+00 -1.02305E+01 -8.40089E+00 -6.74249E+00 -5.58376E+00 -3.44410E+00 -4.25371E+00 -6.02769E-01  8.03544E+00  1.05708E+01
   1.19876E+01  1.31046E+01  1.28289E+01  5.27731E+00  1.45830E+00 -2.98035E+00 -4.74649E+00 -5.43261E+00 -9.78031E+00 -1.13114E+01
  -9.11317E+00 -1.09187E+01 -1.09724E+01 -1.23097E+01 -1.12811E+01 -9.22601E+00 -1.16364E+01 -6.02542E+00 -1.01490E+01 -1.10965E+01
  -1.05543E+01 -1.04961E+01 -1.02556E+01 -8.86726E+00 -8.98427E+00 -1.19908E+01 -1.13149E+01 -1.15872E+01 -1.00696E+01 -1.25864E+01
  -1.23857E+01 -1.02006E+01 -1.13577E+01 -8.39261E+00 -1.20298E+01 -9.91417E+00 -1.33592E+01 -9.64225E+00 -1.14249E+01 -1.37243E+01
  -1.27051E+01 -1.28331E+01 -1.51782E+01 -1.20376E+01 -1.11341E+01 -1.32812E+01 -1.21317E+01 -1.13430E+01 -1.42900E+01 -1.62665E+01
  -1.54946E+01 -1.08057E+01 -7.67209E+00 -9.35709E+00 -4.58946E+00 -6.70489E+00 -7.05031E+00 -6.22549E+00 -6.06803E+00 -2.28369E+00
  -5.45796E+00 -3.34343E+00 -3.37938E+00 -3.23575E+00 -6.51565E-01 -9.34433E-01  2.25897E-01 -2.21730E+00 -5.78756E+00 -1.83534E-01
  -3.43654E+00 -4.41120E+00 -1.80836E+00 -3.48333E+00 -4.67704E+00 -3.23540E+00 -6.12458E+00 -3.83985E+00 -7.07201E+00 -4.83050E+00
  -5.94549E+00 -5.73195E+00 -6.21534E+00 -6.82336E+00 -4.17909E+00 -2.40564E+00 -7.12593E+00 -3.91098E+00 -9.58816E-01 -4.65949E+00
  -5.97608E+00 -5.10349E+00 -4.02757E+00 -5.77048E+00 -2.02111E+00 -3.46453E+00 -4.12450E+00 -8.68942E-01 -2.19337E+00 -6.93659E+00
  -1.48368E+00 -6.97275E+00 -5.62782E+00 -7.28553E+00 -4.43382E+00 -4.63411E+00 -7.25016E+00 -4.72815E+00 -8.18103E+00 -7.07065E+00
  -6.12945E+00 -2.78372E+00 -6.42163E+00 -6.85911E+00 -7.44514E+00 -6.45513E+00 -5.78998E+00 -7.22035E+00 -9.31141E+00 -5.31458E+00
  -6.24865E+00 -5.76786E+00 -6.38443E+00 -5.85428E+00 -4.23960E+00 -4.09436E+00 -2.69021E+00 -8.81008E+00 -6.01838E+00 -4.99949E+00
  -5.70261E+00 -5.99194E+00 -5.35263E+00 -9.38221E+00 -7.93796E+00 -9.39150E+00 -6.75304E+00 -5.57611E+00 -4.36127E+00 -9.43264E+00
  -8.04939E+00 -5.44428E+00 -4.96262E+00 -7.61361E+00 -9.62815E-01 -5.63240E+00 -4.47906E+00 -2.88161E+00 -4.21573E+00 -4.35614E+00
  -1.88077E+00 -7.67986E+00 -5.52749E+00 -6.20830E+00 -6.67715E+00 -7.26130E+00 -7.97401E+00 -4.23149E+00 -5.71820E+00 -8.47264E+00
  -7.39726E+00 -5.69554E+00 -5.88924E+00 -6.03522E+00 -4.37539E+00 -8.33722E+00 -5.27993E+00 -4.60339E+00 -6.60759E+00 -4.28212E+00
  -5.42783E+00 -4.32813E+00 -3.87478E+00 -3.97694E+00 -5.29287E+00 -3.91885E+00 -4.97896E+00 -5.38359E+00 -3.33619E+00 -3.97848E+00
  -8.60365E+00 -7.46510E+00 -5.07344E+00 -3.77698E+00 -3.83955E+00 -1.52756E+00 -4.57404E+00 -4.41404E+00 -4.01994E+00 -2.66095E+00
  -5.64016E+00 -3.23391E+00 -4.03442E+00 -5.22139E+00 -3.23538E+00 -4.63141E+00 -2.80848E+00 -5.58114E+00 -2.10795E+00 -4.76277E+00
  -2.82729E+00 -4.40044E+00 -1.09619E+00 -1.00853E+00 -2.72234E+00 -1.60356E+00 -5.48516E+00 -4.30135E+00 -4.65115E+00 -3.49306E+00
  -6.03818E+00 -2.91727E+00 -3.43451E+00 -2.85893E+00 -1.30603E+00 -1.84001E+00 -4.74646E+00 -1.52229E+00 -4.42316E+00 -3.86473E+00
  -5.34628E+00 -4.55648E+00 -3.29702E+00 -4.68731E+00 -2.81937E-01 -2.34780E+00 -2.22916E+00 -3.82431E+00  1.22842E+00 -2.07901E+00
   1.71040E-01  6.98880E-01  1.02129E+00 -1.25495E+00 -3.51829E+00 -1.65299E+00 -4.31155E+00 -1.72615E+00
 NY points of the fit to the data follow
  -8.12501E+01 -8.09548E+01 -8.04940E+01 -7.98061E+01 -7.88622E+01 -7.76562E+01 -7.61947E+01 -7.44595E+01 -7.25636E+01 -7.07137E+01
  -6.91028E+01 -6.79250E+01 -6.73700E+01 -6.74734E+01 -6.80045E+01 -6.85880E+01 -6.89557E+01 -6.90870E+01 -6.89975E+01 -6.86813E+01
  -6.81869E+01 -6.76004E+01 -6.70268E+01 -6.64398E+01 -6.58248E+01 -6.51526E+01 -6.43161E+01 -6.32365E+01 -6.19279E+01 -6.04680E+01
  -5.89582E+01 -5.76073E+01 -5.66765E+01 -5.62747E+01 -5.63294E+01 -5.66614E+01 -5.70695E+01 -5.74075E+01 -5.75401E+01 -5.72814E+01
  -5.65364E+01 -5.53847E+01 -5.39318E+01 -5.22474E+01 -5.04855E+01 -4.89028E+01 -4.76980E+01 -4.70043E+01 -4.69262E+01 -4.74507E+01
  -4.83511E+01 -4.91992E+01 -4.96466E+01 -4.96446E+01 -4.92754E+01 -4.85888E+01 -4.76373E+01 -4.65863E+01 -4.56244E+01 -4.48488E+01
  -4.43034E+01 -4.40129E+01 -4.39223E+01 -4.39140E+01 -4.38198E+01 -4.35374E+01 -4.30738E+01 -4.24630E+01 -4.17417E+01 -4.09902E+01
  -4.02908E+01 -3.96818E+01 -3.91646E+01 -3.87579E+01 -3.84763E+01 -3.82771E+01 -3.81106E+01 -3.79637E+01 -3.78227E+01 -3.76534E+01
  -3.73903E+01 -3.70681E+01 -3.67107E+01 -3.63410E+01 -3.60095E+01 -3.57574E+01 -3.55812E+01 -3.54479E+01 -3.53320E+01 -3.51925E+01
  -3.49846E+01 -3.46675E+01 -3.42639E+01 -3.38629E+01 -3.35017E+01 -3.29911E+01 -3.21013E+01 -3.09849E+01 -2.95754E+01 -2.77466E+01
  -2.56961E+01 -2.38280E+01 -2.24309E+01 -2.17070E+01 -2.18901E+01 -2.30074E+01 -2.46581E+01 -2.62522E+01 -2.74542E+01 -2.82790E+01
  -2.88524E+01 -2.91385E+01 -2.90969E+01 -2.89423E+01 -2.87601E+01 -2.85688E+01 -2.83730E+01 -2.81609E+01 -2.79078E+01 -2.75099E+01
  -2.66093E+01 -2.51666E+01 -2.33301E+01 -2.09519E+01 -1.80756E+01 -1.52033E+01 -1.28785E+01 -1.14027E+01 -1.10921E+01 -1.22272E+01
  -1.45507E+01 -1.72661E+01 -1.96607E+01 -2.14989E+01 -2.29181E+01 -2.40035E+01 -2.45866E+01 -2.47480E+01 -2.47028E+01 -2.45033E+01
  -2.42100E+01 -2.38992E+01 -2.36272E+01 -2.34245E+01 -2.33109E+01 -2.32720E+01 -2.32696E+01 -2.32771E+01 -2.32805E+01 -2.32695E+01
  -2.32443E+01 -2.32008E+01 -2.31445E+01 -2.30783E+01 -2.30182E+01 -2.29669E+01 -2.29210E+01 -2.28875E+01 -2.28600E+01 -2.28348E+01
  -2.28018E+01 -2.27394E+01 -2.26390E+01 -2.25087E+01 -2.23717E+01 -2.22623E+01 -2.22163E+01 -2.22442E+01 -2.23133E+01 -2.23859E+01
  -2.24506E+01 -2.24902E+01 -2.25163E+01 -2.25336E+01 -2.25233E+01 -2.24727E+01 -2.23816E+01 -2.22573E+01 -2.21056E+01 -2.19414E+01
  -2.18047E+01 -2.17101E+01 -2.16257E+01 -2.15082E+01 -2.13249E+01 -2.10708E+01 -2.07482E+01 -2.03504E+01 -1.98764E+01 -1.93668E+01
  -1.89130E+01 -1.86153E+01 -1.84981E+01 -1.85272E+01 -1.86444E+01 -1.87717E+01 -1.88183E+01 -1.86919E+01 -1.83523E+01 -1.78245E+01
  -1.71686E+01 -1.64744E+01 -1.58880E+01 -1.56036E+01 -1.56605E+01 -1.60221E+01 -1.66651E+01 -1.74656E+01 -1.81767E+01 -1.85542E+01
  -1.85081E+01 -1.80054E+01 -1.70528E+01 -1.58385E+01 -1.46903E+01 -1.38828E+01 -1.35330E+01 -1.36419E+01 -1.41838E+01 -1.50490E+01
  -1.58926E+01 -1.64111E+01 -1.65204E+01 -1.62299E+01 -1.55785E+01 -1.46672E+01 -1.37297E+01 -1.29957E+01 -1.25556E+01 -1.23753E+01
  -1.23335E+01 -1.23534E+01 -1.23930E+01 -1.23511E+01 -1.21327E+01 -1.17790E+01 -1.14158E+01 -1.10820E+01 -1.07949E+01 -1.06269E+01
  -1.06494E+01 -1.08155E+01 -1.10073E+01 -1.11340E+01 -1.11374E+01 -1.09916E+01 -1.06946E+01 -1.03078E+01 -9.91123E+00 -9.54012E+00
  -9.17937E+00 -8.82258E+00 -8.41239E+00 -7.49853E+00 -5.79162E+00 -3.61377E+00 -8.17178E-01  2.75775E+00  6.56267E+00  9.74104E+00
   1.17867E+01  1.22928E+01  1.07559E+01  7.24963E+00  2.82411E+00 -1.28101E+00 -4.48906E+00 -6.90465E+00 -8.75959E+00 -9.90446E+00
  -1.03418E+01 -1.05398E+01 -1.06487E+01 -1.06992E+01 -1.07204E+01 -1.07416E+01 -1.07788E+01 -1.08426E+01 -1.09300E+01 -1.10293E+01
  -1.11288E+01 -1.12216E+01 -1.12985E+01 -1.13525E+01 -1.13859E+01 -1.14049E+01 -1.14141E+01 -1.14176E+01 -1.14182E+01 -1.14177E+01
  -1.14167E+01 -1.14135E+01 -1.14075E+01 -1.13981E+01 -1.13843E+01 -1.13649E+01 -1.13392E+01 -1.13066E+01 -1.12664E+01 -1.12169E+01
  -1.11571E+01 -1.10851E+01 -1.09988E+01 -1.08956E+01 -1.07729E+01 -1.06277E+01 -1.04574E+01 -1.02590E+01 -1.00298E+01 -9.76770E+00
  -9.47152E+00 -9.14093E+00 -8.77676E+00 -8.38101E+00 -7.95701E+00 -7.50915E+00 -7.04290E+00 -6.56413E+00 -6.07838E+00 -5.58812E+00
  -5.09103E+00 -4.60913E+00 -4.17033E+00 -3.78162E+00 -3.46701E+00 -3.26786E+00 -3.20858E+00 -3.28808E+00 -3.48032E+00 -3.74174E+00
  -4.02430E+00 -4.25507E+00 -4.38241E+00 -4.41664E+00 -4.40408E+00 -4.37465E+00 -4.34476E+00 -4.36419E+00 -4.47580E+00 -4.65482E+00
  -4.83055E+00 -4.96293E+00 -5.06140E+00 -5.11608E+00 -5.12376E+00 -5.11750E+00 -5.14280E+00 -5.20465E+00 -5.26660E+00 -5.29828E+00
  -5.26453E+00 -5.08455E+00 -4.71776E+00 -4.22918E+00 -3.73474E+00 -3.31670E+00 -3.02386E+00 -2.93245E+00 -3.09814E+00 -3.46809E+00
  -3.94201E+00 -4.43634E+00 -4.91107E+00 -5.35036E+00 -5.72254E+00 -6.01497E+00 -6.24735E+00 -6.43415E+00 -6.58602E+00 -6.71130E+00
  -6.81629E+00 -6.90526E+00 -6.98083E+00 -7.04426E+00 -7.09594E+00 -7.13561E+00 -7.16275E+00 -7.17661E+00 -7.17650E+00 -7.16172E+00
  -7.13176E+00 -7.08613E+00 -7.02460E+00 -6.94703E+00 -6.85356E+00 -6.74450E+00 -6.62046E+00 -6.48228E+00 -6.33115E+00 -6.16856E+00
  -5.99639E+00 -5.81678E+00 -5.63230E+00 -5.44571E+00 -5.26009E+00 -5.07864E+00 -4.90473E+00 -4.74162E+00 -4.59250E+00 -4.46028E+00
  -4.34754E+00 -4.25636E+00 -4.18830E+00 -4.14425E+00 -4.12447E+00 -4.12851E+00 -4.15530E+00 -4.20314E+00 -4.26987E+00 -4.35291E+00
  -4.44945E+00 -4.55639E+00 -4.67064E+00 -4.78911E+00 -4.90888E+00 -5.02721E+00 -5.14172E+00 -5.25032E+00 -5.35132E+00 -5.44339E+00
  -5.52557E+00 -5.59721E+00 -5.65799E+00 -5.70783E+00 -5.74691E+00 -5.77553E+00 -5.79417E+00 -5.80337E+00 -5.80376E+00 -5.79598E+00
  -5.78072E+00 -5.75860E+00 -5.73028E+00 -5.69633E+00 -5.65734E+00 -5.61382E+00 -5.56628E+00 -5.51513E+00 -5.46080E+00 -5.40364E+00
  -5.34400E+00 -5.28217E+00 -5.21845E+00 -5.15306E+00 -5.08625E+00 -5.01822E+00 -4.94918E+00 -4.87929E+00 -4.80874E+00 -4.73764E+00
  -4.66617E+00 -4.59443E+00 -4.52258E+00 -4.45070E+00 -4.37883E+00 -4.30699E+00 -4.23522E+00 -4.16354E+00 -4.09198E+00 -4.02053E+00
  -3.94922E+00 -3.87805E+00 -3.80702E+00 -3.73615E+00 -3.66543E+00 -3.59486E+00 -3.52445E+00 -3.45417E+00 -3.38405E+00 -3.31405E+00
  -3.24420E+00 -3.17446E+00 -3.10484E+00 -3.03532E+00 -2.96589E+00 -2.89655E+00 -2.82728E+00 -2.75805E+00 -2.68888E+00 -2.61973E+00
  -2.55061E+00 -2.48148E+00 -2.41235E+00 -2.34317E+00 -2.27396E+00 -2.20468E+00 -2.13534E+00 -2.06589E+00 -1.99633E+00 -1.92662E+00
  -1.85678E+00 -1.78676E+00 -1.71656E+00 -1.64614E+00 -1.57548E+00 -1.50457E+00 -1.43339E+00 -1.36189E+00
 NY background values follow
    -8.308E+01   -8.243E+01   -8.178E+01   -8.113E+01   -8.048E+01   -7.983E+01   -7.918E+01   -7.853E+01   -7.788E+01   -7.723E+01
    -7.658E+01   -7.594E+01   -7.529E+01   -7.465E+01   -7.400E+01   -7.336E+01   -7.272E+01   -7.208E+01   -7.145E+01   -7.081E+01
    -7.018E+01   -6.955E+01   -6.892E+01   -6.830E+01   -6.767E+01   -6.705E+01   -6.644E+01   -6.582E+01   -6.521E+01   -6.460E+01
    -6.399E+01   -6.339E+01   -6.279E+01   -6.219E+01   -6.160E+01   -6.101E+01   -6.043E+01   -5.984E+01   -5.927E+01   -5.869E+01
    -5.813E+01   -5.756E+01   -5.700E+01   -5.645E+01   -5.589E+01   -5.535E+01   -5.481E+01   -5.427E+01   -5.374E+01   -5.321E+01
    -5.269E+01   -5.218E+01   -5.166E+01   -5.116E+01   -5.066E+01   -5.016E+01   -4.967E+01   -4.918E+01   -4.870E+01   -4.822E+01
    -4.775E+01   -4.728E+01   -4.682E+01   -4.636E+01   -4.591E+01   -4.546E+01   -4.502E+01   -4.459E+01   -4.415E+01   -4.373E+01
    -4.331E+01   -4.289E+01   -4.248E+01   -4.207E+01   -4.167E+01   -4.127E+01   -4.088E+01   -4.049E+01   -4.011E+01   -3.973E+01
    -3.936E+01   -3.900E+01   -3.864E+01   -3.828E+01   -3.793E+01   -3.758E+01   -3.724E+01   -3.690E+01   -3.657E+01   -3.625E+01
    -3.593E+01   -3.561E+01   -3.530E+01   -3.500E+01   -3.469E+01   -3.440E+01   -3.411E+01   -3.382E+01   -3.354E+01   -3.326E+01
    -3.299E+01   -3.272E+01   -3.246E+01   -3.220E+01   -3.195E+01   -3.170E+01   -3.145E+01   -3.121E+01   -3.097E+01   -3.074E+01
    -3.051E+01   -3.029E+01   -3.007E+01   -2.985E+01   -2.964E+01   -2.943E+01   -2.922E+01   -2.902E+01   -2.882E+01   -2.862E+01
    -2.843E+01   -2.824E+01   -2.806E+01   -2.788E+01   -2.770E+01   -2.752E+01   -2.735E+01   -2.718E+01   -2.701E+01   -2.685E+01
    -2.669E+01   -2.653E+01   -2.638E+01   -2.623E+01   -2.608E+01   -2.593E+01   -2.579E+01   -2.564E+01   -2.551E+01   -2.537E+01
    -2.523E+01   -2.510E+01   -2.497E+01   -2.484E+01   -2.472E+01   -2.459E+01   -2.447E+01   -2.435E+01   -2.423E+01   -2.411E+01
    -2.399E+01   -2.388E+01   -2.376E+01   -2.365E+01   -2.354E+01   -2.343E+01   -2.332E+01   -2.321E+01   -2.310E+01   -2.300E+01
    -2.289E+01   -2.279E+01   -2.268E+01   -2.258E+01   -2.247E+01   -2.237E+01   -2.226E+01   -2.216E+01   -2.206E+01   -2.195E+01
    -2.185E+01   -2.175E+01   -2.164E+01   -2.154E+01   -2.143E+01   -2.133E+01   -2.122E+01   -2.111E+01   -2.101E+01   -2.090E+01
    -2.079E+01   -2.068E+01   -2.057E+01   -2.046E+01   -2.034E+01   -2.023E+01   -2.011E+01   -2.000E+01   -1.988E+01   -1.977E+01
    -1.965E+01   -1.953E+01   -1.941E+01   -1.930E+01   -1.918E+01   -1.906E+01   -1.894E+01   -1.882E+01   -1.870E+01   -1.858E+01
    -1.847E+01   -1.835E+01   -1.823E+01   -1.811E+01   -1.799E+01   -1.788E+01   -1.776E+01   -1.765E+01   -1.753E+01   -1.742E+01
    -1.730E+01   -1.719E+01   -1.708E+01   -1.697E+01   -1.686E+01   -1.675E+01   -1.664E+01   -1.654E+01   -1.643E+01   -1.633E+01
    -1.623E+01   -1.613E+01   -1.603E+01   -1.593E+01   -1.583E+01   -1.574E+01   -1.565E+01   -1.556E+01   -1.547E+01   -1.538E+01
    -1.530E+01   -1.521E+01   -1.513E+01   -1.505E+01   -1.498E+01   -1.490E+01   -1.482E+01   -1.475E+01   -1.468E+01   -1.461E+01
    -1.454E+01   -1.447E+01   -1.441E+01   -1.434E+01   -1.428E+01   -1.422E+01   -1.416E+01   -1.410E+01   -1.404E+01   -1.398E+01
    -1.392E+01   -1.387E+01   -1.381E+01   -1.376E+01   -1.371E+01   -1.366E+01   -1.361E+01   -1.356E+01   -1.351E+01   -1.346E+01
    -1.342E+01   -1.337E+01   -1.333E+01   -1.328E+01   -1.324E+01   -1.319E+01   -1.315E+01   -1.311E+01   -1.307E+01   -1.303E+01
    -1.299E+01   -1.295E+01   -1.291E+01   -1.287E+01   -1.283E+01   -1.279E+01   -1.275E+01   -1.271E+01   -1.268E+01   -1.264E+01
    -1.260E+01   -1.257E+01   -1.253E+01   -1.249E+01   -1.246E+01   -1.242E+01   -1.239E+01   -1.235E+01   -1.232E+01   -1.228E+01
    -1.225E+01   -1.222E+01   -1.218E+01   -1.215E+01   -1.211E+01   -1.208E+01   -1.205E+01   -1.201E+01   -1.198E+01   -1.195E+01
    -1.191E+01   -1.188E+01   -1.185E+01   -1.181E+01   -1.178E+01   -1.175E+01   -1.171E+01   -1.168E+01   -1.165E+01   -1.161E+01
    -1.158E+01   -1.154E+01   -1.151E+01   -1.148E+01   -1.144E+01   -1.141E+01   -1.137E+01   -1.134E+01   -1.131E+01   -1.127E+01
    -1.124E+01   -1.120E+01   -1.117E+01   -1.113E+01   -1.110E+01   -1.106E+01   -1.103E+01   -1.099E+01   -1.095E+01   -1.092E+01
    -1.088E+01   -1.085E+01   -1.081E+01   -1.078E+01   -1.074E+01   -1.071E+01   -1.067E+01   -1.064E+01   -1.060E+01   -1.057E+01
    -1.053E+01   -1.050E+01   -1.047E+01   -1.043E+01   -1.040E+01   -1.036E+01   -1.033E+01   -1.030E+01   -1.027E+01   -1.023E+01
    -1.020E+01   -1.017E+01   -1.014E+01   -1.011E+01   -1.008E+01   -1.005E+01   -1.002E+01   -9.987E+00   -9.958E+00   -9.929E+00
    -9.901E+00   -9.873E+00   -9.846E+00   -9.819E+00   -9.792E+00   -9.766E+00   -9.741E+00   -9.715E+00   -9.690E+00   -9.665E+00
    -9.639E+00   -9.614E+00   -9.589E+00   -9.564E+00   -9.539E+00   -9.514E+00   -9.488E+00   -9.462E+00   -9.436E+00   -9.410E+00
    -9.383E+00   -9.356E+00   -9.328E+00   -9.299E+00   -9.270E+00   -9.241E+00   -9.210E+00   -9.179E+00   -9.147E+00   -9.114E+00
    -9.080E+00   -9.046E+00   -9.010E+00   -8.973E+00   -8.935E+00   -8.896E+00   -8.856E+00   -8.814E+00   -8.771E+00   -8.727E+00
    -8.681E+00   -8.634E+00   -8.585E+00   -8.535E+00   -8.483E+00   -8.429E+00   -8.374E+00   -8.317E+00   -8.258E+00   -8.197E+00
    -8.135E+00   -8.071E+00   -8.006E+00   -7.938E+00   -7.870E+00   -7.800E+00   -7.729E+00   -7.656E+00   -7.582E+00   -7.507E+00
    -7.431E+00   -7.354E+00   -7.276E+00   -7.197E+00   -7.117E+00   -7.036E+00   -6.954E+00   -6.872E+00   -6.788E+00   -6.705E+00
    -6.620E+00   -6.535E+00   -6.450E+00   -6.364E+00   -6.278E+00   -6.192E+00   -6.105E+00   -6.018E+00   -5.931E+00   -5.844E+00
    -5.757E+00   -5.670E+00   -5.583E+00   -5.496E+00   -5.409E+00   -5.323E+00   -5.236E+00   -5.151E+00   -5.065E+00   -4.980E+00
    -4.896E+00   -4.812E+00   -4.729E+00   -4.646E+00   -4.565E+00   -4.483E+00   -4.403E+00   -4.323E+00   -4.243E+00   -4.165E+00
    -4.086E+00   -4.008E+00   -3.931E+00   -3.854E+00   -3.778E+00   -3.702E+00   -3.626E+00   -3.551E+00   -3.476E+00   -3.402E+00
    -3.328E+00   -3.254E+00   -3.181E+00   -3.108E+00   -3.035E+00   -2.962E+00   -2.890E+00   -2.817E+00   -2.745E+00   -2.674E+00
    -2.602E+00   -2.530E+00   -2.459E+00   -2.387E+00   -2.316E+00   -2.244E+00   -2.173E+00   -2.102E+00   -2.030E+00   -1.959E+00
    -1.888E+00   -1.816E+00   -1.745E+00   -1.673E+00   -1.601E+00   -1.529E+00   -1.457E+00   -1.384E+00
 Ala      Conc. = 6.23E+01
